Data from red_shiny_book_FLMS001491_00062.txt Node
Date: Wed Feb 08 15:25:12 GMT 2017
User: dcchb
Spectrometer: FLMS00149
Trigger mode: 0
Integration Time (sec): 2.000000E-2
Scans to average: 10
Electric dark correction enabled: true
Nonlinearity correction enabled: false
Boxcar width: 0
XAxis mode: Wavelengths
Number of Pixels in Spectrum: 2048
>>>>>Begin Spectral Data<<<<<
341.393	-4.1
341.776	-4.1
342.16	-4.1
342.543	-63.3
342.927	-60.82
343.31	-63.08
343.693	-58.56
344.077	-67.37
344.46	-54.72
344.843	-56.75
345.226	-48.84
345.61	-32.34
345.993	-19.24
346.376	-18.11
346.759	-12.23
347.142	37.03
347.525	60.31
347.908	70.7
348.291	59.41
348.674	86.98
349.057	116.8
349.44	139.18
349.823	135.11
350.206	157.26
350.588	195.67
350.971	213.98
351.354	205.62
351.737	223.47
352.119	239.06
352.502	272.51
352.884	253.07
353.267	267.31
353.65	309.79
354.032	288.33
354.414	296.69
354.797	319.74
355.179	306.86
355.562	319.51
355.944	334.43
356.326	337.14
356.709	316.35
357.091	335.56
357.473	346.86
357.855	318.16
358.238	340.3
358.62	327.19
359.002	323.35
359.384	341.66
359.766	329.68
360.148	337.59
360.53	343.01
360.912	344.6
361.294	347.08
361.676	330.36
362.057	317.7
362.439	341.88
362.821	317.03
363.203	325.16
363.584	307.08
363.966	322.68
364.348	319.51
364.729	335.1
365.111	280.42
365.493	316.35
365.874	297.37
366.256	314.77
366.637	318.61
367.019	317.7
367.4	300.53
367.781	310.7
368.163	291.94
368.544	304.6
368.925	304.37
369.306	307.08
369.688	320.19
370.069	316.12
370.45	308.66
370.831	304.6
371.212	329
371.593	305.95
371.974	326.06
372.355	314.99
372.736	311.83
373.117	317.03
373.498	320.87
373.879	298.04
374.26	326.74
374.641	293.52
375.021	299.85
375.402	310.25
375.783	307.31
376.163	320.87
376.544	312.96
376.925	320.19
377.305	335.56
377.686	327.19
378.066	304.6
378.447	332.39
378.827	332.62
379.208	342.56
379.588	327.65
379.968	329.68
380.349	338.04
380.729	345.5
381.109	338.27
381.489	322.45
381.87	321.55
382.25	326.29
382.63	346.63
383.01	327.65
383.39	329.68
383.77	302.79
384.15	320.42
384.53	339.85
384.91	332.39
385.29	324.03
385.67	349.34
386.049	322.68
386.429	335.33
386.809	339.62
387.189	336.91
387.568	327.42
387.948	333.52
388.328	339.85
388.707	344.6
389.087	327.19
389.466	328.78
389.846	349.34
390.225	352.73
390.605	348.44
390.984	360.19
391.363	351.6
391.743	349.34
392.122	336.46
392.501	372.62
392.881	352.5
393.26	362.45
393.639	340.08
394.018	331.49
394.397	360.19
394.776	360.41
395.155	351.15
395.534	344.37
395.913	362
396.292	365.61
396.671	343.92
397.05	340.53
397.429	338.72
397.808	350.7
398.186	364.71
398.565	347.08
398.944	362.45
399.323	349.12
399.701	357.93
400.08	386.18
400.458	372.39
400.837	381.43
401.215	392.96
401.594	362.45
401.972	363.13
402.351	371.49
402.729	370.36
403.107	375.33
403.486	375.56
403.864	379.4
404.242	377.36
404.62	389.79
404.999	406.97
405.377	389.11
405.755	373.3
406.133	365.84
406.511	412.16
406.889	378.27
407.267	396.57
407.645	401.32
408.023	406.06
408.401	384.14
408.779	400.87
409.156	399.28
409.534	400.19
409.912	407.87
410.29	397.25
410.667	393.63
411.045	422.56
411.422	422.79
411.8	410.13
412.178	405.16
412.555	419.85
412.933	439.73
413.31	427.31
413.687	420.98
414.065	451.03
414.442	443.12
414.819	441.32
415.197	444.93
415.574	444.03
415.951	451.71
416.328	440.19
416.705	431.15
417.082	439.06
417.46	442.67
417.837	460.98
418.214	455.1
418.591	461.43
418.967	473.63
419.344	494.87
419.721	489.45
420.098	466.4
420.475	480.86
420.852	480.86
421.228	474.99
421.605	471.15
421.982	497.13
422.358	473.41
422.735	506.4
423.111	483.35
423.488	493.97
423.864	504.14
424.241	491.94
424.617	486.29
424.994	503.46
425.37	531.71
425.746	527.87
426.123	507.3
426.499	519.73
426.875	523.35
427.251	524.93
427.627	544.82
428.003	526.74
428.379	535.32
428.756	543.46
429.132	535.32
429.507	538.04
429.883	553.18
430.259	539.39
430.635	527.42
431.011	550.69
431.387	529.22
431.763	585.72
432.138	576.91
432.514	568.32
432.89	556.12
433.265	579.39
433.641	571.48
434.016	582.78
434.392	582.56
434.767	573.06
435.143	576.91
435.518	594.53
435.894	603.8
436.269	594.31
436.644	612.61
437.02	615.77
437.395	595.44
437.77	617.13
438.145	617.81
438.52	611.71
438.895	620.07
439.271	635.89
439.646	626.4
440.021	629.79
440.395	620.75
440.77	622.78
441.145	640.41
441.52	672.95
441.895	650.58
442.27	653.29
442.645	628.88
443.019	676.56
443.394	657.81
443.769	627.3
444.143	632.05
444.518	649.9
444.892	628.43
445.267	658.49
445.641	669.33
446.016	691.25
446.39	669.33
446.764	677.69
447.139	686.51
447.513	713.4
447.887	669.33
448.262	658.94
448.636	658.49
449.01	671.82
449.384	687.86
449.758	652.61
450.132	691.48
450.506	691.93
450.88	686.51
451.254	699.16
451.628	717.92
452.002	720.4
452.376	724.92
452.75	705.49
453.123	709.56
453.497	703.23
453.871	708.43
454.244	705.26
454.618	707.98
454.992	699.16
455.365	703.23
455.739	752.95
456.112	733.96
456.486	746.39
456.859	757.92
457.232	766.05
457.606	738.26
457.979	750.01
458.352	716.34
458.725	738.71
459.099	727.41
459.472	745.04
459.845	750.23
460.218	747.3
460.591	759.05
460.964	767.86
461.337	768.54
461.71	799.27
462.083	803.11
462.456	790.01
462.829	780.52
463.201	763.79
463.574	791.82
463.947	780.06
464.32	795.21
464.692	797.24
465.065	771.7
465.438	786.62
465.81	812.83
466.183	824.36
466.555	841.76
466.928	840.85
467.3	848.54
467.672	836.56
468.045	845.6
468.417	863.9
468.789	846.28
469.161	859.38
469.534	850.8
469.906	826.39
470.278	856.67
470.65	900.74
471.022	872.27
471.394	896.45
471.766	885.15
472.138	925.37
472.51	914.3
472.882	948.87
473.253	946.84
473.625	946.16
473.997	953.17
474.369	968.53
474.74	947.52
475.112	964.24
475.484	950.46
475.855	978.48
476.227	966.73
476.598	1023.45
476.97	1020.96
477.341	1008.76
477.713	1055.09
478.084	1073.62
478.455	1076.78
478.827	1089.21
479.198	1091.92
479.569	1073.16
479.94	1099.15
480.311	1088.3
480.682	1102.32
481.053	1123.33
481.424	1138.92
481.795	1169.21
482.166	1166.95
482.537	1163.56
482.908	1217.34
483.279	1210.79
483.65	1234.06
484.021	1276.32
484.391	1280.84
484.762	1317
485.133	1296.89
485.503	1296.43
485.874	1317.68
486.244	1319.26
486.615	1314.74
486.985	1332.37
487.356	1349.99
487.726	1350.22
488.097	1389.09
488.467	1464.57
488.837	1453.94
489.207	1489.65
489.578	1524.68
489.948	1509.31
490.318	1552.02
490.688	1561.51
491.058	1552.93
491.428	1551.8
491.798	1549.99
492.168	1591.34
492.538	1577.11
492.908	1572.36
493.278	1559.7
493.648	1561.51
494.017	1616.2
494.387	1633.83
494.757	1672.24
495.126	1696.65
495.496	1720.83
495.866	1751.79
496.235	1747.72
496.605	1780.72
496.974	1787.95
497.344	1820.49
497.713	1793.6
498.082	1778
498.452	1710.89
498.821	1763.99
499.19	1768.51
499.559	1760.38
499.928	1784.33
500.298	1797.21
500.667	1844.22
501.036	1831.79
501.405	1879.02
501.774	1907.72
502.143	1893.93
502.512	1898.45
502.88	1894.84
503.249	1916.53
503.618	1891
503.987	1876.31
504.356	1869.53
504.724	1860.71
505.093	1879.92
505.462	1849.19
505.83	1865.69
506.199	1907.04
506.567	1895.97
506.936	1904.1
507.304	1923.31
507.672	1966.93
508.041	1987.49
508.409	2001.28
508.777	2007.15
509.145	2008.73
509.514	2001.5
509.882	1995.85
510.25	1955.17
510.618	1941.84
510.986	1941.62
511.354	1917.44
511.722	1926.7
512.09	1916.98
512.458	1927.38
512.826	1908.85
513.193	1921.05
513.561	1996.53
513.929	1973.48
514.297	2038.56
514.664	2049.64
515.032	2061.61
515.4	2052.57
515.767	2081.05
516.135	2026.13
516.502	2021.61
516.869	2000.15
517.237	1948.62
517.604	1941.62
517.972	1946.81
518.339	1938
518.706	1912.92
519.073	1953.14
519.44	1946.59
519.808	1986.36
520.175	2000.82
520.542	2003.76
520.909	2040.14
521.276	2069.75
521.643	2051.67
522.009	2083.31
522.376	2132.12
522.743	2075.4
523.11	2059.35
523.477	2059.35
523.843	2042.86
524.21	2045.12
524.577	2007.15
524.943	1996.53
525.31	1984.1
525.676	2000.15
526.043	2028.17
526.409	2032.01
526.776	2087.15
527.142	2149.29
527.508	2156.98
527.874	2161.72
528.241	2222.74
528.607	2213.7
528.973	2260.93
529.339	2265.22
529.705	2276.75
530.071	2281.04
530.437	2235.62
530.803	2182.06
531.169	2194.04
531.535	2172.34
531.901	2149.75
532.267	2164.89
532.632	2221.83
532.998	2214.6
533.364	2251.44
533.73	2285.11
534.095	2330.98
534.461	2376.18
534.826	2451.88
535.192	2474.26
535.557	2490.3
535.923	2512.67
536.288	2508.83
536.653	2534.14
537.019	2493.01
537.384	2495.95
537.749	2455.5
538.114	2446.46
538.479	2470.42
538.845	2433.35
539.21	2415.28
539.575	2395.16
539.94	2429.29
540.305	2466.35
540.67	2455.95
541.034	2532.33
541.399	2537.76
541.764	2616.63
542.129	2700.47
542.494	2688.49
542.858	2730.97
543.223	2726
543.587	2770.97
543.952	2751.54
544.316	2750.63
544.681	2697.53
545.045	2688.26
545.41	2678.32
545.774	2664.99
546.138	2706.57
546.503	2648.49
546.867	2697.08
547.231	2679.45
547.595	2682.39
547.959	2700.69
548.324	2715.61
548.688	2759.22
549.052	2838.09
549.416	2856.62
549.779	2848.71
550.143	2851.2
550.507	2939.1
550.871	2934.36
551.235	2901.59
551.599	2878.99
551.962	2863.63
552.326	2881.7
552.689	2817.52
553.053	2789.28
553.417	2751.76
553.78	2715.61
554.143	2723.52
554.507	2713.8
554.87	2687.13
555.234	2712.89
555.597	2710.63
555.96	2770.75
556.323	2783.4
556.686	2787.02
557.05	2854.36
557.413	2890.52
557.776	2944.3
558.139	2996.73
558.502	2960.8
558.865	2970.74
559.228	2955.37
559.59	2929.84
559.953	2936.84
560.316	2929.84
560.679	2885.55
561.041	2831.08
561.404	2825.66
561.767	2826.56
562.129	2777.3
562.492	2821.37
562.854	2782.05
563.217	2796.28
563.579	2800.58
563.941	2852.1
564.304	2880.12
564.666	2965.09
565.028	2980.46
565.39	2998.99
565.753	3064.98
566.115	3089.38
566.477	3102.72
566.839	3113.56
567.201	3106.33
567.563	3113.56
567.925	3078.99
568.287	3078.31
568.648	2981.36
569.01	3018.88
569.372	2975.71
569.734	2907.92
570.095	2947.01
570.457	2947.24
570.819	2994.24
571.18	2999.89
571.542	2998.09
571.903	3099.78
572.265	3083.28
572.626	3163.5
572.987	3282.37
573.349	3278.76
573.71	3344.74
574.071	3403.5
574.432	3444.4
574.794	3531.63
575.155	3565.53
575.516	3560.33
575.877	3568.24
576.238	3599.2
576.599	3647.79
576.96	3636.26
577.32	3629.93
577.681	3620.22
578.042	3699.54
578.403	3745.64
578.763	3830.61
579.124	3834.22
579.485	4011.62
579.845	4082.58
580.206	4245.74
580.566	4361.66
580.927	4538.38
581.287	4750.58
581.648	4970.91
582.008	5130.91
582.368	5322.77
582.728	5542.88
583.089	5676.21
583.449	5914.39
583.809	6121.17
584.169	6402.97
584.529	6559.35
584.889	6805.67
585.249	6983.97
585.609	7238.43
585.969	7515.03
586.329	7728.36
586.688	8010.16
587.048	8297.83
587.408	8606.75
587.768	8862.11
588.127	9248.54
588.487	9642.66
588.846	10095.53
589.206	10406.7
589.565	10812.12
589.925	11239.22
590.284	11724.18
590.643	12207.56
591.003	12558.29
591.362	13075.56
591.721	13506.96
592.08	13843.9
592.44	14345.13
592.799	14775.18
593.158	15136.75
593.517	15574.25
593.876	16059.21
594.235	16373.1
594.593	16718.63
594.952	17269.8
595.311	17463.92
595.67	17979.84
596.029	18433.39
596.387	18877.44
596.746	19290.09
597.104	19603.98
597.463	20029.28
597.822	20604.18
598.18	20995.8
598.538	21467.88
598.897	22017.02
599.255	22291.59
599.613	22978.12
599.972	23396.42
600.33	23768.61
600.688	24105.33
601.046	24625.31
601.404	25240.44
601.762	25442.69
602.12	26060.76
602.478	26332.61
602.836	26644.24
603.194	26886.5
603.552	27154.96
603.91	27415.3
604.268	27817.09
604.625	28050.53
604.983	28469.96
605.341	28709.73
605.698	29076.72
606.056	29431.06
606.413	29700.21
606.771	30071.72
607.128	30421.54
607.485	30592.16
607.843	30940.85
608.2	31448.41
608.557	31820.83
608.914	31860.15
609.272	32426.69
609.629	32750.52
609.986	33144.64
610.343	33352.77
610.7	33853.54
611.057	33983.48
611.414	34115.68
611.771	34272.74
612.127	34553.41
612.484	34678.83
612.841	34846.97
613.198	34879.73
613.554	35086.05
613.911	35491.92
614.267	35532.14
614.624	35525.82
614.98	35674.97
615.337	35989.08
615.693	36024.56
616.05	36304.33
616.406	36594.26
616.762	36691.21
617.118	36845.1
617.475	37111.99
617.831	37360.12
618.187	37476.27
618.543	37657.74
618.899	38095.02
619.255	38029.93
619.611	38316.7
619.967	38467.43
620.323	38592.18
620.678	38600.09
621.034	38691.61
621.39	38668.11
621.746	38714.21
622.101	39181.31
622.457	38860.64
622.812	38950.59
623.168	39136.8
623.523	39008.66
623.879	39262.22
624.234	39047.31
624.589	39304.02
624.945	39230.13
625.3	39494.98
625.655	39440.97
626.01	39481.42
626.365	39509.44
626.72	39632.6
627.075	39789.89
627.43	39661.08
627.785	39668.31
628.14	39991.01
628.495	40087.28
628.85	40169.09
629.205	40112.14
629.559	40332.02
629.914	40276.43
630.269	40319.59
630.623	40339.48
630.978	40256.99
631.332	40326.6
631.687	40407.5
632.041	40273.49
632.396	40399.36
632.75	40118.46
633.104	40130.89
633.459	39994.63
633.813	39984.68
634.167	39896.55
634.521	39874.4
634.875	39943.33
635.229	39935.19
635.583	39807.51
635.937	39859.94
636.291	39887.06
636.645	39915.98
636.999	39738.81
637.352	40026.04
637.706	39797.8
638.06	40099.48
638.413	39961.41
638.767	39937.23
639.121	40014.29
639.474	40079.37
639.828	39920.28
640.181	39974.74
640.534	40015.64
640.888	39984.46
641.241	39763.45
641.594	39862.65
641.947	39974.51
642.301	39766.84
642.654	39774.75
643.007	39661.75
643.36	39674.63
643.713	39349.45
644.066	39593.51
644.419	39436.9
644.771	39044.59
645.124	38595.12
645.477	38490.71
645.83	38374.78
646.182	38275.8
646.535	38202.81
646.888	38371.84
647.24	38057.05
647.593	38249.81
647.945	38261.56
648.298	38053.89
648.65	38161.91
649.002	38081.68
649.355	38238.51
649.707	38260.89
650.059	38282.35
650.411	38814.77
650.763	38830.82
651.115	39353.29
651.467	39089.34
651.819	39084.82
652.171	38974.09
652.523	38890.25
652.875	38956.91
653.227	38765.96
653.578	38913.52
653.93	38719.41
654.282	38502.69
654.633	38486.19
654.985	38377.49
655.337	38381.56
655.688	38348.12
656.039	38624.27
656.391	38127.33
656.742	38273.09
657.094	38166.65
657.445	38382.92
657.796	38313.77
658.147	38340.43
658.498	38399.64
658.849	38314.44
659.2	38350.15
659.551	38432.18
659.902	38617.94
660.253	38531.84
660.604	38504.5
660.955	38350.15
661.306	38440.09
661.656	38497.94
662.007	38562.57
662.358	38438.28
662.708	38450.94
663.059	38435.8
663.409	38231.28
663.76	38386.99
664.11	38362.8
664.461	38412.3
664.811	38266.54
665.161	38125.52
665.511	38085.98
665.862	38066.77
666.212	38064.73
666.562	38105.18
666.912	37966.43
667.262	37812.54
667.612	37863.38
667.962	37808.92
668.312	37806.66
668.662	37943.38
669.011	37850.05
669.361	37892.76
669.711	37832.88
670.06	37905.64
670.41	37758.75
670.76	37810.5
671.109	38056.6
671.459	38040.55
671.808	37801.46
672.157	38054.56
672.507	37806.44
672.856	37890.73
673.205	37963.04
673.554	37956.71
673.904	37751.3
674.253	38045.07
674.602	37858.19
674.951	37388.59
675.3	37091.65
675.649	37647.34
675.998	37640.34
676.346	37543.17
676.695	37540.45
677.044	37391.53
677.393	37297.52
677.741	37390.85
678.09	37168.26
678.438	37100.01
678.787	37159.45
679.135	37130.75
679.484	36711.55
679.832	36884.43
680.181	36936.63
680.529	37059.34
680.877	36831.55
681.225	36840.58
681.573	37146.57
681.922	36930.53
682.27	36760.81
682.618	36927.81
682.966	36773.69
683.314	36841.04
683.661	36923.07
684.009	36534.83
684.357	36627.26
684.705	36568.5
685.053	36602.85
685.4	36537.99
685.748	36379.35
686.095	36450.76
686.443	36351.33
686.79	36294.84
687.138	36181.62
687.485	36170.77
687.832	35992.25
688.18	35971.46
688.527	35658.02
688.874	35719.71
689.221	35462.77
689.568	35343.9
689.915	35265.94
690.262	35265.26
690.609	35239.5
690.956	35036.79
691.303	34885.83
691.65	34860.98
691.997	34787.98
692.344	34564.49
692.69	34553.19
693.037	34755.67
693.383	34427.09
693.73	34643.58
694.077	34405.62
694.423	34507.31
694.769	34370.14
695.116	34353.87
695.462	34304.61
695.808	34158.85
696.155	34362.46
696.501	34017.38
696.847	34171.28
697.193	33835.69
697.539	34009.25
697.885	33798.63
698.231	33601.12
698.577	33628.69
698.923	33513.21
699.269	33360.45
699.614	33089.72
699.96	33159.55
700.306	33068.71
700.651	32897.19
700.997	32757.75
701.342	32720.24
701.688	32671.66
702.033	32376.97
702.379	32410.64
702.724	32314.6
703.069	32384.2
703.415	31966.14
703.76	32030.99
704.105	32062.41
704.45	31848.63
704.795	31678.23
705.14	31558.69
705.485	31523.66
705.83	31635.98
706.175	31633.26
706.52	31540.84
706.865	31503.32
707.209	31589.2
707.554	31448.64
707.899	31382.2
708.243	31305.14
708.588	31316.89
708.932	31117.57
709.277	31079.15
709.621	31115.99
709.966	30869.44
710.31	31116.22
710.654	30703.12
710.998	30823.57
711.342	30711.93
711.687	30712.61
712.031	30472.16
712.375	30406.86
712.719	30381.55
713.063	30237.59
713.407	30276.69
713.75	30059.52
714.094	30074.44
714.438	29874.89
714.782	29902.01
715.125	29730.94
715.469	29770.26
715.812	29556.71
716.156	29443.27
716.499	29532.75
716.843	29474.68
717.186	29267
717.53	29433.55
717.873	29519.42
718.216	29351.97
718.559	29191.07
718.902	29086.21
719.246	29109.49
719.589	29228.13
719.932	29009.6
720.275	29035.14
720.617	29023.16
720.96	29024.52
721.303	28988.59
721.646	28935.93
721.989	28855.94
722.331	29084.86
722.674	28972.09
723.016	28857.97
723.359	28795.37
723.701	28770.74
724.044	28636.05
724.386	28521.26
724.729	28599.22
725.071	28566
725.413	28440.13
725.755	28390.86
726.097	28320.13
726.439	27998.33
726.782	28051.21
727.124	28212.34
727.465	27994.72
727.807	27884.44
728.149	27829.3
728.491	27700.71
728.833	27708.85
729.175	27655.06
729.516	27425.47
729.858	27574.61
730.199	27547.5
730.541	27521.51
730.882	27481.28
731.224	27486.71
731.565	27313.38
731.906	27418.46
732.248	27469.98
732.589	27279.93
732.93	27201.52
733.271	27231.12
733.612	27276.32
733.953	27324
734.294	27146.38
734.635	27167.62
734.976	27103.67
735.317	27163.33
735.658	27179.37
735.999	27180.27
736.339	27074.51
736.68	27169.43
737.021	26982.99
737.361	27006.04
737.702	27137.56
738.042	26954.29
738.383	26850.34
738.723	26813.73
739.063	26696.22
739.404	26768.31
739.744	26662.1
740.084	26505.72
740.424	26660.29
740.764	26397.47
741.104	26474.98
741.444	26266.63
741.784	26262.78
742.124	26255.1
742.464	26145.27
742.804	26091.49
743.143	25962
743.483	26034.54
743.823	25887.2
744.162	25876.13
744.502	25971.27
744.841	25750.26
745.181	25839.29
745.52	25803.59
745.86	25721.78
746.199	25847.88
746.538	25741.89
746.877	25881.78
747.216	25753.87
747.556	25685.62
747.895	25717.04
748.234	25714.55
748.573	25477.04
748.911	25613.54
749.25	25605.85
749.589	25581.22
749.928	25581.22
750.267	25520.43
750.605	25496.7
750.944	25431.85
751.283	25331.51
751.621	25420.09
751.96	25163.38
752.298	25138.97
752.636	25133.32
752.975	25030.05
753.313	24855.59
753.651	25095.13
753.989	24809.26
754.327	24711.86
754.666	24695.59
755.004	24628.48
755.342	24604.97
755.679	24513.45
756.017	24398.43
756.355	24446.56
756.693	24196.4
757.031	24208.6
757.368	24039.11
757.706	23998.66
758.044	23834.6
758.381	23880.02
758.719	23808.39
759.056	23836.63
759.394	23722.06
759.731	23518.68
760.068	23673.02
760.405	23543.99
760.743	23567.94
761.08	23428.51
761.417	23432.58
761.754	23328.85
762.091	23363.65
762.428	23331.56
762.765	23162.3
763.102	23300.38
763.438	23086.14
763.775	22887.51
764.112	23010.89
764.449	23129.99
764.785	22995.53
765.122	22849.99
765.458	22861.29
765.795	22741.75
766.131	22799.6
766.467	22595.99
766.804	22673.73
767.14	22357.58
767.476	22447.52
767.812	22382.43
768.148	22258.6
768.485	22078.71
768.821	22050.01
769.157	21989.22
769.492	21881.88
769.828	21851.6
770.164	21625.62
770.5	21586.07
770.836	21582.91
771.171	21362.8
771.507	21346.76
771.842	21154.44
772.178	21061.79
772.513	20967.78
772.849	20921.91
773.184	20864.06
773.519	20858.63
773.855	20771.18
774.19	20717.62
774.525	20563.27
774.86	20625.42
775.195	20552.2
775.53	20465.65
775.865	20384.75
776.2	20178.88
776.535	20118.99
776.87	20120.12
777.205	20125.77
777.539	20124.64
777.874	20117.41
778.209	19911.76
778.543	20016.17
778.878	19809.17
779.212	19798.1
779.547	19744.76
779.881	19879.68
780.215	19688.04
780.55	19589.06
780.884	19529.4
781.218	19504.09
781.552	19454.15
781.886	19318.79
782.22	19260.93
782.554	19213.7
782.888	18896.88
783.222	18947.27
783.556	18903.2
783.889	18822.3
784.223	18618.24
784.557	18574.85
784.89	18635.41
785.224	18598.58
785.557	18388.19
785.891	18302.99
786.224	18210.34
786.558	18151.36
786.891	17969.67
787.224	17975.32
787.557	17857.13
787.891	17823.68
788.224	17832.5
788.557	17737.58
788.89	17623.46
789.223	17683.35
789.556	17532.84
789.888	17545.05
790.221	17464.37
790.554	17354.32
790.887	17332.17
791.219	17339.4
791.552	17319.97
791.884	17193.64
792.217	17121.33
792.549	17083.82
792.882	16976.02
793.214	16916.59
793.546	16943.03
793.879	16893.76
794.211	16800.89
794.543	16872.52
794.875	16694
795.207	16780.32
795.539	16685.86
795.871	16700.55
796.203	16600.44
796.535	16514.11
796.867	16438.18
797.198	16391.41
797.53	16447
797.862	16294.46
798.193	16390.73
798.525	16235.03
798.856	16224.86
799.188	16080
799.519	16027.57
799.85	15955.71
800.182	15897.41
800.513	15884.98
800.844	15670.97
801.175	15806.79
801.506	15710.97
801.837	15621.93
802.168	15593.46
802.499	15524.08
802.83	15476.85
803.161	15355.5
803.491	15345.78
803.822	15410.41
804.153	15176.97
804.483	15079.35
804.814	15018.33
805.145	15019.01
805.475	15039.58
805.805	15056.07
806.136	15002.29
806.466	14959.13
806.796	14857.66
807.126	14746.7
807.457	14843.65
807.787	14777.89
808.117	14681.39
808.447	14761.62
808.777	14680.94
809.107	14625.58
809.436	14631.23
809.766	14556.43
810.096	14530.89
810.426	14549.65
810.755	14511.23
811.085	14578.8
811.414	14467.16
811.744	14350.78
812.073	14402.76
812.403	14376.99
812.732	14292.7
813.061	14316.88
813.39	14260.61
813.719	14196.89
814.049	14220.39
814.378	14249.54
814.707	14062.43
815.036	14140.62
815.365	14031.24
815.693	13880.74
816.022	13920.51
816.351	13884.8
816.68	13740.63
817.008	13803.9
817.337	13693.62
817.665	13657.92
817.994	13748.99
818.322	13625.15
818.651	13532.72
818.979	13496.34
819.307	13497.02
819.636	13464.93
819.964	13313.07
820.292	13415.89
820.62	13331.15
820.948	13349.9
821.276	13328.89
821.604	13345.61
821.932	13313.97
822.259	13358.72
822.587	13242.34
822.915	13260.87
823.243	13329.56
823.57	13184.48
823.898	13287.98
824.225	13346.29
824.553	13193.07
824.88	13213.86
825.207	13188.78
825.535	13334.76
825.862	13324.14
826.189	13272.62
826.516	13388.55
826.843	13371.15
827.17	13360.98
827.497	13339.28
827.824	13398.72
828.151	13401.2
828.478	13373.63
828.805	13378.83
829.131	13376.34
829.458	13406.4
829.785	13359.17
830.111	13341.09
830.438	13423.35
830.764	13372.95
831.09	13414.99
831.417	13315.55
831.743	13359.85
832.069	13480.52
832.395	13184.26
832.722	13332.05
833.048	13208.89
833.374	13283.24
833.7	13263.58
834.026	13226.97
834.351	13239.85
834.677	13246.4
835.003	13180.87
835.329	13190.36
835.654	13106.29
835.98	13094.99
836.306	12993.75
836.631	12969.12
836.956	12981.78
837.282	13062
837.607	12876.92
837.932	12866.98
838.258	12841.22
838.583	12874.66
838.908	12794.44
839.233	12834.21
839.558	12737.26
839.883	12717.83
840.208	12599.19
840.533	12609.13
840.858	12664.05
841.182	12656.14
841.507	12648.9
841.832	12654.33
842.156	12555.35
842.481	12583.6
842.805	12539.08
843.13	12516.03
843.454	12514.22
843.778	12525.29
844.103	12515.35
844.427	12488.91
844.751	12479.87
845.075	12357.84
845.399	12463.82
845.723	12355.13
846.047	12414.11
846.371	12242.36
846.695	12264.73
847.019	12205.75
847.343	12167.56
847.666	12067
847.99	12084.85
848.313	11998.07
848.637	11948.36
848.96	11905.65
849.284	11956.95
849.607	11831.07
849.931	11743.17
850.254	11734.58
850.577	11708.14
850.9	11573.9
851.223	11514.25
851.546	11419.56
851.869	11385.89
852.192	11462.27
852.515	11323.06
852.838	11247.81
853.161	11286
853.483	11230.18
853.806	11176.4
854.129	11228.38
854.451	11061.38
854.774	11068.61
855.096	10965.11
855.419	10968.04
855.741	10864.77
856.063	10849.86
856.385	10784.55
856.708	10813.7
857.03	10721.95
857.352	10794.94
857.674	10751.1
857.996	10632.46
858.318	10578.22
858.64	10546.14
858.961	10517.44
859.283	10550.43
859.605	10557.89
859.926	10507.72
860.248	10432.47
860.57	10452.58
860.891	10469.08
861.212	10381.62
861.534	10312.47
861.855	10289.87
862.176	10309.76
862.498	10316.08
862.819	10365.57
863.14	10315.86
863.461	10359.7
863.782	10255.3
864.103	10334.84
864.424	10254.84
864.745	10276.31
865.065	10267.5
865.386	10114.06
865.707	10161.06
866.027	10268.18
866.348	10215.75
866.668	10154.06
866.989	10132.13
867.309	10104.34
867.63	10086.26
867.95	10101.85
868.27	10008.3
868.59	10045.58
868.91	10091.91
869.23	9990.9
869.55	10036.54
869.87	9996.09
870.19	9940.05
870.51	9982.53
870.83	9990.44
871.15	9939.82
871.469	9863.44
871.789	9835.65
872.109	9888.75
872.428	9768.3
872.748	9828.64
873.067	9790.45
873.386	9769.88
873.706	9719.04
874.025	9694.86
874.344	9649.44
874.663	9597.69
874.982	9633.39
875.301	9695.99
875.62	9605.37
875.939	9552.04
876.258	9566.27
876.577	9454.86
876.896	9496.45
877.214	9413.51
877.533	9470.01
877.852	9426.62
878.17	9451.93
878.489	9444.24
878.807	9380.52
879.125	9369.89
879.444	9427.07
879.762	9362.89
880.08	9344.36
880.398	9273.4
880.716	9302.78
881.034	9331.25
881.352	9368.76
881.67	9292.38
881.988	9360.86
882.306	9234.31
882.624	9217.58
882.941	9232.5
883.259	9149.34
883.577	9195.44
883.894	9197.7
884.212	9165.15
884.529	9098.49
884.846	9131.48
885.164	9107.75
885.481	9101.88
885.798	9123.57
886.115	9040.19
886.432	9055.33
886.75	9006.06
887.067	8993.63
887.383	9020.07
887.7	8977.14
888.017	9001.09
888.334	8979.85
888.651	8943.24
888.967	8913.64
889.284	8853.07
889.6	8815.56
889.917	8746.63
890.233	8762
890.55	8738.95
890.866	8690.14
891.182	8674.32
891.498	8675.9
891.815	8694.43
892.131	8564.49
892.447	8553.87
892.763	8510.48
893.079	8502.35
893.395	8479.07
893.71	8437.94
894.026	8425.29
894.342	8396.36
894.657	8349.81
894.973	8342.35
895.289	8320.88
895.604	8331.73
895.92	8169.25
896.235	8188.23
896.55	8183.71
896.865	8154.79
897.181	8089.25
897.496	8121.79
897.811	8159.08
898.126	8041.57
898.441	8047.67
898.756	8028.69
899.071	7948.01
899.386	7983.26
899.7	7832.76
900.015	7869.14
900.33	7800.9
900.644	7838.41
900.959	7761.58
901.273	7781.69
901.588	7720.22
901.902	7694.68
902.216	7689.04
902.531	7702.59
902.845	7648.36
903.159	7598.42
903.473	7660.34
903.787	7557.97
904.101	7522.26
904.415	7587.79
904.729	7525.2
905.042	7515.71
905.356	7458.98
905.67	7413.56
905.984	7410.17
906.297	7368.82
906.611	7391.87
906.924	7375.6
907.237	7333.56
907.551	7328.14
907.864	7240.69
908.177	7279.78
908.491	7225.09
908.804	7162.5
909.117	7164.76
909.43	7080.24
909.743	7063.74
910.056	7077.3
910.368	7083.18
910.681	6981.71
910.994	6958.88
911.307	6943.97
911.619	6878.43
911.932	6917.3
912.244	6818.1
912.557	6799.57
912.869	6796.63
913.181	6703.52
913.494	6734.94
913.806	6675.05
914.118	6634.6
914.43	6579.01
914.742	6624.88
915.054	6541.95
915.366	6575.84
915.678	6486.35
915.99	6468.05
916.302	6408.39
916.613	6371.78
916.925	6420.59
917.236	6406.13
917.548	6318.45
917.859	6343.08
918.171	6257.21
918.482	6204.1
918.794	6196.64
919.105	6201.84
919.416	6139.92
919.727	6146.93
920.038	6156.65
920.349	6064.22
920.66	6039.36
920.971	6034.16
921.282	5960.72
921.593	5982.87
921.903	5986.03
922.214	5965.24
922.525	5952.36
922.835	5917.1
923.146	5901.29
923.456	5814.96
923.767	5826.03
924.077	5812.47
924.387	5769.99
924.697	5740.39
925.008	5794.17
925.318	5716.66
925.628	5725.24
925.938	5676.66
926.248	5614.06
926.558	5616.32
926.867	5673.72
927.177	5590.79
927.487	5530
927.796	5558.92
928.106	5530.45
928.416	5549.88
928.725	5477.34
929.034	5428.3
929.344	5487.74
929.653	5449.77
929.962	5408.64
930.271	5385.82
930.581	5372.49
930.89	5326.39
931.199	5327.29
931.508	5280.28
931.817	5311.47
932.125	5239.83
932.434	5261.75
932.743	5176.11
933.051	5168.88
933.36	5182.43
933.669	5114.87
933.977	5084.13
934.286	5081.19
934.594	5076.22
934.902	5043.91
935.21	5043.68
935.519	4950.8
935.827	4932.95
936.135	4944.93
936.443	4895.89
936.751	4873.52
937.059	4836
937.367	4813.63
937.674	4823.57
937.982	4819.28
938.29	4769.34
938.597	4772.05
938.905	4703.12
939.213	4706.51
939.52	4685.5
939.827	4665.84
940.135	4628.1
940.442	4641.21
940.749	4588.33
941.056	4622.45
941.363	4549
941.67	4541.55
941.977	4501.77
942.284	4520.98
942.591	4490.7
942.898	4488.44
943.205	4485.73
943.511	4437.37
943.818	4451.61
944.125	4357.6
944.431	4386.75
944.738	4376.13
945.044	4379.74
945.35	4341.33
945.657	4287.54
945.963	4334.55
946.269	4286.41
946.575	4288.67
946.881	4211.39
947.187	4283.93
947.493	4196.92
947.799	4223.59
948.105	4183.14
948.41	4164.83
948.716	4169.13
949.022	4123.03
949.327	4144.04
949.633	4106.08
949.938	4042.58
950.244	4125.74
950.549	4078.96
950.854	4061.33
951.16	4058.4
951.465	3999.64
951.77	3970.71
952.075	3966.87
952.38	3964.84
952.685	3958.51
952.99	3927.55
953.294	3906.76
953.599	3823.6
953.904	3891.39
954.209	3865.86
954.513	3870.83
954.818	3777.73
955.122	3834.67
955.426	3774.79
955.731	3776.82
956.035	3715.81
956.339	3735.47
956.643	3708.12
956.948	3720.55
957.252	3689.14
957.556	3716.03
957.86	3633.55
958.163	3642.36
958.467	3628.35
958.771	3611.18
959.075	3602.81
959.378	3576.6
959.682	3606.88
959.985	3564.62
960.289	3509.03
960.592	3493.89
960.896	3491.41
961.199	3449.37
961.502	3432.65
961.805	3409.83
962.108	3415.93
962.411	3386.32
962.714	3370.5
963.017	3374.12
963.32	3369.15
963.623	3348.13
963.926	3330.05
964.228	3287.57
964.531	3311.98
964.833	3302.94
965.136	3241.24
965.438	3272.2
965.741	3237.4
966.043	3252.32
966.345	3226.55
966.648	3200.34
966.95	3167.35
967.252	3179.78
967.554	3174.8
967.856	3151.3
968.158	3123.51
968.46	3131.19
968.761	3095.71
969.063	3118.08
969.365	3108.36
969.666	3060.23
969.968	3057.74
970.269	3051.19
970.571	3051.64
970.872	3030.4
971.174	2983.17
971.475	3035.6
971.776	3003.28
972.077	2972.32
972.378	2979.55
972.679	2959.44
972.98	2963.74
973.281	2933.45
973.582	2926.67
973.883	2917.86
974.183	2899.78
974.484	2932.78
974.785	2842.83
975.085	2891.2
975.386	2868.82
975.686	2825.43
975.986	2841.03
976.287	2845.09
976.587	2774.14
976.887	2787.24
977.187	2790.63
977.487	2792.21
977.787	2766
978.087	2727.58
978.387	2724.65
978.687	2748.15
978.987	2693.01
979.286	2705.66
979.586	2710.63
979.885	2709.28
980.185	2661.14
980.484	2675.16
980.784	2654.37
981.083	2619.56
981.382	2593.12
981.682	2613.46
981.981	2585.67
982.28	2600.58
982.579	2552.9
982.878	2522.39
983.177	2526.01
983.475	2559.68
983.774	2525.1
984.073	2491.43
984.372	2458.89
984.67	2445.56
984.969	2496.63
985.267	2482.62
985.566	2427.93
985.864	2472
986.162	2430.87
986.461	2422.73
986.759	2408.95
987.057	2362.85
987.355	2383.64
987.653	2380.25
987.951	2336.63
988.249	2326.24
988.547	2343.64
988.844	2322.62
989.142	2319.23
989.44	2290.31
989.737	2285.79
990.035	2263.64
990.332	2254.6
990.63	2243.98
990.927	2255.51
991.224	2234.26
991.521	2236.3
991.819	2214.6
992.116	2160.59
992.413	2177.99
992.71	2158.11
993.006	2210.54
993.303	2153.59
993.6	2193.36
993.897	2150.42
994.193	2154.04
994.49	2129.86
994.787	2136.19
995.083	2121.27
995.379	2142.06
995.676	2108.39
995.972	2082.4
996.268	2105.68
996.565	2041.27
996.861	2056.19
997.157	2046.47
997.453	2042.18
997.749	2029.07
998.044	2041.27
998.34	1976.87
998.636	2029.97
998.932	2008.73
999.227	1944.55
999.523	1993.59
999.818	1939.13
1000.114	1974.38
1000.409	1963.08
1000.704	1939.58
1001	1916.31
1001.295	1921.28
1001.59	1936.64
1001.885	1921.05
1002.18	1883.76
1002.475	1890.32
1002.77	1838.12
1003.065	1850.77
1003.359	1837.44
1003.654	1851
1003.949	1849.64
1004.243	1812.58
1004.538	1792.92
1004.832	1796.53
1005.127	1796.31
1005.421	1784.56
1005.715	1763.09
1006.009	1773.48
1006.304	1747.04
1006.598	1737.1
1006.892	1736.88
1007.186	1717.67
1007.48	1729.19
1007.773	1694.39
1008.067	1709.76
1008.361	1664.56
1008.655	1689.64
1008.948	1654.62
1009.242	1641.51
1009.535	1684.22
1009.829	1621.85
1010.122	1592.7
1010.415	1628.86
1010.708	1609.65
1011.001	1610.78
1011.295	1585.92
1011.588	1564.45
1011.881	1582.75
1012.173	1537.78
1012.466	1547.5
1012.759	1515.64
1013.052	1546.15
1013.344	1521.06
1013.637	1498.46
1013.93	1487.39
1014.222	1507.95
1014.514	1489.2
1014.807	1508.86
1015.099	1481.06
1015.391	1455.07
1015.683	1436.09
1015.976	1463.21
1016.268	1439.93
1016.56	1422.08
1016.851	1425.47
1017.143	1421.63
1017.435	1407.17
1017.727	1345.25
1018.018	1397.68
1018.31	1388.64
1018.602	1392.48
1018.893	1341.86
1019.185	1348.64
1019.476	1352.25
1019.767	1344.57
1020.058	1344.34
1020.35	1304.57
1020.641	1324
1020.932	1320.61
1021.223	1302.54
1021.514	1296.66
1021.804	1255.98
1022.095	1252.14
1022.386	1270.45
1022.677	1268.64
1022.967	1265.25
1023.258	1259.15
1023.548	1233.39
1023.839	1226.83
1024.129	1235.19
1024.419	1228.64
1024.709	1225.93
1025	1200.39
1025.29	1192.71
1025.58	1182.31
1025.87	1188.42
1026.16	1163.11
1026.449	1175.53
1026.739	1161.07
1027.029	1156.1
1027.319	1111.35
1027.608	1157.46
1027.898	1114.07
1028.187	1102.09
1028.477	1119.94
1028.766	1101.64
1029.055	1100.73
1029.344	1068.19
1029.634	1092.6
1029.923	1091.24
1030.212	1074.07
1030.501	1074.52
1030.79	1048.98
1031.078	1066.84
1031.367	1039.72
1031.656	1015.54
1031.945	1023.67
1032.233	1029.1
1032.522	996.1
1032.81	1020.74
1033.099	1010.57
1033.387	1001.08
1033.675	994.07
1033.963	985.03
1034.251	989.1
1034.54	976.67
1034.828	958.36
1035.116	974.86
1035.403	945.71
1035.691	955.43
1035.979	947.52
1036.267	941.19
1036.554	927.18
1036.842	933.51
1037.129	903.45
1037.417	913.62
1037.704	911.81
1037.992	897.8
1038.279	873.17
1038.566	890.34
1038.853	890.34
1039.14	890.34
