Data from red_cardboard_box_FLMS001491_00041.txt Node
Date: Wed Feb 08 11:32:26 GMT 2017
User: dcchb
Spectrometer: FLMS00149
Trigger mode: 0
Integration Time (sec): 2.000000E-2
Scans to average: 10
Electric dark correction enabled: true
Nonlinearity correction enabled: false
Boxcar width: 0
XAxis mode: Wavelengths
Number of Pixels in Spectrum: 2048
>>>>>Begin Spectral Data<<<<<
341.393	-18.76
341.776	-18.76
342.16	-18.76
342.543	-39.77
342.927	-71.41
343.31	-64.86
343.693	-85.42
344.077	-71.41
344.46	-80
344.843	-64.86
345.226	-21.69
345.61	-49.94
345.993	-26.89
346.376	12.66
346.759	19.89
347.142	18.53
347.525	51.07
347.908	61.02
348.291	66.44
348.674	115.7
349.057	119.77
349.44	129.71
349.823	154.35
350.206	160.22
350.588	192.09
350.971	214.91
351.354	231.63
351.737	220.56
352.119	268.02
352.502	265.3
352.884	274.57
353.267	289.48
353.65	318.18
354.032	311.63
354.414	330.39
354.797	339.88
355.179	337.84
355.562	328.8
355.944	341.69
356.326	361.57
356.709	352.99
357.091	343.04
357.473	332.65
357.855	315.02
358.238	342.82
358.62	344.17
359.002	356.6
359.384	337.17
359.766	346.66
360.148	333.1
360.53	343.72
360.912	344.62
361.294	351.4
361.676	342.36
362.057	326.77
362.439	337.17
362.821	322.93
363.203	337.17
363.584	329.03
363.966	330.61
364.348	324.96
364.729	328.35
365.111	314.34
365.493	319.54
365.874	330.39
366.256	321.35
366.637	330.16
367.019	322.93
367.4	310.95
367.781	309.37
368.163	303.49
368.544	305.98
368.925	328.8
369.306	301.69
369.688	313.44
370.069	347.11
370.45	326.55
370.831	311.18
371.212	309.6
371.593	312.31
371.974	344.85
372.355	322.25
372.736	305.98
373.117	315.7
373.498	325.42
373.879	332.19
374.26	308.92
374.641	322.03
375.021	316.15
375.402	317.05
375.783	315.92
376.163	324.06
376.544	322.7
376.925	306.88
377.305	328.13
377.686	313.66
378.066	327.45
378.447	316.6
378.827	331.29
379.208	323.16
379.588	336.71
379.968	327.45
380.349	327.45
380.729	331.74
381.109	335.81
381.489	335.58
381.87	338.07
382.25	341.69
382.63	317.73
383.01	354.11
383.39	338.3
383.77	363.83
384.15	352.31
384.53	338.75
384.91	335.58
385.29	336.26
385.67	335.36
386.049	328.58
386.429	340.56
386.809	345.08
387.189	335.36
387.568	345.53
387.948	356.83
388.328	331.52
388.707	350.95
389.087	348.47
389.466	383.49
389.846	347.56
390.225	358.86
390.605	374.23
390.984	334.68
391.363	360.44
391.743	374.45
392.122	343.49
392.501	361.57
392.881	370.61
393.26	360.89
393.639	362.25
394.018	352.76
394.397	364.96
394.776	358.18
395.155	378.07
395.534	364.74
395.913	376.49
396.292	363.83
396.671	382.14
397.05	367.45
397.429	361.8
397.808	392.76
398.186	368.13
398.565	387.33
398.944	377.17
399.323	366.77
399.701	354.11
400.08	384.4
400.458	370.39
400.837	385.75
401.215	395.7
401.594	395.7
401.972	372.19
402.351	400.67
402.729	387.79
403.107	387.33
403.486	388.24
403.864	379.43
404.242	396.15
404.62	398.86
404.999	402.48
405.377	397.73
405.755	390.27
406.133	391.63
406.511	387.56
406.889	392.98
407.267	420.55
407.645	395.47
408.023	416.49
408.401	404.06
408.779	415.36
409.156	410.84
409.534	427.11
409.912	442.02
410.29	420.78
410.667	450.61
411.045	402.02
411.422	423.72
411.8	416.03
412.178	434.56
412.555	435.02
412.933	425.07
413.31	424.4
413.687	457.16
414.065	444.28
414.442	444.73
414.819	432.76
415.197	448.35
415.574	462.36
415.951	450.38
416.328	467.78
416.705	459.42
417.082	465.52
417.46	456.26
417.837	462.36
418.214	452.42
418.591	463.72
418.967	473.21
419.344	491.06
419.721	478.41
420.098	467.11
420.475	474.11
420.852	492.19
421.228	478.18
421.605	480.21
421.982	471.4
422.358	492.42
422.735	510.27
423.111	504.85
423.488	496.26
423.864	503.94
424.241	513.88
424.617	492.64
424.994	501.91
425.37	507.78
425.746	502.36
426.123	516.82
426.499	508.46
426.875	514.56
427.251	522.47
427.627	521.34
428.003	533.55
428.379	539.42
428.756	531.74
429.132	526.31
429.507	518.63
429.883	524.51
430.259	555.47
430.635	559.31
431.011	554.79
431.387	530.16
431.763	557.05
432.138	540.1
432.514	567.67
432.89	568.12
433.265	580.1
433.641	574.22
434.016	581.45
434.392	573.54
434.767	574.22
435.143	595.24
435.518	586.43
435.894	597.27
436.269	603.83
436.644	584.17
437.02	583.94
437.395	597.5
437.77	603.37
438.145	608.35
438.52	628.46
438.895	617.38
439.271	611.06
439.646	608.8
440.021	620.55
440.395	645.63
440.77	611.06
441.145	634.33
441.52	636.14
441.895	652.86
442.27	635.69
442.645	633.43
443.019	658.51
443.394	637.05
443.769	646.08
444.143	665.75
444.518	647.21
444.892	661.23
445.267	652.41
445.641	668.01
446.016	695.8
446.39	670.72
446.764	684.05
447.139	663.94
447.513	685.63
447.887	703.03
448.262	668.01
448.636	688.12
449.01	684.28
449.384	690.38
449.758	686.99
450.132	698.51
450.506	708.68
450.88	728.12
451.254	722.01
451.628	709.59
452.002	739.42
452.376	709.59
452.75	726.99
453.123	751.39
453.497	749.13
453.871	753.88
454.244	753.2
454.618	765.86
454.992	750.49
455.365	756.36
455.739	770.15
456.112	743.48
456.486	772.41
456.859	769.02
457.232	788
457.606	787.1
457.979	787.55
458.352	797.04
458.725	819.19
459.099	786.87
459.472	827.55
459.845	837.04
460.218	854.67
460.591	831.39
460.964	853.99
461.337	853.54
461.71	858.51
462.083	865.74
462.456	879.52
462.829	837.04
463.201	880.65
463.574	882.24
463.947	906.87
464.32	890.6
464.692	891.95
465.065	897.83
465.438	922.69
465.81	914.1
466.183	935.57
466.555	920.65
466.928	947.77
467.3	940.31
467.672	962.46
468.045	960.65
468.417	997.49
468.789	998.17
469.161	990.03
469.534	1027.09
469.906	1006.98
470.278	1009.24
470.65	1027.09
471.022	1048.79
471.394	1055.79
471.766	1063.93
472.138	1068.67
472.51	1060.31
472.882	1070.03
473.253	1098.28
473.625	1062.57
473.997	1134.43
474.369	1132.4
474.74	1157.26
475.112	1139.63
475.484	1173.98
475.855	1180.76
476.227	1184.38
476.598	1233.64
476.97	1224.83
477.341	1232.51
477.713	1252.17
478.084	1264.83
478.455	1306.86
478.827	1316.58
479.198	1326.74
479.569	1338.72
479.94	1362
480.311	1362.22
480.682	1416.46
481.053	1396.35
481.424	1412.62
481.795	1446.74
482.166	1442.45
482.537	1465.95
482.908	1472.73
483.279	1505.27
483.65	1521.77
484.021	1544.82
484.391	1554.31
484.762	1569.68
485.133	1577.59
485.503	1606.96
485.874	1647.41
486.244	1678.37
486.615	1671.59
486.985	1678.83
487.356	1743.23
487.726	1710.46
488.097	1771.03
488.467	1794.08
488.837	1810.57
489.207	1799.73
489.578	1808.99
489.948	1857.13
490.318	1865.71
490.688	1905.49
491.058	1903
491.428	1905.94
491.798	1936.9
492.168	1965.82
492.538	2011.47
492.908	1993.17
493.278	2039.04
493.648	2058.48
494.017	2065.93
494.387	2077.69
494.757	2089.44
495.126	2108.65
495.496	2119.49
495.866	2134.18
496.235	2189.77
496.605	2186.38
496.974	2203.56
497.344	2213.5
497.713	2243.1
498.082	2244.46
498.452	2248.98
498.821	2246.95
499.19	2281.3
499.559	2315.87
499.928	2336.89
500.298	2338.47
500.667	2345.48
501.036	2306.61
501.405	2344.35
501.774	2390.9
502.143	2405.81
502.512	2395.19
502.88	2402.42
503.249	2472.48
503.618	2457.56
503.987	2479.48
504.356	2499.14
504.724	2521.97
505.093	2515.87
505.462	2525.81
505.83	2516.32
506.199	2586.82
506.567	2606.71
506.936	2630.67
507.304	2641.96
507.672	2624.56
508.041	2618.24
508.409	2688.52
508.777	2675.86
509.145	2693.26
509.514	2731.68
509.882	2721.06
510.25	2724.67
510.618	2786.59
510.986	2795.63
511.354	2824.56
511.722	2816.65
512.09	2869.76
512.458	2851.9
512.826	2886.03
513.193	2876.99
513.561	2880.83
513.929	2922.18
514.297	2960.37
514.664	2971.22
515.032	2968.96
515.4	3020.94
515.767	3039.24
516.135	3076.3
516.502	3047.15
516.869	3123.31
517.237	3092.8
517.604	3156.75
517.972	3141.16
518.339	3199.69
518.706	3189.29
519.073	3235.62
519.44	3245.56
519.808	3244.89
520.175	3235.62
520.542	3296.41
520.909	3355.17
521.276	3412.34
521.643	3395.16
522.009	3400.59
522.376	3406.24
522.743	3418.67
523.11	3491.21
523.477	3542.96
523.843	3510.19
524.21	3575.73
524.577	3603.07
524.943	3589.51
525.31	3636.29
525.676	3644.88
526.043	3669.73
526.409	3715.38
526.776	3745.89
527.142	3710.64
527.508	3808.94
527.874	3815.49
528.241	3827.24
528.607	3856.85
528.973	3877.86
529.339	3904.53
529.705	3926
530.071	3931.42
530.437	3985.66
530.803	4007.13
531.169	4015.04
531.535	4015.94
531.901	4081.47
532.267	4070.4
532.632	4107.91
532.998	4160.12
533.364	4163.51
533.73	4171.42
534.095	4198.99
534.461	4261.13
534.826	4257.29
535.192	4287.57
535.557	4321.24
535.923	4323.5
536.288	4340.22
536.653	4353.33
537.019	4363.73
537.384	4394.46
537.749	4394.91
538.114	4434.01
538.479	4452.99
538.845	4509.49
539.21	4482.59
539.575	4518.3
539.94	4532.54
540.305	4551.97
540.67	4589.94
541.034	4642.14
541.399	4648.01
541.764	4622.93
542.129	4641.23
542.494	4696.37
542.858	4730.72
543.223	4742.02
543.587	4759.2
543.952	4810.49
544.316	4772.53
544.681	4783.15
545.045	4860.44
545.41	4904.73
545.774	4833.77
546.138	4909.48
546.503	4925.75
546.867	4911.28
547.231	4956.48
547.595	4994.9
547.959	5039.87
548.324	5071.28
548.688	5038.74
549.052	5046.42
549.416	5129.58
549.779	5131.16
550.143	5126.64
550.507	5195.34
550.871	5248.9
551.235	5208.9
551.599	5302.46
551.962	5336.13
552.326	5321.22
552.689	5408.67
553.053	5369.12
553.417	5436.47
553.78	5464.26
554.143	5501.1
554.507	5485.28
554.87	5554.88
555.234	5570.02
555.597	5549.68
555.96	5637.14
556.323	5654.54
556.686	5716.91
557.05	5751.94
557.413	5753.07
557.776	5847.76
558.139	5864.48
558.502	5927.75
558.865	5901.99
559.228	5976.79
559.59	5960.97
559.953	6079.84
560.316	6142.44
560.679	6177.01
561.041	6191.93
561.404	6260.63
561.767	6326.61
562.129	6281.42
562.492	6448.19
562.854	6439.83
563.217	6478.7
563.579	6494.97
563.941	6600.05
564.304	6641.18
564.666	6708.98
565.028	6768.64
565.39	6788.97
565.753	6864.23
566.115	6925.92
566.477	6962.75
566.839	7056.09
567.201	7134.5
567.563	7233.48
567.925	7274.61
568.287	7312.58
568.648	7443.87
569.01	7409.52
569.372	7509.63
569.734	7557.32
570.095	7569.97
570.457	7713.7
570.819	7736.97
571.18	7796.63
571.542	7920.02
571.903	7929.51
572.265	8031.65
572.626	8157.3
572.987	8209.05
573.349	8273.68
573.71	8357.52
574.071	8376.73
574.432	8486.78
574.794	8595.25
575.155	8673.9
575.516	8709.38
575.877	8853.33
576.238	8902.36
576.599	8989.37
576.96	9106.88
577.32	9132.87
577.681	9265.29
578.042	9352.07
578.403	9439.53
578.763	9552.52
579.124	9718.39
579.485	9813.75
579.845	9925.16
580.206	10080.64
580.566	10180.07
580.927	10291.03
581.287	10496.22
581.648	10505.03
582.008	10714.75
582.368	10806.72
582.728	10958.81
583.089	11124.91
583.449	11231.12
583.809	11433.82
584.169	11630.65
584.529	11684.89
584.889	11937.77
585.249	12020.93
585.609	12245.78
585.969	12428.37
586.329	12614.58
586.688	12850.51
587.048	13072.88
587.408	13171.18
587.768	13495.92
588.127	13739.07
588.487	13801.9
588.846	14280.98
589.206	14357.81
589.565	14552.39
589.925	14967.52
590.284	15167.96
590.643	15391.23
591.003	15683.43
591.362	16066.02
591.721	16339.91
592.08	16549.17
592.44	16833.46
592.799	17186.89
593.158	17494.46
593.517	17794.79
593.876	18138.05
594.235	18423.7
594.593	18826.62
594.952	19200.4
595.311	19314.52
595.67	19773.94
596.029	20259.35
596.387	20632.45
596.746	20947.7
597.104	21270.85
597.463	21472.66
597.822	22076.71
598.18	22285.74
598.538	22674.21
598.897	23168.2
599.255	23286.17
599.613	23959.6
599.972	24214.28
600.33	24590.54
600.688	24760.48
601.046	25307.13
601.404	25767.91
601.762	26209.25
602.12	26574.22
602.478	26797.49
602.836	27172.84
603.194	27414.87
603.552	27813.05
603.91	28173.27
604.268	28519.02
604.625	28990.88
604.983	29339.34
605.341	29660.24
605.698	30005.54
606.056	30405.75
606.413	30554.45
606.771	31083.02
607.128	31298.84
607.485	31423.81
607.843	31887.75
608.2	32275.76
608.557	32540.16
608.914	32602.98
609.272	33218.11
609.629	33477.76
609.986	33916.17
610.343	33899.22
610.7	34357.97
611.057	34616.04
611.414	34837.95
611.771	35061
612.127	35467.09
612.484	35754.54
612.841	36015.78
613.198	35976.46
613.554	36315.88
613.911	36624.35
614.267	36832.7
614.624	37021.4
614.98	37203.54
615.337	37457.32
615.693	37589.29
616.05	37667.94
616.406	38163.06
616.762	38111.31
617.118	38370.06
617.475	38599.44
617.831	38801.01
618.187	39009.6
618.543	39063.15
618.899	39605.06
619.255	39553.76
619.611	39596.47
619.967	39983.58
620.323	40056.8
620.678	39983.36
621.034	40090.25
621.39	40197.81
621.746	40347.19
622.101	40832.6
622.457	40506.96
622.812	40772.49
623.168	40939.04
623.523	41110.11
623.879	41347.39
624.234	41115.08
624.589	41307.84
624.945	41426.93
625.3	41661.5
625.655	41689.3
626.01	41700.6
626.365	41835.28
626.72	41833.93
627.075	41987.14
627.43	42062.62
627.785	41953.93
628.14	42220.36
628.495	42150.3
628.85	42304.88
629.205	42161.6
629.559	42411.54
629.914	42288.38
630.269	42581.48
630.623	42333.35
630.978	42362.5
631.332	42675.71
631.687	42664.64
632.041	42600.69
632.396	42806.33
632.75	42601.82
633.104	42818.76
633.459	42567.47
633.813	42634.13
634.167	42574.02
634.521	42729.27
634.875	42730.63
635.229	42695.37
635.583	42419.9
635.937	42505.1
636.291	42637.52
636.645	42688.37
636.999	42647.01
637.352	42887.46
637.706	42433.46
638.06	42841.36
638.413	42626.22
638.767	42763.17
639.121	42682.04
639.474	42393.01
639.828	42626.68
640.181	42780.8
640.534	42656.96
640.888	42673.45
641.241	42509.39
641.594	42602.95
641.947	42801.36
642.301	42517.3
642.654	42740.35
643.007	42684.75
643.36	42668.03
643.713	42639.33
644.066	42804.3
644.419	42388.94
644.771	42169.74
645.124	41840.71
645.477	41785.57
645.83	41580.38
646.182	41437.55
646.535	41528.63
646.888	41589.19
647.24	41532.02
647.593	41691.56
647.945	41573.37
648.298	41339.48
648.65	41511.45
649.002	41241.63
649.355	41521.39
649.707	41345.35
650.059	41595.97
650.411	42193.69
650.763	42170.64
651.115	42543.74
651.467	42369.28
651.819	42348.04
652.171	42375.16
652.523	42265.56
652.875	42311.66
653.227	42209.51
653.578	42518.66
653.93	42347.81
654.282	42309.62
654.633	42079.12
654.985	42237.53
655.337	42286.12
655.688	42186.01
656.039	42418.77
656.391	42092.68
656.742	42113.69
657.094	42165.44
657.445	42310.07
657.796	42140.81
658.147	42040.25
658.498	42070.31
658.849	42344.2
659.2	42028.95
659.551	42002.74
659.902	42177.42
660.253	42126.58
660.604	42199.34
660.955	41956.64
661.306	42060.36
661.656	41988.5
662.007	42120.7
662.358	42127.03
662.708	42001.61
663.059	42031.44
663.409	41771.33
663.76	42167.48
664.11	42147.59
664.461	42291.32
664.811	42237.76
665.161	42022.85
665.511	42098.78
665.862	42252
666.212	42204.31
666.562	42183.75
666.912	42097.42
667.262	41929.07
667.612	42091.1
667.962	42082.96
668.312	42115.5
668.662	42270.3
669.011	42088.16
669.361	42052.45
669.711	42005.68
670.06	41892.46
670.41	41916.64
670.76	41726.13
671.109	42049.97
671.459	41906.69
671.808	41979.91
672.157	41910.08
672.507	41722.97
672.856	41746.7
673.205	41739.02
673.554	41878.9
673.904	41708.06
674.253	41988.95
674.602	41768.85
674.951	41185.81
675.3	40998.24
675.649	41705.57
675.998	41603.65
676.346	41741.95
676.695	41726.13
677.044	41515.97
677.393	41593.26
677.741	41695.63
678.09	41605.91
678.438	41541.28
678.787	41478.01
679.135	41565.46
679.484	41243.89
679.832	41446.37
680.181	41097.45
680.529	41434.84
680.877	41246.6
681.225	41078.69
681.573	41316.65
681.922	41019.03
682.27	40974.52
682.618	40940.62
682.966	40980.62
683.314	40985.59
683.661	40861.52
684.009	40636.9
684.357	40670.8
684.705	40563
685.053	40715.31
685.4	40537.92
685.748	40438.71
686.095	40240.75
686.443	40239.62
686.79	40194.88
687.138	40335.21
687.485	40208.66
687.832	40083.24
688.18	40033.52
688.527	40030.59
688.874	39751.05
689.221	39825.62
689.568	39624.95
689.915	39578.85
690.262	39617.49
690.609	39478.28
690.956	39366.87
691.303	39349.02
691.65	39216.82
691.997	39117.84
692.344	38866.1
692.69	38920.33
693.037	38944.06
693.383	38632.66
693.73	38985.64
694.077	38501.13
694.423	38576.84
694.769	38468.59
695.116	38357.18
695.462	38380.91
695.808	38199.9
696.155	38183.85
696.501	37905.44
696.847	37970.98
697.193	37807.59
697.539	37848.04
697.885	37615.06
698.231	37556.75
698.577	37519.92
698.923	37268.17
699.269	37360.6
699.614	37018.69
699.96	36972.36
700.306	37002.87
700.651	36918.13
700.997	36696.21
701.342	36761.29
701.688	36672.03
702.033	36625.7
702.379	36474.52
702.724	36520.85
703.069	36480.62
703.415	36078.83
703.76	36087.86
704.105	36069.56
704.45	36110.91
704.795	35750.25
705.14	35685.39
705.485	35764.71
705.83	35568.33
706.175	35615.33
706.52	35520.65
706.865	35424.15
707.209	35403.81
707.554	35331.27
707.899	35354.32
708.243	35070.04
708.588	35040.89
708.932	34872.08
709.277	34803.38
709.621	34850.16
709.966	34613.1
710.31	34690.39
710.654	34311.87
710.998	34575.59
711.342	34487.23
711.687	34338.31
712.031	34260.79
712.375	34169.5
712.719	34291.53
713.063	34147.8
713.407	34272.77
713.75	33862.16
714.094	34046.11
714.438	33944.42
714.782	33975.6
715.125	33715.72
715.469	33748.94
715.812	33588.95
716.156	33508.95
716.499	33534.94
716.843	33553.92
717.186	33430.99
717.53	33462.17
717.873	33484.77
718.216	33351.44
718.559	33004.78
718.902	32967.49
719.246	33044.33
719.589	32998.23
719.932	32795.97
720.275	32898.8
720.617	32851.57
720.96	32874.39
721.303	32695.64
721.646	32802.75
721.989	32657.45
722.331	32585.81
722.674	32625.58
723.016	32568.86
723.359	32540.84
723.701	32545.81
724.044	32340.62
724.386	32174.75
724.729	32396.66
725.071	32225.59
725.413	32191.24
725.755	32183.11
726.097	31990.57
726.439	31890.91
726.782	32040.97
727.124	31905.38
727.465	31807.3
727.807	31695.44
728.149	31849.78
728.491	31647.3
728.833	31796
729.175	31610.92
729.516	31493.86
729.858	31555.78
730.199	31512.84
730.541	31580.19
730.882	31375.22
731.224	31552.84
731.565	31342.45
731.906	31298.61
732.248	31409.8
732.589	31182.23
732.93	31162.8
733.271	31065.17
733.612	31146.75
733.953	31142.46
734.294	31110.82
734.635	30870.83
734.976	31119.63
735.317	30832.86
735.658	30963.25
735.999	30818.62
736.339	30767.78
736.68	30883.03
737.021	30726.65
737.361	30593.32
737.702	30744.05
738.042	30660.89
738.383	30445.08
738.723	30532.76
739.063	30519.42
739.404	30582.47
739.744	30499.76
740.084	30390.84
740.424	30348.81
740.764	30483.04
741.104	30462.7
741.444	30231.52
741.784	30252.76
742.124	30228.13
742.464	30186.55
742.804	30054.8
743.143	30084.41
743.483	30018.19
743.823	29895.26
744.162	29864.75
744.502	29875.15
744.841	29975.71
745.181	30061.81
745.52	29907.24
745.86	29833.79
746.199	29780.23
746.538	29756.05
746.877	29748.82
747.216	29742.04
747.556	29607.13
747.895	29601.93
748.234	29479
748.573	29578.88
748.911	29520.35
749.25	29514.48
749.589	29390.87
749.928	29413.69
750.267	29292.34
750.605	29215.5
750.944	29277.2
751.283	29117.88
751.621	29120.59
751.96	29158.78
752.298	29116.52
752.636	29163.98
752.975	28893.7
753.313	28841.73
753.651	28998.56
753.989	28874.95
754.327	28748.62
754.666	28564.9
755.004	28572.58
755.342	28674.05
755.679	28589.08
756.017	28444.68
756.355	28550.89
756.693	28455.52
757.031	28376.65
757.368	28208.07
757.706	28300.5
758.044	28173.72
758.381	28174.17
758.719	28123.1
759.056	28084.69
759.394	27970.34
759.731	27811.7
760.068	27869.55
760.405	27734.19
760.743	27721.3
761.08	27670.23
761.417	27578.26
761.754	27497.13
762.091	27505.94
762.428	27307.3
762.765	27271.6
763.102	27317.47
763.438	27165.84
763.775	27051.72
764.112	27100.98
764.449	27122.22
764.785	26831.61
765.122	26612.63
765.458	26562.92
765.795	26613.54
766.131	26681.11
766.467	26449.47
766.804	26338.29
767.14	26127.67
767.476	26133.55
767.812	26054.23
768.148	26072.99
768.485	26009.26
768.821	25762.94
769.157	25832.54
769.492	25643.85
769.828	25745.09
770.164	25431.2
770.5	25386
770.836	25398.2
771.171	25238.43
771.507	25245.44
771.842	25114.14
772.178	24958.89
772.513	25004.31
772.849	24961.38
773.184	24801.83
773.519	24746.69
773.855	24644.78
774.19	24635.74
774.525	24454.72
774.86	24477.1
775.195	24449.75
775.53	24196.43
775.865	24200.49
776.2	24082.76
776.535	23929.31
776.87	23894.74
777.205	23762.77
777.539	23623.33
777.874	23810.67
778.209	23603.22
778.543	23497.91
778.878	23339.95
779.212	23238.03
779.547	23209.56
779.881	23285.49
780.215	23105.83
780.55	23139.96
780.884	22926.4
781.218	22883.69
781.552	22907.19
781.886	22684.6
782.22	22598.73
782.554	22632.4
782.888	22479.63
783.222	22398.96
783.556	22144.5
783.889	22238.06
784.223	22104.05
784.557	22096.14
784.89	21993.09
785.224	21914
785.557	21715.59
785.891	21745.19
786.224	21748.35
786.558	21627
786.891	21547.91
787.224	21427.91
787.557	21349.27
787.891	21314.24
788.224	21345.2
788.557	21210.06
788.89	21225.66
789.223	21139.33
789.556	20990.86
789.888	20921.03
790.221	20789.28
790.554	20700.02
790.887	20694.37
791.219	20631.55
791.552	20578.22
791.884	20509.74
792.217	20384.55
792.549	20349.52
792.882	20088.06
793.214	20116.31
793.546	20134.39
793.879	19913.6
794.211	19849.2
794.543	20008.06
794.875	19968.51
795.207	19885.13
795.539	19796.54
795.871	19867.95
796.203	19593.61
796.535	19508.41
796.867	19534.85
797.198	19472.93
797.53	19425.7
797.862	19277.01
798.193	19333.05
798.525	19216.67
798.856	19270.23
799.188	18980.07
799.519	19027.97
799.85	18898.03
800.182	18968.54
800.513	18947.98
800.844	18675.67
801.175	18703.24
801.506	18808.54
801.837	18667.76
802.168	18647.87
802.499	18565.16
802.83	18512.51
803.161	18411.95
803.491	18405.84
803.822	18334.21
804.153	18322.68
804.483	18169.47
804.814	17968.79
805.145	18078.39
805.475	18021
805.805	17919.75
806.136	17899.64
806.466	17977.83
806.796	17864.62
807.126	17782.36
807.457	17680.21
807.787	17777.16
808.117	17547.11
808.447	17560.22
808.777	17660.78
809.107	17560.89
809.436	17470.95
809.766	17523.38
810.096	17334.91
810.426	17364.06
810.755	17341.69
811.085	17259.89
811.414	17220.11
811.744	17063.51
812.073	17181.24
812.403	17102.15
812.732	16981.47
813.061	16942.15
813.39	16828.71
813.719	16804.3
814.049	16904.87
814.378	16755.49
814.707	16761.82
815.036	16704.42
815.365	16650.18
815.693	16491.09
816.022	16494.26
816.351	16347.37
816.68	16409.74
817.008	16483.63
817.337	16334.03
817.665	16367.71
817.994	16384.65
818.322	16399.57
818.651	16228.5
818.979	16269.18
819.307	16299.68
819.636	16195.73
819.964	16092.91
820.292	16112.12
820.62	16140.59
820.948	16054.72
821.276	16064.89
821.604	16056.07
821.932	16085.9
822.259	15962.74
822.587	16007.26
822.915	15945.8
823.243	16013.14
823.57	15904.67
823.898	15992.35
824.225	15820.83
824.553	15875.97
824.88	15986.47
825.207	16066.47
825.535	15910.09
825.862	15923.2
826.189	15908.06
826.516	15977.88
826.843	16049.52
827.17	16004.55
827.497	16003.65
827.824	15909.19
828.151	15966.81
828.478	15926.59
828.805	15936.76
829.131	15912.35
829.458	15859.02
829.785	15765.46
830.111	15883.88
830.438	16022.4
830.764	15984.21
831.09	15899.24
831.417	15793.26
831.743	15896.31
832.069	15914.61
832.395	15782.86
832.722	15808.17
833.048	15776.76
833.374	15855.18
833.7	15762.75
834.026	15769.3
834.351	15830.32
834.677	15762.75
835.003	15795.52
835.329	15797.78
835.654	15680.72
835.98	15638.46
836.306	15677.1
836.631	15649.98
836.956	15702.19
837.282	15654.28
837.607	15518.91
837.932	15546.26
838.258	15481.17
838.583	15532.7
838.908	15469.65
839.233	15476.2
839.558	15467.62
839.883	15384.91
840.208	15395.3
840.533	15332.93
840.858	15300.16
841.182	15295.64
841.507	15287.28
841.832	15271.01
842.156	15181.97
842.481	15230.79
842.805	15223.33
843.13	15113.5
843.454	15093.84
843.778	14997.12
844.103	15078.02
844.427	15066.5
844.751	14958.7
845.075	14906.73
845.399	14881.42
845.723	14768.2
846.047	14825.6
846.371	14647.3
846.695	14689.78
847.019	14553.97
847.343	14446.17
847.666	14438.49
847.99	14367.76
848.313	14376.35
848.637	14279.85
848.96	14235.78
849.284	14202.79
849.607	14113.53
849.931	14037.37
850.254	13928.9
850.577	13940.42
850.9	13853.87
851.223	13870.14
851.546	13809.13
851.869	13660.21
852.192	13652.52
852.515	13644.16
852.838	13631.05
853.161	13601.22
853.483	13528.68
853.806	13400.1
854.129	13467.67
854.451	13426.09
854.774	13381.8
855.096	13248.92
855.419	13305.64
855.741	13201.01
856.063	13154
856.385	13088.02
856.708	13088.47
857.03	13036.95
857.352	13025.65
857.674	12963.73
857.996	12978.19
858.318	12825.43
858.64	12854.13
858.961	12814.35
859.283	12767.8
859.605	12721.47
859.926	12708.59
860.248	12657.52
860.57	12602.83
860.891	12612.1
861.212	12565.32
861.534	12452.1
861.855	12456.85
862.176	12504.98
862.498	12528.71
862.819	12557.86
863.14	12421.37
863.461	12339.79
863.782	12341.37
864.103	12331.43
864.424	12271.77
864.745	12294.37
865.065	12278.1
865.386	12218.44
865.707	12260.24
866.027	12219.11
866.348	12183.86
866.668	12107.48
866.989	12119
867.309	12048.04
867.63	12042.4
867.95	12089.85
868.27	12040.36
868.59	12036.07
868.91	11956.07
869.23	11961.95
869.55	11935.28
869.87	11946.58
870.19	11927.37
870.51	11924.21
870.83	11968.05
871.15	11822.06
871.469	11827.71
871.789	11802.63
872.109	11815.73
872.428	11761.95
872.748	11759.46
873.067	11737.77
873.386	11761.27
873.706	11723.99
874.025	11694.83
874.344	11677.21
874.663	11664.33
874.982	11647.83
875.301	11646.25
875.62	11571.22
875.939	11524.67
876.258	11615.29
876.577	11532.35
876.896	11454.16
877.214	11486.48
877.533	11537.55
877.852	11457.55
878.17	11460.04
878.489	11457.55
878.807	11426.14
879.125	11417.1
879.444	11370.32
879.762	11383.88
880.08	11301.17
880.398	11305.69
880.716	11390.66
881.034	11198.8
881.352	11290.55
881.67	11210.55
881.988	11286.93
882.306	11196.77
882.624	11243.09
882.941	11133.94
883.259	11105.92
883.577	11113.38
883.894	11103.44
884.212	11055.08
884.529	11022.76
884.846	10894.4
885.164	10947.28
885.481	10979.6
885.798	10927.85
886.115	10844.46
886.432	10831.35
886.75	10804.46
887.067	10792.71
887.383	10797
887.7	10787.51
888.017	10700.51
888.334	10744.8
888.651	10678.36
888.967	10637.91
889.284	10615.99
889.6	10589.1
889.917	10484.92
890.233	10629.78
890.55	10481.08
890.866	10510.23
891.182	10404.02
891.498	10354.3
891.815	10298.71
892.131	10336.68
892.447	10314.08
892.763	10282.22
893.079	10184.36
893.395	10268.66
893.71	10261.43
894.026	10144.59
894.342	10167.87
894.657	10120.64
894.973	10006.52
895.289	9983.24
895.604	10024.82
895.92	9977.82
896.235	9922.45
896.55	9932.17
896.865	9813.3
897.181	9783.92
897.496	9802.23
897.811	9776.47
898.126	9682.23
898.441	9712.51
898.756	9679.75
899.071	9689.24
899.386	9658.05
899.7	9548.9
900.015	9563.59
900.33	9517.26
900.644	9438.85
900.959	9438.85
901.273	9426.19
901.588	9348.68
901.902	9308.46
902.216	9344.16
902.531	9278.4
902.845	9212.64
903.159	9142.58
903.473	9165.86
903.787	9140.1
904.101	9100.55
904.415	9181.45
904.729	9097.84
905.042	9046.99
905.356	9006.09
905.67	8973.78
905.984	8931.52
906.297	8926.54
906.611	8799.54
906.924	8815.59
907.237	8736.27
907.551	8739.43
907.864	8760.45
908.177	8742.14
908.491	8627.34
908.804	8603.39
909.117	8534.24
909.43	8508.02
909.743	8528.59
910.056	8501.47
910.368	8412.43
910.681	8417.63
910.994	8352.32
911.307	8291.53
911.619	8308.26
911.932	8240.01
912.244	8184.64
912.557	8226.9
912.869	8150.07
913.181	8143.51
913.494	8113.46
913.806	8081.82
914.118	8000.24
914.43	7966.8
914.742	7946.01
915.054	7915.27
915.366	7798.67
915.678	7862.17
915.99	7799.57
916.302	7808.16
916.613	7708.5
916.925	7750.53
917.236	7682.74
917.548	7628.95
917.859	7619.69
918.171	7623.53
918.482	7522.06
918.794	7496.98
919.105	7481.16
919.416	7387.38
919.727	7417.21
920.038	7376.98
920.349	7389.18
920.66	7278.9
920.971	7314.16
921.282	7305.34
921.593	7225.35
921.903	7209.75
922.214	7158.68
922.525	7123.2
922.835	7076.88
923.146	7068.74
923.456	7087.72
923.767	7053.6
924.077	7048.63
924.387	6955.75
924.697	6955.98
925.008	6939.48
925.318	6867.84
925.628	6885.02
925.938	6852.7
926.248	6841.4
926.558	6759.82
926.867	6741.29
927.177	6710.78
927.487	6709.88
927.796	6597.79
928.106	6560.96
928.416	6595.76
928.725	6577.91
929.034	6540.62
929.344	6490.22
929.653	6548.98
929.962	6454.97
930.271	6420.85
930.581	6425.37
930.89	6402.77
931.199	6327.52
931.508	6344.24
931.817	6317.35
932.125	6309.66
932.434	6220.85
932.743	6176.11
933.051	6170.46
933.36	6125.04
933.669	6093.17
933.977	6074.87
934.286	6107.64
934.594	6010.01
934.902	5997.36
935.21	6000.97
935.519	5920.75
935.827	5993.51
936.135	5947.64
936.443	5894.99
936.751	5875.33
937.059	5871.71
937.367	5800.75
937.674	5788.1
937.982	5747.42
938.29	5735.22
938.597	5759.4
938.905	5712.17
939.213	5662.68
939.52	5637.14
939.827	5615.22
940.135	5579.97
940.442	5552.62
940.749	5547.65
941.056	5539.97
941.363	5469.23
941.67	5480.31
941.977	5461.55
942.284	5391.27
942.591	5394.89
942.898	5356.7
943.205	5359.86
943.511	5308.11
943.818	5292.52
944.125	5332.06
944.431	5240.09
944.738	5287.54
945.044	5257.26
945.35	5210.03
945.657	5142.01
945.963	5106.53
946.269	5106.98
946.575	5105.18
946.881	5081.45
947.187	5102.69
947.493	5100.2
947.799	5050.49
948.105	5019.3
948.41	4961.23
948.716	4964.16
949.022	4996.7
949.327	4946.31
949.633	4876.26
949.938	4873.77
950.244	4918.29
950.549	4796.71
950.854	4779.76
951.16	4779.76
951.465	4718.97
951.77	4747.67
952.075	4731.4
952.38	4732.98
952.685	4717.84
952.99	4642.14
953.294	4643.27
953.599	4598.07
953.904	4592.65
954.209	4599.65
954.513	4534.34
954.818	4589.03
955.122	4532.99
955.426	4497.51
955.731	4488.92
956.035	4464.97
956.339	4431.75
956.643	4446.44
956.948	4399.43
957.252	4418.41
957.556	4407.12
957.86	4323.28
958.163	4380.9
958.467	4283.28
958.771	4333.45
959.075	4302.26
959.378	4190.17
959.682	4254.58
959.985	4239.21
960.289	4207.35
960.592	4151.53
960.896	4175.03
961.199	4166.22
961.502	4089.84
961.805	4064.75
962.108	4033.57
962.411	4045.32
962.714	4060.68
963.017	4028.14
963.32	4030.63
963.623	4022.49
963.926	3966.68
964.228	3960.12
964.531	3945.43
964.833	3975.94
965.136	3938.43
965.438	3907.92
965.741	3864.31
966.043	3866.11
966.345	3841.93
966.648	3808.04
966.95	3804.19
967.252	3786.12
967.554	3778.88
967.856	3745.89
968.158	3723.52
968.46	3716.51
968.761	3693.69
969.063	3705.89
969.365	3660.92
969.666	3637.42
969.968	3615.5
970.269	3617.76
970.571	3636.06
970.872	3582.28
971.174	3587.02
971.475	3529.17
971.776	3574.14
972.077	3533.47
972.378	3515.84
972.679	3506.8
972.98	3518.1
973.281	3479.91
973.582	3442.62
973.883	3464.09
974.183	3446.01
974.484	3400.59
974.785	3373.7
975.085	3406.46
975.386	3405.33
975.686	3366.24
975.986	3356.3
976.287	3354.26
976.587	3334.15
976.887	3285.11
977.187	3298.44
977.487	3246.24
977.787	3249.63
978.087	3245.79
978.387	3246.47
978.687	3243.08
978.987	3203.76
979.286	3162.85
979.586	3123.08
979.885	3136.87
980.185	3114.04
980.484	3083.99
980.784	3093.25
981.083	3099.13
981.382	3068.85
981.682	3097.55
981.981	3067.26
982.28	3048.28
982.579	3039.92
982.878	3026.36
983.177	2965.35
983.475	2983.65
983.774	2985.01
984.073	3000.37
984.372	2949.3
984.67	2947.49
984.969	2932.13
985.267	2897.78
985.566	2880.83
985.864	2884.9
986.162	2890.09
986.461	2823.43
986.759	2822.52
987.057	2820.49
987.355	2820.94
987.653	2761.51
987.951	2764
988.249	2765.35
988.547	2787.95
988.844	2767.61
989.142	2768.51
989.44	2745.92
989.737	2683.09
990.035	2658.24
990.332	2699.82
990.63	2671.34
990.927	2681.06
991.224	2629.08
991.521	2636.31
991.819	2652.13
992.116	2618.91
992.413	2589.08
992.71	2590.67
993.006	2560.38
993.303	2584.79
993.6	2545.02
993.897	2545.24
994.193	2515.19
994.49	2546.83
994.787	2488.07
995.083	2497.34
995.379	2465.47
995.676	2458.24
995.972	2432.93
996.268	2449.65
996.565	2412.59
996.861	2420.28
997.157	2410.78
997.453	2354.06
997.749	2397.45
998.044	2376.21
998.34	2384.12
998.636	2347.28
998.932	2339.15
999.227	2323.1
999.523	2316.55
999.818	2297.57
1000.114	2247.17
1000.409	2287.62
1000.704	2310.9
1001	2250.79
1001.295	2236.55
1001.59	2243.33
1001.885	2255.31
1002.18	2225.03
1002.475	2173.73
1002.77	2161.75
1003.065	2137.34
1003.359	2157.68
1003.654	2108.42
1003.949	2128.98
1004.243	2116.78
1004.538	2119.49
1004.832	2130.34
1005.127	2090.34
1005.421	2076.33
1005.715	2071.36
1006.009	2052.83
1006.304	2034.3
1006.598	2043.79
1006.892	2029.33
1007.186	1990.23
1007.48	2017.12
1007.773	1967.86
1008.067	1938.71
1008.361	1989.55
1008.655	1946.84
1008.948	1947.97
1009.242	1952.04
1009.535	1927.63
1009.829	1893.06
1010.122	1904.13
1010.415	1881.31
1010.708	1885.83
1011.001	1862.78
1011.295	1881.53
1011.588	1853.74
1011.881	1839.73
1012.173	1796.34
1012.466	1806.51
1012.759	1818.26
1013.052	1784.81
1013.344	1778.48
1013.637	1774.64
1013.93	1758.6
1014.222	1715.66
1014.514	1741.88
1014.807	1716.57
1015.099	1706.85
1015.391	1695.1
1015.683	1705.72
1015.976	1687.87
1016.268	1659.39
1016.56	1658.26
1016.851	1667.98
1017.143	1641.54
1017.435	1650.35
1017.727	1611.03
1018.018	1593.63
1018.31	1568.77
1018.602	1582.56
1018.893	1585.72
1019.185	1570.35
1019.476	1571.26
1019.767	1556.57
1020.058	1562.22
1020.35	1543.46
1020.641	1510.02
1020.932	1524.25
1021.223	1503.24
1021.514	1493.07
1021.804	1490.81
1022.095	1470.7
1022.386	1446.29
1022.677	1461.2
1022.967	1420.53
1023.258	1424.6
1023.548	1436.57
1023.839	1409.45
1024.129	1381.21
1024.419	1380.75
1024.709	1374.2
1025	1390.7
1025.29	1386.4
1025.58	1343.02
1025.87	1350.02
1026.16	1336.69
1026.449	1348.21
1026.739	1324.94
1027.029	1301.21
1027.319	1306.18
1027.608	1305.73
1027.898	1257.14
1028.187	1266.86
1028.477	1263.24
1028.766	1251.27
1029.055	1231.38
1029.344	1245.62
1029.634	1242.45
1029.923	1193.87
1030.212	1205.17
1030.501	1228.89
1030.79	1212.4
1031.078	1199.06
1031.367	1182.34
1031.656	1158.16
1031.945	1182.79
1032.233	1147.99
1032.522	1137.6
1032.81	1140.99
1033.099	1129.69
1033.387	1130.14
1033.675	1126.75
1033.963	1115.68
1034.251	1115.22
1034.54	1097.37
1034.828	1108.22
1035.116	1085.17
1035.403	1073.64
1035.691	1073.87
1035.979	1097.15
1036.267	1078.39
1036.554	1057.83
1036.842	1028.67
1037.129	1035.45
1037.417	1030.26
1037.704	1042.23
1037.992	1038.62
1038.279	1030.93
1038.566	992.52
1038.853	992.52
1039.14	992.52
