Data from red_cardboard_box_FLMS001491_00098.txt Node
Date: Wed Feb 08 11:33:26 GMT 2017
User: dcchb
Spectrometer: FLMS00149
Trigger mode: 0
Integration Time (sec): 2.000000E-2
Scans to average: 10
Electric dark correction enabled: true
Nonlinearity correction enabled: false
Boxcar width: 0
XAxis mode: Wavelengths
Number of Pixels in Spectrum: 2048
>>>>>Begin Spectral Data<<<<<
341.393	5.23
341.776	5.23
342.16	5.23
342.543	-56.24
342.927	-47.2
343.31	-75.9
343.693	-68.44
344.077	-71.16
344.46	-52.63
344.843	-39.97
345.226	-47.65
345.61	-48.11
345.993	-17.37
346.376	-9.69
346.759	19.46
347.142	18.78
347.525	49.52
347.908	53.13
348.291	91.55
348.674	92.91
349.057	105.56
349.44	107.82
349.823	130.87
350.206	153.7
350.588	184.43
350.971	228.72
351.354	222.62
351.737	245.67
352.119	270.3
352.502	282.51
352.884	307.59
353.267	281.6
353.65	303.75
354.032	326.35
354.414	312.79
354.797	315.5
355.179	348.72
355.562	344.43
355.944	339.91
356.326	344.65
356.709	350.3
357.091	352.11
357.473	342.62
357.855	361.15
358.238	357.53
358.62	355.05
359.002	330.19
359.384	349.62
359.766	344.2
360.148	330.64
360.53	353.92
360.912	346.46
361.294	340.81
361.676	346.69
362.057	355.27
362.439	341.49
362.821	343.52
363.203	352.56
363.584	323.41
363.966	325.44
364.348	318.21
364.729	331.32
365.111	315.95
365.493	311.88
365.874	359.11
366.256	316.86
366.637	342.17
367.019	340.13
367.4	324.31
367.781	313.01
368.163	330.87
368.544	316.86
368.925	322.96
369.306	337.19
369.688	328.83
370.069	315.95
370.45	344.2
370.831	333.8
371.212	335.39
371.593	311.88
371.974	331.32
372.355	329.06
372.736	339.45
373.117	330.19
373.498	314.6
373.879	336.74
374.26	312.56
374.641	316.86
375.021	337.19
375.402	306.01
375.783	340.13
376.163	327.48
376.544	323.86
376.925	322.05
377.305	323.18
377.686	339
378.066	334.26
378.447	360.47
378.827	347.36
379.208	340.36
379.588	346.23
379.968	348.27
380.349	347.36
380.729	350.3
381.109	324.09
381.489	345.1
381.87	357.08
382.25	354.37
382.63	351.66
383.01	364.31
383.39	328.61
383.77	344.65
384.15	330.64
384.53	360.02
384.91	380.36
385.29	348.04
385.67	369.96
386.049	351.43
386.429	357.08
386.809	353.24
387.189	324.31
387.568	352.79
387.948	381.71
388.328	370.19
388.707	355.5
389.087	355.27
389.466	363.63
389.846	371.09
390.225	382.39
390.605	375.16
390.984	360.02
391.363	369.74
391.743	380.13
392.122	371.77
392.501	360.47
392.881	364.99
393.26	383.75
393.639	378.55
394.018	372.45
394.397	378.78
394.776	387.36
395.155	377.87
395.534	395.05
395.913	363.63
396.292	385.1
396.671	374.48
397.05	400.92
397.429	391.66
397.808	381.71
398.186	385.78
398.565	390.98
398.944	409.73
399.323	389.85
399.701	413.12
400.08	388.27
400.458	398.21
400.837	410.64
401.215	383.07
401.594	395.27
401.972	408.61
402.351	404.31
402.729	422.62
403.107	405.67
403.486	423.07
403.864	414.93
404.242	416.51
404.62	423.97
404.999	426.01
405.377	416.51
405.755	425.1
406.133	416.74
406.511	453.58
406.889	443.63
407.267	411.32
407.645	405.44
408.023	423.52
408.401	429.17
408.779	426.46
409.156	431.43
409.534	444.54
409.912	440.47
410.29	449.96
410.667	445.21
411.045	436.85
411.422	453.12
411.8	443.63
412.178	464.65
412.555	456.51
412.933	434.37
413.31	457.64
413.687	470.98
414.065	472.11
414.442	472.11
414.819	483.18
415.197	470.52
415.574	462.39
415.951	490.64
416.328	479.34
416.705	491.54
417.082	479.79
417.46	491.09
417.837	489.51
418.214	477.76
418.591	483.18
418.967	479.34
419.344	502.16
419.721	493.12
420.098	511.88
420.475	490.64
420.852	509.17
421.228	509.17
421.605	504.65
421.982	517.08
422.358	510.98
422.735	536.96
423.111	513.01
423.488	531.31
423.864	531.31
424.241	532.67
424.617	531.77
424.994	520.92
425.37	555.04
425.746	533.8
426.123	524.53
426.499	541.26
426.875	557.53
427.251	545.32
427.627	551.88
428.003	568.6
428.379	544.65
428.756	574.25
429.132	583.29
429.507	594.36
429.883	570.41
430.259	602.27
430.635	563.18
431.011	593.68
431.387	616.96
431.763	605.66
432.138	598.2
432.514	606.34
432.89	614.7
433.265	632.78
433.641	619.45
434.016	630.75
434.392	636.4
434.767	637.53
435.143	626.23
435.518	673.91
435.894	641.59
436.269	634.36
436.644	659.67
437.02	681.82
437.395	669.16
437.77	668.03
438.145	693.12
438.52	673.46
438.895	690.63
439.271	686.79
439.646	678.65
440.021	702.83
440.395	680.69
440.77	708.94
441.145	686.56
441.52	713
441.895	703.74
442.27	710.29
442.645	702.83
443.019	694.25
443.394	732.21
443.769	707.35
444.143	737.64
444.518	724.53
444.892	727.47
445.267	734.47
445.641	735.38
446.016	730.63
446.39	748.03
446.764	749.61
447.139	724.98
447.513	734.02
447.887	765.88
448.262	757.97
448.636	767.69
449.01	762.95
449.384	765.21
449.758	778.54
450.132	771.76
450.506	760.01
450.88	796.17
451.254	800.46
451.628	787.13
452.002	819.44
452.376	821.25
452.75	805.88
453.123	818.76
453.497	790.97
453.871	800.91
454.244	848.37
454.618	870.97
454.992	838.2
455.365	863.96
455.739	877.29
456.112	857.41
456.486	878.2
456.859	887.01
457.232	882.04
457.606	867.8
457.979	881.36
458.352	921.81
458.725	903.28
459.099	917.97
459.472	945.77
459.845	923.39
460.218	934.47
460.591	942.83
460.964	953
461.337	946.22
461.71	964.52
462.083	973.56
462.456	999.1
462.829	1004.3
463.201	999.55
463.574	985.99
463.947	1040
464.32	1042.49
464.692	1040.23
465.065	1048.81
465.438	1053.33
465.81	1062.6
466.183	1056.05
466.555	1097.85
466.928	1071.86
467.3	1091.52
467.672	1088.36
468.045	1103.5
468.417	1104.86
468.789	1117.06
469.161	1143.28
469.534	1160.68
469.906	1162.94
470.278	1175.36
470.65	1154.8
471.022	1174.69
471.394	1221.01
471.766	1217.17
472.138	1234.35
472.51	1238.87
472.882	1244.74
473.253	1266.21
473.625	1289.03
473.997	1310.05
474.369	1328.35
474.74	1324.97
475.112	1344.4
475.484	1366.09
475.855	1359.09
476.227	1393.89
476.598	1408.58
476.97	1439.31
477.341	1475.24
477.713	1461.91
478.084	1467.33
478.455	1495.58
478.827	1507.79
479.198	1554.34
479.569	1569.25
479.94	1590.95
480.311	1626.65
480.682	1633.21
481.053	1698.97
481.424	1670.72
481.795	1700.32
482.166	1703.71
482.537	1729.47
482.908	1776.48
483.279	1818.29
483.65	1785.07
484.021	1820.77
484.391	1854.67
484.762	1877.94
485.133	1862.35
485.503	1918.62
485.874	1919.53
486.244	1977.38
486.615	1995.91
486.985	2002.91
487.356	2016.47
487.726	2056.47
488.097	2097.6
488.467	2100.76
488.837	2110.03
489.207	2156.81
489.578	2194.55
489.948	2204.94
490.318	2222.12
490.688	2251.72
491.058	2259.63
491.428	2304.37
491.798	2292.85
492.168	2354.77
492.538	2383.02
492.908	2408.33
493.278	2420.76
493.648	2434.99
494.017	2454.65
494.387	2453.07
494.757	2508.44
495.126	2530.81
495.496	2568.77
495.866	2550.02
496.235	2585.05
496.605	2617.13
496.974	2610.81
497.344	2636.8
497.713	2666.4
498.082	2664.36
498.452	2667.75
498.821	2707.08
499.19	2736.68
499.559	2743.46
499.928	2768.77
500.298	2793.85
500.667	2808.09
501.036	2832.27
501.405	2837.47
501.774	2869.56
502.143	2852.61
502.512	2899.16
502.88	2881.53
503.249	2925.83
503.618	2964.47
503.987	2981.64
504.356	2962.21
504.724	3009.21
505.093	3023
505.462	3036.11
505.83	3091.47
506.199	3059.61
506.567	3131.02
506.936	3079.27
507.304	3164.24
507.672	3169.44
508.041	3193.39
508.409	3202.43
508.777	3212.6
509.145	3233.16
509.514	3265.71
509.882	3278.59
510.25	3312.48
510.618	3325.82
510.986	3340.28
511.354	3348.64
511.722	3397.68
512.09	3441.52
512.458	3469.54
512.826	3428.64
513.193	3454.63
513.561	3475.87
513.929	3535.3
514.297	3528.52
514.664	3574.17
515.032	3604
515.4	3661.17
515.767	3618.01
516.135	3651.23
516.502	3634.51
516.869	3709.08
517.237	3737.33
517.604	3750.89
517.972	3754.96
518.339	3803.54
518.706	3850.77
519.073	3850.55
519.44	3877.89
519.808	3895.07
520.175	3878.34
520.542	3984.33
520.909	4035.4
521.276	4026.14
521.643	4058.23
522.009	4101.16
522.376	4095.06
522.743	4137.09
523.11	4221.39
523.477	4221.61
523.843	4213.25
524.21	4324.21
524.577	4343.42
524.943	4357.65
525.31	4399.23
525.676	4400.14
526.043	4478.78
526.409	4462.96
526.776	4521.49
527.142	4560.59
527.508	4589.51
527.874	4595.16
528.241	4633.8
528.607	4619.79
528.973	4698.44
529.339	4702.28
529.705	4770.3
530.071	4773.46
530.437	4813.69
530.803	4875.15
531.169	4889.39
531.535	4888.94
531.901	4855.27
532.267	4945.21
532.632	4983.17
532.998	4995.38
533.364	5033.57
533.73	5056.84
534.095	5059.78
534.461	5055.26
534.826	5108.82
535.192	5166.9
535.557	5272.66
535.923	5205.32
536.288	5196.28
536.653	5272.21
537.019	5225.88
537.384	5331.64
537.749	5340
538.114	5345.42
538.479	5404.41
538.845	5458.87
539.21	5384.52
539.575	5496.15
539.94	5437.63
540.305	5532.31
540.67	5497.96
541.034	5583.61
541.399	5587
541.764	5596.72
542.129	5606.43
542.494	5622.48
542.858	5681.23
543.223	5681.69
543.587	5734.11
543.952	5725.3
544.316	5775.24
544.681	5838.97
545.045	5841.91
545.41	5896.6
545.774	5935.69
546.138	5910.16
546.503	5942.92
546.867	5954.22
547.231	6020.43
547.595	6086.65
547.959	6068.12
548.324	6069.47
548.688	6124.61
549.052	6124.16
549.416	6160.32
549.779	6137.95
550.143	6237.83
550.507	6209.81
550.871	6306.3
551.235	6318.28
551.599	6372.74
551.962	6370.71
552.326	6451.84
552.689	6449.58
553.053	6464.94
553.417	6561.89
553.78	6574.32
554.143	6616.35
554.507	6644.15
554.87	6710.81
555.234	6782.22
555.597	6729.34
555.96	6790.36
556.323	6822.67
556.686	6879.85
557.05	6941.31
557.413	6957.59
557.776	6984.48
558.139	7051.37
558.502	7033.29
558.865	7134.98
559.228	7147.86
559.59	7260.63
559.953	7301.31
560.316	7370.46
560.679	7466.05
561.041	7584.24
561.404	7617.23
561.767	7609.32
562.129	7643.22
562.492	7784.23
562.854	7800.5
563.217	7872.36
563.579	7890.22
563.941	7956.88
564.304	8050.21
564.666	8087.05
565.028	8188.74
565.39	8279.36
565.753	8301.5
566.115	8344.44
566.477	8461.05
566.839	8498.79
567.201	8560.48
567.563	8682.74
567.925	8761.83
568.287	8796.41
568.648	8851.55
569.01	8995.5
569.372	9056.06
569.734	9070.07
570.095	9235.72
570.457	9290.86
570.819	9383.28
571.18	9400.46
571.542	9559.32
571.903	9660.34
572.265	9734.24
572.626	9788.02
572.987	9842.48
573.349	10009.26
573.71	10047
574.071	10138.29
574.432	10248.8
574.794	10428
575.155	10538.96
575.516	10552.75
575.877	10608.56
576.238	10719.29
576.599	10895.33
576.96	10972.4
577.32	11031.38
577.681	11124.93
578.042	11316.11
578.403	11375.77
578.763	11580.29
579.124	11682.66
579.485	11878.59
579.845	11993.84
580.206	12089.43
580.566	12249.2
580.927	12346.37
581.287	12599.7
581.648	12734.61
582.008	12901.16
582.368	13072.23
582.728	13191.09
583.089	13443.52
583.449	13563.74
583.809	13826.78
584.169	13980.23
584.529	14216.6
584.889	14419.08
585.249	14552.19
585.609	14785.63
585.969	15048.9
586.329	15206.86
586.688	15469.23
587.048	15673.74
587.408	15904.92
587.768	16134.75
588.127	16447.51
588.487	16667.61
588.846	17133.59
589.206	17327.93
589.565	17544.88
589.925	17836.17
590.284	18129.95
590.643	18469.15
591.003	18797.73
591.362	19127.43
591.721	19372.85
592.08	19767.42
592.44	20144.81
592.799	20562.88
593.158	20819.59
593.517	21213.93
593.876	21654.83
594.235	21936.85
594.593	22410.96
594.952	22736.83
595.311	23095.69
595.67	23432.41
596.029	24051.83
596.387	24387.86
596.746	24880.73
597.104	25107.16
597.463	25356.65
597.822	25877.99
598.18	26261.71
598.538	26667.35
598.897	27164.74
599.255	27484.96
599.613	28184.37
599.972	28425.72
600.33	28895.09
600.688	29085.82
601.046	29647.16
601.404	30174.83
601.762	30584.99
602.12	30996.28
602.478	31356.27
602.836	31889.81
603.194	32097.26
603.552	32618.38
603.91	32856.79
604.268	33441.86
604.625	33652.7
604.983	34386.02
605.341	34399.8
605.698	35042.04
606.056	35494.91
606.413	35745.08
606.771	36267.1
607.128	36599.07
607.485	36719.74
607.843	37124.93
608.2	37597.68
608.557	38019.59
608.914	38106.82
609.272	38650.09
609.629	38973.01
609.986	39279.45
610.343	39448.03
610.7	39957.4
611.057	40226.77
611.414	40484.16
611.771	40679.41
612.127	41163.24
612.484	41431.93
612.841	41757.8
613.198	41916.44
613.554	42002.09
613.911	42445.69
614.267	42628.74
614.624	42806.36
614.98	43059.69
615.337	43505.55
615.693	43536.51
616.05	43684.98
616.406	44053.56
616.762	44217.4
617.118	44322.7
617.475	44424.85
617.831	44924.27
618.187	45108.67
618.543	45180.76
618.899	45627.3
619.255	45532.62
619.611	45651.03
619.967	45951.36
620.323	46237.46
620.678	46138.48
621.034	46297.79
621.39	46414.85
621.746	46458.47
622.101	46966.48
622.457	46777.78
622.812	46949.98
623.168	47141.84
623.523	47152.01
623.879	47434.49
624.234	47288.05
624.589	47509.97
624.945	47609.62
625.3	47700.69
625.655	47799.9
626.01	47911.54
626.365	48030.63
626.72	47937.07
627.075	48107.69
627.43	48149.95
627.785	47982.04
628.14	48262.49
628.495	48359.66
628.85	48416.16
629.205	48348.36
629.559	48550.62
629.914	48478.08
630.269	48684.4
630.623	48511.52
630.978	48472.43
631.332	48763.04
631.687	48748.58
632.041	48789.03
632.396	48878.74
632.75	48632.65
633.104	48824.06
633.459	48675.58
633.813	48768.01
634.167	48807.78
634.521	48814.79
634.875	48952.41
635.229	48979.53
635.583	48804.85
635.937	48739.76
636.291	48688.92
636.645	48916.03
636.999	48866.99
637.352	48890.72
637.706	48663.61
638.06	48924.62
638.413	48839.65
638.767	48798.07
639.121	48925.75
639.474	48645.75
639.828	48756.03
640.181	48942.47
640.534	49052.52
640.888	48754.68
641.241	48654.79
641.594	48787.67
641.947	48881.45
642.301	48711.52
642.654	48870.16
643.007	48895.47
643.36	48890.95
643.713	48850.95
644.066	48880.1
644.419	48691.63
644.771	48451.41
645.124	47995.83
645.477	47954.7
645.83	47867.02
646.182	47852.33
646.535	47616.18
646.888	47885.1
647.24	47587.03
647.593	47819.34
647.945	47806.23
648.298	47546.8
648.65	47612.79
649.002	47434.94
649.355	47772.33
649.707	47590.42
650.059	47697.08
650.411	48181.59
650.763	48306.55
651.115	48677.62
651.467	48564.4
651.819	48637.39
652.171	48509.49
652.523	48550.62
652.875	48546.77
653.227	48419.32
653.578	48698.86
653.93	48592.87
654.282	48324.63
654.633	48352.2
654.985	48406.44
655.337	48425.65
655.688	48391.75
656.039	48614.34
656.391	48343.16
656.742	48389.04
657.094	48356.72
657.445	48506.1
657.796	48374.35
658.147	48263.84
658.498	48337.06
658.849	48380.45
659.2	48220.23
659.551	48233.34
659.902	48278.08
660.253	48265.2
660.604	48471.75
660.955	48212.32
661.306	48281.7
661.656	48388.81
662.007	48326.22
662.358	48209.38
662.708	48239.89
663.059	48225.88
663.409	47888.71
663.76	48283.96
664.11	48389.04
664.461	48302.94
664.811	48324.63
665.161	48257.06
665.511	48257.06
665.862	48231.75
666.212	48311.07
666.562	48378.64
666.912	48296.84
667.262	48193.79
667.612	48177.52
667.962	48282.37
668.312	48101.14
668.662	48305.88
669.011	48127.8
669.361	48137.75
669.711	48114.47
670.06	48074.24
670.41	48085.32
670.76	48006
671.109	48034.25
671.459	48061.82
671.808	48128.93
672.157	48176.61
672.507	47757.42
672.856	47799.45
673.205	47959.22
673.554	48076.73
673.904	47895.04
674.253	48081.93
674.602	47892.55
674.951	47466.12
675.3	47267.94
675.649	47938.2
675.998	47866.79
676.346	47958.54
676.695	47888.03
677.044	47750.19
677.393	47782.95
677.741	47720.58
678.09	47773.69
678.438	47692.33
678.787	47669.51
679.135	47680.58
679.484	47397.2
679.832	47646.69
680.181	47467.93
680.529	47585.22
680.877	47444.66
681.225	47355.39
681.573	47626.12
681.922	47233.36
682.27	47129.86
682.618	47324.89
682.966	47141.84
683.314	47243.98
683.661	47112.69
684.009	46971
684.357	46862.52
684.705	46703.43
685.053	46813.94
685.4	46687.39
685.748	46481.07
686.095	46454.17
686.443	46460.73
686.79	46359.49
687.138	46442.2
687.485	46372.37
687.832	46302.77
688.18	46228.42
688.527	46016.45
688.874	46059.38
689.221	46010.34
689.568	45760.41
689.915	45630.92
690.262	45776.23
690.609	45691.71
690.956	45492.39
691.303	45550.69
691.65	45394.54
691.997	45522
692.344	45074.78
692.69	45143.93
693.037	45268.22
693.383	44797.49
693.73	44928.11
694.077	44711.39
694.423	44681.34
694.769	44498.07
695.116	44600.21
695.462	44406.77
695.808	44308.92
696.155	44396.83
696.501	44063.28
696.847	44098.08
697.193	43769.95
697.539	44021.47
697.885	43742.61
698.231	43629.16
698.577	43638.43
698.923	43504.42
699.269	43220.36
699.614	43033.7
699.96	43112.57
700.306	43057.65
700.651	42885.45
700.997	42777.43
701.342	42758
701.688	42642.97
702.033	42529.98
702.379	42528.85
702.724	42471.23
703.069	42380.61
703.415	42088.19
703.76	42001.18
704.105	41998.02
704.45	41942.65
704.795	41725.03
705.14	41685.94
705.485	41757.35
705.83	41327.08
706.175	41598.71
706.52	41320.07
706.865	41247.08
707.209	41259.96
707.554	41080.08
707.899	41180.41
708.243	41014.54
708.588	40849.35
708.932	40559.87
709.277	40573.2
709.621	40688.9
709.966	40297.27
710.31	40477.61
710.654	40021.8
710.998	40135.47
711.342	40338.85
711.687	40066.09
712.031	39943.38
712.375	39873.78
712.719	39771.86
713.063	39824.97
713.407	39940.45
713.75	39716.05
714.094	39683.73
714.438	39438.54
714.782	39529.16
715.125	39292.55
715.469	39487.58
715.812	39246.91
716.156	38933.02
716.499	39031.32
716.843	39029.74
717.186	38672.01
717.53	38941.83
717.873	39021.6
718.216	38751.55
718.559	38519.24
718.902	38502.52
719.246	38553.59
719.589	38315.86
719.932	38283.32
720.275	38221.4
720.617	38157.22
720.96	38185.01
721.303	38227.95
721.646	38387.49
721.989	38047.16
722.331	38152.47
722.674	37866.83
723.016	37975.75
723.359	37830.22
723.701	37903.89
724.044	37544.58
724.386	37481.75
724.729	37666.61
725.071	37564.69
725.413	37459.83
725.755	37361.31
726.097	37282.66
726.439	37205.6
726.782	37186.4
727.124	37370.35
727.465	37076.12
727.807	37107.75
728.149	36920.19
728.491	36869.34
728.833	36862.11
729.175	36886.52
729.516	36701.44
729.858	36690.14
730.199	36680.19
730.541	36594.77
730.882	36634.09
731.224	36723.13
731.565	36454.66
731.906	36504.38
732.248	36558.62
732.589	36384.38
732.93	36071.62
733.271	36236.14
733.612	36137.84
733.953	36203.6
734.294	36061
734.635	36115.24
734.976	36188.68
735.317	35857.62
735.658	35807.9
735.999	35889.03
736.339	35687
736.68	35836.15
737.021	35787.79
737.361	35650.84
737.702	35788.24
738.042	35641.58
738.383	35412.88
738.723	35542.6
739.063	35348.7
739.404	35576.49
739.744	35472.99
740.084	35296.05
740.424	35325.88
740.764	35318.65
741.104	35489.04
741.444	35152.55
741.784	35071.42
742.124	35207.69
742.464	35154.36
742.804	35018.77
743.143	34992.55
743.483	34915.27
743.823	34801.15
744.162	34807.47
744.502	34781.03
744.841	34593.02
745.181	34921.14
745.52	34595.95
745.86	34713.92
746.199	34614.49
746.538	34605.67
746.877	34720.92
747.216	34553.24
747.556	34351.89
747.895	34383.53
748.234	34240.26
748.573	34118
748.911	34157.1
749.25	34234.61
749.589	34066.25
749.928	34070.09
750.267	34192.35
750.605	33963.43
750.944	33860.83
751.283	33801.4
751.621	33875.07
751.96	33759.14
752.298	33726.83
752.636	33618.81
752.975	33536.1
753.313	33302.88
753.651	33531.58
753.989	33289.32
754.327	33320.06
754.666	33151.02
755.004	33184.92
755.342	33217.91
755.679	33109.89
756.017	32873.51
756.355	32998.93
756.693	32850.01
757.031	32864.47
757.368	32670.58
757.706	32560.75
758.044	32474.43
758.381	32496.8
758.719	32377.48
759.056	32422.45
759.394	32366.18
759.731	32129.8
760.068	32002.8
760.405	31996.7
760.743	31910.6
761.08	31897.95
761.417	31763.26
761.754	31770.49
762.091	31702.25
762.428	31542.7
762.765	31406.21
763.102	31463.16
763.438	31236.72
763.775	31109.49
764.112	31236.72
764.449	31181.58
764.785	31042.15
765.122	30749.5
765.458	30643.74
765.795	30616.4
766.131	30573.01
766.467	30413.24
766.804	30342.28
767.14	30202.17
767.476	30231.78
767.812	30069.07
768.148	30060.71
768.485	29888.96
768.821	29909.52
769.157	29691
769.492	29637.67
769.828	29538.69
770.164	29299.6
770.5	29357
770.836	29288.3
771.171	29021.86
771.507	29016.21
771.842	28760.4
772.178	28893.73
772.513	28730.12
772.849	28564.7
773.184	28472.5
773.519	28525.15
773.855	28376.68
774.19	28256.23
774.525	28210.13
774.86	28224.14
775.195	28031.61
775.53	27986.64
775.865	27832.74
776.2	27625.52
776.535	27595.69
776.87	27448.8
777.205	27406.54
777.539	27235.47
777.874	27308.24
778.209	27158.64
778.543	27165.64
778.878	26871.19
779.212	26971.52
779.547	26675.26
779.881	26759.55
780.215	26592.78
780.55	26647.46
780.884	26531.53
781.218	26433.23
781.552	26270.3
781.886	26138.55
782.22	26067.37
782.554	25961.38
782.888	25855.85
783.222	25744.89
783.556	25548.51
783.889	25412.69
784.223	25301.28
784.557	25408.85
784.89	25376.08
785.224	25267.16
785.557	25167.95
785.891	25077.11
786.224	24953.04
786.558	24986.94
786.891	24691.36
787.224	24642.54
787.557	24656.1
787.891	24604.81
788.224	24542.43
788.557	24435.54
788.89	24404.58
789.223	24383.34
789.556	24182.22
789.888	24086.4
790.221	24010.47
790.554	23768.67
790.887	23911.49
791.219	23713.53
791.552	23584.27
791.884	23591.27
792.217	23456.59
792.549	23457.26
792.882	23300.66
793.214	23135.47
793.546	23186.76
793.879	22976.37
794.211	22871.52
794.543	22925.53
794.875	22832.87
795.207	22857.05
795.539	22742.71
795.871	22789.94
796.203	22587
796.535	22507.91
796.867	22462.94
797.198	22362.38
797.53	22348.82
797.862	22242.61
798.193	22213.68
798.525	21985.44
798.856	22090.29
799.188	21832.45
799.519	21963.52
799.85	21790.19
800.182	21743.64
800.513	21778.66
800.844	21578.44
801.175	21655.73
801.506	21570.53
801.837	21547.03
802.168	21416.64
802.499	21330.09
802.83	21253.93
803.161	21180.49
803.491	21204.67
803.822	21107.04
804.153	21075.41
804.483	20854.17
804.814	20811.23
805.145	20756.32
805.475	20813.49
805.805	20705.92
806.136	20678.81
806.466	20680.39
806.796	20630.22
807.126	20446.04
807.457	20420.96
807.787	20299.16
808.117	20238.82
808.447	20203.11
808.777	20284.92
809.107	20128.09
809.436	20069.56
809.766	20108.43
810.096	20060.74
810.426	19961.76
810.755	19850.58
811.085	19729.68
811.414	19807.64
811.744	19603.81
812.073	19697.82
812.403	19737.81
812.732	19524.03
813.061	19607.65
813.39	19381.89
813.719	19361.1
814.049	19406.3
814.378	19291.72
814.707	19280.43
815.036	19192.07
815.365	19179.41
815.693	19041.34
816.022	19021.22
816.351	18951.39
816.68	18811.06
817.008	18893.32
817.337	18724.06
817.665	18697.16
817.994	18735.13
818.322	18732.87
818.651	18610.61
818.979	18631.85
819.307	18636.6
819.636	18637.05
819.964	18385.31
820.292	18554.34
820.62	18450.39
820.948	18336.95
821.276	18443.61
821.604	18384.86
821.932	18365.87
822.259	18491.29
822.587	18425.98
822.915	18337.63
823.243	18378.75
823.57	18282.26
823.898	18284.07
824.225	18310.51
824.553	18240.9
824.88	18248.14
825.207	18254.01
825.535	18281.81
825.862	18370.39
826.189	18260.11
826.516	18310.51
826.843	18335.59
827.17	18373.56
827.497	18400.45
827.824	18312.32
828.151	18490.84
828.478	18215.14
828.805	18331.3
829.131	18221.92
829.458	18235.71
829.785	18113
830.111	18284.97
830.438	18249.49
830.764	18251.3
831.09	18180.12
831.417	18123.85
831.743	18236.61
832.069	18197.29
832.395	18127.46
832.722	18247.91
833.048	18167.46
833.374	18194.58
833.7	18068.93
834.026	18169.04
834.351	18193.45
834.677	18161.81
835.003	18225.31
835.329	18103.28
835.654	18146.9
835.98	17979.22
836.306	17999.55
836.631	17842.04
836.956	17951.65
837.282	17919.33
837.607	17868.71
837.932	17855.38
838.258	17805.66
838.583	17836.85
838.908	17663.52
839.233	17729.73
839.558	17726.12
839.883	17681.82
840.208	17639.79
840.533	17621.94
840.858	17631.2
841.182	17592.11
841.507	17579.45
841.832	17441.6
842.156	17442.96
842.481	17439.8
842.805	17316.64
843.13	17289.74
843.454	17279.35
843.778	17202.51
844.103	17177.43
844.427	17155.06
844.751	17162.51
845.075	17121.39
845.399	17037.55
845.723	16920.04
846.047	16963.42
846.371	16858.34
846.695	16806.37
847.019	16603.21
847.343	16627.84
847.666	16510.55
847.99	16483.21
848.313	16420.16
848.637	16342.2
848.96	16304.01
849.284	16282.99
849.607	16151.47
849.931	16122.77
850.254	16114.86
850.577	15898.37
850.9	15856.56
851.223	15827.18
851.546	15713.51
851.869	15724.13
852.192	15741.08
852.515	15560.3
852.838	15423.58
853.161	15551.94
853.483	15443.01
853.806	15350.81
854.129	15399.4
854.451	15250.7
854.774	15323.69
855.096	15173.19
855.419	15156.47
855.741	15141.1
856.063	15014.55
856.385	14999.63
856.708	14930.71
857.03	14901.33
857.352	14939.3
857.674	14759.41
857.996	14782.92
858.318	14642.58
858.64	14742.24
858.961	14654.56
859.283	14591.06
859.605	14554.67
859.926	14583.15
860.248	14507.44
860.57	14449.14
860.891	14414.11
861.212	14360.55
861.534	14288.24
861.855	14253.21
862.176	14321.69
862.498	14379.99
862.819	14274.46
863.14	14153.33
863.461	14132.99
863.782	14136.83
864.103	14125.08
864.424	14049.15
864.745	14125.31
865.065	14085.08
865.386	14063.61
865.707	13937.74
866.027	14003.28
866.348	13878.99
866.668	13903.39
866.989	13824.3
867.309	13642.61
867.63	13863.84
867.95	13859.55
868.27	13835.14
868.59	13798.99
868.91	13844.64
869.23	13688.71
869.55	13646.68
869.87	13673.34
870.19	13608.94
870.51	13609.39
870.83	13649.61
871.15	13614.36
871.469	13508.6
871.789	13603.51
872.109	13447.58
872.428	13408.94
872.748	13456.4
873.067	13416.62
873.386	13470.18
873.706	13431.99
874.025	13328.04
874.344	13369.62
874.663	13330.53
874.982	13363.74
875.301	13372.78
875.62	13220.7
875.939	13205.1
876.258	13281.94
876.577	13212.79
876.896	13145.9
877.214	13129.4
877.533	13202.62
877.852	13089.63
878.17	13111.1
878.489	13125.11
878.807	13097.99
879.125	13061.38
879.444	13087.82
879.762	12976.64
880.08	12956.75
880.398	12934.6
880.716	12940.7
881.034	12901.38
881.352	12896.19
881.67	12897.09
881.988	12878.79
882.306	12800.14
882.624	12792.91
882.941	12766.25
883.259	12679.92
883.577	12634.95
883.894	12656.42
884.212	12626.81
884.529	12614.16
884.846	12610.09
885.164	12563.54
885.481	12535.97
885.798	12481.28
886.115	12345.92
886.432	12392.7
886.75	12425.24
887.067	12412.13
887.383	12303.89
887.7	12367.39
888.017	12229.54
888.334	12255.07
888.651	12209.2
888.967	12105.02
889.284	12122.87
889.6	12154.96
889.917	12011.01
890.233	12046.72
890.55	11987.28
890.866	11953.16
891.182	11860.28
891.498	11812.6
891.815	11824.12
892.131	11769.66
892.447	11830.68
892.763	11738.93
893.079	11690.34
893.395	11673.39
893.71	11627.75
894.026	11558.82
894.342	11578.71
894.657	11497.13
894.973	11462.78
895.289	11406.73
895.604	11421.2
895.92	11371.71
896.235	11321.54
896.55	11337.13
896.865	11280.18
897.181	11261.43
897.496	11217.36
897.811	11160.41
898.126	11092.84
898.441	11078.83
898.756	11109.57
899.071	11048.1
899.386	11038.38
899.7	10884.04
900.015	10865.05
900.33	10816.47
900.644	10743.25
900.959	10815.56
901.273	10785.51
901.588	10716.58
901.902	10596.59
902.216	10672.52
902.531	10653.76
902.845	10540.99
903.159	10520.2
903.473	10518.17
903.787	10409.47
904.101	10376.7
904.415	10397.49
904.729	10354.11
905.042	10304.84
905.356	10255.8
905.67	10179.42
905.984	10200.44
906.297	10149.14
906.611	10073.89
906.924	10061.23
907.237	9965.42
907.551	9967.45
907.864	9969.26
908.177	9954.79
908.491	9918.86
908.804	9794.35
909.117	9719.55
909.43	9746.21
909.743	9701.92
910.056	9686.55
910.368	9658.08
910.681	9650.4
910.994	9567.91
911.307	9531.53
911.619	9434.58
911.932	9414.92
912.244	9327.92
912.557	9346.9
912.869	9294.7
913.181	9360.23
913.494	9291.76
913.806	9222.84
914.118	9177.87
914.43	9113.23
914.742	9054.93
915.054	9016.06
915.366	8949.17
915.678	8976.97
915.99	8985.78
916.302	8879.79
916.613	8808.16
916.925	8804.77
917.236	8844.99
917.548	8736.07
917.859	8748.05
918.171	8699.46
918.482	8697.43
918.794	8618.33
919.105	8558.22
919.416	8459.92
919.727	8445
920.038	8429.41
920.349	8393.48
920.66	8400.71
920.971	8343.09
921.282	8353.25
921.593	8242.75
921.903	8249.75
922.214	8161.62
922.525	8161.4
922.835	8137.22
923.146	8113.04
923.456	8089.08
923.767	7999.14
924.077	8039.14
924.387	7986.03
924.697	7905.13
925.008	7876.43
925.318	7807.05
925.628	7895.41
925.938	7830.56
926.248	7691.8
926.558	7712.14
926.867	7668.08
927.177	7629.21
927.487	7589.89
927.796	7527.06
928.106	7615.65
928.416	7470.79
928.725	7546.72
929.034	7469.66
929.344	7374.3
929.653	7423.11
929.962	7342.43
930.271	7276.67
930.581	7214.98
930.89	7216.34
931.199	7181.31
931.508	7194.42
931.817	7138.82
932.125	7151.48
932.434	7099.28
932.743	6995.32
933.051	7040.3
933.36	6967.3
933.669	6899.06
933.977	6881.88
934.286	6896.34
934.594	6838.27
934.902	6826.97
935.21	6752.17
935.519	6752.17
935.827	6769.57
936.135	6721.89
936.443	6675.33
936.751	6610.7
937.059	6650.25
937.367	6630.59
937.674	6588.33
937.982	6522.34
938.29	6538.39
938.597	6584.94
938.905	6496.13
939.213	6429.01
939.52	6351.73
939.827	6416.58
940.135	6279.19
940.442	6307.66
940.749	6292.97
941.056	6318.96
941.363	6252.29
941.67	6234.21
941.977	6220.43
942.284	6099.98
942.591	6173.43
942.898	6052.75
943.205	6099.3
943.511	6090.49
943.818	6025.86
944.125	6045.52
944.431	6002.81
944.738	6010.27
945.044	5932.08
945.35	5869.93
945.657	5840.33
945.963	5840.33
946.269	5827.67
946.575	5805.98
946.881	5745.19
947.187	5748.35
947.493	5751.97
947.799	5662.25
948.105	5647.11
948.41	5598.53
948.716	5614.34
949.022	5614.8
949.327	5617.73
949.633	5540.22
949.938	5529.15
950.244	5518.3
950.549	5454.12
950.854	5411.41
951.16	5387.91
951.465	5406.21
951.77	5394.24
952.075	5386.55
952.38	5340
952.685	5346.78
952.99	5276.5
953.294	5288.02
953.599	5244.41
953.904	5178.42
954.209	5171.19
954.513	5142.72
954.818	5112.66
955.122	5104.3
955.426	5099.1
955.731	5064.53
956.035	5022.95
956.339	5003.29
956.643	5013.46
956.948	4982.95
957.252	4947.02
957.556	4960.12
957.86	4930.75
958.163	4890.75
958.467	4850.52
958.771	4799
959.075	4899.11
959.378	4810.3
959.682	4800.13
959.985	4769.17
960.289	4763.07
960.592	4728.49
960.896	4692.56
961.199	4710.41
961.502	4650.98
961.805	4641.26
962.108	4588.61
962.411	4589.96
962.714	4578.89
963.017	4577.54
963.32	4606.91
963.623	4531.66
963.926	4518.1
964.228	4429.29
964.531	4482.4
964.833	4461.15
965.136	4422.28
965.438	4395.62
965.741	4383.42
966.043	4344.32
966.345	4340.93
966.648	4339.12
966.95	4321.5
967.252	4253.25
967.554	4294.38
967.856	4246.92
968.158	4218.9
968.46	4220.26
968.761	4192.69
969.063	4173.48
969.365	4167.15
969.666	4149.75
969.968	4095.51
970.269	4103.65
970.571	4075.63
970.872	4072.69
971.174	4013.03
971.475	4020.71
971.776	4067.94
972.077	3990.88
972.378	3971.45
972.679	3972.13
972.98	3952.01
973.281	3965.57
973.582	3902.07
973.883	3889.64
974.183	3878.34
974.484	3851.23
974.785	3803.32
975.085	3828.63
975.386	3793.37
975.686	3760.61
975.986	3742.53
976.287	3768.97
976.587	3727.61
976.887	3729.42
977.187	3696.2
977.487	3653.04
977.787	3642.64
978.087	3688.29
978.387	3636.32
978.687	3647.84
978.987	3608.97
979.286	3578.24
979.586	3571.91
979.885	3499.6
980.185	3501.41
980.484	3470.22
980.784	3500.95
981.083	3470.9
981.382	3479.71
981.682	3449.88
981.981	3443.55
982.28	3437.45
982.579	3414.85
982.878	3395.19
983.177	3390.67
983.475	3362.65
983.774	3369.43
984.073	3308.87
984.372	3312.48
984.67	3284.69
984.969	3308.42
985.267	3282.43
985.566	3234.97
985.864	3220.51
986.162	3222.09
986.461	3190
986.759	3186.84
987.057	3149.78
987.355	3166.5
987.653	3151.36
987.951	3112.71
988.249	3114.52
988.547	3154.07
988.844	3081.3
989.142	3075.43
989.44	3049.44
989.737	3053.73
990.035	3018.03
990.332	2982.1
990.63	3011.93
990.927	3006.05
991.224	2977.35
991.521	2929.67
991.819	2916.34
992.116	2930.57
992.413	2904.13
992.71	2896
993.006	2876.11
993.303	2908.65
993.6	2903.91
993.897	2867.75
994.193	2815.55
994.49	2832.04
994.787	2788.2
995.083	2795.43
995.379	2782.1
995.676	2765.38
995.972	2753.63
996.268	2722.67
996.565	2763.35
996.861	2713.18
997.157	2689.9
997.453	2656.91
997.749	2684.03
998.044	2659.39
998.34	2622.56
998.636	2607.19
998.932	2595.89
999.227	2590.69
999.523	2613.07
999.818	2543.69
1000.114	2530.36
1000.409	2573.29
1000.704	2531.04
1001	2516.12
1001.295	2497.14
1001.59	2503.24
1001.885	2506.85
1002.18	2454.43
1002.475	2420.08
1002.77	2469.34
1003.065	2432.28
1003.359	2410.59
1003.654	2419.17
1003.949	2366.75
1004.243	2396.12
1004.538	2352.28
1004.832	2332.17
1005.127	2326.75
1005.421	2329.68
1005.715	2312.06
1006.009	2306.86
1006.304	2289.91
1006.598	2217.15
1006.892	2249.46
1007.186	2237.26
1007.48	2217.15
1007.773	2221.21
1008.067	2209.91
1008.361	2173.76
1008.655	2204.04
1008.948	2141.89
1009.242	2160.88
1009.535	2149.58
1009.829	2126.07
1010.122	2125.62
1010.415	2097.6
1010.708	2096.7
1011.001	2076.36
1011.295	2084.72
1011.588	2027.32
1011.881	2037.49
1012.173	2033.65
1012.466	1997.26
1012.759	2029.81
1013.052	1993.2
1013.344	1950.26
1013.637	1956.81
1013.93	1944.84
1014.222	1943.71
1014.514	1964.95
1014.807	1934.44
1015.099	1891.5
1015.391	1888.11
1015.683	1866.87
1015.976	1868.23
1016.268	1861.67
1016.56	1858.51
1016.851	1861.22
1017.143	1826.42
1017.435	1807.89
1017.727	1799.98
1018.018	1822.58
1018.31	1769.93
1018.602	1769.02
1018.893	1741.68
1019.185	1750.49
1019.476	1723.15
1019.767	1739.19
1020.058	1723.6
1020.35	1694
1020.641	1690.61
1020.932	1668.68
1021.223	1690.83
1021.514	1657.16
1021.804	1632.98
1022.095	1625.07
1022.386	1602.47
1022.677	1623.71
1022.967	1618.29
1023.258	1566.77
1023.548	1556.6
1023.839	1579.2
1024.129	1555.92
1024.419	1545.98
1024.709	1550.27
1025	1526.54
1025.29	1520.44
1025.58	1520.44
1025.87	1535.58
1026.16	1498.07
1026.449	1507.11
1026.739	1452.87
1027.029	1431.18
1027.319	1451.52
1027.608	1433.21
1027.898	1405.19
1028.187	1409.26
1028.477	1401.8
1028.766	1388.47
1029.055	1385.53
1029.344	1377.62
1029.634	1383.04
1029.923	1355.25
1030.212	1345.3
1030.501	1338.75
1030.79	1309.15
1031.078	1313.89
1031.367	1326.1
1031.656	1282.48
1031.945	1308.02
1032.233	1319.77
1032.522	1288.36
1032.81	1286.55
1033.099	1232.99
1033.387	1271.86
1033.675	1239.32
1033.963	1235.93
1034.251	1244.06
1034.54	1221.01
1034.828	1188.92
1035.116	1221.24
1035.403	1192.99
1035.691	1177.17
1035.979	1191.86
1036.267	1191.41
1036.554	1180.79
1036.842	1154.35
1037.129	1147.57
1037.417	1123.84
1037.704	1123.16
1037.992	1115.48
1038.279	1119.09
1038.566	1120.9
1038.853	1120.9
1039.14	1120.9
