Data from red_shiny_book_FLMS001491_00037.txt Node
Date: Wed Feb 08 15:24:46 GMT 2017
User: dcchb
Spectrometer: FLMS00149
Trigger mode: 0
Integration Time (sec): 2.000000E-2
Scans to average: 10
Electric dark correction enabled: true
Nonlinearity correction enabled: false
Boxcar width: 0
XAxis mode: Wavelengths
Number of Pixels in Spectrum: 2048
>>>>>Begin Spectral Data<<<<<
341.393	-2.6
341.776	-2.6
342.16	-2.6
342.543	-56.61
342.927	-59.77
343.31	-51.19
343.693	-85.76
344.077	-68.13
344.46	-72.88
344.843	-54.57
345.226	-36.95
345.61	-31.52
345.993	-27.46
346.376	-12.99
346.759	22.03
347.142	25.88
347.525	39.21
347.908	78.98
348.291	74.46
348.674	86.89
349.057	114.01
349.44	120.11
349.823	146.55
350.206	177.06
350.588	191.52
350.971	208.92
351.354	226.1
351.737	238.52
352.119	249.15
352.502	255.47
352.884	288.24
353.267	303.16
353.65	302.25
354.032	297.05
354.414	308.58
354.797	316.26
355.179	335.92
355.562	314.46
355.944	338.64
356.326	345.64
356.709	343.15
357.091	348.58
357.473	349.48
357.855	349.71
358.238	352.87
358.62	336.38
359.002	352.87
359.384	321.23
359.766	354.91
360.148	336.15
360.53	342.93
360.912	348.8
361.294	325.3
361.676	321.46
362.057	335.47
362.439	326.43
362.821	330.73
363.203	337.96
363.584	308.58
363.966	316.71
364.348	316.94
364.729	319.2
365.111	326.88
365.493	323.95
365.874	327.34
366.256	325.53
366.637	301.12
367.019	331.63
367.4	320.33
367.781	322.59
368.163	299.99
368.544	308.58
368.925	310.84
369.306	308.81
369.688	317.62
370.069	309.71
370.45	303.83
370.831	321.01
371.212	301.57
371.593	328.24
371.974	340.89
372.355	311.29
372.736	316.49
373.117	310.16
373.498	327.79
373.879	325.98
374.26	330.27
374.641	310.84
375.021	316.94
375.402	345.87
375.783	333.21
376.163	325.98
376.544	319.88
376.925	309.03
377.305	321.69
377.686	321.91
378.066	334.34
378.447	330.05
378.827	336.6
379.208	330.95
379.588	329.37
379.968	325.3
380.349	349.71
380.729	337.28
381.109	357.84
381.489	314.46
381.87	329.14
382.25	330.73
382.63	343.15
383.01	334.57
383.39	321.69
383.77	338.64
384.15	341.35
384.53	338.41
384.91	351.74
385.29	356.71
385.67	357.62
386.049	354
386.429	365.53
386.809	356.71
387.189	345.87
387.568	343.61
387.948	359.43
388.328	336.15
388.707	363.49
389.087	349.48
389.466	367.79
389.846	370.95
390.225	380.89
390.605	359.65
390.984	368.92
391.363	351.52
391.743	384.06
392.122	358.75
392.501	380.44
392.881	375.47
393.26	365.08
393.639	401.23
394.018	380.67
394.397	363.27
394.776	375.24
395.155	379.09
395.534	378.63
395.913	391.52
396.292	387.22
396.671	388.8
397.05	370.05
397.429	390.84
397.808	405.3
398.186	365.3
398.565	396.49
398.944	402.14
399.323	408.24
399.701	393.1
400.08	394.45
400.458	401.91
400.837	398.97
401.215	414.34
401.594	395.81
401.972	404.4
402.351	400.55
402.729	408.46
403.107	411.4
403.486	403.27
403.864	411.18
404.242	416.6
404.62	419.31
404.999	413.66
405.377	414.57
405.755	419.31
406.133	438.97
406.511	414.57
406.889	438.07
407.267	422.47
407.645	436.49
408.023	429.93
408.401	437.84
408.779	428.8
409.156	439.2
409.534	460.44
409.912	426.77
410.29	466.77
410.667	440.78
411.045	452.76
411.422	455.69
411.8	459.99
412.178	463.6
412.555	460.21
412.933	472.87
413.31	476.94
413.687	473.77
414.065	459.08
414.442	478.52
414.819	500.21
415.197	490.04
415.574	498.18
415.951	479.65
416.328	508.35
416.705	510.61
417.082	503.83
417.46	517.61
417.837	550.83
418.214	538.4
418.591	520.55
418.967	542.02
419.344	524.84
419.721	523.94
420.098	543.83
420.475	549.93
420.852	544.05
421.228	561.45
421.605	551.06
421.982	583.37
422.358	568.23
422.735	554.22
423.111	565.52
423.488	579.98
423.864	594.9
424.241	576.82
424.617	586.31
424.994	588.12
425.37	598.97
425.746	575.92
426.123	594.22
426.499	608.91
426.875	601.68
427.251	598.52
427.627	606.88
428.003	625.63
428.379	637.61
428.756	616.59
429.132	628.35
429.507	629.02
429.883	638.74
430.259	645.29
430.635	638.97
431.011	633.09
431.387	635.58
431.763	662.02
432.138	673.77
432.514	651.62
432.89	659.76
433.265	667.89
433.641	676.03
434.016	693.2
434.392	687.1
434.767	704.5
435.143	683.26
435.518	723.71
435.894	708.79
436.269	720.77
436.644	711.51
437.02	738.17
437.395	741.11
437.77	742.47
438.145	756.93
438.52	764.39
438.895	765.06
439.271	758.06
439.646	779.3
440.021	762.35
440.395	754.22
440.77	782.92
441.145	761.45
441.52	770.49
441.895	760.54
442.27	796.7
442.645	797.83
443.019	787.21
443.394	808
443.769	817.49
444.143	797.38
444.518	818.4
444.892	798.96
445.267	782.24
445.641	812.07
446.016	812.75
446.39	823.59
446.764	834.44
447.139	823.82
447.513	851.16
447.887	834.22
448.262	829.24
448.636	841.67
449.01	857.27
449.384	858.62
449.758	849.13
450.132	832.63
450.506	871.73
450.88	876.02
451.254	850.49
451.628	871.28
452.002	860.2
452.376	859.75
452.75	883.03
453.123	868.56
453.497	902.69
453.871	923.25
454.244	907.21
454.618	877.38
454.992	910.37
455.365	898.17
455.739	928.68
456.112	916.7
456.486	928.22
456.859	941.33
457.232	937.26
457.606	935.91
457.979	958.28
458.352	945.62
458.725	964.83
459.099	947.43
459.472	963.7
459.845	968.45
460.218	966.64
460.591	971.84
460.964	995.57
461.337	988.56
461.71	993.76
462.083	1013.19
462.456	1009.35
462.829	1033.98
463.201	1045.96
463.574	1035.79
463.947	1040.99
464.32	1086.86
464.692	1055
465.065	1047.09
465.438	1040.09
465.81	1061.55
466.183	1047.77
466.555	1091.61
466.928	1073.76
467.3	1118.05
467.672	1123.93
468.045	1144.72
468.417	1129.57
468.789	1138.84
469.161	1148.78
469.534	1182.91
469.906	1149.01
470.278	1169.12
470.65	1189.01
471.022	1189.91
471.394	1171.16
471.766	1193.3
472.138	1208.22
472.51	1249.35
472.882	1294.99
473.253	1284.15
473.625	1304.49
473.997	1312.17
474.369	1318.5
474.74	1333.64
475.112	1322.34
475.484	1321.21
475.855	1339.74
476.227	1344.03
476.598	1384.03
476.97	1380.19
477.341	1429.91
477.713	1444.82
478.084	1450.47
478.455	1496.8
478.827	1488.44
479.198	1534.54
479.569	1525.95
479.94	1546.74
480.311	1553.07
480.682	1583.57
481.053	1602.56
481.424	1614.76
481.795	1630.58
482.166	1642.33
482.537	1667.19
482.908	1695.89
483.279	1728.43
483.65	1737.24
484.021	1827.41
484.391	1835.32
484.762	1828.09
485.133	1871.7
485.503	1884.58
485.874	1925.03
486.244	1867.63
486.615	1935.66
486.985	1928.65
487.356	1952.83
487.726	1966.61
488.097	1993.05
488.467	2021.53
488.837	2101.75
489.207	2109.44
489.578	2165.48
489.948	2204.12
490.318	2202.31
490.688	2238.02
491.058	2274.4
491.428	2278.47
491.798	2294.06
492.168	2304.91
492.538	2278.02
492.908	2294.97
493.278	2314.4
493.648	2358.24
494.017	2384.68
494.387	2389.43
494.757	2452.7
495.126	2491.12
495.496	2504.91
495.866	2548.75
496.235	2593.04
496.605	2616.32
496.974	2601.4
497.344	2588.97
497.713	2606.15
498.082	2599.37
498.452	2565.02
498.821	2565.92
499.19	2587.62
499.559	2609.31
499.928	2666.03
500.298	2690.21
500.667	2678.23
501.036	2731.57
501.405	2777.22
501.774	2755.29
502.143	2830.32
502.512	2821.51
502.88	2828.29
503.249	2796.42
503.618	2750.78
503.987	2748.52
504.356	2761.17
504.724	2813.15
505.093	2798.23
505.462	2768.63
505.83	2772.47
506.199	2849.76
506.567	2898.34
506.936	2885.23
507.304	2940.37
507.672	2946.25
508.041	2997.55
508.409	2964.78
508.777	2975.85
509.145	2999.13
509.514	2955.97
509.882	2940.6
510.25	2941.05
510.618	2949.41
510.986	2883.2
511.354	2930.43
511.722	2976.31
512.09	2967.27
512.458	3007.27
512.826	3007.72
513.193	3019.02
513.561	3065.34
513.929	3095.4
514.297	3107.6
514.664	3139.24
515.032	3142.63
515.4	3127.26
515.767	3100.82
516.135	3126.81
516.502	3032.12
516.869	3058.56
517.237	3049.98
517.604	3023.31
517.972	3028.96
518.339	3046.36
518.706	3054.04
519.073	3085.91
519.44	3176.98
519.808	3196.87
520.175	3210.65
520.542	3252.23
520.909	3279.57
521.276	3249.75
521.643	3258.78
522.009	3278.44
522.376	3269.86
522.743	3237.09
523.11	3201.38
523.477	3222.63
523.843	3231.89
524.21	3224.21
524.577	3233.47
524.943	3269.18
525.31	3320.48
525.676	3359.12
526.043	3414.71
526.409	3478.67
526.776	3532.45
527.142	3545.56
527.508	3554.14
527.874	3589.4
528.241	3583.07
528.607	3572
528.973	3589.4
529.339	3512.79
529.705	3539.91
530.071	3578.78
530.437	3534.03
530.803	3567.7
531.169	3562.51
531.535	3590.98
531.901	3621.71
532.267	3695.84
532.632	3772.9
532.998	3819.67
533.364	3895.38
533.73	3918.88
534.095	3976.28
534.461	3960.46
534.826	4000.91
535.192	4011.76
535.557	4008.82
535.923	3991.65
536.288	3993.45
536.653	3959.33
537.019	3953.68
537.384	3961.14
537.749	4005.66
538.114	3980.57
538.479	4016.5
538.845	4030.29
539.21	4027.35
539.575	4136.73
539.94	4191.19
540.305	4282.71
540.67	4312.32
541.034	4378.98
541.399	4369.26
541.764	4421.01
542.129	4370.17
542.494	4421.01
542.858	4404.52
543.223	4379.21
543.587	4377.17
543.952	4353.9
544.316	4285.2
544.681	4285.65
545.045	4315.71
545.41	4379.21
545.774	4409.04
546.138	4403.16
546.503	4466.44
546.867	4515.25
547.231	4599.31
547.595	4609.03
547.959	4683.61
548.324	4629.82
548.688	4711.4
549.052	4711.85
549.416	4705.98
549.779	4656.26
550.143	4623.27
550.507	4667.11
550.871	4601.12
551.235	4561.12
551.599	4545.76
551.962	4519.99
552.326	4515.02
552.689	4490.39
553.053	4497.62
553.417	4564.74
553.78	4624.4
554.143	4704.17
554.507	4762.7
554.87	4815.58
555.234	4852.19
555.597	4886.31
555.96	4856.93
556.323	4934.22
556.686	4905.75
557.05	4922.92
557.413	4833.88
557.776	4864.39
558.139	4793.43
558.502	4797.05
558.865	4760.44
559.228	4776.03
559.59	4726.77
559.953	4757.05
560.316	4755.02
560.679	4839.76
561.041	4844.28
561.404	4922.24
561.767	4957.27
562.129	4962.47
562.492	5078.62
562.854	5153.65
563.217	5129.47
563.579	5179.19
563.941	5183.25
564.304	5189.13
564.666	5210.6
565.028	5108
565.39	5179.86
565.753	5162.01
566.115	5046.31
566.477	5058.06
566.839	4990.04
567.201	5003.82
567.563	5002.92
567.925	5024.61
568.287	5058.51
568.648	5081.79
569.01	5157.72
569.372	5295.57
569.734	5286.53
570.095	5344.61
570.457	5412.17
570.819	5509.57
571.18	5541.21
571.542	5609.46
571.903	5573.75
572.265	5603.36
572.626	5635.67
572.987	5575.56
573.349	5587.31
573.71	5553.41
574.071	5541.21
574.432	5544.37
574.794	5570.59
575.155	5561.32
575.516	5608.33
575.877	5677.7
576.238	5759.74
576.599	5829.11
576.96	5942.1
577.32	6096.68
577.681	6178.71
578.042	6390.91
578.403	6455.76
578.763	6633.16
579.124	6725.13
579.485	6936.43
579.845	7096.65
580.206	7131.22
580.566	7248.51
580.927	7384.55
581.287	7464.78
581.648	7616.86
582.008	7708.61
582.368	7953.12
582.728	8076.51
583.089	8283.74
583.449	8476.27
583.809	8714.23
584.169	9040.1
584.529	9332.3
584.889	9803.47
585.249	9979.96
585.609	10370.91
585.969	10826.72
586.329	11243.66
586.688	11619.24
587.048	12073.02
587.408	12485.66
587.768	12887.01
588.127	13257.17
588.487	13639.53
588.846	14122.45
589.206	14432.5
589.565	14870.46
589.925	15266.38
590.284	15622.75
590.643	15970.09
591.003	16442.62
591.362	16951.08
591.721	17311.52
592.08	17831.96
592.44	18342.46
592.799	18871.71
593.158	19324.8
593.517	19874.62
593.876	20567.93
594.235	21069.62
594.593	21571.75
594.952	22270.26
595.311	22653.3
595.67	23316.34
596.029	23849.2
596.387	24450.32
596.746	24932.79
597.104	25371.2
597.463	25867
597.822	26244.17
598.18	26666.53
598.538	26981.78
598.897	27603
599.255	27850
599.613	28525.69
599.972	28871.9
600.33	29421.26
600.688	29652.44
601.046	30270.73
601.404	30820.32
601.762	31214.89
602.12	31760.63
602.478	32279.26
602.836	32796.09
603.194	33112.69
603.552	33539.8
603.91	33964.42
604.268	34577.06
604.625	34967.33
604.983	35340.2
605.341	35662.45
605.698	36168.2
606.056	36480.28
606.413	36759.82
606.771	37153.49
607.128	37570.2
607.485	37682.06
607.843	37923.64
608.2	38272.1
608.557	38703.05
608.914	38641.58
609.272	39082.02
609.629	39381
609.986	39818.73
610.343	39996.12
610.7	40559.95
611.057	40710
611.414	41023.89
611.771	41309.54
612.127	41727.6
612.484	41991.33
612.841	42406.91
613.198	42436.51
613.554	42686.67
613.911	43114.01
614.267	43307.22
614.624	43464.51
614.98	43664.05
615.337	43923.48
615.693	43889.35
616.05	43915.57
616.406	44283.47
616.762	44223.13
617.118	44390.13
617.475	44527.53
617.831	44654.31
618.187	44779.5
618.543	44839.61
618.899	45205.93
619.255	45323.89
619.611	45280.73
619.967	45495.41
620.323	45816.31
620.678	45647.95
621.034	45793.26
621.39	46122.74
621.746	46085.68
622.101	46746
622.457	46457.42
622.812	46765.21
623.168	46887.47
623.523	46963.62
623.879	47153.22
624.234	47066.9
624.589	47150.51
624.945	47216.72
625.3	47208.59
625.655	47066.67
626.01	47175.82
626.365	47239.1
626.72	46975.15
627.075	47150.06
627.43	47098.31
627.785	46947.58
628.14	47157.74
628.495	47277.06
628.85	47204.97
629.205	47105.54
629.559	47447.45
629.914	47279.1
630.269	47408.58
630.623	47593.44
630.978	47449.03
631.332	47698.97
631.687	47826.65
632.041	47722.93
632.396	47860.1
632.75	47797.73
633.104	47855.58
633.459	47697.84
633.813	47808.12
634.167	47818.97
634.521	47729.93
634.875	47813.32
635.229	47652.65
635.583	47330.62
635.937	47479.32
636.291	47334.01
636.645	47287.01
636.999	47316.83
637.352	47137.18
637.706	46998.88
638.06	47183.96
638.413	47005.2
638.767	47028.71
639.121	47027.58
639.474	46978.54
639.828	47040.91
640.181	47057.86
640.534	47073
640.888	47220.11
641.241	46958.65
641.594	47170.62
641.947	47307.12
642.301	47239.77
642.654	47300.11
643.007	47133.11
643.36	47388.25
643.713	47128.14
644.066	47379.43
644.419	47081.81
644.771	46652.9
645.124	46350.08
645.477	46162.52
645.83	45827.83
646.182	45725.69
646.535	45570.21
646.888	45614.51
647.24	45282.76
647.593	45386.72
647.945	45423.33
648.298	45299.03
648.65	45135.65
649.002	45117.12
649.355	45139.04
649.707	45176.33
650.059	45285.93
650.411	45875.06
650.763	45997.77
651.115	46480.25
651.467	46176.07
651.819	46344.88
652.171	46362.96
652.523	46331.55
652.875	46216.3
653.227	46123.42
653.578	46448.61
653.93	46365.9
654.282	46129.52
654.633	45995.06
654.985	46158.67
655.337	46083.65
655.688	45922.75
656.039	46050.65
656.391	45640.49
656.742	45647.73
657.094	45666.48
657.445	45755.52
657.796	45565.02
658.147	45425.81
658.498	45373.38
658.849	45497.22
659.2	45470.78
659.551	45446.83
659.902	45563.66
660.253	45498.8
660.604	45655.41
660.955	45392.59
661.306	45673.71
661.656	45672.81
662.007	45728.18
662.358	45758.46
662.708	45677.1
663.059	45759.36
663.409	45520.05
663.76	45854.5
664.11	45861.05
664.461	45895.86
664.811	45968.4
665.161	45805.01
665.511	45585.13
665.862	45522.53
666.212	45677.56
666.562	45404.34
666.912	45468.3
667.262	45189.89
667.612	45215.87
667.962	45084.35
668.312	44972.94
668.662	45148.3
669.011	44924.81
669.361	44897.01
669.711	44935.88
670.06	44770.46
670.41	44818.37
670.76	44646.85
671.109	44968.42
671.459	44938.14
671.808	44915.77
672.157	45036.22
672.507	44772.5
672.856	44957.35
673.205	45012.26
673.554	45247.74
673.904	44912.15
674.253	45337
674.602	45078.48
674.951	44599.84
675.3	44410.02
675.649	44984.24
675.998	44987.63
676.346	44993.28
676.695	45088.42
677.044	44685.72
677.393	44708.32
677.741	44769.56
678.09	44525.27
678.438	44454.54
678.787	44444.37
679.135	44313.3
679.484	43964.38
679.832	44209.8
680.181	43884.16
680.529	43961.22
680.877	43921.9
681.225	43817.72
681.573	44029.01
681.922	43730.94
682.27	43768.45
682.618	43833.31
682.966	43819.75
683.314	43789.7
683.661	43791.73
684.009	43721.9
684.357	43560.1
684.705	43723.48
685.053	43791.5
685.4	43730.04
685.748	43689.59
686.095	43544.28
686.443	43391.51
686.79	43343.83
687.138	43422.7
687.485	43384.96
687.832	43110.84
688.18	43142.26
688.527	42949.27
688.874	42878.76
689.221	42715.15
689.568	42439.22
689.915	42366.23
690.262	42346.34
690.609	42149.51
690.956	42025.45
691.303	41977.09
691.65	41613.93
691.997	41620.04
692.344	41395.86
692.69	41412.58
693.037	41604.22
693.383	41215.98
693.73	41360.61
694.077	41133.27
694.423	41076.77
694.769	41024.8
695.116	40990.67
695.462	41021.86
695.808	41018.7
696.155	41024.35
696.501	40751.58
696.847	40932.14
697.193	40611.02
697.539	40875.2
697.885	40541.65
698.231	40346.85
698.577	40370.35
698.923	40234.31
699.269	40078.83
699.614	39913.41
699.96	39879.52
700.306	39787.99
700.651	39520.2
700.997	39409.47
701.342	39303.26
701.688	39192.53
702.033	38950.28
702.379	38978.3
702.724	38741.69
703.069	38745.76
703.415	38336.73
703.76	38294.7
704.105	38325.21
704.45	38214.25
704.795	38023.97
705.14	37963.41
705.485	37905.78
705.83	37765
706.175	37839.8
706.52	37708.27
706.865	37776.97
707.209	37721.38
707.554	37738.56
707.899	37753.24
708.243	37686.13
708.588	37514.38
708.932	37343.76
709.277	37568.62
709.621	37453.82
709.966	37242.3
710.31	37156.2
710.654	36965.47
710.998	37120.49
711.342	37188.97
711.687	36841.63
712.031	36796.66
712.375	36706.72
712.719	36578.59
713.063	36491.81
713.407	36581.07
713.75	36146.51
714.094	36163
714.438	35945.38
714.782	36044.59
715.125	35735.9
715.469	35787.65
715.812	35584.94
716.156	35532.96
716.499	35474.21
716.843	35291.16
717.186	35173.65
717.53	35368.22
717.873	35375.45
718.216	35240.32
718.559	35151.73
718.902	34888.24
719.246	35048.46
719.589	35059.98
719.932	34907.9
720.275	35036.71
720.617	34965.52
720.96	34974.33
721.303	35086.42
721.646	35129.58
721.989	34757.62
722.331	34894.11
722.674	34806.66
723.016	34716.26
723.359	34750.16
723.701	34861.34
724.044	34579.54
724.386	34341.13
724.729	34408.93
725.071	34224.75
725.413	34206.67
725.755	34121.25
726.097	33999.45
726.439	33721.94
726.782	33706.8
727.124	33782.5
727.465	33657.53
727.807	33644.2
728.149	33443.53
728.491	33257.32
728.833	33319.69
729.175	33140.26
729.516	33050.54
729.858	32952.92
730.199	33064.55
730.541	32982.3
730.882	33048.28
731.224	33147.94
731.565	32893.26
731.906	32897.1
732.248	32958.12
732.589	32875.41
732.93	32827.27
733.271	32860.72
733.612	32991.34
733.953	32995.86
734.294	32892.13
734.635	32862.3
734.976	32874.28
735.317	32759.93
735.658	32874.5
735.999	32745.01
736.339	32654.85
736.68	32834.73
737.021	32663.66
737.361	32455.3
737.702	32448.07
738.042	32451.46
738.383	32323.1
738.723	32437.68
739.063	32152.71
739.404	32152.94
739.744	31958.37
740.084	31930.12
740.424	31786.4
740.764	31772.38
741.104	31864.13
741.444	31519.51
741.784	31342.57
742.124	31411.26
742.464	31442.22
742.804	31291.49
743.143	31251.95
743.483	31309.8
743.823	31105.74
744.162	31110.93
744.502	31181.44
744.841	30983.71
745.181	31210.14
745.52	31060.99
745.86	31157.71
746.199	31023.7
746.538	31097.83
746.877	31145.96
747.216	31159.97
747.556	31075.45
747.895	31279.52
748.234	31031.61
748.573	30949.13
748.911	30965.63
749.25	30949.58
749.589	30915.68
749.928	30767.44
750.267	30797.72
750.605	30817.83
750.944	30621.45
751.283	30545.98
751.621	30511.63
751.96	30283.38
752.298	30379.65
752.636	30240.67
752.975	30108.7
753.313	29887.91
753.651	30029.15
753.989	29767.92
754.327	29610.41
754.666	29520.69
755.004	29504.42
755.342	29483.63
755.679	29418.77
756.017	29169.97
756.355	29193.47
756.693	29064.21
757.031	29099.23
757.368	28916.41
757.706	28838.9
758.044	28817.43
758.381	28877.77
758.719	28717.32
759.056	28826.02
759.394	28620.15
759.731	28647.27
760.068	28655.63
760.405	28545.35
760.743	28468.74
761.08	28489.99
761.417	28397.78
761.754	28385.58
762.091	28367.5
762.428	28264.45
762.765	28262.87
763.102	28266.49
763.438	28104.91
763.775	27867.63
764.112	28047.74
764.449	27952.82
764.785	27765.03
765.122	27722.32
765.458	27435.32
765.795	27428.09
766.131	27449.11
766.467	27336.57
766.804	27125.05
767.14	27079.4
767.476	26947.88
767.812	26631.73
768.148	26768.45
768.485	26521.45
768.821	26382.24
769.157	26262.7
769.492	26166.88
769.828	26151.06
770.164	25935.7
770.5	25753.11
770.836	25773.67
771.171	25677.63
771.507	25602.38
771.842	25444.87
772.178	25399.9
772.513	25374.59
772.849	25204.2
773.184	25136.63
773.519	25141.6
773.855	25128.94
774.19	25155.16
774.525	25003.98
774.86	25066.35
775.195	24896.18
775.53	24787.48
775.865	24803.08
776.2	24669.07
776.535	24465.23
776.87	24563.53
777.205	24420.26
777.539	24296.42
777.874	24386.82
778.209	24242.41
778.543	24181.85
778.878	24023.44
779.212	24017.11
779.547	23833.61
779.881	23880.39
780.215	23799.26
780.55	23654.18
780.884	23606.72
781.218	23498.25
781.552	23459.16
781.886	23217.13
782.22	23069.79
782.554	23046.06
782.888	22741.44
783.222	22682
783.556	22597.03
783.889	22534.89
784.223	22280.43
784.557	22275.69
784.89	22323.59
785.224	22177.38
785.557	22005.86
785.891	22018.07
786.224	21832.99
786.558	21847.67
786.891	21549.38
787.224	21472.99
787.557	21542.82
787.891	21621.01
788.224	21604.06
788.557	21492.2
788.89	21415.6
789.223	21466.44
789.556	21287.91
789.888	21305.09
790.221	21184.64
790.554	21167.24
790.887	21114.13
791.219	21023.06
791.552	21037.75
791.884	20886.12
792.217	20866.91
792.549	20877.98
792.882	20736.52
793.214	20744.65
793.546	20618.1
793.879	20602.74
794.211	20396.64
794.543	20409.52
794.875	20415.4
795.207	20367.49
795.539	20319.35
795.871	20307.15
796.203	20030.32
796.535	19960.72
796.867	19909.87
797.198	19780.84
797.53	19734.74
797.862	19677.56
798.193	19655.19
798.525	19459.04
798.856	19464.91
799.188	19210.91
799.519	19166.61
799.85	19019.73
800.182	19087.75
800.513	19056.79
800.844	18870.35
801.175	18869.9
801.506	18829.67
801.837	18670.81
802.168	18710.13
802.499	18644.14
802.83	18543.81
803.161	18512.62
803.491	18477.59
803.822	18446.18
804.153	18348.78
804.483	18342
804.814	18279.63
805.145	18279.18
805.475	18253.87
805.805	18206.87
806.136	18255
806.466	18284.6
806.796	18237.15
807.126	18019.3
807.457	18060.2
807.787	18070.37
808.117	17980.21
808.447	17967.32
808.777	18011.39
809.107	17872.19
809.436	17873.09
809.766	17910.15
810.096	17831.73
810.426	17757.61
810.755	17656.6
811.085	17677.16
811.414	17694.56
811.744	17496.83
812.073	17391.75
812.403	17305.19
812.732	17188.59
813.061	17248.25
813.39	17084.41
813.719	16989.72
814.049	17168.7
814.378	16999.44
814.707	16920.8
815.036	16900.69
815.365	16729.62
815.693	16643.74
816.022	16643.74
816.351	16524.2
816.68	16504.99
817.008	16531.88
817.337	16323.3
817.665	16274.94
817.994	16302.28
818.322	16289.63
818.651	16241.49
818.979	16137.09
819.307	16284.88
819.636	16196.75
819.964	16037.43
820.292	16160.14
820.62	16116.3
820.948	16095.28
821.276	16145.45
821.604	16163.08
821.932	16121.27
822.259	16180.25
822.587	16120.14
822.915	16162.63
823.243	16339.12
823.57	16210.31
823.898	16305
824.225	16234.26
824.553	16218.44
824.88	16205.56
825.207	16243.53
825.535	16271.32
825.862	16290.98
826.189	16080.59
826.516	16339.12
826.843	16374.6
827.17	16258.22
827.497	16243.08
827.824	16290.53
828.151	16319.01
828.478	16180.93
828.805	16312.9
829.131	16181.38
829.458	16173.93
829.785	16045.57
830.111	16088.73
830.438	16140.71
830.764	16077.88
831.09	16027.49
831.417	15880.15
831.743	16031.56
832.069	15961.5
832.395	15829.75
832.722	15830.43
833.048	15889.19
833.374	15789.08
833.7	15736.87
834.026	15861.62
834.351	15801.51
834.677	15788.62
835.003	15738.68
835.329	15798.12
835.654	15682.41
835.98	15647.61
836.306	15696.42
836.631	15581.62
836.956	15643.09
837.282	15686.71
837.607	15545.01
837.932	15567.16
838.258	15504.79
838.583	15591.12
838.908	15476.77
839.233	15529.87
839.558	15501.63
839.883	15411.91
840.208	15491.46
840.533	15477.9
840.858	15491.46
841.182	15499.14
841.507	15485.36
841.832	15440.16
842.156	15339.14
842.481	15478.58
842.805	15426.37
843.13	15332.14
843.454	15336.88
843.778	15220.28
844.103	15228.41
844.427	15248.98
844.751	15268.64
845.075	15196.32
845.399	15086.72
845.723	15035.88
846.047	15021.41
846.371	14852.6
846.695	14839.27
847.019	14709.78
847.343	14676.56
847.666	14634.76
847.99	14563.57
848.313	14451.03
848.637	14382.56
848.96	14322
849.284	14242.22
849.607	14105.73
849.931	14083.81
850.254	14002.46
850.577	13948.67
850.9	13783.48
851.223	13743.48
851.546	13726.31
851.869	13598.63
852.192	13689.02
852.515	13513.2
852.838	13440.89
853.161	13416.03
853.483	13397.05
853.806	13353.66
854.129	13309.14
854.451	13282.48
854.774	13261.69
855.096	13253.55
855.419	13127.68
855.741	13054.46
856.063	13141.46
856.385	13139.88
856.708	13055.59
857.03	13118.19
857.352	13063.72
857.674	12993.22
857.996	12978.3
858.318	13024.63
858.64	12931.07
858.961	12891.75
859.283	12903.73
859.605	12868.93
859.926	12842.94
860.248	12792.32
860.57	12791.87
860.891	12806.33
861.212	12688.59
861.534	12698.54
861.855	12608.14
862.176	12659.44
862.498	12623.51
862.819	12586.45
863.14	12532.89
863.461	12578.99
863.782	12421.93
864.103	12525.43
864.424	12418.32
864.745	12466
865.065	12365.44
865.386	12295.38
865.707	12278.66
866.027	12261.03
866.348	12211.32
866.668	12153.01
866.989	12114.82
867.309	12070.3
867.63	12033.69
867.95	12079.57
868.27	11947.37
868.59	11964.09
868.91	11927.93
869.23	11923.42
869.55	11845.45
869.87	11871.21
870.19	11863.08
870.51	11838.45
870.83	11766.81
871.15	11767.04
871.469	11777.43
871.789	11746.7
872.109	11690.43
872.428	11641.61
872.748	11697.43
873.067	11714.83
873.386	11644.33
873.706	11661.95
874.025	11590.32
874.344	11684.55
874.663	11645.23
874.982	11664.21
875.301	11602.75
875.62	11539.92
875.939	11620.15
876.258	11622.18
876.577	11551.9
876.896	11562.29
877.214	11567.72
877.533	11537.44
877.852	11567.94
878.17	11596.64
878.489	11543.99
878.807	11572.24
879.125	11538.34
879.444	11493.14
879.762	11486.14
880.08	11443.2
880.398	11417.89
880.716	11465.12
881.034	11309.19
881.352	11388.06
881.67	11404.33
881.988	11333.15
882.306	11282.75
882.624	11291.34
882.941	11188.52
883.259	11188.29
883.577	11089.54
883.894	11134.51
884.212	11038.47
884.529	11050.44
884.846	11038.92
885.164	11086.15
885.481	10890.67
885.798	11000.95
886.115	10816.33
886.432	10835.99
886.75	10815.2
887.067	10764.12
887.383	10703.56
887.7	10669.66
888.017	10606.39
888.334	10644.58
888.651	10650.23
888.967	10593.51
889.284	10525.26
889.6	10478.26
889.917	10448.43
890.233	10407.75
890.55	10465.83
890.866	10388.09
891.182	10356.45
891.498	10313.51
891.815	10280.52
892.131	10286.85
892.447	10223.57
892.763	10259.05
893.079	10249.56
893.395	10209.34
893.71	10133.41
894.026	10103.8
894.342	10099.06
894.657	10049.34
894.973	10008.21
895.289	10062.22
895.604	10055.67
895.92	10054.09
896.235	10027.19
896.55	9947.42
896.865	9945.84
897.181	9930.93
897.496	9968.66
897.811	9899.06
898.126	9885.05
898.441	9810.7
898.756	9803.02
899.071	9801.66
899.386	9766.41
899.7	9713.3
900.015	9633.76
900.33	9522.57
900.644	9590.6
900.959	9585.4
901.273	9590.6
901.588	9438.28
901.902	9382.92
902.216	9358.06
902.531	9351.05
902.845	9384.72
903.159	9260.43
903.473	9166.43
903.787	9160.1
904.101	9099.31
904.415	9118.74
904.729	9040.33
905.042	9019.08
905.356	8876.72
905.67	8888.01
905.984	8925.08
906.297	8851.18
906.611	8869.94
906.924	8803.95
907.237	8731.18
907.551	8664.74
907.864	8609.83
908.177	8657.06
908.491	8596.72
908.804	8526.67
909.117	8429.27
909.43	8408.25
909.743	8374.36
910.056	8325.54
910.368	8374.58
910.681	8259.56
910.994	8314.92
911.307	8251.2
911.619	8155.6
911.932	8208.26
912.244	8136.85
912.557	8127.58
912.869	8016.85
913.181	8050.97
913.494	8062.5
913.806	8011.88
914.118	7979.56
914.43	7853.69
914.742	7928.94
915.054	7906.57
915.366	7857.08
915.678	7832.9
915.99	7810.3
916.302	7785.9
916.613	7749.29
916.925	7703.41
917.236	7793.35
917.548	7754.71
917.859	7668.61
918.171	7679.23
918.482	7644.88
918.794	7606.92
919.105	7555.85
919.416	7503.87
919.727	7563.76
920.038	7495.28
920.349	7491.67
920.66	7440.14
920.971	7399.47
921.282	7388.62
921.593	7308.4
921.903	7261.84
922.214	7271.33
922.525	7207.61
922.835	7141.85
923.146	7066.14
923.456	7114.73
923.767	7073.37
924.077	7071.11
924.387	7017.1
924.697	6984.56
925.008	6927.84
925.318	6952.02
925.628	6864.11
925.938	6821.4
926.248	6790.67
926.558	6753.83
926.867	6735.98
927.177	6696.66
927.487	6671.58
927.796	6578.7
928.106	6582.31
928.416	6556.78
928.725	6497.12
929.034	6457.34
929.344	6500.06
929.653	6402.2
929.962	6374.86
930.271	6370.11
930.581	6319.95
930.89	6344.58
931.199	6265.48
931.508	6258.03
931.817	6250.12
932.125	6195.88
932.434	6160.4
932.743	6154.98
933.051	6104.59
933.36	6088.77
933.669	5996.11
933.977	6047.64
934.286	6090.57
934.594	6045.38
934.902	5965.38
935.21	5933.29
935.519	5905.95
935.827	5921.77
936.135	5829.11
936.443	5839.73
936.751	5866.63
937.059	5872.95
937.367	5792.73
937.674	5816.68
937.982	5777.14
938.29	5757.93
938.597	5748.89
938.905	5772.84
939.213	5700.53
939.52	5621.66
939.827	5681.55
940.135	5646.52
940.442	5618.95
940.749	5587.08
941.056	5614.2
941.363	5527.43
941.67	5516.13
941.977	5527.43
942.284	5496.47
942.591	5468.9
942.898	5450.82
943.205	5466.18
943.511	5409.01
943.818	5388.22
944.125	5331.72
944.431	5323.81
944.738	5279.3
945.044	5249.01
945.35	5249.47
945.657	5226.64
945.963	5197.94
946.269	5169.69
946.575	5182.12
946.881	5077.49
947.187	5108.91
947.493	5009.92
947.799	5034.56
948.105	5021.45
948.41	4984.61
948.716	4963.37
949.022	4875.47
949.327	4917.5
949.633	4818.52
949.938	4845.41
950.244	4854.22
950.549	4745.3
950.854	4789.59
951.16	4756.6
951.465	4726.09
951.77	4693.1
952.075	4636.38
952.38	4658.97
952.685	4620.78
952.99	4584.4
953.294	4596.15
953.599	4630.95
953.904	4526.1
954.209	4500.11
954.513	4522.71
954.818	4530.16
955.122	4482.48
955.426	4447
955.731	4438.19
956.035	4468.7
956.339	4438.87
956.643	4440.22
956.948	4395.7
957.252	4367.68
957.556	4355.25
957.86	4356.38
958.163	4315.03
958.467	4329.04
958.771	4337.85
959.075	4301.92
959.378	4294.01
959.682	4265.09
959.985	4216.27
960.289	4235.93
960.592	4202.71
960.896	4180.79
961.199	4200.68
961.502	4151.64
961.805	4096.05
962.108	4134.69
962.411	4133.79
962.714	4098.54
963.017	4118.65
963.32	4063.28
963.623	4042.04
963.926	4044.3
964.228	4042.27
964.531	4026.45
964.833	3987.35
965.136	3938.31
965.438	3936.96
965.741	3948.26
966.043	3920.91
966.345	3881.37
966.648	3880.24
966.95	3839.11
967.252	3851.99
967.554	3813.35
967.856	3789.62
968.158	3778.32
968.46	3753.23
968.761	3760.69
969.063	3703.07
969.365	3691.77
969.666	3684.99
969.968	3668.04
970.269	3623.75
970.571	3639.79
970.872	3658.77
971.174	3581.49
971.475	3573.13
971.776	3566.8
972.077	3514.37
972.378	3512.79
972.679	3499.23
972.98	3541.49
973.281	3499.68
973.582	3441.6
973.883	3425.33
974.183	3394.15
974.484	3392.57
974.785	3415.39
975.085	3386.01
975.386	3380.59
975.686	3345.11
975.986	3327.71
976.287	3340.14
976.587	3223.53
976.887	3261.04
977.187	3254.49
977.487	3249.29
977.787	3273.25
978.087	3197.77
978.387	3200.93
978.687	3205
978.987	3192.8
979.286	3132.69
979.586	3177.2
979.885	3141.95
980.185	3133.59
980.484	3103.99
980.784	3087.49
981.083	3128.17
981.382	3107.15
981.682	3036.19
981.981	3040.94
982.28	3062.18
982.579	3016.76
982.878	3002.97
983.177	2993.25
983.475	3016.98
983.774	2992.12
984.073	2974.27
984.372	2966.14
984.67	2941.96
984.969	2962.52
985.267	2932.69
985.566	2910.54
985.864	2900.6
986.162	2901.73
986.461	2885.01
986.759	2871.22
987.057	2833.26
987.355	2851.56
987.653	2849.98
987.951	2835.97
988.249	2803.2
988.547	2781.73
988.844	2803.2
989.142	2773.6
989.44	2751.45
989.737	2754.84
990.035	2736.31
990.332	2732.92
990.63	2711.68
990.927	2717.33
991.224	2672.81
991.521	2662.87
991.819	2659.7
992.116	2668.97
992.413	2661.06
992.71	2607.95
993.006	2601.17
993.303	2619.03
993.6	2574.51
993.897	2570.21
994.193	2575.64
994.49	2543.55
994.787	2527.28
995.083	2497
995.379	2506.71
995.676	2458.35
995.972	2492.93
996.268	2427.39
996.565	2447.51
996.861	2391.24
997.157	2402.31
997.453	2407.96
997.749	2415.19
998.044	2355.08
998.34	2356.66
998.636	2371.12
998.932	2354.63
999.227	2327.28
999.523	2307.17
999.818	2290.45
1000.114	2285.02
1000.409	2269.43
1000.704	2229.43
1001	2228.75
1001.295	2228.53
1001.59	2242.54
1001.885	2219.72
1002.18	2184.01
1002.475	2196.44
1002.77	2175.42
1003.065	2148.08
1003.359	2139.49
1003.654	2156.44
1003.949	2128.42
1004.243	2126.84
1004.538	2108.08
1004.832	2122.54
1005.127	2076.89
1005.421	2082.09
1005.715	2097.01
1006.009	2061.53
1006.304	2053.17
1006.598	2056.56
1006.892	2045.71
1007.186	2019.27
1007.48	2000.96
1007.773	1999.61
1008.067	1995.31
1008.361	1960.97
1008.655	1985.15
1008.948	1956.9
1009.242	1954.64
1009.535	1932.27
1009.829	1906.28
1010.122	1911.7
1010.415	1929.1
1010.708	1933.4
1011.001	1895.43
1011.295	1891.81
1011.588	1881.19
1011.881	1867.63
1012.173	1843.23
1012.466	1844.81
1012.759	1845.71
1013.052	1838.26
1013.344	1781.54
1013.637	1763
1013.93	1777.92
1014.222	1786.96
1014.514	1761.2
1014.807	1760.52
1015.099	1739.95
1015.391	1725.49
1015.683	1703.35
1015.976	1709.67
1016.268	1687.98
1016.56	1700.18
1016.851	1708.32
1017.143	1673.06
1017.435	1650.92
1017.727	1659.73
1018.018	1623.57
1018.31	1603.69
1018.602	1595.1
1018.893	1557.13
1019.185	1563.46
1019.476	1562.33
1019.767	1567.76
1020.058	1558.26
1020.35	1522.78
1020.641	1525.27
1020.932	1553.74
1021.223	1485.72
1021.514	1508.55
1021.804	1490.02
1022.095	1476.68
1022.386	1446.18
1022.677	1465.16
1022.967	1433.07
1023.258	1445.72
1023.548	1418.61
1023.839	1427.65
1024.129	1408.89
1024.419	1405.27
1024.709	1385.84
1025	1404.6
1025.29	1362.11
1025.58	1361.66
1025.87	1375.44
1026.16	1356.01
1026.449	1342
1026.739	1301.77
1027.029	1303.36
1027.319	1300.64
1027.608	1279.85
1027.898	1288.89
1028.187	1287.54
1028.477	1270.36
1028.766	1277.59
1029.055	1268.1
1029.344	1267.88
1029.634	1220.65
1029.923	1206.18
1030.212	1220.65
1030.501	1213.64
1030.79	1205.51
1031.078	1189.23
1031.367	1202.79
1031.656	1205.51
1031.945	1158.5
1032.233	1168.44
1032.522	1155.34
1032.81	1166.18
1033.099	1153.3
1033.387	1162.57
1033.675	1160.31
1033.963	1144.49
1034.251	1142.46
1034.54	1123.47
1034.828	1122.12
1035.116	1107.2
1035.403	1069.24
1035.691	1066.75
1035.979	1085.51
1036.267	1076.92
1036.554	1072.18
1036.842	1072.18
1037.129	1069.92
1037.417	1041.44
1037.704	1063.36
1037.992	1040.31
1038.279	1026.3
1038.566	1030.37
1038.853	1030.37
1039.14	1030.37
