Data from red_shiny_book_FLMS001491_00080.txt Node
Date: Wed Feb 08 15:25:22 GMT 2017
User: dcchb
Spectrometer: FLMS00149
Trigger mode: 0
Integration Time (sec): 2.000000E-2
Scans to average: 10
Electric dark correction enabled: true
Nonlinearity correction enabled: false
Boxcar width: 0
XAxis mode: Wavelengths
Number of Pixels in Spectrum: 2048
>>>>>Begin Spectral Data<<<<<
341.393	2.74
341.776	2.74
342.16	2.74
342.543	-34.1
342.927	-54.66
343.31	-63.02
343.693	-60.99
344.077	-68.22
344.46	-82
344.843	-71.83
345.226	-48.78
345.61	-13.98
345.993	-29.8
346.376	-7.88
346.759	20.37
347.142	35.73
347.525	59.46
347.908	50.65
348.291	66.24
348.674	90.65
349.057	123.41
349.44	127.71
349.823	158.22
350.206	182.85
350.588	215.39
350.971	210.19
351.354	228.27
351.737	231.43
352.119	265.33
352.502	280.92
352.884	277.76
353.267	289.51
353.65	299
354.032	297.42
354.414	293.58
354.797	326.35
355.179	321.6
355.562	320.7
355.944	321.15
356.326	342.84
356.709	348.04
357.091	339.23
357.473	331.54
357.855	354.14
358.238	365.22
358.62	346.23
359.002	345.1
359.384	347.36
359.766	341.26
360.148	334.93
360.53	354.6
360.912	338.1
361.294	333.58
361.676	334.93
362.057	340.13
362.439	341.26
362.821	334.71
363.203	331.77
363.584	355.73
363.966	333.35
364.348	323.18
364.729	311.21
365.111	336.74
365.493	314.37
365.874	327.93
366.256	317.76
366.637	316.4
367.019	331.77
367.4	300.36
367.781	325.9
368.163	308.04
368.544	308.72
368.925	302.62
369.306	335.16
369.688	314.82
370.069	311.43
370.45	314.14
370.831	338.78
371.212	320.02
371.593	300.59
371.974	317.08
372.355	311.66
372.736	308.49
373.117	325.9
373.498	309.17
373.879	320.92
374.26	338.32
374.641	335.16
375.021	315.05
375.402	310.53
375.783	310.08
376.163	331.09
376.544	332.67
376.925	336.74
377.305	317.76
377.686	341.94
378.066	330.42
378.447	329.96
378.827	353.47
379.208	333.35
379.588	348.27
379.968	338.78
380.349	336.06
380.729	344.88
381.109	336.74
381.489	338.1
381.87	339.91
382.25	335.84
382.63	329.06
383.01	353.47
383.39	353.69
383.77	353.47
384.15	345.78
384.53	356.63
384.91	365.44
385.29	349.17
385.67	344.88
386.049	370.64
386.429	357.31
386.809	372.22
387.189	361.6
387.568	343.97
387.948	338.55
388.328	369.28
388.707	351.43
389.087	380.13
389.466	372
389.846	365.67
390.225	361.83
390.605	341.04
390.984	341.94
391.363	369.96
391.743	355.73
392.122	381.71
392.501	374.93
392.881	369.74
393.26	383.75
393.639	368.83
394.018	397.08
394.397	371.09
394.776	364.54
395.155	383.3
395.534	402.96
395.913	394.14
396.292	394.14
396.671	392.56
397.05	364.31
397.429	385.78
397.808	399.79
398.186	402.28
398.565	413.12
398.944	381.04
399.323	401.83
399.701	398.89
400.08	407.7
400.458	407.93
400.837	411.99
401.215	387.59
401.594	416.74
401.972	390.53
402.351	415.84
402.729	409.28
403.107	409.51
403.486	409.51
403.864	424.42
404.242	413.12
404.62	414.71
404.999	407.93
405.377	430.98
405.755	430.75
406.133	430.53
406.511	423.29
406.889	414.93
407.267	457.87
407.645	431.43
408.023	434.82
408.401	468.94
408.779	470.07
409.156	447.7
409.534	454.25
409.912	429.4
410.29	464.65
410.667	456.97
411.045	456.51
411.422	483.86
411.8	480.69
412.178	494.03
412.555	485.67
412.933	499.45
413.31	500.35
413.687	497.64
414.065	482.73
414.442	482.05
414.819	501.48
415.197	482.5
415.574	552.33
415.951	524.99
416.328	508.26
416.705	520.24
417.082	523.86
417.46	516.62
417.837	546.45
418.214	533.57
418.591	532.9
418.967	549.84
419.344	546.68
419.721	557.3
420.098	532.44
420.475	562.05
420.852	545.78
421.228	584.42
421.605	525.89
421.982	545.55
422.358	560.69
422.735	565.44
423.111	581.71
423.488	585.78
423.864	605.66
424.241	626.68
424.617	614.93
424.994	613.12
425.37	604.76
425.746	621.03
426.123	608.6
426.499	630.07
426.875	612.22
427.251	607.92
427.627	631.65
428.003	620.8
428.379	645.89
428.756	643.4
429.132	651.31
429.507	651.08
429.883	645.21
430.259	661.71
430.635	636.85
431.011	667.58
431.387	684.98
431.763	643.18
432.138	655.6
432.514	697.86
432.89	693.8
433.265	726.34
433.641	724.53
434.016	713.23
434.392	718.88
434.767	724.75
435.143	724.53
435.518	717.75
435.894	721.82
436.269	717.07
436.644	732.89
437.02	744.64
437.395	739.44
437.77	753
438.145	784.41
438.52	774.92
438.895	772.89
439.271	780.12
439.646	780.12
440.021	795.26
440.395	785.54
440.77	774.7
441.145	779.44
441.52	798.2
441.895	790.29
442.27	808.37
442.645	804.98
443.019	834.81
443.394	844.53
443.769	823.51
444.143	827.13
444.518	833
444.892	810.85
445.267	801.36
445.641	857.41
446.016	842.04
446.39	832.32
446.764	855.6
447.139	869.38
447.513	865.09
447.887	865.99
448.262	894.02
448.636	890.63
449.01	893.79
449.384	851.76
449.758	861.7
450.132	888.14
450.506	875.71
450.88	868.48
451.254	873.23
451.628	906.45
452.002	922.72
452.376	922.72
452.75	926.56
453.123	934.01
453.497	929.04
453.871	940.34
454.244	951.19
454.618	918.87
454.992	961.13
455.365	932.43
455.739	934.69
456.112	952.09
456.486	949.61
456.859	961.81
457.232	987.57
457.606	995.71
457.979	1017.18
458.352	995.26
458.725	1027.57
459.099	1034.35
459.472	1033.9
459.845	1028.93
460.218	1010.85
460.591	1010.17
460.964	1013.33
461.337	1051.98
461.71	1041.58
462.083	1077.06
462.456	1068.7
462.829	1057.63
463.201	1079.55
463.574	1094.69
463.947	1095.37
464.32	1129.26
464.692	1144.63
465.065	1100.34
465.438	1134.91
465.81	1111.64
466.183	1095.59
466.555	1112.09
466.928	1118.19
467.3	1167.68
467.672	1161.58
468.045	1215.14
468.417	1225.08
468.789	1240.67
469.161	1238.87
469.534	1233.22
469.906	1262.37
470.278	1276.15
470.65	1207.45
471.022	1255.14
471.394	1270.5
471.766	1270.5
472.138	1302.59
472.51	1269.37
472.882	1306.66
473.253	1385.98
473.625	1372.65
473.997	1395.02
474.369	1425.98
474.74	1459.42
475.112	1464.4
475.484	1438.63
475.855	1433.66
476.227	1424.17
476.598	1453.78
476.97	1447
477.341	1490.16
477.713	1478.63
478.084	1481.8
478.455	1555.24
478.827	1590.72
479.198	1640.89
479.569	1631.17
479.94	1699.42
480.311	1722.69
480.682	1724.28
481.053	1712.3
481.424	1768.57
481.795	1742.36
482.166	1771.73
482.537	1775.35
482.908	1767.44
483.279	1815.12
483.65	1811.28
484.021	1876.36
484.391	1911.62
484.762	1966.08
485.133	2000.88
485.503	2030.94
485.874	2065.28
486.244	2107.32
486.615	2132.63
486.985	2142.12
487.356	2147.54
487.726	2172.4
488.097	2145.06
488.467	2142.12
488.837	2185.51
489.207	2153.19
489.578	2205.62
489.948	2284.49
490.318	2299.63
490.688	2364.49
491.058	2442.9
491.428	2452.62
491.798	2502.11
492.168	2577.36
492.538	2569.45
492.908	2582.11
493.278	2580.3
493.648	2588.21
494.017	2516.57
494.387	2536.46
494.757	2539.4
495.126	2548.44
495.496	2547.08
495.866	2616.68
496.235	2654.87
496.605	2683.57
496.974	2759.05
497.344	2833.17
497.713	2841.08
498.082	2861.65
498.452	2922.21
498.821	2889.9
499.19	2936.45
499.559	2885.83
499.928	2878.14
500.298	2798.6
500.667	2862.33
501.036	2791.59
501.405	2854.19
501.774	2876.79
502.143	2885.6
502.512	2912.72
502.88	2977.35
503.249	2987.97
503.618	3049.44
503.987	3112.94
504.356	3130.34
504.724	3145.93
505.093	3156.33
505.462	3125.82
505.83	3077.91
506.199	3093.05
506.567	3042.43
506.936	3034.75
507.304	3055.32
507.672	3030.91
508.041	3041.98
508.409	3102.55
508.777	3119.27
509.145	3179.15
509.514	3152.71
509.882	3296.44
510.25	3299.6
510.618	3321.52
510.986	3344.12
511.354	3342.31
511.722	3346.83
512.09	3330.34
512.458	3293.27
512.826	3247.4
513.193	3220.51
513.561	3214.18
513.929	3141.64
514.297	3207.85
514.664	3218.93
515.032	3216.21
515.4	3265.03
515.767	3293.95
516.135	3379.6
516.502	3405.14
516.869	3518.13
517.237	3499.6
517.604	3513.38
517.972	3509.31
518.339	3542.99
518.706	3502.31
519.073	3458.47
519.44	3426.38
519.808	3423.89
520.175	3353.61
520.542	3337.34
520.909	3352.48
521.276	3367.4
521.643	3396.32
522.009	3460.05
522.376	3472.71
522.743	3613.49
523.11	3604.23
523.477	3644.68
523.843	3722.19
524.21	3754.51
524.577	3821.62
524.943	3797.22
525.31	3818.23
525.676	3785.24
526.043	3737.78
526.409	3798.57
526.776	3732.36
527.142	3656.88
527.508	3661.17
527.874	3681.29
528.241	3662.53
528.607	3662.98
528.973	3788.63
529.339	3833.15
529.705	3935.29
530.071	4013.26
530.437	4131.22
530.803	4186.58
531.169	4222.52
531.535	4197.43
531.901	4229.97
532.267	4238.11
532.632	4229.52
532.998	4265
533.364	4159.24
533.73	4149.98
534.095	4139.13
534.461	4126.02
534.826	4090.09
535.192	4109.52
535.557	4133.93
535.923	4176.87
536.288	4263.42
536.653	4319.24
537.019	4390.42
537.384	4457.76
537.749	4532.34
538.114	4643.3
538.479	4678.32
538.845	4684.88
539.21	4678.1
539.575	4683.75
539.94	4695.72
540.305	4669.74
540.67	4584.54
541.034	4595.61
541.399	4559.91
541.764	4524.43
542.129	4520.14
542.494	4525.56
542.858	4532.34
543.223	4539.57
543.587	4659.34
543.952	4738.66
544.316	4818.88
544.681	4853.91
545.045	4957.19
545.41	5016.17
545.774	5115.83
546.138	5108.14
546.503	5135.49
546.867	5113.11
547.231	5147.69
547.595	5086.22
547.959	5027.92
548.324	5003.29
548.688	4959.45
549.052	4875.38
549.416	4838.09
549.779	4782.95
550.143	4831.31
550.507	4879.22
550.871	4856.4
551.235	4929.39
551.599	4968.26
551.962	5100.46
552.326	5143.17
552.689	5252.77
553.053	5269.04
553.417	5351.3
553.78	5467
554.143	5403.95
554.507	5418.42
554.87	5373.22
555.234	5363.5
555.597	5303.17
555.96	5215.71
556.323	5139.78
556.686	5086.9
557.05	5082.83
557.413	5053.45
557.776	5006.9
558.139	5052.1
558.502	5096.17
558.865	5161.47
559.228	5232.21
559.59	5274.69
559.953	5393.56
560.316	5451.86
560.679	5570.5
561.041	5612.31
561.404	5696.6
561.767	5743.38
562.129	5675.36
562.492	5751.29
562.854	5710.16
563.217	5648.24
563.579	5663.83
563.941	5580.45
564.304	5538.19
564.666	5451.64
565.028	5433.33
565.39	5338.87
565.753	5328.48
566.115	5326.67
566.477	5377.06
566.839	5415.25
567.201	5469.26
567.563	5576.6
567.925	5693.89
568.287	5777.73
568.648	5942.92
569.01	6057.04
569.372	6092.07
569.734	6126.87
570.095	6175.69
570.457	6223.82
570.819	6182.01
571.18	6172.75
571.542	6094.78
571.903	6032.19
572.265	6012.53
572.626	5983.15
572.987	5881.91
573.349	5919.19
573.71	5876.94
574.071	5834.23
574.432	5923.04
574.794	5987.44
575.155	6116.03
575.516	6207.32
575.877	6264.72
576.238	6376.36
576.599	6556.69
576.96	6670.59
577.32	6872.16
577.681	7000.3
578.042	7127.98
578.403	7261.76
578.763	7350.57
579.124	7430.34
579.485	7503.11
579.845	7578.59
580.206	7563.22
580.566	7672.82
580.927	7705.14
581.287	7817.68
581.648	7910.1
582.008	8000.72
582.368	8180.6
582.728	8322.97
583.089	8583.31
583.449	8832.56
583.809	9162.73
584.169	9445.43
584.529	9750.05
584.889	10181.23
585.249	10537.83
585.609	10808.78
585.969	11317.92
586.329	11705.26
586.688	12173.04
587.048	12529.64
587.408	12836.98
587.768	13176.63
588.127	13489.17
588.487	13835.14
588.846	14231.29
589.206	14453.21
589.565	14808.45
589.925	15191.27
590.284	15462.9
590.643	15790.8
591.003	16198.7
591.362	16620.61
591.721	17048.39
592.08	17384.43
592.44	17985.77
592.799	18603.38
593.158	19015.8
593.517	19611.26
593.876	20111.36
594.235	20642.88
594.593	21163.77
594.952	21812.11
595.311	22318.31
595.67	22773.21
596.029	23415.68
596.387	23870.14
596.746	24149
597.104	24607.97
597.463	24990.11
597.822	25309.42
598.18	25701.27
598.538	25946.92
598.897	26393.23
599.255	26524.53
599.613	27243.61
599.972	27388.69
600.33	27877.71
600.688	28148.89
601.046	28646.96
601.404	29185.25
601.762	29438.35
602.12	30107.49
602.478	30612.78
602.836	31043.05
603.194	31407.79
603.552	31881
603.91	32115.57
604.268	32740.86
604.625	33036.22
604.983	33548.75
605.341	33788.29
605.698	34369.75
606.056	34616.75
606.413	34816.06
606.771	35099.9
607.128	35474.8
607.485	35432.99
607.843	35598.19
608.2	36016.93
608.557	36157.95
608.914	36194.56
609.272	36633.87
609.629	36857.59
609.986	37214.42
610.343	37389.78
610.7	37739.6
611.057	37912.03
611.414	38226.59
611.771	38461.62
612.127	38862.28
612.484	39149.06
612.841	39636.73
613.198	39683.05
613.554	40080.33
613.911	40282.58
614.267	40638.73
614.624	40809.8
614.98	40917.82
615.337	41260.19
615.693	41337.25
616.05	41383.8
616.406	41746.05
616.762	41593.06
617.118	41630.35
617.475	41643
617.831	41874.18
618.187	41788.31
618.543	41951.47
618.899	42199.14
619.255	42085.25
619.611	42021.97
619.967	42284.57
620.323	42645.01
620.678	42529.31
621.034	42600.26
621.39	42793.48
621.746	42961.84
622.101	43443.41
622.457	43266.46
622.812	43594.81
623.168	43764.08
623.523	43849.5
623.879	44172.65
624.234	43949.38
624.589	44333.1
624.945	44265.08
625.3	44444.74
625.655	44323.61
626.01	44399.31
626.365	44429.59
626.72	44238.64
627.075	44248.58
627.43	44128.81
627.785	44143.73
628.14	44169.26
628.495	43957.29
628.85	43929.27
629.205	43956.84
629.559	44150.96
629.914	44061.24
630.269	44167.91
630.623	44089.26
630.978	44126.78
631.332	44328.13
631.687	44441.8
632.041	44349.82
632.396	44546.88
632.75	44568.35
633.104	44677.95
633.459	44520.67
633.813	44666.65
634.167	44715.69
634.521	44704.16
634.875	44862.58
635.229	44755.91
635.583	44725.86
635.937	44522.25
636.291	44590.04
636.645	44496.03
636.999	44349.37
637.352	44273.67
637.706	43987.35
638.06	44108.02
638.413	43971.75
638.767	43865.77
639.121	43747.58
639.474	43572.44
639.828	43649.05
640.181	43768.14
640.534	43706.22
640.888	43511.43
641.241	43538.09
641.594	43639.56
641.947	43762.04
642.301	43674.59
642.654	43864.19
643.007	44002.71
643.36	43975.6
643.713	44032.99
644.066	44240.9
644.419	44038.64
644.771	43752.1
645.124	43488.83
645.477	43246.8
645.83	43162.06
646.182	42878.22
646.535	42725.46
646.888	42767.72
647.24	42521.4
647.593	42829.18
647.945	42542.64
648.298	42199.82
648.65	42115.08
649.002	41950.34
649.355	41913.5
649.707	41667.18
650.059	41867.63
650.411	42468.74
650.763	42478.46
651.115	42834.38
651.467	42749.19
651.819	42754.84
652.171	42710.32
652.523	42659.25
652.875	42738.11
653.227	42552.81
653.578	43013.59
653.93	43044.09
654.282	42816.53
654.633	42906.47
654.985	43058.78
655.337	43007.26
655.688	42979.46
656.039	43228.27
656.391	42870.99
656.742	43090.87
657.094	42992.34
657.445	42968.62
657.796	42916.19
658.147	42713.03
658.498	42605.24
658.849	42603.43
659.2	42581.51
659.551	42303.55
659.902	42371.8
660.253	42227.84
660.604	42225.13
660.955	41930.68
661.306	42081.41
661.656	41910.11
662.007	41966.83
662.358	41999.15
662.708	41988.53
663.059	41977
663.409	41690.23
663.76	42261.29
664.11	42166.6
664.461	42245.7
664.811	42267.17
665.161	42271.69
665.511	42346.49
665.862	42504.45
666.212	42519.81
666.562	42551.45
666.912	42487.27
667.262	42602.75
667.612	42543.54
667.962	42524.56
668.312	42493.83
668.662	42503.54
669.011	42341.74
669.361	42242.76
669.711	42115.31
670.06	42051.58
670.41	41842.54
670.76	41766.61
671.109	41818.14
671.459	41615.66
671.808	41549.67
672.157	41505.6
672.507	41106.97
672.856	41174.99
673.205	41200.98
673.554	41333.86
673.904	41214.09
674.253	41476.45
674.602	41378.6
674.951	40889.8
675.3	40756.47
675.649	41414.53
675.998	41460.41
676.346	41455.66
676.695	41713.28
677.044	41546.96
677.393	41629.44
677.741	41731.59
678.09	41713.28
678.438	41615.66
678.787	41743.11
679.135	41746.95
679.484	41370.01
679.832	41528.88
680.181	41306.51
680.529	41255.67
680.877	41030.59
681.225	40974.54
681.573	41282.11
681.922	40794.44
682.27	40661.78
682.618	40482.13
682.966	40472.41
683.314	40402.58
683.661	40361.45
684.009	40132.53
684.357	40011.86
684.705	39839.88
685.053	39924.85
685.4	39765.76
685.748	39738.42
686.095	39682.15
686.443	39720.11
686.79	39657.74
687.138	39690.74
687.485	39780.45
687.832	39762.6
688.18	39875.36
688.527	39623.85
688.874	39884.63
689.221	39682.6
689.568	39575.03
689.915	39501.14
690.262	39679.21
690.609	39616.16
690.956	39449.84
691.303	39351.54
691.65	39173.46
691.997	39255.49
692.344	38845.79
692.69	38787.26
693.037	38886.69
693.383	38420.71
693.73	38474.72
694.077	38312.47
694.423	38120.16
694.769	37998.8
695.116	37801.07
695.462	37548.65
695.808	37480.17
696.155	37515.88
696.501	37264.36
696.847	37262.33
697.193	37019.85
697.539	37034.53
697.885	36815.33
698.231	36640.19
698.577	36680.65
698.923	36740.08
699.269	36668.89
699.614	36589.12
699.96	36474.78
700.306	36664.37
700.651	36454.44
700.997	36464.61
701.342	36422.12
701.688	36391.39
702.033	36448.56
702.379	36449.01
702.724	36445.17
703.069	36381.9
703.415	35996.82
703.76	36123.15
704.105	36039.98
704.45	36002.47
704.795	35739.2
705.14	35533.11
705.485	35537.4
705.83	35357.97
706.175	35354.35
706.52	35080.24
706.865	34853.8
707.209	34790.98
707.554	34670.98
707.899	34590.98
708.243	34242.07
708.588	34405.9
708.932	33978.57
709.277	33973.82
709.621	33950.32
709.966	33742.42
710.31	33819.03
710.654	33558.92
710.998	33581.07
711.342	33722.98
711.687	33553.5
712.031	33556.66
712.375	33479.37
712.719	33624.45
713.063	33411.81
713.407	33641.63
713.75	33459.04
714.094	33591.46
714.438	33409.77
714.782	33738.8
715.125	33545.36
715.469	33586.49
715.812	33398.02
716.156	33194.18
716.499	33240.96
716.843	33328.42
717.186	33101.76
717.53	33264.69
717.873	33141.3
718.216	33002.32
718.559	32732.95
718.902	32462
719.246	32556.69
719.589	32453.64
719.932	32339.29
720.275	32176.58
720.617	32156.02
720.96	31876.48
721.303	31887.33
721.646	31809.81
721.989	31559.2
722.331	31691.17
722.674	31468.35
723.016	31480.1
723.359	31483.72
723.701	31428.13
724.044	31315.82
724.386	31133.9
724.729	31348.36
725.071	31205.08
725.413	31234.69
725.755	31198.08
726.097	31262.48
726.439	31007.8
726.782	31150.17
727.124	31336.83
727.465	31369.15
727.807	31379.77
728.149	31157.18
728.491	31175.93
728.833	31232.43
729.175	31202.15
729.516	31187.68
729.858	31036.27
730.199	31045.99
730.541	30888.03
730.882	30893.91
731.224	31047.57
731.565	30807.35
731.906	30804.42
732.248	30766.68
732.589	30470.41
732.93	30301.38
733.271	30358.1
733.612	30246.69
733.953	30210.08
734.294	30162.62
734.635	29882.63
734.976	29905.68
735.317	29730.09
735.658	29608.74
735.999	29642.19
736.339	29505.92
736.68	29545.47
737.021	29464.79
737.361	29317
737.702	29527.39
738.042	29335.53
738.383	29353.61
738.723	29430.67
739.063	29335.3
739.404	29438.58
739.744	29420.27
740.084	29465.02
740.424	29432.7
740.764	29373.95
741.104	29531.68
741.444	29364
741.784	29400.84
742.124	29587.05
742.464	29508.4
742.804	29430.89
743.143	29333.27
743.483	29364.91
743.823	29229.77
744.162	29294.4
744.502	29244.46
744.841	29136.66
745.181	29273.16
745.52	29105.48
745.86	29018.7
746.199	28954.97
746.538	28914.97
746.877	28828.87
747.216	28720.85
747.556	28566.73
747.895	28524.25
748.234	28438.15
748.573	28151.15
748.911	28105.73
749.25	28089.69
749.589	28016.01
749.928	27918.39
750.267	27884.49
750.605	27816.7
750.944	27738.51
751.283	27596.82
751.621	27646.53
751.96	27458.29
752.298	27495.58
752.636	27504.16
752.975	27316.82
753.313	27286.77
753.651	27464.84
753.989	27375.58
754.327	27276.83
754.666	27258.29
755.004	27478.18
755.342	27376.26
755.679	27376.48
756.017	27198.41
756.355	27280.89
756.693	27246.54
757.031	27194.12
757.368	27052.42
757.706	27223.95
758.044	27007
758.381	27033.67
758.719	27003.61
759.056	26905.54
759.394	26784.63
759.731	26698.31
760.068	26550.52
760.405	26439.33
760.743	26403.18
761.08	26362.95
761.417	26124.77
761.754	26085.9
762.091	26028.5
762.428	25854.94
762.765	25649.3
763.102	25779.69
763.438	25557.55
763.775	25238.46
764.112	25373.82
764.449	25417.67
764.785	25101.74
765.122	24939.71
765.458	24860.17
765.795	24793.95
766.131	24795.76
766.467	24661.53
766.804	24505.82
767.14	24489.33
767.476	24529.55
767.812	24414.08
768.148	24424.92
768.485	24297.92
768.821	24225.15
769.157	24269.45
769.492	24181.31
769.828	24193.97
770.164	24042.11
770.5	24027.42
770.836	24023.58
771.171	23935.9
771.507	23925.05
771.842	23730.48
772.178	23843.02
772.513	23840.76
772.849	23739.97
773.184	23552.63
773.519	23574.1
773.855	23424.5
774.19	23396.48
774.525	23234.9
774.86	23301.34
775.195	23231.28
775.53	23100.44
775.865	22992.42
776.2	22659.55
776.535	22603.05
776.87	22456.16
777.205	22313.79
777.539	22282.61
777.874	22256.17
778.209	22074.25
778.543	21937.3
778.878	21749.96
779.212	21828.15
779.547	21601.72
779.881	21502.74
780.215	21393.59
780.55	21398.79
780.884	21227.72
781.218	21330.77
781.552	21147.04
781.886	20985.24
782.22	20813.49
782.554	20879.03
782.888	20641.75
783.222	20685.13
783.556	20668.64
783.889	20665.7
784.223	20442.43
784.557	20482.88
784.89	20568.3
785.224	20444.24
785.557	20389.77
785.891	20440.39
786.224	20383
786.558	20307.29
786.891	20186.62
787.224	20191.36
787.557	20120.63
787.891	20127.18
788.224	20122.44
788.557	20082.89
788.89	20098.71
789.223	19886.06
789.556	19884.25
789.888	19883.12
790.221	19793.18
790.554	19574.88
790.887	19628.89
791.219	19423.92
791.552	19479.52
791.884	19345.28
792.217	19252.86
792.549	19112.97
792.882	19059.64
793.214	18912.75
793.546	18874.56
793.879	18651.74
794.211	18592.53
794.543	18627.11
794.875	18545.76
795.207	18562.25
795.539	18326.33
795.871	18308.7
796.203	18188.7
796.535	17987.13
796.867	17973.79
797.198	17937.86
797.53	17830.97
797.862	17740.58
798.193	17802.5
798.525	17677.08
798.856	17696.06
799.188	17590.07
799.519	17458.1
799.85	17397.76
800.182	17506.23
800.513	17487.48
800.844	17302.17
801.175	17473.02
801.506	17450.87
801.837	17378.55
802.168	17370.42
802.499	17246.35
802.83	17325.22
803.161	17225.34
803.491	17155.28
803.822	17290.42
804.153	17123.42
804.483	17071.44
804.814	16973.14
805.145	16943.99
805.475	17018.34
805.805	16955.06
806.136	16961.84
806.466	16753.26
806.796	16909.41
807.126	16793.03
807.457	16653.6
807.787	16640.72
808.117	16577.67
808.447	16433.04
808.777	16481.63
809.107	16421.07
809.436	16319.37
809.766	16305.59
810.096	16275.53
810.426	16087.06
810.755	16063.33
811.085	15979.5
811.414	16001.42
811.744	15846.84
812.073	15722.33
812.403	15700.18
812.732	15624.02
813.061	15602.1
813.39	15525.04
813.719	15500.64
814.049	15537.02
814.378	15422
814.707	15396.69
815.036	15359.62
815.365	15258.38
815.693	15162.34
816.022	15193.98
816.351	15175.22
816.68	15071.72
817.008	15219.97
817.337	15016.36
817.665	15042.57
817.994	15093.19
818.322	15050.71
818.651	15028.33
818.979	15012.29
819.307	15100.87
819.636	15028.33
819.964	14863.59
820.292	15009.58
820.62	14964.15
820.948	14947.21
821.276	15055.23
821.604	14955.34
821.932	15072.85
822.259	15052.74
822.587	15048.9
822.915	15052.29
823.243	15025.17
823.57	15025.85
823.898	14963.25
824.225	14975.45
824.553	14968.22
824.88	14936.13
825.207	15044.15
825.535	14922.8
825.862	14919.86
826.189	14859.07
826.516	14953.08
826.843	14915.12
827.17	14896.13
827.497	14826.08
827.824	14832.86
828.151	14860.43
828.478	14721.68
828.805	14818.17
829.131	14617.72
829.458	14592.64
829.785	14553.09
830.111	14568.23
830.438	14652.98
830.764	14610.94
831.09	14629.02
831.417	14493.43
831.743	14499.53
832.069	14445.52
832.395	14473.55
832.722	14499.99
833.048	14469.03
833.374	14484.62
833.7	14445.52
834.026	14481
834.351	14490.27
834.677	14467.22
835.003	14538.18
835.329	14463.15
835.654	14433.77
835.98	14398.75
836.306	14488.01
836.631	14382.02
836.956	14523.04
837.282	14522.58
837.607	14414.11
837.932	14435.58
838.258	14386.99
838.583	14474
838.908	14409.59
839.233	14542.24
839.558	14428.35
839.883	14309.03
840.208	14333.44
840.533	14344.06
840.858	14348.13
841.182	14329.14
841.507	14279.88
841.832	14240.78
842.156	14248.69
842.481	14212.76
842.805	14232.65
843.13	14107.23
843.454	14039.66
843.778	13963.05
844.103	13922.15
844.427	13952.2
844.751	13956.95
845.075	13871.3
845.399	13780.23
845.723	13670.18
846.047	13671.08
846.371	13573
846.695	13564.19
847.019	13368.26
847.343	13324.2
847.666	13224.09
847.99	13203.75
848.313	13121.04
848.637	13071.1
848.96	13019.35
849.284	12912.01
849.607	12912.68
849.931	12708.17
850.254	12741.16
850.577	12637.66
850.9	12606.7
851.223	12585.91
851.546	12542.98
851.869	12432.7
852.192	12583.2
852.515	12406.93
852.838	12418.68
853.161	12383.66
853.483	12327.39
853.806	12303.89
854.129	12276.54
854.451	12345.47
854.774	12263.66
855.096	12190.22
855.419	12229.31
855.741	12263.21
856.063	12101.18
856.385	12165.58
856.708	12105.92
857.03	12058.02
857.352	12133.27
857.674	12048.07
857.996	12070.22
858.318	11915.65
858.64	12022.31
858.961	11926.72
859.283	11832.26
859.605	11845.82
859.926	11913.61
860.248	11832.94
860.57	11860.28
860.891	11802.88
861.212	11730.57
861.534	11713.39
861.855	11608.99
862.176	11659.61
862.498	11679.04
862.819	11542.1
863.14	11525.37
863.461	11458.48
863.782	11405.15
864.103	11487.18
864.424	11332.61
864.745	11372.16
865.065	11271.82
865.386	11238.6
865.707	11141.2
866.027	11177.14
866.348	11120.19
866.668	11182.11
866.989	11026.4
867.309	10973.75
867.63	11012.85
867.95	10950.93
868.27	10959.29
868.59	10990.7
868.91	10844.71
869.23	10887.65
869.55	10783.7
869.87	10925.62
870.19	10816.69
870.51	10833.42
870.83	10819.86
871.15	10754.55
871.469	10774.89
871.789	10831.61
872.109	10776.24
872.428	10773.3
872.748	10752.06
873.067	10774.89
873.386	10813.08
873.706	10811.5
874.025	10730.14
874.344	10747.09
874.663	10749.58
874.982	10680.65
875.301	10776.92
875.62	10765.62
875.939	10725.85
876.258	10706.19
876.577	10658.51
876.896	10764.26
877.214	10608.34
877.533	10672.06
877.852	10687.88
878.17	10637.04
878.489	10717.49
878.807	10686.07
879.125	10715.9
879.444	10640.2
879.762	10548.23
880.08	10589.81
880.398	10496.25
880.716	10559.3
881.034	10447.44
881.352	10536.93
881.67	10431.62
881.988	10485.18
882.306	10411.28
882.624	10349.59
882.941	10311.85
883.259	10197.73
883.577	10199.76
883.894	10193.88
884.212	10170.16
884.529	10081.35
884.846	10027.56
885.164	10079.76
885.481	10031.4
885.798	10014
886.115	9927.45
886.432	9948.47
886.75	9835.93
887.067	9857.62
887.383	9861.46
887.7	9844.74
888.017	9806.1
888.334	9807
888.651	9654.01
888.967	9714.12
889.284	9617.18
889.6	9595.26
889.917	9578.99
890.233	9579.44
890.55	9453.79
890.866	9522.26
891.182	9517.74
891.498	9447.69
891.815	9424.19
892.131	9425.09
892.447	9370.18
892.763	9425.09
893.079	9314.81
893.395	9345.77
893.71	9326.11
894.026	9325.43
894.342	9246.79
894.657	9342.61
894.973	9298.54
895.289	9272.55
895.604	9231.2
895.92	9217.41
896.235	9195.49
896.55	9215.38
896.865	9166.57
897.181	9130.18
897.496	9111.88
897.811	9129.73
898.126	9075.5
898.441	9036.17
898.756	9029.62
899.071	9012.9
899.386	9005.89
899.7	8946.46
900.015	8927.48
900.33	8817.2
900.644	8844.32
900.959	8780.36
901.273	8824.88
901.588	8736.52
901.902	8738.78
902.216	8706.92
902.531	8652.91
902.845	8641.61
903.159	8592.8
903.473	8555.06
903.787	8522.29
904.101	8398.45
904.415	8389.19
904.729	8371.79
905.042	8315.97
905.356	8243.43
905.67	8227.61
905.984	8246.59
906.297	8112.13
906.611	8038.46
906.924	8059.25
907.237	7951.91
907.551	8003.66
907.864	7912.14
908.177	7848.64
908.491	7876.88
908.804	7812.48
909.117	7712.59
909.43	7720.73
909.743	7709.88
910.056	7670.34
910.368	7625.14
910.681	7641.18
910.994	7537.23
911.307	7521.86
911.619	7456.78
911.932	7496.33
912.244	7426.73
912.557	7426.5
912.869	7404.58
913.181	7379.72
913.494	7377.91
913.806	7312.38
914.118	7312.83
914.43	7240.29
914.742	7230.12
915.054	7229.67
915.366	7241.42
915.678	7182.66
915.99	7176.11
916.302	7119.84
916.613	7141.31
916.925	7104.47
917.236	7108.54
917.548	7083.46
917.859	7077.81
918.171	6981.54
918.482	7041.88
918.794	6945.38
919.105	6997.81
919.416	6980.41
919.727	6932.95
920.038	6911.26
920.349	6864.48
920.66	6859.28
920.971	6772.96
921.282	6798.95
921.593	6759.85
921.903	6751.72
922.214	6721.21
922.525	6710.59
922.835	6640.76
923.146	6618.39
923.456	6622.68
923.767	6535.9
924.077	6495
924.387	6500.87
924.697	6465.62
925.008	6430.37
925.318	6404.61
925.628	6316.02
925.938	6311.5
926.248	6247.32
926.558	6260.65
926.867	6214.55
927.177	6165.29
927.487	6160.54
927.796	6096.37
928.106	6106.76
928.416	6038.06
928.725	6036.71
929.034	6000.1
929.344	5956.71
929.653	5923.94
929.962	5929.82
930.271	5886.43
930.581	5841.91
930.89	5778.63
931.199	5768.92
931.508	5803.72
931.817	5749.26
932.125	5736.15
932.434	5631.29
932.743	5649.37
933.051	5638.07
933.36	5608.02
933.669	5568.7
933.977	5615.25
934.286	5540.67
934.594	5535.7
934.902	5514.46
935.21	5516.95
935.519	5497.06
935.827	5437.85
936.135	5411.64
936.443	5365.31
936.751	5407.34
937.059	5348.59
937.367	5350.85
937.674	5344.07
937.982	5336.61
938.29	5321.47
938.597	5271.08
938.905	5179.55
939.213	5263.62
939.52	5183.85
939.827	5242.15
940.135	5189.04
940.442	5183.62
940.749	5144.75
941.056	5192.43
941.363	5118.31
941.67	5094.36
941.977	5053
942.284	5022.27
942.591	5056.62
942.898	5054.13
943.205	5062.04
943.511	4967.58
943.818	4991.54
944.125	4959.22
944.431	4977.75
944.738	4937.75
945.044	4913.57
945.35	4887.58
945.657	4822.5
945.963	4847.58
946.269	4862.95
946.575	4784.54
946.881	4716.97
947.187	4714.03
947.493	4719
947.799	4734.37
948.105	4628.61
948.41	4646.69
948.716	4626.8
949.022	4551.32
949.327	4616.4
949.633	4542.28
949.938	4508.16
950.244	4529.4
950.549	4427.03
950.854	4411.66
951.16	4372.34
951.465	4368.5
951.77	4370.76
952.075	4348.84
952.38	4373.47
952.685	4307.49
952.99	4282.85
953.294	4283.08
953.599	4227.49
953.904	4216.41
954.209	4194.49
954.513	4155.4
954.818	4184.55
955.122	4124.89
955.426	4132.57
955.731	4100.03
956.035	4041.28
956.339	4045.8
956.643	4029.75
956.948	4030.2
957.252	4011.45
957.556	3987.27
957.86	4021.17
958.163	3997.21
958.467	3952.01
958.771	3927.83
959.075	3937.78
959.378	3902.98
959.682	3956.31
959.985	3878.12
960.289	3893.03
960.592	3879.93
960.896	3866.37
961.199	3823.2
961.502	3853.49
961.805	3810.78
962.108	3780.27
962.411	3776.43
962.714	3760.61
963.017	3779.59
963.32	3732.36
963.623	3724.22
963.926	3747.5
964.228	3703.21
964.531	3690.1
964.833	3686.71
965.136	3704.56
965.438	3642.87
965.741	3633.38
966.043	3665.02
966.345	3644
966.648	3598.8
966.95	3599.71
967.252	3567.62
967.554	3583.89
967.856	3564.23
968.158	3483.78
968.46	3533.72
968.761	3504.34
969.063	3498.24
969.365	3460.05
969.666	3427.28
969.968	3418.24
970.269	3416.44
970.571	3403.1
970.872	3360.39
971.174	3354.52
971.475	3346.38
971.776	3334.86
972.077	3308.42
972.378	3287.4
972.679	3266.84
972.98	3261.41
973.281	3220.73
973.582	3214.86
973.883	3257.12
974.183	3178.48
974.484	3181.41
974.785	3145.26
975.085	3131.47
975.386	3108.2
975.686	3106.61
975.986	3110.23
976.287	3058.93
976.587	3051.93
976.887	3022.32
977.187	3021.42
977.487	3020.29
977.787	3000.85
978.087	3001.53
978.387	2969.89
978.687	2981.42
978.987	2935.09
979.286	2944.13
979.586	2928.99
979.885	2880.86
980.185	2878.82
980.484	2907.52
980.784	2837.47
981.083	2876.56
981.382	2826.17
981.682	2847.19
981.981	2832.27
982.28	2784.14
982.579	2749.56
982.878	2792.95
983.177	2769.9
983.475	2758.37
983.774	2737.36
984.073	2737.81
984.372	2706.85
984.67	2726.51
984.969	2717.7
985.267	2717.92
985.566	2721.09
985.864	2665.04
986.162	2675.89
986.461	2673.63
986.759	2654.42
987.057	2657.13
987.355	2641.09
987.653	2627.98
987.951	2638.83
988.249	2605.16
988.547	2596.34
988.844	2604.48
989.142	2553.86
989.44	2581.88
989.737	2528.78
990.035	2509.34
990.332	2514.09
990.63	2510.92
990.927	2523.58
991.224	2510.47
991.521	2482.22
991.819	2491.71
992.116	2490.13
992.413	2460.98
992.71	2441.32
993.006	2448.55
993.303	2440.19
993.6	2404.48
993.897	2438.61
994.193	2409
994.49	2399.06
994.787	2367.88
995.083	2346.86
995.379	2344.15
995.676	2338.95
995.972	2253.3
996.268	2326.29
996.565	2309.12
996.861	2277.26
997.157	2271.15
997.453	2273.41
997.749	2232.06
998.044	2206.07
998.34	2206.98
998.636	2194.09
998.932	2206.3
999.227	2158.16
999.523	2152.51
999.818	2142.57
1000.114	2133.31
1000.409	2128.11
1000.704	2105.96
1001	2104.15
1001.295	2050.6
1001.59	2101.22
1001.885	2075
1002.18	2047.66
1002.475	2047.21
1002.77	2038.84
1003.065	2002.91
1003.359	2002.46
1003.654	2003.82
1003.949	1978.96
1004.243	1988.9
1004.538	1954.1
1004.832	1930.15
1005.127	1919.75
1005.421	1937.6
1005.715	1933.76
1006.009	1886.76
1006.304	1875.01
1006.598	1880.88
1006.892	1861.9
1007.186	1862.8
1007.48	1847.21
1007.773	1800.66
1008.067	1822.81
1008.361	1814.22
1008.655	1800.21
1008.948	1816.48
1009.242	1823.48
1009.535	1803.6
1009.829	1755.69
1010.122	1752.75
1010.415	1715.92
1010.708	1737.16
1011.001	1740.32
1011.295	1728.12
1011.588	1707.33
1011.881	1722.47
1012.173	1712.3
1012.466	1727.21
1012.759	1707.55
1013.052	1705.52
1013.344	1670.72
1013.637	1673.88
1013.93	1657.39
1014.222	1646.09
1014.514	1650.61
1014.807	1644.05
1015.099	1616.93
1015.391	1622.36
1015.683	1609.93
1015.976	1605.41
1016.268	1589.14
1016.56	1608.57
1016.851	1573.09
1017.143	1591.62
1017.435	1562.93
1017.727	1545.52
1018.018	1514.79
1018.31	1524.96
1018.602	1495.36
1018.893	1489.93
1019.185	1496.26
1019.476	1479.09
1019.767	1498.97
1020.058	1457.17
1020.35	1459.88
1020.641	1446.32
1020.932	1461.23
1021.223	1413.78
1021.514	1412.42
1021.804	1395.25
1022.095	1407.9
1022.386	1382.14
1022.677	1374.46
1022.967	1387.34
1023.258	1354.57
1023.548	1336.94
1023.839	1352.54
1024.129	1319.54
1024.419	1319.09
1024.709	1303.72
1025	1303.72
1025.29	1290.62
1025.58	1289.03
1025.87	1282.03
1026.16	1296.94
1026.449	1284.06
1026.739	1236.61
1027.029	1237.51
1027.319	1223.72
1027.608	1216.95
1027.898	1199.32
1028.187	1216.04
1028.477	1185.31
1028.766	1172.65
1029.055	1189.83
1029.344	1171.52
1029.634	1152.31
1029.923	1150.96
1030.212	1132.43
1030.501	1156.16
1030.79	1111.86
1031.078	1138.76
1031.367	1106.67
1031.656	1096.27
1031.945	1101.02
1032.233	1085.42
1032.522	1087.68
1032.81	1070.51
1033.099	1043.62
1033.387	1072.99
1033.675	1083.84
1033.963	1046.78
1034.251	1051.3
1034.54	1044.29
1034.828	1042.49
1035.116	1014.01
1035.403	1024.41
1035.691	1026.44
1035.979	1013.56
1036.267	1013.56
1036.554	1014.24
1036.842	999.32
1037.129	1011.53
1037.417	994.13
1037.704	999.32
1037.992	954.58
1038.279	961.81
1038.566	961.13
1038.853	961.13
1039.14	961.13
