Data from red_cardboard_box_FLMS001491_00073.txt Node
Date: Wed Feb 08 11:33:06 GMT 2017
User: dcchb
Spectrometer: FLMS00149
Trigger mode: 0
Integration Time (sec): 2.000000E-2
Scans to average: 10
Electric dark correction enabled: true
Nonlinearity correction enabled: false
Boxcar width: 0
XAxis mode: Wavelengths
Number of Pixels in Spectrum: 2048
>>>>>Begin Spectral Data<<<<<
341.393	-15.47
341.776	-15.47
342.16	-15.47
342.543	-49.59
342.927	-67.67
343.31	-61.11
343.693	-72.64
344.077	-65.86
344.46	-87.55
344.843	-36.03
345.226	-43.26
345.61	-26.99
345.993	-12.75
346.376	1.93
346.759	-2.81
347.142	32.44
347.525	31.31
347.908	55.27
348.291	77.41
348.674	95.94
349.057	114.7
349.44	133.23
349.823	131.88
350.206	163.96
350.588	211.2
350.971	214.36
351.354	256.39
351.737	224.08
352.119	250.74
352.502	263.4
352.884	265.88
353.267	266.11
353.65	283.74
354.032	285.54
354.414	335.49
354.797	313.57
355.179	317.41
355.562	326.22
355.944	325.77
356.326	338.2
356.709	335.94
357.091	329.38
357.473	341.81
357.855	332.77
358.238	336.84
358.62	341.14
359.002	348.59
359.384	344.98
359.766	327.35
360.148	338.2
360.53	330.97
360.912	310.18
361.294	342.27
361.676	335.71
362.057	333.9
362.439	334.58
362.821	324.19
363.203	343.39
363.584	318.76
363.966	345.43
364.348	317.63
364.729	316.28
365.111	298.42
365.493	312.21
365.874	323.06
366.256	313.57
366.637	315.6
367.019	313.79
367.4	321.7
367.781	302.27
368.163	314.7
368.544	307.24
368.925	313.11
369.306	300.91
369.688	322.15
370.069	320.57
370.45	297.52
370.831	328.93
371.212	290.74
371.593	308.14
371.974	307.69
372.355	312.21
372.736	308.14
373.117	289.39
373.498	291.42
373.879	310.4
374.26	307.24
374.641	317.41
375.021	326.9
375.402	327.8
375.783	300.46
376.163	316.95
376.544	322.15
376.925	318.08
377.305	311.31
377.686	293
378.066	314.92
378.447	339.55
378.827	316.05
379.208	317.63
379.588	319.89
379.968	327.35
380.349	323.51
380.729	339.55
381.109	313.57
381.489	325.99
381.87	334.36
382.25	321.7
382.63	326.45
383.01	309.27
383.39	312.44
383.77	335.49
384.15	339.55
384.53	335.71
384.91	330.97
385.29	337.97
385.67	325.09
386.049	345.43
386.429	328.93
386.809	314.24
387.189	315.83
387.568	325.32
387.948	328.71
388.328	336.16
388.707	349.72
389.087	324.19
389.466	346.78
389.846	336.39
390.225	336.84
390.605	346.11
390.984	339.33
391.363	326.45
391.743	360.34
392.122	340.68
392.501	339.33
392.881	341.81
393.26	352.89
393.639	362.15
394.018	349.5
394.397	358.76
394.776	328.93
395.155	317.18
395.534	353.56
395.913	368.7
396.292	357.41
396.671	362.38
397.05	352.89
397.429	341.14
397.808	340.91
398.186	339.1
398.565	346.11
398.944	358.54
399.323	353.56
399.701	358.31
400.08	358.99
400.458	355.15
400.837	373.9
401.215	361.47
401.594	365.54
401.972	370.74
402.351	360.12
402.729	351.08
403.107	366.22
403.486	367.12
403.864	342.72
404.242	354.24
404.62	365.09
404.999	359.44
405.377	357.41
405.755	375.48
406.133	365.32
406.511	388.82
406.889	381.36
407.267	394.02
407.645	366.9
408.023	386.33
408.401	380.91
408.779	378.87
409.156	386.56
409.534	399.66
409.912	375.94
410.29	385.88
410.667	410.29
411.045	405.31
411.422	382.26
411.8	396.95
412.178	405.09
412.555	386.11
412.933	365.77
413.31	403.51
413.687	395.37
414.065	384.07
414.442	408.03
414.819	408.25
415.197	400.34
415.574	420.91
415.951	415.03
416.328	418.87
416.705	413.9
417.082	446.67
417.46	415.03
417.837	414.58
418.214	415.94
418.591	414.58
418.967	429.04
419.344	418.87
419.721	428.36
420.098	415.03
420.475	417.29
420.852	432.66
421.228	423.39
421.605	434.47
421.982	439.44
422.358	424.07
422.735	430.17
423.111	448.93
423.488	427.01
423.864	457.06
424.241	441.92
424.617	460.91
424.994	439.44
425.37	434.69
425.746	453.9
426.123	457.52
426.499	445.09
426.875	445.54
427.251	459.1
427.627	472.88
428.003	441.25
428.379	441.02
428.756	459.32
429.132	476.5
429.507	490.06
429.883	465.88
430.259	472.21
430.635	481.02
431.011	465.2
431.387	481.7
431.763	484.18
432.138	486.44
432.514	486.89
432.89	483.96
433.265	495.26
433.641	501.58
434.016	490.06
434.392	493
434.767	491.19
435.143	520.79
435.518	501.36
435.894	513.56
436.269	499.55
436.644	484.86
437.02	504.75
437.395	511.53
437.77	527.12
438.145	532.09
438.52	532.99
438.895	513.33
439.271	536.16
439.646	527.34
440.021	544.52
440.395	551.3
440.77	542.49
441.145	543.84
441.52	519.44
441.895	533.9
442.27	539.32
442.645	536.84
443.019	528.25
443.394	558.53
443.769	565.54
444.143	545.65
444.518	571.64
444.892	556.5
445.267	538.42
445.641	561.92
446.016	567.8
446.39	569.6
446.764	593.11
447.139	561.47
447.513	561.69
447.887	531.64
448.262	562.6
448.636	586.33
449.01	566.89
449.384	580.9
449.758	570.96
450.132	571.64
450.506	579.77
450.88	570.06
451.254	584.97
451.628	589.04
452.002	602.6
452.376	583.16
452.75	596.5
453.123	610.05
453.497	605.99
453.871	626.55
454.244	606.89
454.618	630.84
454.992	632.65
455.365	622.71
455.739	618.87
456.112	624.07
456.486	628.81
456.859	619.32
457.232	618.64
457.606	635.14
457.979	648.92
458.352	651.86
458.725	654.12
459.099	659.77
459.472	640.56
459.845	654.57
460.218	660.22
460.591	662.03
460.964	682.14
461.337	670.39
461.71	682.14
462.083	696.61
462.456	671.07
462.829	680.11
463.201	706.55
463.574	696.83
463.947	682.6
464.32	701.8
464.692	737.28
465.065	710.39
465.438	724.85
465.81	724.85
466.183	740.9
466.555	757.62
466.928	752.88
467.3	747.9
467.672	766.43
468.045	757.85
468.417	757.85
468.789	753.1
469.161	784.51
469.534	801.91
469.906	782.48
470.278	809.37
470.65	801.91
471.022	830.84
471.394	818.41
471.766	834.68
472.138	834.46
472.51	823.16
472.882	838.98
473.253	839.88
473.625	870.84
473.997	860.67
474.369	859.31
474.74	877.39
475.112	884.85
475.484	892.76
475.855	914
476.227	930.5
476.598	928.24
476.97	919.88
477.341	930.5
477.713	951.06
478.084	962.59
478.455	981.57
478.827	1003.72
479.198	1001
479.569	1005.07
479.94	1004.85
480.311	1032.19
480.682	1083.94
481.053	1066.31
481.424	1066.09
481.795	1063.15
482.166	1063.83
482.537	1117.61
482.908	1139.98
483.279	1134.56
483.65	1117.61
484.021	1142.02
484.391	1170.94
484.762	1184.73
485.133	1202.13
485.503	1173.2
485.874	1223.6
486.244	1200.55
486.615	1234.22
486.985	1233.09
487.356	1257.72
487.726	1269.02
488.097	1299.53
488.467	1290.71
488.837	1320.77
489.207	1326.42
489.578	1326.87
489.948	1356.25
490.318	1352.86
490.688	1371.62
491.058	1387.44
491.428	1389.92
491.798	1419.07
492.168	1424.27
492.538	1410.71
492.908	1460.88
493.278	1457.49
493.648	1462.91
494.017	1504.49
494.387	1502.01
494.757	1519.41
495.126	1533.87
495.496	1522.8
495.866	1530.26
496.235	1566.87
496.605	1565.06
496.974	1578.84
497.344	1589.24
497.713	1616.13
498.082	1610.03
498.452	1598.28
498.821	1639.18
499.19	1622.01
499.559	1641.44
499.928	1675.79
500.298	1684.6
500.667	1686.18
501.036	1672.85
501.405	1691.38
501.774	1702.68
502.143	1704.49
502.512	1730.25
502.88	1735.9
503.249	1728.67
503.618	1759.85
503.987	1751.27
504.356	1760.76
504.724	1770.02
505.093	1806.18
505.462	1780.87
505.83	1783.81
506.199	1850.7
506.567	1792.85
506.936	1842.56
507.304	1866.74
507.672	1867.2
508.041	1904.94
508.409	1900.64
508.777	1920.3
509.145	1909.23
509.514	1871.04
509.882	1949.45
510.25	1946.97
510.618	1948.78
510.986	1957.59
511.354	1963.92
511.722	1987.87
512.09	2016.57
512.458	1991.26
512.826	2065.61
513.193	2029.45
513.561	2053.41
513.929	2028.1
514.297	2083.24
514.664	2114.87
515.032	2095.67
515.4	2127.08
515.767	2135.66
516.135	2153.06
516.502	2162.56
516.869	2174.08
517.237	2157.81
517.604	2198.49
517.972	2213.4
518.339	2246.85
518.706	2232.61
519.073	2258.82
519.44	2268.09
519.808	2283.46
520.175	2284.81
520.542	2310.12
520.909	2336.56
521.276	2348.09
521.643	2368.88
522.009	2407.07
522.376	2410.23
522.743	2374.98
523.11	2422.21
523.477	2446.39
523.843	2442.77
524.21	2505.15
524.577	2518.48
524.943	2566.16
525.31	2508.99
525.676	2571.81
526.043	2581.08
526.409	2604.58
526.776	2619.72
527.142	2597.12
527.508	2655.65
527.874	2658.59
528.241	2686.16
528.607	2691.81
528.973	2736.78
529.339	2721.19
529.705	2772.71
530.071	2751.47
530.437	2766.16
530.803	2795.53
531.169	2817.23
531.535	2798.47
531.901	2802.54
532.267	2843.89
532.632	2871.01
532.998	2882.99
533.364	2878.24
533.73	2892.93
534.095	2928.19
534.461	2922.99
534.826	2951.24
535.192	2962.76
535.557	3002.76
535.923	2982.42
536.288	2998.69
536.653	2977
537.019	3030.78
537.384	3004.34
537.749	3057.45
538.114	3043.21
538.479	3080.27
538.845	3099.25
539.21	3073.04
539.575	3074.4
539.94	3125.02
540.305	3180.83
540.67	3171.57
541.034	3216.09
541.399	3176.31
541.764	3203.66
542.129	3192.59
542.494	3220.16
542.858	3254.5
543.223	3238.91
543.587	3288.63
543.952	3319.14
544.316	3290.89
544.681	3349.87
545.045	3321.85
545.41	3372.69
545.774	3355.75
546.138	3416.53
546.503	3396.87
546.867	3415.63
547.231	3420.38
547.595	3452.92
547.959	3453.82
548.324	3498.34
548.688	3466.93
549.052	3510.54
549.416	3492.24
549.779	3521.62
550.143	3579.92
550.507	3580.37
550.871	3615.85
551.235	3599.13
551.599	3657.43
551.962	3658.56
552.326	3709.63
552.689	3658.79
553.053	3663.53
553.417	3674.83
553.78	3723.19
554.143	3713.02
554.507	3794.83
554.87	3792.12
555.234	3854.49
555.597	3848.84
555.96	3873.02
556.323	3886.13
556.686	3886.35
557.05	3944.43
557.413	3951.21
557.776	3950.53
558.139	4006.8
558.502	4016.52
558.865	4039.34
559.228	4098.55
559.59	4170.41
559.953	4170.86
560.316	4211.54
560.679	4186.46
561.041	4226.68
561.404	4327.92
561.767	4364.31
562.129	4300.13
562.492	4361.14
562.854	4388.71
563.217	4412.89
563.579	4449.73
563.941	4529.95
564.304	4552.1
564.666	4584.64
565.028	4571.53
565.39	4661.02
565.753	4692.21
566.115	4757.29
566.477	4790.96
566.839	4835.25
567.201	4879.77
567.563	4848.81
567.925	4956.15
568.287	4967
568.648	4988.92
569.01	5055.81
569.372	5143.95
569.734	5130.39
570.095	5193.21
570.457	5268.69
570.819	5213.78
571.18	5268.69
571.542	5338.07
571.903	5406.09
572.265	5452.87
572.626	5507.78
572.987	5571.28
573.349	5600.66
573.71	5657.15
574.071	5700.54
574.432	5754.55
574.794	5835
575.155	5910.25
575.516	5899.41
575.877	5990.03
576.238	5999.74
576.599	6064.37
576.96	6135.11
577.32	6174.43
577.681	6231.15
578.042	6345.05
578.403	6416
578.763	6466.85
579.124	6483.8
579.485	6641.31
579.845	6786.84
580.206	6769.21
580.566	6795.88
580.927	6852.83
581.287	7018.93
581.648	7092.37
582.008	7179.37
582.368	7285.81
582.728	7398.8
583.089	7460.5
583.449	7624.33
583.809	7676.08
584.169	7779.58
584.529	7864.1
584.889	8018.22
585.249	8084.43
585.609	8236.52
585.969	8428.83
586.329	8443.29
586.688	8656.17
587.048	8744.98
587.408	8882.61
587.768	9026.1
588.127	9160.56
588.487	9284.18
588.846	9567.11
589.206	9678.97
589.565	9775.46
589.925	10009.36
590.284	10171.61
590.643	10370.25
591.003	10515.78
591.362	10750.35
591.721	10926.39
592.08	11139.04
592.44	11368.42
592.799	11448.19
593.158	11712.36
593.517	11962.52
593.876	12261.05
594.235	12432.12
594.593	12629.4
594.952	12874.82
595.311	13019.22
595.67	13300.57
596.029	13623.27
596.387	13831.63
596.746	14175.35
597.104	14264.84
597.463	14489.92
597.822	14759.97
598.18	15077.47
598.538	15293.51
598.897	15540.06
599.255	15626.38
599.613	16134.39
599.972	16329.87
600.33	16610.31
600.688	16801.49
601.046	17206.45
601.404	17368.26
601.762	17681.02
602.12	18012.31
602.478	18302.92
602.836	18525.97
603.194	18617.72
603.552	19055.67
603.91	19152.84
604.268	19487.52
604.625	19542.21
604.983	19992.82
605.341	20042.99
605.698	20405.01
606.056	20635.74
606.413	20903.76
606.771	21182.62
607.128	21341.03
607.485	21556.62
607.843	21839.1
608.2	22166.1
608.557	22353.66
608.914	22566.31
609.272	22779.87
609.629	23100.31
609.986	23395.9
610.343	23337.59
610.7	23801.08
611.057	23836.79
611.414	24027.52
611.771	24159.27
612.127	24414.4
612.484	24640.84
612.841	24871.34
613.198	24897.33
613.554	25095.29
613.911	25393.36
614.267	25473.36
614.624	25589.06
614.98	25783.4
615.337	25926.68
615.693	26112.43
616.05	26304.07
616.406	26518.3
616.762	26590.84
617.118	26686.21
617.475	26834
617.831	26992.41
618.187	27142.24
618.543	27242.8
618.899	27610.7
619.255	27641.43
619.611	27612.51
619.967	27827.87
620.323	28043.46
620.678	27993.97
621.034	27934.31
621.39	28174.75
621.746	28169.1
622.101	28630.33
622.457	28404.35
622.812	28672.14
623.168	28794.62
623.523	28826.26
623.879	28959.59
624.234	28742.2
624.589	29035.75
624.945	29111.23
625.3	29135.18
625.655	29257.21
626.01	29293.14
626.365	29268.06
626.72	29350.54
627.075	29480.03
627.43	29447.71
627.785	29443.87
628.14	29587.6
628.495	29816.97
628.85	29811.77
629.205	29744.43
629.559	30003.41
629.914	29788.95
630.269	29952.56
630.623	30086.79
630.978	29926.57
631.332	30129.05
631.687	30159.56
632.041	29956.18
632.396	30261.93
632.75	30052.67
633.104	30148.94
633.459	30061.48
633.813	30068.49
634.167	29983.29
634.521	30139
634.875	30178.32
635.229	30221.71
635.583	30082.95
635.937	30185.32
636.291	30175.38
636.645	30157.75
636.999	30223.29
637.352	30297.18
637.706	30204.98
638.06	30248.37
638.413	30162.05
638.767	30177.41
639.121	30202.27
639.474	30131.54
639.828	30200.91
640.181	30283.85
640.534	30276.85
640.888	30319.33
641.241	30129.05
641.594	30164.98
641.947	30280.91
642.301	30204.98
642.654	30213.34
643.007	30288.6
643.36	30262.61
643.713	30294.47
644.066	30358.2
644.419	30216.28
644.771	29929.06
645.124	29598.44
645.477	29579.46
645.83	29428.96
646.182	29538.11
646.535	29459.92
646.888	29501.5
647.24	29412.24
647.593	29666.47
647.945	29502.18
648.298	29464.21
648.65	29398.9
649.002	29392.35
649.355	29465.57
649.707	29542.63
650.059	29462.63
650.411	29915.95
650.763	30023.07
651.115	30327.47
651.467	30124.98
651.819	30202.5
652.171	30244.3
652.523	30062.16
652.875	30188.03
653.227	30023.97
653.578	30295.83
653.93	30226.23
654.282	30070.3
654.633	29955.5
654.985	29969.96
655.337	30158.2
655.688	30000.69
656.039	30100.8
656.391	29950.75
656.742	30046.57
657.094	29931.32
657.445	30027.13
657.796	30063.97
658.147	30046.34
658.498	29950.3
658.849	29970.41
659.2	30055.38
659.551	29933.58
659.902	29962.05
660.253	30100.8
660.604	30059.22
660.955	29954.59
661.306	30101.71
661.656	30004.76
662.007	30039.11
662.358	30026.23
662.708	30023.97
663.059	30006.12
663.409	29891.54
663.76	30143.97
664.11	30185.32
664.461	30022.39
664.811	29980.13
665.161	30099
665.511	29895.39
665.862	30100.13
666.212	30063.29
666.562	30003.18
666.912	30103.52
667.262	30051.54
667.612	30047.7
667.962	30140.35
668.312	30030.75
668.662	30157.98
669.011	30195.72
669.361	30123.63
669.711	30146
670.06	29965.67
670.41	29988.49
670.76	30001.37
671.109	29971.99
671.459	29931.54
671.808	29917.98
672.157	30049.51
672.507	29808.61
672.856	29769.06
673.205	29968.83
673.554	30069.39
673.904	29878.44
674.253	30051.77
674.602	30026.46
674.951	29482.06
675.3	29406.36
675.649	29832.11
675.998	29822.39
676.346	29784.43
676.695	29873.69
677.044	29696.07
677.393	29812.68
677.741	29744.66
678.09	29735.62
678.438	29725.22
678.787	29684.54
679.135	29657.88
679.484	29515.74
679.832	29640.03
680.181	29399.81
680.529	29467.37
680.877	29471.44
681.225	29331.56
681.573	29609.52
681.922	29475.51
682.27	29332.92
682.618	29406.59
682.966	29351.9
683.314	29414.27
683.661	29257.89
684.009	29114.84
684.357	29053.15
684.705	29021.74
685.053	29097.22
685.4	29081.4
685.748	28889.76
686.095	28842.31
686.443	28836.21
686.79	28702.42
687.138	28815.64
687.485	28748.3
687.832	28719.15
688.18	28781.97
688.527	28556.89
688.874	28612.93
689.221	28482.99
689.568	28381.08
689.915	28328.2
690.262	28417.23
690.609	28373.17
690.956	28086.39
691.303	28212.04
691.65	28040.97
691.997	27990.58
692.344	27938.83
692.69	27887.08
693.037	27831.71
693.383	27619.06
693.73	27785.84
694.077	27536.13
694.423	27596.69
694.769	27444.6
695.116	27503.58
695.462	27387.66
695.808	27311.5
696.155	27343.59
696.501	27157.15
696.847	27182.69
697.193	26919.42
697.539	27111.96
697.885	26887.1
698.231	26757.39
698.577	26888.69
698.923	26764.85
699.269	26600.33
699.614	26567.79
699.96	26458.19
700.306	26502.48
700.651	26368.25
700.997	26360.11
701.342	26250.51
701.688	26237.4
702.033	26092.55
702.379	26223.84
702.724	26068.82
703.069	26142.26
703.415	25725.55
703.76	25826.11
704.105	25736.63
704.45	25787.25
704.795	25579.57
705.14	25561.71
705.485	25587.93
705.83	25411.44
706.175	25458.21
706.52	25562.39
706.865	25340.93
707.209	25247.15
707.554	25292.12
707.899	25293.93
708.243	25094.61
708.588	25039.24
708.932	24852.81
709.277	24915.63
709.621	24919.02
709.966	24791.57
710.31	24875.63
710.654	24516.77
710.998	24808.51
711.342	24807.38
711.687	24665.24
712.031	24557.67
712.375	24459.6
712.719	24499.6
713.063	24443.55
713.407	24531.23
713.75	24341.41
714.094	24318.58
714.438	24200.85
714.782	24332.37
715.125	24067.06
715.469	24187.29
715.812	24045.14
716.156	23944.36
716.499	23967.63
716.843	23918.82
717.186	23857.8
717.53	23831.82
717.873	23987.29
718.216	23817.58
718.559	23768.09
718.902	23592.95
719.246	23668.21
719.589	23604.7
719.932	23536.68
720.275	23599.96
720.617	23456.69
720.96	23414.2
721.303	23494.42
721.646	23423.24
721.989	23319.06
722.331	23347.54
722.674	23429.12
723.016	23372.39
723.359	23197.71
723.701	23277.26
724.044	23157.71
724.386	23097.37
724.729	23115.9
725.071	23008.34
725.413	23016.47
725.755	22952.07
726.097	22879.75
726.439	22821.67
726.782	22881.79
727.124	22959.07
727.465	22850.15
727.807	22723.37
728.149	22753.88
728.491	22697.16
728.833	22832.52
729.175	22660.55
729.516	22661.68
729.858	22496.48
730.199	22706.2
730.541	22585.97
730.882	22545.52
731.224	22580.1
731.565	22479.31
731.906	22459.42
732.248	22472.53
732.589	22315.02
732.93	22359.09
733.271	22344.85
733.612	22362.93
733.953	22291.29
734.294	22280.22
734.635	22236.83
734.976	22256.04
735.317	22109.83
735.658	22089.72
735.999	22144.18
736.339	22128.36
736.68	22199.77
737.021	22012.66
737.361	22102.14
737.702	21975.37
738.042	21988.25
738.383	21954.35
738.723	21863.28
739.063	22002.03
739.404	21896.95
739.744	21856.5
740.084	21804.75
740.424	21826.22
740.764	21796.62
741.104	21707.35
741.444	21666.68
741.784	21661.25
742.124	21661.25
742.464	21562.72
742.804	21646.34
743.143	21571.09
743.483	21610.86
743.823	21538.32
744.162	21418.77
744.502	21472.78
744.841	21350.75
745.181	21418.77
745.52	21393.24
745.86	21361.15
746.199	21372.9
746.538	21310.75
746.877	21367.02
747.216	21383.75
747.556	21337.42
747.895	21284.54
748.234	21197.76
748.573	21194.15
748.911	21158.67
749.25	21184.2
749.589	21012.68
749.928	21057.43
750.267	21031.21
750.605	20955.96
750.944	20946.92
751.283	20957.99
751.621	20915.51
751.96	20731.33
752.298	20855.4
752.636	20851.33
752.975	20677.32
753.313	20748.73
753.651	20606.14
753.989	20599.81
754.327	20515.07
754.666	20546.25
755.004	20352.81
755.342	20484.11
755.679	20424.9
756.017	20379.93
756.355	20426.71
756.693	20304
757.031	20390.1
757.368	20257.9
757.706	20259.93
758.044	20126.15
758.381	20217
758.719	20079.83
759.056	20146.49
759.394	20041.41
759.731	20039.15
760.068	19928.42
760.405	19837.35
760.743	19763.45
761.08	19764.13
761.417	19710.34
761.754	19770.68
762.091	19708.99
762.428	19483
762.765	19541.31
763.102	19519.61
763.438	19300.64
763.775	19344.03
764.112	19348.32
764.449	19334.76
764.785	19233.52
765.122	19134.99
765.458	19027.65
765.795	19097.48
766.131	18988.1
766.467	18899.29
766.804	18830.82
767.14	18776.36
767.476	18771.16
767.812	18636.47
768.148	18692.29
768.485	18575.01
768.821	18478.51
769.157	18485.74
769.492	18476.7
769.828	18378.63
770.164	18281.23
770.5	18256.6
770.836	18238.74
771.171	18142.93
771.507	18052.31
771.842	17924.63
772.178	17876.72
772.513	17900.45
772.849	17836.04
773.184	17806.89
773.519	17755.37
773.855	17702.49
774.19	17631.98
774.525	17466.79
774.86	17520.57
775.195	17529.84
775.53	17418.2
775.865	17300.69
776.2	17162.61
776.535	17161.94
776.87	17036.52
777.205	17057.53
777.539	16995.39
777.874	17056.63
778.209	16874.71
778.543	16844.2
778.878	16768.73
779.212	16774.6
779.547	16541.84
779.881	16657.09
780.215	16592.46
780.55	16541.16
780.884	16463.2
781.218	16427.27
781.552	16346.59
781.886	16382.07
782.22	16186.37
782.554	16122.42
782.888	15984.34
783.222	16010.1
783.556	15885.81
783.889	15870.22
784.223	15771.46
784.557	15621.86
784.89	15830.22
785.224	15653.95
785.557	15602.43
785.891	15586.16
786.224	15450.79
786.558	15536.89
786.891	15407.86
787.224	15383.45
787.557	15327.41
787.891	15284.25
788.224	15223.46
788.557	15248.99
788.89	15178.03
789.223	15146.4
789.556	15053.06
789.888	14965.84
790.221	14870.92
790.554	14781.43
790.887	14831.38
791.219	14771.72
791.552	14690.59
791.884	14677.48
792.217	14652.4
792.549	14499.86
792.882	14559.97
793.214	14442.91
793.546	14527.65
793.879	14345.74
794.211	14260.54
794.543	14274.78
794.875	14222.58
795.207	14239.75
795.539	14143.26
795.871	14171.51
796.203	14016.71
796.535	13948.23
796.867	14052.64
797.198	13911.63
797.53	13890.84
797.862	13778.52
798.193	13862.36
798.525	13727.22
798.856	13844.06
799.188	13545.99
799.519	13537.62
799.85	13555.25
800.182	13503.27
800.513	13510.73
800.844	13463.28
801.175	13525.42
801.506	13555.02
801.837	13405.88
802.168	13293.79
802.499	13283.17
802.83	13228.48
803.161	13230.29
803.491	13141.48
803.822	13174.92
804.153	12986.68
804.483	12968.37
804.814	12972.67
805.145	13025.77
805.475	12915.27
805.805	12883.18
806.136	12847.47
806.466	12887.7
806.796	12853.57
807.126	12769.28
807.457	12669.17
807.787	12700.36
808.117	12713.47
808.447	12546.92
808.777	12621.04
809.107	12564.09
809.436	12573.36
809.766	12521.38
810.096	12463.98
810.426	12424.21
810.755	12429.63
811.085	12429.18
811.414	12353.02
811.744	12315.51
812.073	12250.65
812.403	12237.55
812.732	12246.58
813.061	12127.04
813.39	12133.59
813.719	12033.93
814.049	12107.38
814.378	12062.86
814.707	12001.17
815.036	12027.61
815.365	11874.17
815.693	11895.41
816.022	11937.89
816.351	11829.87
816.68	11726.82
817.008	11832.58
817.337	11766.6
817.665	11673.27
817.994	11750.55
818.322	11705.81
818.651	11632.82
818.979	11586.26
819.307	11662.87
819.636	11614.74
819.964	11548.3
820.292	11597.11
820.62	11572.03
820.948	11486.38
821.276	11502.65
821.604	11464.23
821.932	11487.73
822.259	11542.87
822.587	11574.96
822.915	11412.48
823.243	11480.96
823.57	11463.55
823.898	11398.47
824.225	11421.52
824.553	11420.62
824.88	11461.07
825.207	11454.74
825.535	11396.89
825.862	11412.26
826.189	11517.11
826.516	11494.74
826.843	11499.71
827.17	11515.08
827.497	11523.89
827.824	11494.51
828.151	11477.57
828.478	11466.72
828.805	11470.11
829.131	11405.25
829.458	11476.21
829.785	11333.39
830.111	11409.54
830.438	11449.54
830.764	11443.44
831.09	11489.32
831.417	11339.94
831.743	11431.92
832.069	11471.46
832.395	11362.99
832.722	11476.44
833.048	11354.63
833.374	11371.35
833.7	11308.3
834.026	11328.19
834.351	11430.79
834.677	11316.89
835.003	11352.6
835.329	11360.51
835.654	11355.76
835.98	11270.11
836.306	11299.94
836.631	11228.08
836.956	11255.88
837.282	11212.49
837.607	11168.87
837.932	11236.44
838.258	11254.97
838.583	11277.12
838.908	11092.26
839.233	11149.21
839.558	11124.13
839.883	11145.14
840.208	11075.09
840.533	11015.88
840.858	11080.29
841.182	11112.6
841.507	11029.44
841.832	10998.48
842.156	10957.81
842.481	11022.66
842.805	10917.13
843.13	10887.98
843.454	10824.48
843.778	10801.65
844.103	10800.75
844.427	10745.61
844.751	10828.54
845.075	10726.85
845.399	10682.11
845.723	10720.3
846.047	10705.61
846.371	10583.13
846.695	10572.05
847.019	10470.13
847.343	10471.94
847.666	10421.55
847.99	10403.92
848.313	10349.91
848.637	10285.73
848.96	10325.05
849.284	10232.17
849.607	10169.58
849.931	10151.95
850.254	10101.56
850.577	10036.47
850.9	9979.98
851.223	9946.76
851.546	9997.6
851.869	9910.38
852.192	9977.72
852.515	9861.11
852.838	9856.59
853.161	9799.87
853.483	9725.3
853.806	9703.6
854.129	9637.16
854.451	9560.33
854.774	9597.84
855.096	9575.47
855.419	9523.72
855.741	9549.25
856.063	9519.88
856.385	9550.61
856.708	9430.16
857.03	9438.75
857.352	9433.78
857.674	9380.67
857.996	9364.85
858.318	9296.15
858.64	9309.49
858.961	9269.26
859.283	9229.71
859.605	9184.29
859.926	9223.16
860.248	9147.91
860.57	9106.78
860.891	9082.83
861.212	9045.99
861.534	9092.09
861.855	9089.38
862.176	9013.68
862.498	9084.41
862.819	9001.02
863.14	9056.39
863.461	9001.47
863.782	8906.11
864.103	8954.92
864.424	8871.76
864.745	8908.37
865.065	8889.38
865.386	8883.06
865.707	8903.4
866.027	8867.24
866.348	8819.1
866.668	8820.91
866.989	8737.3
867.309	8743.63
867.63	8728.03
867.95	8668.83
868.27	8678.77
868.59	8789.05
868.91	8674.7
869.23	8726.23
869.55	8614.36
869.87	8624.08
870.19	8611.43
870.51	8594.7
870.83	8681.25
871.15	8617.3
871.469	8547.47
871.789	8603.97
872.109	8645.1
872.428	8466.12
872.748	8574.59
873.067	8490.07
873.386	8553.12
873.706	8536.85
874.025	8507.02
874.344	8491.43
874.663	8455.95
874.982	8461.83
875.301	8461.37
875.62	8367.14
875.939	8438.1
876.258	8397.87
876.577	8440.13
876.896	8382.05
877.214	8346.8
877.533	8339.79
877.852	8272
878.17	8310.19
878.489	8318.1
878.807	8275.84
879.125	8291.43
879.444	8284.43
879.762	8264.09
880.08	8242.85
880.398	8192.91
880.716	8218.67
881.034	8167.6
881.352	8157.2
881.67	8085.11
881.988	8132.12
882.306	8210.08
882.624	8136.86
882.941	8086.24
883.259	8035.17
883.577	8070.88
883.894	7987.49
884.212	7992.01
884.529	8036.75
884.846	7933.93
885.164	7956.75
885.481	7946.81
885.798	7967.38
886.115	7874.27
886.432	7842.18
886.75	7883.08
887.067	7864.33
887.383	7841.73
887.7	7855.74
888.017	7786.59
888.334	7805.35
888.651	7713.37
888.967	7726.93
889.284	7696.42
889.6	7645.12
889.917	7621.62
890.233	7627.27
890.55	7580.72
890.866	7578.68
891.182	7594.05
891.498	7556.54
891.815	7519.03
892.131	7437.9
892.447	7451.46
892.763	7454.62
893.079	7430.44
893.395	7416.88
893.71	7403.77
894.026	7364.23
894.342	7402.19
894.657	7320.61
894.973	7289.65
895.289	7268.18
895.604	7318.13
895.92	7236.32
896.235	7250.78
896.55	7220.05
896.865	7157.23
897.181	7156.78
897.496	7133.05
897.811	7062.77
898.126	7090.56
898.441	7080.62
898.756	7029.32
899.071	6999.72
899.386	7052.6
899.7	6950
900.015	6912.49
900.33	6837.91
900.644	6821.64
900.959	6921.53
901.273	6850.57
901.588	6816.9
901.902	6815.54
902.216	6738.93
902.531	6725.83
902.845	6752.27
903.159	6736.67
903.473	6681.76
903.787	6637.92
904.101	6599.05
904.415	6631.37
904.729	6571.03
905.042	6547.75
905.356	6560.63
905.67	6521.31
905.984	6515.44
906.297	6510.46
906.611	6427.53
906.924	6438.15
907.237	6423.24
907.551	6405.16
907.864	6320.64
908.177	6345.5
908.491	6334.42
908.804	6348.89
909.117	6281.32
909.43	6265.73
909.743	6166.97
910.056	6154.77
910.368	6125.16
910.681	6122.68
910.994	6121.55
911.307	6078.61
911.619	6030.48
911.932	6041.55
912.244	6023.47
912.557	6012.85
912.869	5947.54
913.181	5951.38
913.494	5945.28
913.806	5920.2
914.118	5860.09
914.43	5837.71
914.742	5817.6
915.054	5759.3
915.366	5749.58
915.678	5798.84
915.99	5752.52
916.302	5691.5
916.613	5702.12
916.925	5662.13
917.236	5607.44
917.548	5605.18
917.859	5605.4
918.171	5583.94
918.482	5543.71
918.794	5508
919.105	5547.78
919.416	5446.09
919.727	5481.79
920.038	5434.56
920.349	5385.3
920.66	5378.97
920.971	5355.24
921.282	5380.55
921.593	5280.67
921.903	5296.49
922.214	5279.76
922.525	5220.78
922.835	5183.04
923.146	5188.69
923.456	5145.98
923.767	5209.71
924.077	5114.34
924.387	5146.66
924.697	5087.45
925.008	5107.56
925.318	5047
925.628	5051.75
925.938	4992.31
926.248	4970.62
926.558	4953.44
926.867	4943.27
927.177	4905.76
927.487	4925.65
927.796	4837.51
928.106	4868.7
928.416	4855.59
928.725	4865.76
929.034	4824.18
929.344	4799.1
929.653	4819.21
929.962	4762.94
930.271	4714.58
930.581	4762.71
930.89	4687.91
931.199	4678.42
931.508	4668.48
931.817	4673.22
932.125	4680.23
932.434	4618.54
932.743	4579.67
933.051	4522.27
933.36	4527.92
933.669	4484.53
933.977	4527.92
934.286	4478.65
934.594	4501.93
934.902	4452.67
935.21	4413.8
935.519	4429.84
935.827	4468.26
936.135	4362.27
936.443	4377.19
936.751	4383.74
937.059	4366.79
937.367	4308.94
937.674	4341.48
937.982	4289.96
938.29	4273.46
938.597	4268.94
938.905	4224.42
939.213	4168.15
939.52	4205.44
939.827	4193.46
940.135	4153.69
940.442	4108.95
940.749	4104.43
941.056	4106.01
941.363	4080.47
941.67	4075.05
941.977	4069.17
942.284	4020.81
942.591	4018.55
942.898	3961.83
943.205	3955.28
943.511	3965.9
943.818	3960.47
944.125	3967.25
944.431	3915.5
944.738	3899.46
945.044	3870.76
945.35	3838.22
945.657	3821.72
945.963	3800.03
946.269	3795.28
946.575	3769.97
946.881	3795.06
947.187	3741.5
947.493	3740.82
947.799	3736.98
948.105	3740.82
948.41	3702.85
948.716	3711.22
949.022	3671.67
949.327	3687.94
949.633	3641.61
949.938	3652.23
950.244	3605
950.549	3584.89
950.854	3549.41
951.16	3559.36
951.465	3574.04
951.77	3519.13
952.075	3509.87
952.38	3490.43
952.685	3492.01
952.99	3473.26
953.294	3455.86
953.599	3457.44
953.904	3424.9
954.209	3376.76
954.513	3410.66
954.818	3376.31
955.122	3343.99
955.426	3378.8
955.731	3355.75
956.035	3322.75
956.339	3300.61
956.643	3305.12
956.948	3262.87
957.252	3265.58
957.556	3283.66
957.86	3216.54
958.163	3225.58
958.467	3208.4
958.771	3194.62
959.075	3169.54
959.378	3155.52
959.682	3189.42
959.985	3139.48
960.289	3132.25
960.592	3150.1
960.896	3112.59
961.199	3125.92
961.502	3092.48
961.805	3042.31
962.108	3029.65
962.411	3063.55
962.714	3026.26
963.017	3042.53
963.32	3031.23
963.623	3003.44
963.926	2972.25
964.228	2978.58
964.531	2955.08
964.833	2965.92
965.136	2928.41
965.438	2950.56
965.741	2897.45
966.043	2902.42
966.345	2857.91
966.648	2867.4
966.95	2848.41
967.252	2828.3
967.554	2801.86
967.856	2820.62
968.158	2778.36
968.46	2789.66
968.761	2740.17
969.063	2779.49
969.365	2767.51
969.666	2743.11
969.968	2755.76
970.269	2710.11
970.571	2703.78
970.872	2721.86
971.174	2679.15
971.475	2668.31
971.776	2641.19
972.077	2649.77
972.378	2655.42
972.679	2645.93
972.98	2647.06
973.281	2650.9
973.582	2607.52
973.883	2570
974.183	2557.12
974.484	2551.02
974.785	2550.57
975.085	2551.25
975.386	2552.6
975.686	2537.46
975.986	2531.36
976.287	2498.59
976.587	2466.5
976.887	2477.58
977.187	2510.57
977.487	2486.16
977.787	2390.57
978.087	2434.41
978.387	2433.06
978.687	2453.17
978.987	2391.02
979.286	2419.05
979.586	2422.89
979.885	2394.87
980.185	2323.91
980.484	2363.45
980.784	2332.72
981.083	2376.79
981.382	2339.27
981.682	2310.8
981.981	2325.49
982.28	2300.41
982.579	2291.82
982.878	2294.76
983.177	2251.59
983.475	2269.22
983.774	2258.15
984.073	2276.23
984.372	2219.73
984.67	2203.01
984.969	2203.91
985.267	2167.75
985.566	2171.14
985.864	2146.74
986.162	2155.78
986.461	2155.1
986.759	2176.79
987.057	2151.48
987.355	2143.35
987.653	2107.42
987.951	2079.17
988.249	2088.21
988.547	2100.41
988.844	2083.46
989.142	2038.27
989.44	2034.65
989.737	2091.15
990.035	2083.46
990.332	2029.23
990.63	2032.62
990.927	1991.94
991.224	2011.6
991.521	1980.87
991.819	1987.19
992.116	1995.1
992.413	1986.97
992.71	1972.5
993.006	1953.52
993.303	1971.15
993.6	1970.24
993.897	1919.4
994.193	1939.06
994.49	1921.66
994.787	1919.85
995.083	1904.71
995.379	1859.51
995.676	1862.23
995.972	1865.84
996.268	1881.89
996.565	1866.97
996.861	1856.12
997.157	1818.38
997.453	1812.51
997.749	1825.39
998.044	1814.32
998.34	1789.01
998.636	1789.01
998.932	1765.96
999.227	1744.71
999.523	1770.7
999.818	1743.13
1000.114	1782.91
1000.409	1742
1000.704	1751.27
1001	1729.35
1001.295	1710.14
1001.59	1727.31
1001.885	1710.36
1002.18	1679.63
1002.475	1715.56
1002.77	1666.07
1003.065	1652.51
1003.359	1670.59
1003.654	1628.11
1003.949	1652.06
1004.243	1640.08
1004.538	1617.94
1004.832	1593.98
1005.127	1633.08
1005.421	1603.93
1005.715	1593.53
1006.009	1574.77
1006.304	1599.63
1006.598	1565.28
1006.892	1570.71
1007.186	1519.86
1007.48	1551.72
1007.773	1530.03
1008.067	1559.63
1008.361	1528.9
1008.655	1520.54
1008.948	1519.86
1009.242	1487.77
1009.535	1484.16
1009.829	1483.03
1010.122	1478.28
1010.415	1487.32
1010.708	1452.74
1011.001	1483.48
1011.295	1420.2
1011.588	1408
1011.881	1443.03
1012.173	1420.88
1012.466	1411.39
1012.759	1418.85
1013.052	1386.76
1013.344	1409.58
1013.637	1379.98
1013.93	1352.18
1014.222	1370.26
1014.514	1321
1014.807	1342.01
1015.099	1340.43
1015.391	1337.72
1015.683	1307.89
1015.976	1333.43
1016.268	1287.32
1016.56	1311.96
1016.851	1275.8
1017.143	1292.97
1017.435	1273.77
1017.727	1281
1018.018	1277.16
1018.31	1242.58
1018.602	1260.66
1018.893	1247.1
1019.185	1211.39
1019.476	1218.17
1019.767	1235.12
1020.058	1223.37
1020.35	1174.79
1020.641	1187.67
1020.932	1195.12
1021.223	1167.55
1021.514	1198.06
1021.804	1137.5
1022.095	1173.88
1022.386	1130.04
1022.677	1149.48
1022.967	1143.37
1023.258	1149.48
1023.548	1102.92
1023.839	1108.35
1024.129	1133.2
1024.419	1107.67
1024.709	1089.14
1025	1073.77
1025.29	1078.52
1025.58	1059.76
1025.87	1065.18
1026.16	1091.62
1026.449	1094.34
1026.739	1051.17
1027.029	1055.24
1027.319	1040.55
1027.608	1037.61
1027.898	1032.19
1028.187	1013.43
1028.477	1020.89
1028.766	1045.98
1029.055	988.58
1029.344	1017.95
1029.634	979.31
1029.923	998.74
1030.212	1008.01
1030.501	973.89
1030.79	976.37
1031.078	941.57
1031.367	942.93
1031.656	945.64
1031.945	926.43
1032.233	936.83
1032.522	923.27
1032.81	897.73
1033.099	907.9
1033.387	900.89
1033.675	904.28
1033.963	899.31
1034.251	874
1034.54	875.81
1034.828	871.29
1035.116	866.09
1035.403	883.04
1035.691	869.71
1035.979	861.57
1036.267	869.26
1036.554	838.75
1036.842	856.83
1037.129	834
1037.417	859.99
1037.704	863.38
1037.992	832.87
1038.279	819.54
1038.566	830.39
1038.853	830.39
1039.14	830.39
