Data from red_cardboard_box_FLMS001491_00038.txt Node
Date: Wed Feb 08 11:32:06 GMT 2017
User: dcchb
Spectrometer: FLMS00149
Trigger mode: 0
Integration Time (sec): 2.000000E-2
Scans to average: 10
Electric dark correction enabled: true
Nonlinearity correction enabled: false
Boxcar width: 0
XAxis mode: Wavelengths
Number of Pixels in Spectrum: 2048
>>>>>Begin Spectral Data<<<<<
341.393	-17.53
341.776	-17.53
342.16	-17.53
342.543	-58.66
342.927	-65.44
343.31	-62.72
343.693	-86.68
344.077	-48.49
344.46	-71.54
344.843	-59.56
345.226	-51.2
345.61	-43.74
345.993	-21.14
346.376	-13.69
346.759	24.05
347.142	36.71
347.525	51.62
347.908	56.37
348.291	83.26
348.674	86.2
349.057	120.55
349.44	117.61
349.823	132.98
350.206	176.59
350.588	193.54
350.971	193.09
351.354	217.72
351.737	217.49
352.119	259.53
352.502	252.07
352.884	271.5
353.267	293.42
353.65	280.77
354.032	292.75
354.414	316.93
354.797	308.34
355.179	321.45
355.562	335.01
355.944	323.03
356.326	334.33
356.709	334.55
357.091	342.91
357.473	339.98
357.855	366.19
358.238	335.68
358.62	328.23
359.002	334.55
359.384	343.59
359.766	326.42
360.148	330.49
360.53	323.71
360.912	330.49
361.294	338.4
361.676	322.35
362.057	332.52
362.439	336.81
362.821	312.41
363.203	317.38
363.584	316.7
363.966	333.2
364.348	330.26
364.729	345.17
365.111	314.21
365.493	351.28
365.874	315.34
366.256	313.31
366.637	298.4
367.019	314.21
367.4	322.8
367.781	308.11
368.163	302.01
368.544	293.88
368.925	288.45
369.306	299.3
369.688	306.31
370.069	332.29
370.45	309.47
370.831	309.02
371.212	303.82
371.593	309.02
371.974	300.88
372.355	305.63
372.736	320.77
373.117	318.28
373.498	310.15
373.879	297.27
374.26	310.6
374.641	323.71
375.021	316.93
375.402	317.15
375.783	313.31
376.163	332.07
376.544	325.51
376.925	331.84
377.305	324.38
377.686	318.28
378.066	315.34
378.447	331.39
378.827	309.02
379.208	300.2
379.588	320.99
379.968	331.39
380.349	334.1
380.729	306.98
381.109	325.06
381.489	290.94
381.87	319.19
382.25	308.79
382.63	314.67
383.01	329.58
383.39	340.65
383.77	347.89
384.15	336.36
384.53	355.57
384.91	324.38
385.29	346.3
385.67	324.61
386.049	347.21
386.429	327.1
386.809	329.81
387.189	323.48
387.568	350.15
387.948	352.63
388.328	329.81
388.707	326.87
389.087	340.43
389.466	339.98
389.846	358.73
390.225	336.36
390.605	334.55
390.984	362.8
391.363	340.43
391.743	338.85
392.122	361.9
392.501	363.93
392.881	349.02
393.26	325.51
393.639	344.04
394.018	370.03
394.397	342.46
394.776	337.04
395.155	363.25
395.534	364.16
395.913	353.99
396.292	336.59
396.671	357.15
397.05	341.56
397.429	358.51
397.808	353.31
398.186	353.76
398.565	363.48
398.944	347.66
399.323	374.33
399.701	372.07
400.08	359.64
400.458	381.11
400.837	382.91
401.215	369.58
401.594	375.91
401.972	375.23
402.351	375.46
402.729	363.71
403.107	384.04
403.486	374.78
403.864	385.63
404.242	365.06
404.62	395.57
404.999	370.48
405.377	375
405.755	387.66
406.133	395.34
406.511	396.47
406.889	390.15
407.267	393.08
407.645	408.45
408.023	390.6
408.401	407.09
408.779	389.69
409.156	391.5
409.534	414.55
409.912	394.89
410.29	405.96
410.667	389.24
411.045	425.4
411.422	376.81
411.8	422.91
412.178	400.77
412.555	403.25
412.933	408.22
413.31	412.52
413.687	403.25
414.065	415.23
414.442	400.09
414.819	421.56
415.197	411.61
415.574	417.26
415.951	431.95
416.328	443.48
416.705	425.85
417.082	422.91
417.46	423.59
417.837	435.12
418.214	432.4
418.591	439.86
418.967	463.82
419.344	442.8
419.721	458.62
420.098	436.92
420.475	439.18
420.852	452.74
421.228	469.92
421.605	444.83
421.982	464.27
422.358	466.75
422.735	436.92
423.111	473.53
423.488	462.46
423.864	466.08
424.241	468.34
424.617	481.22
424.994	462.46
425.37	453.42
425.746	480.99
426.123	476.24
426.499	467.88
426.875	481.89
427.251	478.96
427.627	453.42
428.003	487.09
428.379	495.68
428.756	498.16
429.132	480.09
429.507	500.42
429.883	489.8
430.259	502.91
430.635	509.01
431.011	512.4
431.387	521.89
431.763	522.8
432.138	531.38
432.514	549.91
432.89	506.07
433.265	530.25
433.641	522.57
434.016	541.78
434.392	550.82
434.767	546.98
435.143	527.99
435.518	539.29
435.894	558.28
436.269	561.67
436.644	542.01
437.02	555.11
437.395	549.46
437.77	570.71
438.145	553.08
438.52	588.78
438.895	558.28
439.271	574.1
439.646	589.01
440.021	564.38
440.395	576.81
440.77	574.55
441.145	570.48
441.52	587.88
441.895	587.43
442.27	586.75
442.645	595.11
443.019	598.95
443.394	577.48
443.769	599.18
444.143	605.73
444.518	584.26
444.892	598.05
445.267	607.54
445.641	609.35
446.016	591.95
446.39	623.59
446.764	641.89
447.139	605.51
447.513	609.57
447.887	607.31
448.262	616.35
448.636	626.52
449.01	625.17
449.384	632.17
449.758	636.24
450.132	645.73
450.506	625.17
450.88	668.56
451.254	657.48
451.628	647.09
452.002	637.37
452.376	621.1
452.75	665.39
453.123	640.76
453.497	653.64
453.871	670.14
454.244	653.42
454.618	672.85
454.992	692.51
455.365	683.02
455.739	680.76
456.112	699.52
456.486	681.66
456.859	684.6
457.232	709.46
457.606	709.68
457.979	713.07
458.352	742
458.725	714.43
459.099	720.31
459.472	731.83
459.845	746.07
460.218	734.54
460.591	750.14
460.964	757.82
461.337	747.42
461.71	762.56
462.083	801.66
462.456	795.11
462.829	786.29
463.201	774.99
463.574	760.53
463.947	829.68
464.32	797.14
464.692	782.45
465.065	795.78
465.438	818.61
465.81	828.55
466.183	814.09
466.555	832.17
466.928	834.2
467.3	850.7
467.672	854.09
468.045	873.75
468.417	846.4
468.789	858.61
469.161	876.01
469.534	897.93
469.906	894.76
470.278	892.73
470.65	898.83
471.022	906.52
471.394	913.07
471.766	927.76
472.138	928.44
472.51	957.81
472.882	971.6
473.253	957.36
473.625	989.23
473.997	986.74
474.369	977.02
474.74	998.94
475.112	1013.63
475.484	1017.47
475.855	1025.38
476.227	1043.46
476.598	1051.6
476.97	1046.4
477.341	1074.42
477.713	1076.68
478.084	1079.39
478.455	1122.78
478.827	1108.77
479.198	1163.46
479.569	1124.14
479.94	1186.51
480.311	1153.29
480.682	1208.65
481.053	1221.76
481.424	1237.58
481.795	1238.26
482.166	1265.38
482.537	1257.69
482.908	1294.3
483.279	1288.43
483.65	1304.25
484.021	1330.46
484.391	1337.46
484.762	1338.59
485.133	1361.64
485.503	1351.25
485.874	1385.6
486.244	1401.64
486.615	1426.95
486.985	1450.91
487.356	1442.77
487.726	1443.22
488.097	1491.59
488.467	1496.78
488.837	1535.43
489.207	1539.95
489.578	1565.93
489.948	1584.46
490.318	1577.68
490.688	1605.25
491.058	1615.42
491.428	1629.89
491.798	1642.99
492.168	1654.29
492.538	1703.33
492.908	1694.52
493.278	1688.64
493.648	1712.82
494.017	1741.52
494.387	1750.79
494.757	1753.05
495.126	1769.32
495.496	1785.81
495.866	1794.85
496.235	1823.33
496.605	1813.16
496.974	1856.32
497.344	1859.49
497.713	1853.16
498.082	1864.68
498.452	1924.79
498.821	1945.81
499.19	1877.79
499.559	1905.36
499.928	1899.94
500.298	1928.64
500.667	1937.45
501.036	1961.63
501.405	1988.75
501.774	1975.64
502.143	1980.61
502.512	2001.63
502.88	2038.46
503.249	2050.44
503.618	2082.98
503.987	2075.75
504.356	2079.82
504.724	2101.51
505.093	2088.18
505.462	2107.16
505.83	2118.24
506.199	2124.56
506.567	2139.93
506.936	2164.56
507.304	2195.3
507.672	2203.88
508.041	2187.39
508.409	2205.46
508.777	2235.07
509.145	2254.73
509.514	2255.41
509.882	2236.65
510.25	2270.77
510.618	2281.85
510.986	2312.81
511.354	2334.73
511.722	2350.32
512.09	2356.42
512.458	2363.43
512.826	2363.88
513.193	2393.03
513.561	2429.19
513.929	2434.84
514.297	2471.67
514.664	2477.1
515.032	2468.96
515.4	2493.37
515.767	2499.24
516.135	2518.22
516.502	2509.19
516.869	2553.7
517.237	2570.88
517.604	2565.23
517.972	2619.47
518.339	2600.93
518.706	2624.89
519.073	2656.98
519.44	2649.29
519.808	2665.11
520.175	2675.96
520.542	2720.25
520.909	2703.3
521.276	2720.93
521.643	2758.22
522.009	2794.15
522.376	2814.04
522.743	2802.29
523.11	2863.07
523.477	2857.88
523.843	2880.93
524.21	2911.66
524.577	2939.68
524.943	2926.35
525.31	2972.9
525.676	2993.92
526.043	2999.57
526.409	3009.51
526.776	3060.81
527.142	3042.28
527.508	3074.82
527.874	3142.16
528.241	3108.72
528.607	3154.82
528.973	3193.91
529.339	3190.3
529.705	3260.13
530.071	3250.18
530.437	3255.61
530.803	3274.36
531.169	3291.99
531.535	3296.74
531.901	3279.56
532.267	3322.27
532.632	3331.54
532.998	3386
533.364	3363.4
533.73	3403.85
534.095	3412.44
534.461	3482.04
534.826	3446.34
535.192	3472.78
535.557	3505.32
535.923	3516.39
536.288	3556.62
536.653	3569.27
537.019	3536.96
537.384	3561.81
537.749	3575.6
538.114	3595.71
538.479	3596.16
538.845	3623.73
539.21	3616.5
539.575	3632.09
539.94	3646.78
540.305	3715.26
540.67	3709.38
541.034	3738.98
541.399	3738.76
541.764	3764.97
542.129	3796.84
542.494	3793.67
542.858	3806.55
543.223	3853.78
543.587	3835.7
543.952	3814.69
544.316	3842.03
544.681	3871.86
545.045	3915.25
545.41	3938.75
545.774	3930.39
546.138	3955.25
546.503	4014.91
546.867	3936.49
547.231	3990.05
547.595	4010.16
547.959	4038.86
548.324	4035.02
548.688	4070.95
549.052	4113.44
549.416	4085.87
549.779	4053.33
550.143	4143.72
550.507	4137.17
550.871	4208.8
551.235	4166.32
551.599	4237.73
551.962	4292.87
552.326	4263.04
552.689	4333.09
553.053	4298.52
553.417	4315.47
553.78	4378.97
554.143	4359.98
554.507	4388.01
554.87	4386.2
555.234	4446.99
555.597	4439.08
555.96	4483.37
556.323	4518.62
556.686	4566.98
557.05	4567.66
557.413	4620.32
557.776	4651.73
558.139	4619.19
558.502	4746.41
558.865	4724.95
559.228	4763.82
559.59	4796.58
559.953	4824.38
560.316	4867.32
560.679	4858.28
561.041	4911.83
561.404	4941.89
561.767	5012.17
562.129	5025.5
562.492	5068.67
562.854	5078.38
563.217	5134.65
563.579	5145.73
563.941	5223.46
564.304	5244.93
564.666	5302.11
565.028	5340.3
565.39	5406.06
565.753	5476.34
566.115	5449
566.477	5533.96
566.839	5590.46
567.201	5643.34
567.563	5694.41
567.925	5705.26
568.287	5768.99
568.648	5806.73
569.01	5875.42
569.372	5908.64
569.734	5888.53
570.095	6037.68
570.457	6068.87
570.819	6081.97
571.18	6135.3
571.542	6227.05
571.903	6270.22
572.265	6270.67
572.626	6380.95
572.987	6408.29
573.349	6439.48
573.71	6578.23
574.071	6536.2
574.432	6653.94
574.794	6758.57
575.155	6778.23
575.516	6867.26
575.877	6903.87
576.238	6967.6
576.599	7065
576.96	7111.55
577.32	7139.8
577.681	7270.87
578.042	7331.88
578.403	7384.99
578.763	7519.45
579.124	7547.02
579.485	7729.16
579.845	7840.12
580.206	7901.13
580.566	7969.83
580.927	8066.55
581.287	8181.35
581.648	8236.94
582.008	8334.34
582.368	8419.54
582.728	8621.34
583.089	8618.86
583.449	8807.1
583.809	8866.98
584.169	9028.11
584.529	9152.17
584.889	9309.01
585.249	9417.25
585.609	9467.19
585.969	9712.16
586.329	9830.12
586.688	9995.77
587.048	10126.84
587.408	10291.13
587.768	10514.85
588.127	10686.15
588.487	10848.85
588.846	11050.2
589.206	11173.14
589.565	11295.62
589.925	11593.69
590.284	11746.68
590.643	11943.51
591.003	12255.82
591.362	12443.84
591.721	12633.66
592.08	12815.36
592.44	13067.55
592.799	13354.78
593.158	13543.7
593.517	13857.36
593.876	14017.81
594.235	14251.25
594.593	14633.16
594.952	14830.22
595.311	15048.29
595.67	15359.92
596.029	15680.82
596.387	15879
596.746	16249.84
597.104	16445.99
597.463	16673.33
597.822	16985.19
598.18	17217.27
598.538	17481.45
598.897	17922.79
599.255	18047.31
599.613	18629.67
599.972	18769.32
600.33	19077.56
600.688	19208.86
601.046	19626.02
601.404	19943.76
601.762	20228.27
602.12	20643.85
602.478	20905.54
602.836	21189.82
603.194	21323.15
603.552	21631.17
603.91	21915.91
604.268	22308.66
604.625	22517.92
604.983	22889.44
605.341	23006.73
605.698	23495.98
606.056	23707.72
606.413	23946.14
606.771	24316.97
607.128	24586.35
607.485	24710.18
607.843	24964.87
608.2	25261.13
608.557	25682.36
608.914	25817.05
609.272	26080.09
609.629	26552.85
609.986	26710.36
610.343	26783.58
610.7	27085.71
611.057	27254.52
611.414	27468.53
611.771	27721.18
612.127	28007.27
612.484	28191
612.841	28559.35
613.198	28550.08
613.554	28754.15
613.911	29112.78
614.267	29258.31
614.624	29299.89
614.98	29516.61
615.337	29824.17
615.693	29825.53
616.05	30138.06
616.406	30369.47
616.762	30376.48
617.118	30605.4
617.475	30903.24
617.831	30926.97
618.187	31133.97
618.543	31299.61
618.899	31530.12
619.255	31593.17
619.611	31654.86
619.967	31964.23
620.323	32164.45
620.678	32087.16
621.034	32152.02
621.39	32284.9
621.746	32265.69
622.101	32773.93
622.457	32613.7
622.812	32822.96
623.168	33042.39
623.523	33021.15
623.879	33299.11
624.234	32979.8
624.589	33399.9
624.945	33424.3
625.3	33459.56
625.655	33540.01
626.01	33574.13
626.365	33751.08
626.72	33800.11
627.075	33940.9
627.43	33895.25
627.785	33897.29
628.14	34027.68
628.495	34216.37
628.85	33996.27
629.205	34119.2
629.559	34415.92
629.914	34361.23
630.269	34337.95
630.623	34295.24
630.978	34355.81
631.332	34323.04
631.687	34472.19
632.041	34406.2
632.396	34641
632.75	34492.3
633.104	34702.69
633.459	34561
633.813	34524.61
634.167	34656.36
634.521	34614.1
634.875	34709.92
635.229	34611.62
635.583	34536.59
635.937	34559.19
636.291	34549.02
636.645	34656.81
636.999	34564.39
637.352	34714.44
637.706	34504.73
638.06	34631.96
638.413	34614.78
638.767	34539.76
639.121	34539.3
639.474	34480.77
639.828	34560.77
640.181	34591.51
640.534	34762.8
640.888	34608.45
641.241	34578.62
641.594	34652.97
641.947	34628.57
642.301	34598.74
642.654	34697.49
643.007	34820.43
643.36	34729.81
643.713	34652.97
644.066	34829.24
644.419	34579.98
644.771	34221.8
645.124	33896.61
645.477	33954.23
645.83	33805.09
646.182	33791.07
646.535	33774.35
646.888	33796.27
647.24	33815.48
647.593	33869.26
647.945	33762.6
648.298	33659.33
648.65	33756.73
649.002	33583.62
649.355	33754.24
649.707	33553.79
650.059	33860.23
650.411	34347.44
650.763	34387.22
651.115	34560.55
651.467	34600.09
651.819	34499.76
652.171	34525.52
652.523	34407.33
652.875	34474.9
653.227	34371.4
653.578	34580.43
653.93	34593.31
654.282	34414.56
654.633	34375.47
654.985	34445.75
655.337	34544.28
655.688	34379.08
656.039	34597.83
656.391	34284.85
656.742	34381.57
657.094	34335.92
657.445	34542.92
657.796	34458.4
658.147	34438.29
658.498	34425.86
658.849	34339.31
659.2	34277.62
659.551	34242.36
659.902	34326.2
660.253	34217.28
660.604	34457.5
660.955	34222.02
661.306	34297.5
661.656	34318.74
662.007	34386.31
662.358	34286.88
662.708	34378.18
663.059	34335.47
663.409	34144.74
663.76	34541.79
664.11	34447.1
664.461	34536.82
664.811	34431.51
665.161	34508.12
665.511	34359.87
665.862	34480.32
666.212	34363.94
666.562	34471.28
666.912	34302.7
667.262	34358.52
667.612	34390.61
667.962	34562.58
668.312	34266.77
668.662	34462.24
669.011	34393.54
669.361	34341.34
669.711	34397.61
670.06	34285.07
670.41	34265.19
670.76	34146.77
671.109	34352.42
671.459	34235.58
671.808	34146.09
672.157	34363.72
672.507	34086.89
672.856	34230.16
673.205	34063.16
673.554	34273.55
673.904	34054.34
674.253	34200.56
674.602	34170.05
674.951	33757.4
675.3	33624.3
675.649	34107.22
675.998	34111.29
676.346	33963.27
676.695	34118.52
677.044	33802.6
677.393	34001.92
677.741	34091.86
678.09	34055.02
678.438	33938.64
678.787	33932.77
679.135	33927.12
679.484	33763.5
679.832	33818.87
680.181	33779.55
680.529	33831.07
680.877	33642.6
681.225	33618.65
681.573	33878.53
681.922	33564.41
682.27	33496.17
682.618	33518.31
682.966	33508.37
683.314	33354.7
683.661	33311.31
684.009	33271.54
684.357	33118.32
684.705	33157.19
685.053	33128.49
685.4	33088.95
685.748	33023.64
686.095	32916.3
686.443	32855.73
686.79	32826.81
687.138	32925.11
687.485	32776.19
687.832	32631.33
688.18	32678.79
688.527	32460.71
688.874	32532.58
689.221	32445.8
689.568	32260.04
689.915	32314.28
690.262	32294.84
690.609	32144.79
690.956	32109.09
691.303	32122.64
691.65	31826.15
691.997	31924.23
692.344	31647.63
692.69	31861.18
693.037	31794.07
693.383	31475.66
693.73	31618.02
694.077	31334.42
694.423	31478.37
694.769	31185.04
695.116	31451.48
695.462	31188.66
695.808	31180.3
696.155	31134.65
696.501	30945.05
696.847	30912.51
697.193	30784.37
697.539	30927.2
697.885	30722.91
698.231	30588.67
698.577	30637.49
698.923	30415.57
699.269	30322.92
699.614	30234.78
699.96	30238.4
700.306	30191.17
700.651	30193.66
700.997	30013.1
701.342	29980.33
701.688	29870.05
702.033	29749.83
702.379	29840.67
702.724	29683.84
703.069	29746.21
703.415	29502.37
703.76	29535.14
704.105	29359.33
704.45	29347.35
704.795	29208.37
705.14	29207.69
705.485	29102.38
705.83	29000.01
706.175	29091.31
706.52	29009.05
706.865	28864.88
707.209	28844.09
707.554	28689.51
707.899	28879.11
708.243	28544.89
708.588	28541.95
708.932	28536.52
709.277	28439.13
709.621	28506.24
709.966	28203.65
710.31	28276.42
710.654	28031.45
710.998	28191.67
711.342	28032.81
711.687	28035.52
712.031	27868.29
712.375	27862.42
712.719	27991
713.063	27858.8
713.407	27867.84
713.75	27697.22
714.094	27688.64
714.438	27599.83
714.782	27700.16
715.125	27510.34
715.469	27459.94
715.812	27337.69
716.156	27260.17
716.499	27351.7
716.843	27224.24
717.186	27231.47
717.53	27294.97
717.873	27266.27
718.216	27334.75
718.559	27052.72
718.902	26947.19
719.246	27011.37
719.589	26831.26
719.932	26734.31
720.275	26754.42
720.617	26786.74
720.96	26638.95
721.303	26726.63
721.646	26743.12
721.989	26581.55
722.331	26671.71
722.674	26561.43
723.016	26616.12
723.359	26524.6
723.701	26548.33
724.044	26436.24
724.386	26187.43
724.729	26371.61
725.071	26328.67
725.413	26199.18
725.755	26208
726.097	26066.31
726.439	25860.21
726.782	26008.68
727.124	26169.81
727.465	25975.01
727.807	25971.62
728.149	25917.84
728.491	25797.39
728.833	25820.21
729.175	25781.79
729.516	25662.25
729.858	25666.54
730.199	25731.4
730.541	25687.79
730.882	25587.45
731.224	25791.06
731.565	25525.76
731.906	25593.55
732.248	25517.62
732.589	25464.74
732.93	25245.99
733.271	25355.36
733.612	25403.5
733.953	25366.66
734.294	25277.63
734.635	25269.94
734.976	25247.34
735.317	25133.9
735.658	25176.61
735.999	25316.04
736.339	25150.62
736.68	25087.8
737.021	24988.37
737.361	25024.53
737.702	25055.03
738.042	24951.53
738.383	24917.41
738.723	24901.59
739.063	24931.65
739.404	24884.19
739.744	24747.47
740.084	24761.03
740.424	24777.3
740.764	24637.64
741.104	24840.35
741.444	24611.43
741.784	24586.57
742.124	24543.86
742.464	24667.47
742.804	24483.52
743.143	24481.49
743.483	24519.68
743.823	24444.65
744.162	24377.54
744.502	24535.05
744.841	24322.17
745.181	24383.41
745.52	24338.22
745.86	24321.27
746.199	24342.74
746.538	24189.29
746.877	24219.35
747.216	24223.19
747.556	24084.66
747.895	24101.84
748.234	24064.1
748.573	24025
748.911	23961.95
749.25	23890.54
749.589	23866.59
749.928	23899.13
750.267	23996.3
750.605	23919.47
750.944	23799.7
751.283	23775.29
751.621	23849.42
751.96	23720.15
752.298	23613.49
752.636	23622.98
752.975	23464.11
753.313	23440.84
753.651	23552.47
753.989	23463.21
754.327	23407.17
754.666	23256.21
755.004	23340.73
755.342	23355.42
755.679	23264.57
756.017	23120.39
756.355	23110.68
756.693	23141.64
757.031	23173.5
757.368	22876.79
757.706	22930.57
758.044	22956.78
758.381	22821.65
758.719	22713.17
759.056	22835.66
759.394	22767.41
759.731	22660.29
760.068	22588.88
760.405	22551.14
760.743	22521.99
761.08	22454.2
761.417	22419.85
761.754	22342.79
762.091	22196.35
762.428	22175.79
762.765	22078.84
763.102	22125.84
763.438	22010.59
763.775	21909.35
764.112	21924.04
764.449	21818.06
764.785	21682.92
765.122	21615.35
765.458	21539.65
765.795	21597.72
766.131	21663.26
766.467	21528.57
766.804	21410.61
767.14	21287.67
767.476	21309.82
767.812	21070.96
768.148	21243.83
768.485	21077.51
768.821	20916.39
769.157	20922.71
769.492	20933.56
769.828	20801.36
770.164	20782.38
770.5	20664.87
770.836	20698.09
771.171	20439.34
771.507	20477.98
771.842	20371.54
772.178	20328.15
772.513	20372.44
772.849	20152.79
773.184	20115.95
773.519	20115.28
773.855	20089.29
774.19	19897.88
774.525	19914.15
774.86	19781.27
775.195	19737.66
775.53	19643.42
775.865	19623.54
776.2	19536.31
776.535	19347.16
776.87	19370.66
777.205	19271.68
777.539	19220.61
777.874	19253.15
778.209	19078.24
778.543	19028.3
778.878	18990.11
779.212	18977.9
779.547	18763.45
779.881	18851.35
780.215	18828.53
780.55	18816.1
780.884	18565.49
781.218	18572.49
781.552	18542.66
781.886	18443.91
782.22	18362.33
782.554	18301.31
782.888	18121.66
783.222	18140.19
783.556	18154.88
783.889	17886.41
784.223	17801.89
784.557	17828.56
784.89	17845.96
785.224	17658.39
785.557	17596.47
785.891	17562.8
786.224	17627.21
786.558	17534.55
786.891	17422.92
787.224	17340.21
787.557	17356.7
787.891	17330.49
788.224	17235.58
788.557	17165.07
788.89	17101.12
789.223	17157.61
789.556	16975.02
789.888	16961.46
790.221	16859.77
790.554	16751.07
790.887	16813.22
791.219	16634.92
791.552	16663.84
791.884	16511.3
792.217	16563.51
792.549	16470.85
792.882	16309.5
793.214	16327.13
793.546	16270.86
793.879	16229.73
794.211	16083.97
794.543	16151.54
794.875	16142.73
795.207	16145.44
795.539	16091.2
795.871	16026.34
796.203	15935.73
796.535	15823.19
796.867	15815.5
797.198	15764.2
797.53	15856.86
797.862	15560.14
798.193	15687.82
798.525	15564.21
798.856	15559.92
799.188	15408.51
799.519	15353.82
799.85	15347.04
800.182	15266.36
800.513	15250.32
800.844	15124.45
801.175	15278.57
801.506	15231.79
801.837	15059.14
802.168	15082.41
802.499	14988.63
802.83	14906.6
803.161	14943.66
803.491	14858.01
803.822	14924
804.153	14864.11
804.483	14739.82
804.814	14570.34
805.145	14644.23
805.475	14614.4
805.805	14479.04
806.136	14597.46
806.466	14538.02
806.796	14512.49
807.126	14336.9
807.457	14365.14
807.787	14382.55
808.117	14277.92
808.447	14248.31
808.777	14366.73
809.107	14162.66
809.436	14244.24
809.766	14176
810.096	14132.38
810.426	14058.49
810.755	14073.4
811.085	14028.43
811.414	13933.29
811.744	13858.04
812.073	13831.37
812.403	13886.06
812.732	13802
813.061	13733.07
813.39	13686.74
813.719	13716.8
814.049	13688.33
814.378	13699.85
814.707	13519.07
815.036	13511.38
815.365	13461.21
815.693	13360.43
816.022	13413.98
816.351	13328.56
816.68	13273.42
817.008	13320.88
817.337	13246.76
817.665	13227.32
817.994	13284.27
818.322	13256.25
818.651	13184.84
818.979	13109.13
819.307	13198.4
819.636	13118.17
819.964	13117.04
820.292	13086.99
820.62	13046.99
820.948	13006.54
821.276	13080.43
821.604	13008.57
821.932	13050.83
822.259	13076.14
822.587	13010.38
822.915	12938.52
823.243	13039.98
823.57	12890.38
823.898	13011.51
824.225	12949.81
824.553	12917.27
824.88	12896.48
825.207	12921.79
825.535	12975.58
825.862	13035.24
826.189	12888.12
826.516	12930.83
826.843	13014.67
827.17	12954.56
827.497	13038.17
827.824	12939.19
828.151	12983.03
828.478	12931.96
828.805	12968.8
829.131	12895.58
829.458	12969.93
829.785	12834.56
830.111	12835.24
830.438	12996.37
830.764	12966.76
831.09	12888.57
831.417	12779.2
831.743	12898.06
832.069	12935.13
832.395	12875.69
832.722	12872.53
833.048	12835.47
833.374	12889.03
833.7	12858.52
834.026	12809.93
834.351	12872.98
834.677	12824.85
835.003	12796.15
835.329	12772.64
835.654	12804.73
835.98	12748.92
836.306	12734
836.631	12689.93
836.956	12786.66
837.282	12712.76
837.607	12584.85
837.932	12590.73
838.258	12581.01
838.583	12632.31
838.908	12580.56
839.233	12615.36
839.558	12541.46
839.883	12504.4
840.208	12464.18
840.533	12460.56
840.858	12554.8
841.182	12465.08
841.507	12424.4
841.832	12414.46
842.156	12328.14
842.481	12322.94
842.805	12299.66
843.13	12307.35
843.454	12320.45
843.778	12229.83
844.103	12217.86
844.427	12162.94
844.751	12193.9
845.075	12130.18
845.399	12066.9
845.723	11947.36
846.047	12021.7
846.371	11881.82
846.695	11905.77
847.019	11817.42
847.343	11736.97
847.666	11759.79
847.99	11664.2
848.313	11763.41
848.637	11584.88
848.96	11564.77
849.284	11577.65
849.607	11449.97
849.931	11445.67
850.254	11350.31
850.577	11323.87
850.9	11273.25
851.223	11212.01
851.546	11154.83
851.869	11083.88
852.192	11111.22
852.515	10969.98
852.838	10975.4
853.161	10983.76
853.483	10953.71
853.806	10900.15
854.129	10916.42
854.451	10800.94
854.774	10777.67
855.096	10730.66
855.419	10671.68
855.741	10689.99
856.063	10660.61
856.385	10639.37
856.708	10632.36
857.03	10560.05
857.352	10558.01
857.674	10507.39
857.996	10466.04
858.318	10444.57
858.64	10429.66
858.961	10351.92
859.283	10327.96
859.605	10370
859.926	10382.2
860.248	10255.2
860.57	10281.41
860.891	10247.29
861.212	10199.15
861.534	10191.02
861.855	10143.56
862.176	10143.11
862.498	10161.64
862.819	10111.47
863.14	10043.68
863.461	9992.38
863.782	10053.39
864.103	10033.51
864.424	9949.22
864.745	10027.63
865.065	10053.62
865.386	10013.85
865.707	9993.96
866.027	9956.22
866.348	9895.43
866.668	9887.75
866.989	9760.75
867.309	9806.39
867.63	9888.65
867.95	9867.18
868.27	9802.78
868.59	9767.07
868.91	9824.7
869.23	9758.49
869.55	9655.44
869.87	9704.7
870.19	9682.1
870.51	9685.04
870.83	9731.59
871.15	9643.91
871.469	9649.34
871.789	9629.68
872.109	9575.21
872.428	9573.18
872.748	9610.47
873.067	9572.95
873.386	9551.49
873.706	9548.32
874.025	9515.1
874.344	9482.34
874.663	9542.45
874.982	9432.39
875.301	9449.79
875.62	9385.16
875.939	9437.59
876.258	9423.58
876.577	9394.2
876.896	9412.05
877.214	9396.46
877.533	9375.9
877.852	9280.08
878.17	9308.55
878.489	9319.63
878.807	9271.04
879.125	9290.25
879.444	9316.24
879.762	9248.9
880.08	9256.8
880.398	9171.38
880.716	9197.37
881.034	9122.12
881.352	9153.76
881.67	9225.17
881.988	9165.96
882.306	9187.65
882.624	9043.02
882.941	9106.98
883.259	8996.47
883.577	8943.14
883.894	8977.72
884.212	9038.96
884.529	8994.89
884.846	8944.5
885.164	8980.88
885.481	8910.83
885.798	8891.62
886.115	8856.14
886.432	8793.31
886.75	8808.91
887.067	8834.22
887.383	8787.89
887.7	8803.03
888.017	8714.45
888.334	8761.45
888.651	8700.66
888.967	8659.76
889.284	8673.77
889.6	8631.28
889.917	8563.26
890.233	8589.25
890.55	8517.84
890.866	8548.12
891.182	8503.38
891.498	8518.07
891.815	8507.22
892.131	8438.97
892.447	8369.6
892.763	8371.86
893.079	8358.3
893.395	8361.91
893.71	8402.59
894.026	8323.27
894.342	8323.04
894.657	8236.72
894.973	8217.28
895.289	8219.77
895.604	8210.28
895.92	8102.94
896.235	8163.95
896.55	8133.9
896.865	8080.11
897.181	8062.71
897.496	7988.14
897.811	7976.16
898.126	7909.04
898.441	7907.91
898.756	7903.39
899.071	7902.49
899.386	7881.7
899.7	7798.54
900.015	7808.48
900.33	7711.99
900.644	7690.74
900.959	7728.03
901.273	7689.84
901.588	7726.9
901.902	7594.7
902.216	7633.12
902.531	7589.73
902.845	7527.13
903.159	7468.6
903.473	7398.32
903.787	7441.03
904.101	7433.12
904.415	7462.28
904.729	7422.73
905.042	7348.15
905.356	7271.09
905.67	7254.15
905.984	7284.65
906.297	7252.79
906.611	7228.84
906.924	7169.63
907.237	7102.51
907.551	7125.56
907.864	7090.53
908.177	7115.39
908.491	7061.16
908.804	7028.16
909.117	7018.9
909.43	6948.39
909.743	6903.65
910.056	6912.01
910.368	6886.47
910.681	6873.36
910.994	6855.74
911.307	6746.81
911.619	6790.2
911.932	6762.41
912.244	6680.6
912.557	6682.86
912.869	6621.17
913.181	6617.55
913.494	6667.49
913.806	6588.63
914.118	6541.62
914.43	6560.6
914.742	6496.2
915.054	6435.41
915.366	6378.01
915.678	6433.38
915.99	6349.54
916.302	6340.05
916.613	6339.59
916.925	6293.49
917.236	6312.7
917.548	6277.45
917.859	6276.77
918.171	6207.39
918.482	6195.64
918.794	6157.9
919.105	6110.9
919.416	6126.72
919.727	6061.63
920.038	6067.51
920.349	5957
920.66	6043.78
920.971	6028.41
921.282	5917.46
921.593	5968.53
921.903	5891.02
922.214	5865.71
922.525	5881.98
922.835	5793.39
923.146	5792.49
923.456	5787.29
923.767	5754.98
924.077	5763.79
924.387	5747.52
924.697	5684.92
925.008	5639.72
925.318	5693.06
925.628	5658.26
925.938	5579.84
926.248	5584.36
926.558	5588.65
926.867	5528.09
927.177	5469.11
927.487	5455.55
927.796	5455.1
928.106	5413.52
928.416	5361.09
928.725	5370.81
929.034	5371.48
929.344	5359.28
929.653	5370.81
929.962	5295.78
930.271	5301.88
930.581	5258.27
930.89	5225.05
931.199	5190.92
931.508	5176.91
931.817	5232.28
932.125	5191.6
932.434	5185.05
932.743	5131.94
933.051	5092.62
933.36	5049.01
933.669	5037.93
933.977	5011.94
934.286	4990.48
934.594	4990.93
934.902	4956.35
935.21	4897.6
935.519	4880.2
935.827	4922.91
936.135	4839.29
936.443	4849.69
936.751	4837.71
937.059	4811.72
937.367	4748.45
937.674	4828.67
937.982	4753.65
938.29	4762.01
938.597	4753.42
938.905	4716.13
939.213	4662.58
939.52	4662.58
939.827	4664.38
940.135	4613.76
940.442	4569.02
940.749	4569.7
941.056	4579.19
941.363	4522.47
941.67	4514.78
941.977	4468
942.284	4429.36
942.591	4427.1
942.898	4393.2
943.205	4402.92
943.511	4393.43
943.818	4372.41
944.125	4348.01
944.431	4318.63
944.738	4339.19
945.044	4293.32
945.35	4273.66
945.657	4234.56
945.963	4240.89
946.269	4179.88
946.575	4201.34
946.881	4211.97
947.187	4264.39
947.493	4138.97
947.799	4182.36
948.105	4113.89
948.41	4077.51
948.716	4127.45
949.022	4087.68
949.327	4049.26
949.633	4053.55
949.938	4015.13
950.244	4027.34
950.549	3971.52
950.854	3951.86
951.16	3940.56
951.465	3933.33
951.77	3894.69
952.075	3907.57
952.38	3916.61
952.685	3891.52
952.99	3864.18
953.294	3859.66
953.599	3811.52
953.904	3745.99
954.209	3757.29
954.513	3763.84
954.818	3788.93
955.122	3756.38
955.426	3666.67
955.731	3693.11
956.035	3661.7
956.339	3645.43
956.643	3654.01
956.948	3678.42
957.252	3635.03
957.556	3651.08
957.86	3610.4
958.163	3607.46
958.467	3550.97
958.771	3581.02
959.075	3543.06
959.378	3491.08
959.682	3485.2
959.985	3472.55
960.289	3457.64
960.592	3469.61
960.896	3433
961.199	3420.8
961.502	3411.53
961.805	3406.56
962.108	3346.9
962.411	3374.93
962.714	3376.96
963.017	3304.42
963.32	3339.45
963.623	3288.6
963.926	3278.66
964.228	3286.57
964.531	3257.19
964.833	3287.7
965.136	3247.25
965.438	3219.45
965.741	3234.59
966.043	3196.62
966.345	3140.36
966.648	3174.7
966.95	3134.03
967.252	3130.64
967.554	3118.89
967.856	3126.57
968.158	3066.46
968.46	3061.94
968.761	3041.15
969.063	3032.34
969.365	3048.83
969.666	3024.65
969.968	3025.78
970.269	2994.6
970.571	3036.86
970.872	3016.97
971.174	2977.87
971.475	2930.19
971.776	2906.24
972.077	2961.15
972.378	2924.54
972.679	2946.91
972.98	2917.08
973.281	2887.93
973.582	2915.95
973.883	2855.39
974.183	2833.7
974.484	2836.41
974.785	2805
975.085	2817.65
975.386	2842.06
975.686	2785.34
975.986	2782.4
976.287	2806.13
976.587	2734.26
976.887	2725.9
977.187	2711.89
977.487	2697.66
977.787	2710.54
978.087	2672.12
978.387	2680.71
978.687	2645.91
978.987	2667.83
979.286	2634.15
979.586	2657.43
979.885	2584.89
980.185	2611.78
980.484	2601.39
980.784	2604.32
981.083	2602.52
981.382	2597.77
981.682	2569.75
981.981	2553.93
982.28	2521.39
982.579	2494.5
982.878	2487.94
983.177	2501.28
983.475	2527.94
983.774	2480.26
984.073	2495.85
984.372	2453.37
984.67	2449.75
984.969	2436.87
985.267	2438.45
985.566	2404.78
985.864	2409.98
986.162	2387.15
986.461	2351.9
986.759	2394.39
987.057	2376.08
987.355	2324.56
987.653	2336.08
987.951	2357.1
988.249	2332.01
988.547	2309.87
988.844	2295.18
989.142	2316.65
989.44	2283.43
989.737	2308.06
990.035	2267.61
990.332	2261.73
990.63	2189.87
990.927	2217.44
991.224	2191.91
991.521	2217.67
991.819	2195.75
992.116	2193.71
992.413	2202.75
992.71	2171.57
993.006	2141.96
993.303	2142.19
993.6	2159.82
993.897	2149.87
994.193	2122.98
994.49	2099.93
994.787	2117.78
995.083	2105.35
995.379	2088.63
995.676	2062.42
995.972	2050.44
996.268	2026.03
996.565	2037.33
996.861	2040.72
997.157	2008.41
997.453	2004.57
997.749	1993.94
998.044	2009.76
998.34	1987.84
998.636	1971.57
998.932	1930.9
999.227	1945.58
999.523	1954.17
999.818	1916.88
1000.114	1916.88
1000.409	1922.53
1000.704	1904.91
1001	1877.79
1001.295	1920.5
1001.59	1882.08
1001.885	1879.82
1002.18	1857
1002.475	1852.93
1002.77	1823.1
1003.065	1800.96
1003.359	1785.14
1003.654	1819.26
1003.949	1744.01
1004.243	1772.48
1004.538	1770
1004.832	1728.42
1005.127	1739.04
1005.421	1758.02
1005.715	1764.8
1006.009	1720.96
1006.304	1738.36
1006.598	1701.52
1006.892	1708.08
1007.186	1669.89
1007.48	1687.06
1007.773	1678.92
1008.067	1693.84
1008.361	1675.76
1008.655	1653.61
1008.948	1658.13
1009.242	1623.33
1009.535	1609.55
1009.829	1595.09
1010.122	1605.71
1010.415	1568.42
1010.708	1586.95
1011.001	1607.74
1011.295	1574.97
1011.588	1555.31
1011.881	1571.36
1012.173	1553.73
1012.466	1547.18
1012.759	1488.2
1013.052	1531.81
1013.344	1498.14
1013.637	1506.73
1013.93	1469.44
1014.222	1490.46
1014.514	1443.22
1014.807	1459.5
1015.099	1446.84
1015.391	1445.94
1015.683	1446.39
1015.976	1430.8
1016.268	1423.56
1016.56	1392.15
1016.851	1384.92
1017.143	1407.07
1017.435	1368.88
1017.727	1389.67
1018.018	1374.98
1018.31	1349.44
1018.602	1358.71
1018.893	1350.57
1019.185	1359.16
1019.476	1330.91
1019.767	1329.56
1020.058	1318.03
1020.35	1307.64
1020.641	1318.93
1020.932	1305.15
1021.223	1291.36
1021.514	1265.38
1021.804	1257.01
1022.095	1260.18
1022.386	1232.38
1022.677	1241.87
1022.967	1216.34
1023.258	1256.79
1023.548	1231.93
1023.839	1210.24
1024.129	1220.63
1024.419	1197.81
1024.709	1200.52
1025	1198.94
1025.29	1160.29
1025.58	1171.82
1025.87	1125.27
1026.16	1141.99
1026.449	1138.15
1026.739	1105.38
1027.029	1131.14
1027.319	1105.83
1027.608	1113.74
1027.898	1137.02
1028.187	1106.28
1028.477	1110.13
1028.766	1076.23
1029.055	1076.91
1029.344	1049.11
1029.634	1069.45
1029.923	1038.26
1030.212	1054.31
1030.501	1068.09
1030.79	1066.06
1031.078	1017.7
1031.367	1036.46
1031.656	1012.95
1031.945	1027.64
1032.233	995.78
1032.522	998.26
1032.81	984.25
1033.099	974.08
1033.387	985.38
1033.675	956.68
1033.963	973.86
1034.251	993.97
1034.54	970.47
1034.828	956.01
1035.116	944.48
1035.403	947.87
1035.691	924.82
1035.979	951.03
1036.267	930.02
1036.554	925.5
1036.842	911.71
1037.129	909.23
1037.417	918.04
1037.704	904.93
1037.992	890.24
1038.279	883.69
1038.566	884.6
1038.853	884.6
1039.14	884.6
