Data from red_cardboard_box_FLMS001491_00059.txt Node
Date: Wed Feb 08 11:32:47 GMT 2017
User: dcchb
Spectrometer: FLMS00149
Trigger mode: 0
Integration Time (sec): 2.000000E-2
Scans to average: 10
Electric dark correction enabled: true
Nonlinearity correction enabled: false
Boxcar width: 0
XAxis mode: Wavelengths
Number of Pixels in Spectrum: 2048
>>>>>Begin Spectral Data<<<<<
341.393	6.95
341.776	6.95
342.16	6.95
342.543	-71.69
342.927	-61.75
343.31	-64.46
343.693	-75.76
344.077	-73.73
344.46	-77.57
344.843	-59.49
345.226	-47.96
345.61	-22.43
345.993	-25.37
346.376	-14.07
346.759	28.42
347.142	15.31
347.525	51.24
347.908	71.13
348.291	89.88
348.674	102.31
349.057	102.54
349.44	124.69
349.823	142.09
350.206	158.81
350.588	196.77
350.971	227.06
351.354	240.39
351.737	241.07
352.119	267.28
352.502	268.41
352.884	285.36
353.267	275.42
353.65	310.22
354.032	308.86
354.414	319.94
354.797	321.52
355.179	306.38
355.562	326.49
355.944	333.04
356.326	347.5
356.709	335.08
357.091	314.74
357.473	337.11
357.855	349.54
358.238	344.12
358.62	336.66
359.002	354.74
359.384	344.57
359.766	331.23
360.148	354.96
360.53	329.65
360.912	333.27
361.294	339.14
361.676	342.31
362.057	333.04
362.439	326.94
362.821	333.95
363.203	323.78
363.584	314.51
363.966	318.13
364.348	310.44
364.729	310.22
365.111	333.27
365.493	319.03
365.874	317.9
366.256	342.31
366.637	345.92
367.019	291.69
367.4	323.55
367.781	322.42
368.163	321.07
368.544	294.63
368.925	316.55
369.306	322.19
369.688	314.74
370.069	312.03
370.45	321.29
370.831	321.52
371.212	316.32
371.593	305.92
371.974	314.51
372.355	336.88
372.736	324
373.117	311.35
373.498	307.28
373.879	307.05
374.26	321.97
374.641	305.25
375.021	313.16
375.402	322.87
375.783	316.32
376.163	320.16
376.544	336.88
376.925	325.13
377.305	331.01
377.686	320.84
378.066	322.65
378.447	334.62
378.827	318.35
379.208	323.78
379.588	350.22
379.968	337.79
380.349	351.12
380.729	330.33
381.109	329.2
381.489	334.17
381.87	345.25
382.25	348.41
382.63	347.05
383.01	335.75
383.39	347.5
383.77	357.67
384.15	338.47
384.53	339.37
384.91	342.31
385.29	354.74
385.67	352.25
386.049	357
386.429	358.8
386.809	355.41
387.189	336.66
387.568	351.57
387.948	354.74
388.328	357.22
388.707	366.49
389.087	356.77
389.466	353.61
389.846	339.82
390.225	358.13
390.605	369.65
390.984	361.97
391.363	375.75
391.743	358.58
392.122	378.69
392.501	367.62
392.881	352.25
393.26	364.91
393.639	378.92
394.018	369.65
394.397	388.63
394.776	374.4
395.155	363.55
395.534	352.25
395.913	349.09
396.292	369.65
396.671	372.82
397.05	368.07
397.429	369.2
397.808	364.91
398.186	359.48
398.565	379.37
398.944	374.62
399.323	381.63
399.701	381.18
400.08	373.72
400.458	381.18
400.837	401.06
401.215	381.18
401.594	385.92
401.972	402.42
402.351	398.58
402.729	401.29
403.107	399.26
403.486	377.79
403.864	393.61
404.242	390.22
404.62	409.42
404.999	420.27
405.377	391.57
405.755	402.87
406.133	396.32
406.511	401.97
406.889	423.44
407.267	396.77
407.645	422.76
408.023	410.55
408.401	406.03
408.779	413.27
409.156	417.33
409.534	418.46
409.912	426.15
410.29	421.4
410.667	433.83
411.045	422.76
411.422	440.84
411.8	414.62
412.178	431.34
412.555	440.38
412.933	426.37
413.31	450.78
413.687	460.27
414.065	446.94
414.442	437.22
414.819	459.37
415.197	446.03
415.574	442.19
415.951	442.64
416.328	468.63
416.705	455.52
417.082	475.19
417.46	460.27
417.837	433.38
418.214	479.93
418.591	483.77
418.967	479.25
419.344	493.04
419.721	467.05
420.098	478.12
420.475	502.3
420.852	490.55
421.228	486.03
421.605	508.18
421.982	489.2
422.358	499.82
422.735	505.92
423.111	505.01
423.488	502.76
423.864	496.88
424.241	507.27
424.617	503.21
424.994	498.91
425.37	490.55
425.746	518.8
426.123	479.25
426.499	510.21
426.875	507.73
427.251	536.43
427.627	518.57
428.003	537.56
428.379	545.47
428.756	515.64
429.132	540.27
429.507	550.89
429.883	543.88
430.259	547.05
430.635	568.06
431.011	542.08
431.387	568.29
431.763	586.59
432.138	561.06
432.514	561.96
432.89	554.73
433.265	554.51
433.641	589.53
434.016	564
434.392	577.56
434.767	576.65
435.143	605.13
435.518	583.43
435.894	599.25
436.269	605.8
436.644	596.76
437.02	584.33
437.395	615.29
437.77	620.72
438.145	602.41
438.52	607.16
438.895	617.55
439.271	633.83
439.646	654.62
440.021	637.89
440.395	632.02
440.77	630.21
441.145	646.25
441.52	648.06
441.895	659.59
442.27	629.53
442.645	636.08
443.019	653.49
443.394	662.3
443.769	631.11
444.143	661.4
444.518	677.44
444.892	676.54
445.267	684.45
445.641	688.51
446.016	655.52
446.39	673.15
446.764	675.41
447.139	675.86
447.513	679.25
447.887	675.86
448.262	675.41
448.636	713.37
449.01	703.43
449.384	696.87
449.758	730.77
450.132	689.42
450.506	718.34
450.88	697.78
451.254	727.61
451.628	725.35
452.002	717.44
452.376	733.03
452.75	721.28
453.123	721.28
453.497	735.52
453.871	755.18
454.244	760.6
454.618	760.83
454.992	767.61
455.365	742.75
455.739	773.26
456.112	768.96
456.486	767.15
456.859	777.78
457.232	796.08
457.606	791.34
457.979	800.37
458.352	805.57
458.725	833.37
459.099	803.76
459.472	826.59
459.845	841.05
460.218	832.01
460.591	829.07
460.964	841.28
461.337	854.16
461.71	865.46
462.083	858.45
462.456	879.69
462.829	884.67
463.201	896.19
463.574	887.15
463.947	897.55
464.32	894.16
464.692	909.98
465.065	916.76
465.438	948.39
465.81	944.55
466.183	924.89
466.555	953.36
466.928	967.38
467.3	963.08
467.672	966.7
468.045	979.13
468.417	989.3
468.789	972.57
469.161	989.75
469.534	1013.48
469.906	1019.58
470.278	1010.31
470.65	1025.45
471.022	1033.59
471.394	1067.49
471.766	1066.13
472.138	1082.85
472.51	1107.26
472.882	1071.55
473.253	1102.74
473.625	1116.98
473.997	1128.05
474.369	1148.61
474.74	1169.86
475.112	1184.09
475.484	1197.2
475.855	1222.96
476.227	1200.14
476.598	1229.97
476.97	1256.63
477.341	1261.38
477.713	1271.77
478.084	1266.58
478.455	1316.07
478.827	1312.45
479.198	1337.54
479.569	1346.35
479.94	1375.95
480.311	1370.98
480.682	1405.33
481.053	1414.37
481.424	1440.13
481.795	1432.67
482.166	1432.45
482.537	1491.43
482.908	1497.98
483.279	1530.07
483.65	1547.02
484.021	1555.61
484.391	1608.94
484.762	1606.68
485.133	1628.83
485.503	1640.13
485.874	1669.05
486.244	1655.27
486.615	1700.46
486.985	1701.37
487.356	1747.92
487.726	1752.44
488.097	1757.64
488.467	1789.95
488.837	1811.87
489.207	1822.49
489.578	1860.46
489.948	1854.81
490.318	1924.64
490.688	1903.62
491.058	1942.49
491.428	1958.08
491.798	1990.63
492.168	2013.45
492.538	2008.03
492.908	2027.23
493.278	2034.47
493.648	2053
494.017	2092.77
494.387	2087.12
494.757	2137.29
495.126	2143.16
495.496	2129.38
495.866	2162.82
496.235	2179.77
496.605	2222.03
496.974	2200.56
497.344	2245.76
497.713	2240.56
498.082	2260
498.452	2270.39
498.821	2264.74
499.19	2324.63
499.559	2329.6
499.928	2315.81
500.298	2332.76
500.667	2420.22
501.036	2389.71
501.405	2417.06
501.774	2365.08
502.143	2424.51
502.512	2433.78
502.88	2454.57
503.249	2455.47
503.618	2461.35
503.987	2493.89
504.356	2508.58
504.724	2493.66
505.093	2555.81
505.462	2537.96
505.83	2598.52
506.199	2580.67
506.567	2635.81
506.936	2630.38
507.304	2622.02
507.672	2655.47
508.041	2666.31
508.409	2722.36
508.777	2711.28
509.145	2773.66
509.514	2784.5
509.882	2771.62
510.25	2730.95
510.618	2793.32
510.986	2782.92
511.354	2836.93
511.722	2819.08
512.09	2928
512.458	2847.78
512.826	2899.3
513.193	2943.82
513.561	2947.89
513.929	2933.88
514.297	2963.26
514.664	3017.27
515.032	3028.11
515.4	3042.58
515.767	3067.43
516.135	3085.96
516.502	3113.31
516.869	3128.45
517.237	3183.59
517.604	3168.22
517.972	3194.89
518.339	3219.75
518.706	3213.87
519.073	3246.64
519.44	3261.78
519.808	3351.95
520.175	3301.33
520.542	3346.97
520.909	3403.24
521.276	3368.67
521.643	3420.87
522.009	3385.17
522.376	3435.56
522.743	3481.43
523.11	3523.01
523.477	3583.58
523.843	3552.17
524.21	3578.38
524.577	3660.86
524.943	3659.73
525.31	3653.86
525.676	3687.98
526.043	3737.02
526.409	3718.04
526.776	3784.02
527.142	3776.57
527.508	3829.22
527.874	3855.21
528.241	3887.07
528.607	3894.08
528.973	3960.52
529.339	3991.93
529.705	4001.19
530.071	4039.84
530.437	4019.5
530.803	4108.08
531.169	4066.96
531.535	4103.79
531.901	4132.26
532.267	4190.12
532.632	4187.63
532.998	4157.8
533.364	4210.68
533.73	4239.61
534.095	4249.1
534.461	4269.44
534.826	4306.27
535.192	4372.71
535.557	4364.35
535.923	4409.77
536.288	4431.01
536.653	4426.95
537.019	4417.68
537.384	4459.26
537.749	4498.58
538.114	4524.12
538.479	4521.63
538.845	4574.29
539.21	4541.07
539.575	4553.5
539.94	4615.42
540.305	4630.78
540.67	4654.74
541.034	4662.42
541.399	4740.61
541.764	4715.07
542.129	4692.48
542.494	4706.94
542.858	4727.05
543.223	4802.08
543.587	4847.05
543.952	4820.83
544.316	4822.64
544.681	4879.36
545.045	4909.19
545.41	4930.44
545.774	4941.73
546.138	4981.06
546.503	4990.77
546.867	5069.64
547.231	5079.58
547.595	5075.06
547.959	5054.05
548.324	5108.06
548.688	5140.83
549.052	5156.19
549.416	5183.76
549.779	5186.25
550.143	5221.5
550.507	5275.74
550.871	5300.14
551.235	5332.68
551.599	5358.67
551.962	5384.66
552.326	5339.46
552.689	5428.95
553.053	5464.21
553.417	5494.94
553.78	5556.63
554.143	5579.68
554.507	5577.65
554.87	5603.19
555.234	5687.25
555.597	5665.78
555.96	5741.71
556.323	5756.85
556.686	5801.37
557.05	5821.94
557.413	5825.33
557.776	5923.4
558.139	5933.8
558.502	5969.96
558.865	6068.71
559.228	6118.43
559.59	6166.11
559.953	6180.8
560.316	6227.35
560.679	6261.02
561.041	6350.74
561.404	6397.74
561.767	6448.59
562.129	6462.6
562.492	6578.53
562.854	6651.29
563.217	6639.54
563.579	6660.33
563.941	6755.92
564.304	6808.58
564.666	6895.81
565.028	6919.54
565.39	6992.75
565.753	7054.45
566.115	7134.67
566.477	7225.29
566.839	7183.48
567.201	7249.47
567.563	7357.72
567.925	7441.78
568.287	7473.87
568.648	7604.04
569.01	7601.33
569.372	7662.79
569.734	7743.24
570.095	7864.14
570.457	7931.71
570.819	8051.26
571.18	8008.77
571.542	8175.77
571.903	8199.5
572.265	8271.14
572.626	8373.28
572.987	8394.98
573.349	8493.73
573.71	8581.64
574.071	8659.38
574.432	8804.23
574.794	8916.77
575.155	8981.18
575.516	8950.44
575.877	9074.96
576.238	9182.07
576.599	9326.03
576.96	9357.21
577.32	9490.99
577.681	9597.66
578.042	9722.63
578.403	9844.88
578.763	9956.74
579.124	10016.18
579.485	10161.26
579.845	10304.53
580.206	10414.13
580.566	10548.59
580.927	10716.05
581.287	10917.17
581.648	10948.58
582.008	11118.97
582.368	11257.73
582.728	11388.57
583.089	11527.1
583.449	11709.01
583.809	11891.83
584.169	12038.5
584.529	12252.95
584.889	12479.16
585.249	12645.94
585.609	12834.63
585.969	13037.79
586.329	13127.51
586.688	13528.18
587.048	13686.82
587.408	13829.41
587.768	14108.05
588.127	14317.31
588.487	14616.28
588.846	14866.45
589.206	15064.18
589.565	15299.2
589.925	15654.67
590.284	15923.14
590.643	16183.47
591.003	16522.67
591.362	16809.45
591.721	17090.57
592.08	17389.77
592.44	17769.42
592.799	18120.6
593.158	18437.2
593.517	18724.2
593.876	19133.23
594.235	19407.34
594.593	19847.56
594.952	20262.24
595.311	20495.9
595.67	20851.6
596.029	21350.12
596.387	21746.49
596.746	22180.38
597.104	22431.44
597.463	22697.88
597.822	23258.32
598.18	23601.13
598.538	23961.35
598.897	24462.58
599.255	24714.1
599.613	25352.72
599.972	25660.74
600.33	26063.21
600.688	26373.71
601.046	26842.18
601.404	27392.22
601.762	27669.27
602.12	28255.02
602.478	28637.83
602.836	29045.73
603.194	29265.61
603.552	29744.7
603.91	30082.09
604.268	30556.2
604.625	30838.68
604.983	31522.73
605.341	31658.09
605.698	32157.97
606.056	32591.4
606.413	32864.16
606.771	33259.18
607.128	33713.41
607.485	33865.72
607.843	34215.77
608.2	34713.38
608.557	35169.41
608.914	35233.59
609.272	35876.51
609.629	36195.15
609.986	36429.04
610.343	36666.32
610.7	37095.01
611.057	37459.52
611.414	37735.67
611.771	37957.14
612.127	38311.25
612.484	38447.75
612.841	38904.68
613.198	39060.39
613.554	39273.26
613.911	39743.08
614.267	39950.98
614.624	40181.94
614.98	40334.7
615.337	40725.88
615.693	40894.69
616.05	41118.86
616.406	41452.41
616.762	41543.03
617.118	41627.78
617.475	41932.4
617.831	42174.88
618.187	42343.24
618.543	42502.55
618.899	43044.46
619.255	42943.67
619.611	43064.57
619.967	43298.24
620.323	43598.35
620.678	43536.88
621.034	43703.2
621.39	43694.61
621.746	43953.82
622.101	44531.65
622.457	44240.59
622.812	44507.93
623.168	44505.44
623.523	44662.5
623.879	44966.22
624.234	44808.26
624.589	45021.58
624.945	45169.15
625.3	45335.93
625.655	45349.03
626.01	45398.75
626.365	45615.02
626.72	45532.98
627.075	45765.97
627.43	45787.21
627.785	45654.79
628.14	45983.82
628.495	45976.36
628.85	45979.07
629.205	45938.85
629.559	46161.44
629.914	46116.02
630.269	46316.69
630.623	46215.9
630.978	46163.48
631.332	46413.64
631.687	46494.31
632.041	46377.26
632.396	46650.02
632.75	46474.43
633.104	46575.89
633.459	46369.8
633.813	46484.82
634.167	46548.78
634.521	46533.64
634.875	46674.87
635.229	46637.14
635.583	46428.55
635.937	46520.08
636.291	46540.19
636.645	46589.9
636.999	46439.4
637.352	46565.05
637.706	46457.71
638.06	46653.86
638.413	46480.53
638.767	46465.39
639.121	46645.04
639.474	46525.5
639.828	46590.58
640.181	46701.77
640.534	46651.6
640.888	46641.43
641.241	46553.97
641.594	46486.63
641.947	46722.56
642.301	46522.11
642.654	46639.62
643.007	46578.61
643.36	46639.17
643.713	46622.45
644.066	46768.88
644.419	46473.52
644.771	46395.56
645.124	45755.35
645.477	45860.88
645.83	45610.95
646.182	45576.82
646.535	45441.69
646.888	45632.64
647.24	45433.78
647.593	45598.07
647.945	45595.58
648.298	45398.75
648.65	45398.52
649.002	45363.04
649.355	45488.69
649.707	45387.68
650.059	45558.52
650.411	45991.95
650.763	46266.75
651.115	46567.53
651.467	46403.47
651.819	46485.73
652.171	46391.49
652.523	46337.03
652.875	46377.93
653.227	46278.95
653.578	46530.92
653.93	46490.7
654.282	46372.06
654.633	46220.42
654.985	46265.85
655.337	46332.51
655.688	46369.57
656.039	46515.78
656.391	46084.16
656.742	46172.74
657.094	46196.47
657.445	46407.54
657.796	46230.14
658.147	46183.59
658.498	46225.39
658.849	46233.76
659.2	46086.42
659.551	46033.54
659.902	46339.52
660.253	46064.95
660.604	46215.23
660.955	46051.39
661.306	46151.27
661.656	46203.47
662.007	46177.94
662.358	46105.17
662.708	46156.92
663.059	46145.62
663.409	45968.68
663.76	46308.1
664.11	46259.52
664.461	46283.02
664.811	46273.53
665.161	46272.17
665.511	46120.09
665.862	46103.59
666.212	46375.45
666.562	46239.86
666.912	46122.8
667.262	46063.82
667.612	46191.05
667.962	46225.17
668.312	46036.02
668.662	46382.45
669.011	46195.57
669.361	46138.17
669.711	46151.27
670.06	46241.21
670.41	45990.82
670.76	45894.33
671.109	46137.26
671.459	46076.92
671.808	45993.08
672.157	46186.3
672.507	45785.86
672.856	45890.04
673.205	45831.96
673.554	45939.75
673.904	45827.89
674.253	46112.4
674.602	45991.05
674.951	45364.17
675.3	45210.28
675.649	45965.29
675.998	45808
676.346	45779.98
676.695	45875.8
677.044	45769.36
677.393	45801.68
677.741	45759.87
678.09	45663.15
678.438	45552.64
678.787	45746.31
679.135	45577.95
679.484	45416.15
679.832	45468.58
680.181	45243.73
680.529	45441.69
680.877	45391.52
681.225	45409.37
681.573	45633.55
681.922	45284.18
682.27	45097.51
682.618	45175.03
682.966	45048.02
683.314	45124.41
683.661	44979.78
684.009	44821.36
684.357	44803.51
684.705	44674.02
685.053	44745.21
685.4	44624.76
685.748	44591.09
686.095	44502.95
686.443	44507.93
686.79	44333.69
687.138	44313.13
687.485	44384.31
687.832	44141.61
688.18	44351.32
688.527	44024.55
688.874	44007.83
689.221	43831.11
689.568	43756.53
689.915	43658.23
690.262	43757.89
690.609	43448.74
690.956	43458.24
691.303	43250.56
691.65	43196.55
691.997	43308.86
692.344	43044.24
692.69	43008.08
693.037	43132.82
693.383	42595.89
693.73	42832.49
694.077	42609.44
694.423	42607.64
694.769	42652.61
695.116	42394.31
695.462	42378.26
695.808	42164.26
696.155	42371.03
696.501	42004.04
696.847	42010.36
697.193	41561.56
697.539	41908.9
697.885	41535.8
698.231	41505.07
698.577	41555.91
698.923	41477.72
699.269	41185.08
699.614	40939.88
699.96	41085.87
700.306	41116.83
700.651	40824.63
700.997	40757.97
701.342	40698.53
701.688	40655.82
702.033	40569.95
702.379	40465.55
702.724	40247.25
703.069	40449.95
703.415	39970.42
703.76	40079.34
704.105	39957.08
704.45	39998.44
704.795	39562.07
705.14	39611.11
705.485	39544.44
705.83	39465.35
706.175	39550.32
706.52	39427.16
706.865	39401.17
707.209	39217.67
707.554	39111.01
707.899	39271.91
708.243	38919.37
708.588	38882.99
708.932	38602.32
709.277	38607.74
709.621	38702.88
709.966	38318.03
710.31	38314.19
710.654	38098.83
710.998	38210.01
711.342	38303.12
711.687	38068.55
712.031	38014.54
712.375	37895.9
712.719	38013.41
713.063	37853.41
713.407	37859.96
713.75	37677.14
714.094	37669.01
714.438	37660.2
714.782	37531.84
715.125	37532.06
715.469	37451.84
715.812	37274.67
716.156	37140.21
716.499	37222.92
716.843	37220.66
717.186	36965.3
717.53	37211.39
717.873	37114
718.216	37040.78
718.559	36818.64
718.902	36608.7
719.246	36692.99
719.589	36615.93
719.932	36375.71
720.275	36475.14
720.617	36363.28
720.96	36446.89
721.303	36451.19
721.646	36370.29
721.989	36076.51
722.331	36300.46
722.674	36080.12
723.016	36257.3
723.359	36044.42
723.701	36001.03
724.044	35896.4
724.386	35648.27
724.729	35916.97
725.071	35723.75
725.413	35615.5
725.755	35626.35
726.097	35550.87
726.439	35415.28
726.782	35367.15
727.124	35501.38
727.465	35243.76
727.807	35282.41
728.149	35266.59
728.491	35146.14
728.833	35237.21
729.175	35052.13
729.516	34960.38
729.858	35023.66
730.199	35118.79
730.541	34915.86
730.882	34977.1
731.224	34916.31
731.565	34873.15
731.906	34661.18
732.248	34742.76
732.589	34673.16
732.93	34499.38
733.271	34542.99
733.612	34531.92
733.953	34507.74
734.294	34532.37
734.635	34359.72
734.976	34534.18
735.317	34295.09
735.658	34357.91
735.999	34249.21
736.339	34135.77
736.68	34282.88
737.021	34055.77
737.361	34080.4
737.702	34032.04
738.042	33930.35
738.383	33792.73
738.723	33981.65
739.063	33739.62
739.404	33825.72
739.744	33754.31
740.084	33609
740.424	33749.79
740.764	33460.98
741.104	33669.57
741.444	33468.89
741.784	33431.83
742.124	33502.11
742.464	33537.59
742.804	33300.99
743.143	33136.93
743.483	33291.27
743.823	33195.91
744.162	33163.14
744.502	33117.49
744.841	32945.07
745.181	33134.67
745.52	33077.94
745.86	33124.95
746.199	33018.74
746.538	32877.5
746.877	33003.14
747.216	32797.05
747.556	32781.68
747.895	32774.45
748.234	32687.67
748.573	32679.08
748.911	32602.48
749.25	32609.26
749.589	32450.16
749.928	32481.12
750.267	32506.66
750.605	32416.04
750.944	32330.17
751.283	32206.55
751.621	32255.59
751.96	32098.53
752.298	32101.47
752.636	32220.34
752.975	32001.36
753.313	31904.87
753.651	31954.81
753.989	31823.74
754.327	31761.37
754.666	31693.57
755.004	31721.82
755.342	31696.96
755.679	31526.12
756.017	31440.25
756.355	31587.36
756.693	31351.89
757.031	31436.41
757.368	31133.59
757.706	31155.96
758.044	31002.97
758.381	31020.82
758.719	30982.41
759.056	31027.6
759.394	30900.37
759.731	30660.83
760.068	30702.19
760.405	30580.16
760.743	30447.28
761.08	30593.94
761.417	30399.37
761.754	30375.19
762.091	30315.3
762.428	30092.71
762.765	30058.81
763.102	30145.59
763.438	29953.73
763.775	29874.86
764.112	29787.63
764.449	29726.62
764.785	29613.4
765.122	29418.38
765.458	29288.44
765.795	29256.12
766.131	29177.71
766.467	29250.25
766.804	29026.52
767.14	28877.38
767.476	28911.5
767.812	28628.8
768.148	28709.25
768.485	28473.32
768.821	28359.65
769.157	28452.53
769.492	28311.06
769.828	28398.74
770.164	28103.84
770.5	28029.49
770.836	28083.72
771.171	27851.19
771.507	27821.36
771.842	27503.85
772.178	27694.13
772.513	27548.37
772.849	27521.03
773.184	27383.18
773.519	27397.19
773.855	27156.74
774.19	27096.41
774.525	27094.37
774.86	26920.82
775.195	26813.02
775.53	26686.02
775.865	26677.21
776.2	26410.1
776.535	26322.64
776.87	26294.17
777.205	26243.77
777.539	25995.19
777.874	26176.2
778.209	25793.84
778.543	25856.66
778.878	25726.27
779.212	25724.24
779.547	25557.24
779.881	25670.91
780.215	25441.76
780.55	25478.82
780.884	25292.84
781.218	25124.03
781.552	25110.7
781.886	25044.93
782.22	24936.01
782.554	24764.26
782.888	24710.71
783.222	24621.89
783.556	24447.66
783.889	24374.22
784.223	24287.21
784.557	24164.96
784.89	24231.17
785.224	24029.37
785.557	23967.22
785.891	23865.08
786.224	23841.58
786.558	23801.58
786.891	23661.69
787.224	23541.92
787.557	23518.65
787.891	23550.51
788.224	23568.14
788.557	23322.49
788.89	23241.37
789.223	23216.96
789.556	23044.54
789.888	22963.41
790.221	22927.7
790.554	22770.19
790.887	22741.49
791.219	22630.76
791.552	22487.04
791.884	22460.82
792.217	22464.44
792.549	22402.07
792.882	22187.83
793.214	22170.89
793.546	22185.57
793.879	21981.74
794.211	21958.46
794.543	22005.01
794.875	21896.54
795.207	21970.67
795.539	21786.26
795.871	21756.89
796.203	21621.3
796.535	21497.91
796.867	21490.23
797.198	21378.59
797.53	21380.85
797.862	21206.84
798.193	21275.54
798.525	21052.27
798.856	21160.97
799.188	20998.04
799.519	20833.52
799.85	20805.5
800.182	20840.75
800.513	20787.19
800.844	20561.89
801.175	20689.34
801.506	20573.64
801.837	20599.63
802.168	20537.26
802.499	20436.24
802.83	20199.86
803.161	20233.76
803.491	20204.38
803.822	20185.4
804.153	19969.36
804.483	19958.51
804.814	19891.62
805.145	19891.17
805.475	19692.31
805.805	19746.09
806.136	19761.68
806.466	19792.64
806.796	19673.32
807.126	19472.43
807.457	19516.94
807.787	19374.8
808.117	19422.03
808.447	19281.02
808.777	19415.03
809.107	19227.01
809.436	19237.4
809.766	19205.09
810.096	19161.47
810.426	19023.62
810.755	19014.36
811.085	19078.09
811.414	18923.97
811.744	18846.23
812.073	18867.47
812.403	18890.52
812.732	18540.25
813.061	18641.49
813.39	18469.06
813.719	18491.43
814.049	18569.62
814.378	18412.79
814.707	18304.77
815.036	18357.43
815.365	18245.79
815.693	18176.41
816.022	18180.93
816.351	18166.25
816.68	17949.75
817.008	18098.45
817.337	17898.91
817.665	17938.23
817.994	17926.48
818.322	17892.35
818.651	17898.68
818.979	17753.38
819.307	17847.38
819.636	17678.8
819.964	17592.93
820.292	17673.38
820.62	17592.25
820.948	17615.07
821.276	17657.11
821.604	17676.31
821.932	17788.63
822.259	17659.14
822.587	17584.11
822.915	17665.69
823.243	17557.9
823.57	17417.11
823.898	17535.75
824.225	17443.1
824.553	17472.93
824.88	17521.74
825.207	17495.08
825.535	17510.9
825.862	17482.87
826.189	17488.52
826.516	17497.34
826.843	17537.11
827.17	17561.74
827.497	17606.03
827.824	17578.69
828.151	17593.83
828.478	17515.19
828.805	17522.87
829.131	17421.63
829.458	17452.14
829.785	17407.17
830.111	17431.58
830.438	17451.46
830.764	17475.64
831.09	17543.44
831.417	17412.59
831.743	17381.18
832.069	17437.9
832.395	17214.18
832.722	17481.29
833.048	17353.84
833.374	17392.93
833.7	17330.79
834.026	17311.35
834.351	17388.19
834.677	17337.79
835.003	17399.94
835.329	17283.78
835.654	17225.03
835.98	17115.43
836.306	17141.41
836.631	17110.45
836.956	17170.34
837.282	17161.3
837.607	17098.25
837.932	17010.57
838.258	17096.44
838.583	16963.34
838.908	16906.84
839.233	17001.08
839.558	17036.56
839.883	16817.58
840.208	16812.38
840.533	16787.75
840.858	16865.71
841.182	16879.27
841.507	16855.55
841.832	16645.38
842.156	16720.18
842.481	16708.88
842.805	16536.01
843.13	16503.46
843.454	16651.94
843.778	16524.71
844.103	16454.2
844.427	16393.86
844.751	16470.7
845.075	16363.36
845.399	16235
845.723	16300.53
846.047	16138.73
846.371	16017.38
846.695	16117.71
847.019	15966.08
847.343	15894.21
847.666	15758.63
847.99	15799.75
848.313	15752.52
848.637	15577.61
848.96	15542.59
849.284	15564.05
849.607	15374
849.931	15448.35
850.254	15340.11
850.577	15216.04
850.9	15127.46
851.223	15193.44
851.546	15108.92
851.869	14976.27
852.192	15002.71
852.515	14882.26
852.838	14878.65
853.161	14884.3
853.483	14739.44
853.806	14684.3
854.129	14703.96
854.451	14721.82
854.774	14465.1
855.096	14531.76
855.419	14391.43
855.741	14455.61
856.063	14449.51
856.385	14343.75
856.708	14319.57
857.03	14307.82
857.352	14333.58
857.674	14235.95
857.996	14151.21
858.318	14091.78
858.64	14106.47
858.961	14003.19
859.283	13932.91
859.605	13950.31
859.926	13886.36
860.248	13905.34
860.57	13845.68
860.891	13810.88
861.212	13744.44
861.534	13694.27
861.855	13751.22
862.176	13735.85
862.498	13668.51
862.819	13747.6
863.14	13559.59
863.461	13509.19
863.782	13508.51
864.103	13504.22
864.424	13517.33
864.745	13451.57
865.065	13514.16
865.386	13509.42
865.707	13419.7
866.027	13427.39
866.348	13368.18
866.668	13354.17
866.989	13261.52
867.309	13116.21
867.63	13294.96
867.95	13245.92
868.27	13166.83
868.59	13258.13
868.91	13133.84
869.23	13122.99
869.55	12957.57
869.87	13109.88
870.19	13081.86
870.51	13004.8
870.83	13038.92
871.15	12998.47
871.469	12963.44
871.789	12946.72
872.109	12988.75
872.428	12862.43
872.748	12911.24
873.067	12906.95
873.386	12875.54
873.706	12946.72
874.025	12737.91
874.344	12785.6
874.663	12779.49
874.982	12760.74
875.301	12752.38
875.62	12731.36
875.939	12663.79
876.258	12701.3
876.577	12652.49
876.896	12635.77
877.214	12587.86
877.533	12612.04
877.852	12630.8
878.17	12512.61
878.489	12612.49
878.807	12532.27
879.125	12517.58
879.444	12563.23
879.762	12542.44
880.08	12502.89
880.398	12320.3
880.716	12452.05
881.034	12256.12
881.352	12325.27
881.67	12338.83
881.988	12320.98
882.306	12287.53
882.624	12306.96
882.941	12147.42
883.259	12122.34
883.577	12138.83
883.894	12099.74
884.212	12061.32
884.529	12036.24
884.846	12026.07
885.164	12081.43
885.481	12012.06
885.798	12065.39
886.115	11909.01
886.432	11805.51
886.75	11838.73
887.067	11858.16
887.383	11816.13
887.7	11861.1
888.017	11650.03
888.334	11716.92
888.651	11582.46
888.967	11724.38
889.284	11600.99
889.6	11542.69
889.917	11512.64
890.233	11513.31
890.55	11453.88
890.866	11457.72
891.182	11372.98
891.498	11347.67
891.815	11285.3
892.131	11292.75
892.447	11334.79
892.763	11298.4
893.079	11205.98
893.395	11156.94
893.71	11123.27
894.026	11134.11
894.342	11018.41
894.657	11010.28
894.973	10875.14
895.289	10849.83
895.604	10952.88
895.92	10928.02
896.235	10886.44
896.55	10822.03
896.865	10816.38
897.181	10793.56
897.496	10688.02
897.811	10648.25
898.126	10687.57
898.441	10639.89
898.756	10601.25
899.071	10517.18
899.386	10568.25
899.7	10450.52
900.015	10408.94
900.33	10327.36
900.644	10384.3
900.959	10323.97
901.273	10286.68
901.588	10234.02
901.902	10207.81
902.216	10195.16
902.531	10130.07
902.845	10103.86
903.159	10086.68
903.473	10035.39
903.787	9984.99
904.101	9905.67
904.415	9985.22
904.729	9903.19
905.042	9904.77
905.356	9831.1
905.67	9794.71
905.984	9763.08
906.297	9728.95
906.611	9612.35
906.924	9683.3
907.237	9586.36
907.551	9535.96
907.864	9515.4
908.177	9494.61
908.491	9507.04
908.804	9403.76
909.117	9310.89
909.43	9317.44
909.743	9287.16
910.056	9251.9
910.368	9178.01
910.681	9147.05
910.994	9157.67
911.307	9087.39
911.619	9023.21
911.932	9053.49
912.244	8912.03
912.557	9025.92
912.869	8955.64
913.181	8883.1
913.494	8927.17
913.806	8847.62
914.118	8782.54
914.43	8736.21
914.742	8689.88
915.054	8651.24
915.366	8622.77
915.678	8576.22
915.99	8618.47
916.302	8533.05
916.613	8514.75
916.925	8453.96
917.236	8435.43
917.548	8326.73
917.859	8414.64
918.171	8293.51
918.482	8249.9
918.794	8237.92
919.105	8209.67
919.416	8215.09
919.727	8131.71
920.038	8114.76
920.349	8046.74
920.66	8069.11
920.971	7988.43
921.282	7992.95
921.593	7929.9
921.903	7921.54
922.214	7876.57
922.525	7828.44
922.835	7780.08
923.146	7711.83
923.456	7723.36
923.767	7705.73
924.077	7693.98
924.387	7602.68
924.697	7592.29
925.008	7575.56
925.318	7570.14
925.628	7510.03
925.938	7456.47
926.248	7404.27
926.558	7375.79
926.867	7361.78
927.177	7311.84
927.487	7248.57
927.796	7205.63
928.106	7229.36
928.416	7201.79
928.725	7209.02
929.034	7171.73
929.344	7131.51
929.653	7114.56
929.962	7028.01
930.271	6971.06
930.581	6944.39
930.89	6988.69
931.199	6876.82
931.508	6869.59
931.817	6855.13
932.125	6870.5
932.434	6814
932.743	6713.44
933.051	6688.81
933.36	6663.05
933.669	6638.41
933.977	6623.5
934.286	6623.95
934.594	6567
934.902	6574.69
935.21	6497.4
935.519	6557.51
935.827	6501.92
936.135	6435.48
936.443	6403.62
936.751	6363.39
937.059	6335.37
937.367	6342.38
937.674	6315.48
937.982	6341.02
938.29	6306.22
938.597	6294.92
938.905	6216.05
939.213	6160.01
939.52	6052.67
939.827	6159.1
940.135	6091.31
940.442	6070.52
940.749	6053.12
941.056	6078.43
941.363	5949.84
941.67	5980.58
941.977	5917.75
942.284	5900.13
942.591	5873.91
942.898	5853.57
943.205	5817.64
943.511	5789.17
943.818	5838.43
944.125	5755.72
944.431	5746.46
944.738	5721.37
945.044	5641.15
945.35	5638.21
945.657	5617.87
945.963	5618.33
946.269	5566.58
946.575	5577.42
946.881	5572.45
947.187	5489.06
947.493	5451.55
947.799	5494.04
948.105	5438.67
948.41	5404.1
948.716	5428.95
949.022	5402.51
949.327	5342.4
949.633	5319.35
949.938	5277.54
950.244	5314.15
950.549	5268.05
950.854	5253.82
951.16	5168.62
951.465	5186.93
951.77	5138.34
952.075	5155.51
952.38	5118.68
952.685	5103.99
952.99	5039.81
953.294	5046.14
953.599	4964.78
953.904	5023.54
954.209	4979.25
954.513	5019.92
954.818	4982.41
955.122	4883.2
955.426	4882.75
955.731	4899.93
956.035	4849.99
956.339	4877.56
956.643	4807.95
956.948	4838.23
957.252	4806.14
957.556	4789.42
957.86	4777.9
958.163	4750.55
958.467	4649.76
958.771	4681.18
959.075	4613.83
959.378	4604.79
959.682	4636.88
959.985	4593.27
960.289	4580.84
960.592	4548.3
960.896	4522.99
961.199	4482.76
961.502	4461.07
961.805	4450
962.108	4435.53
962.411	4402.09
962.714	4379.04
963.017	4397.12
963.32	4363.22
963.623	4334.52
963.926	4354.86
964.228	4324.58
964.531	4270.11
964.833	4317.34
965.136	4257.68
965.438	4225.14
965.741	4238.93
966.043	4186.05
966.345	4150.57
966.648	4172.04
966.95	4158.7
967.252	4127.07
967.554	4161.64
967.856	4069.22
968.158	4056.56
968.46	4033.28
968.761	4002.55
969.063	4015.66
969.365	3994.19
969.666	3977.47
969.968	3972.04
970.269	3937.02
970.571	3913.51
970.872	3954.19
971.174	3855.66
971.475	3864.02
971.776	3806.62
972.077	3803.69
972.378	3824.93
972.679	3829.45
972.98	3814.76
973.281	3799.39
973.582	3763.46
973.883	3751.94
974.183	3705.38
974.484	3743.35
974.785	3637.59
975.085	3669.23
975.386	3651.82
975.686	3624.71
975.986	3647.76
976.287	3623.8
976.587	3588.55
976.887	3569.57
977.187	3522.56
977.487	3516.24
977.787	3529.57
978.087	3495.44
978.387	3496.8
978.687	3496.12
978.987	3490.02
979.286	3492.73
979.586	3405.05
979.885	3396.46
980.185	3367.31
980.484	3369.12
980.784	3392.17
981.083	3351.72
981.382	3357.37
981.682	3369.12
981.981	3287.54
982.28	3306.52
982.579	3293.87
982.878	3252.97
983.177	3253.42
983.475	3243.93
983.774	3215
984.073	3205.06
984.372	3218.84
984.67	3151.27
984.969	3205.06
985.267	3125.96
985.566	3132.29
985.864	3120.09
986.162	3097.72
986.461	3097.94
986.759	3101.78
987.057	3032.18
987.355	3041.67
987.653	3039.41
987.951	3011.16
988.249	3017.94
988.547	2967.78
988.844	2982.01
989.142	2935.01
989.44	2941.79
989.737	2923.26
990.035	2940.43
990.332	2910.38
990.63	2905.86
990.927	2872.64
991.224	2857.5
991.521	2841.68
991.819	2833.77
992.116	2839.42
992.413	2788.8
992.71	2812.52
993.006	2783.83
993.303	2761.45
993.6	2772.07
993.897	2732.08
994.193	2738.18
994.49	2700.44
994.787	2729.82
995.083	2681
995.379	2668.8
995.676	2659.76
995.972	2630.83
996.268	2644.62
996.565	2666.31
996.861	2599.2
997.157	2570.27
997.453	2600.78
997.749	2581.8
998.044	2543.38
998.34	2561.46
998.636	2526.2
998.932	2539.76
999.227	2500.44
999.523	2496.83
999.818	2474.45
1000.114	2442.37
1000.409	2429.71
1000.704	2437.39
1001	2422.93
1001.295	2415.47
1001.59	2360.11
1001.885	2410.95
1002.18	2382.03
1002.475	2357.17
1002.77	2402.14
1003.065	2359.2
1003.359	2325.98
1003.654	2323.5
1003.949	2337.74
1004.243	2307.23
1004.538	2241.69
1004.832	2250.96
1005.127	2262.26
1005.421	2261.8
1005.715	2249.6
1006.009	2178.64
1006.304	2178.42
1006.598	2189.26
1006.892	2180.23
1007.186	2156.95
1007.48	2156.5
1007.773	2126.89
1008.067	2124.41
1008.361	2089.38
1008.655	2087.8
1008.948	2066.78
1009.242	2092.09
1009.535	2065.43
1009.829	2044.86
1010.122	2041.25
1010.415	2048.25
1010.708	2016.16
1011.001	1981.59
1011.295	1974.81
1011.588	1964.64
1011.881	1963.28
1012.173	1960.34
1012.466	1928.71
1012.759	1930.74
1013.052	1948.82
1013.344	1928.48
1013.637	1927.12
1013.93	1914.02
1014.222	1893.91
1014.514	1859.1
1014.807	1852.1
1015.099	1842.61
1015.391	1854.81
1015.683	1814.81
1015.976	1780.69
1016.268	1800.12
1016.56	1782.04
1016.851	1793.57
1017.143	1790.18
1017.435	1742.5
1017.727	1777.07
1018.018	1742.04
1018.31	1759.9
1018.602	1717.64
1018.893	1703.85
1019.185	1657.98
1019.476	1685.32
1019.767	1665.44
1020.058	1644.87
1020.35	1648.94
1020.641	1620.69
1020.932	1616.17
1021.223	1569.85
1021.514	1622.5
1021.804	1613.01
1022.095	1581.82
1022.386	1562.61
1022.677	1530.52
1022.967	1544.76
1023.258	1544.76
1023.548	1544.99
1023.839	1529.85
1024.129	1522.62
1024.419	1457.08
1024.709	1470.64
1025	1443.97
1025.29	1475.16
1025.58	1441.26
1025.87	1447.14
1026.16	1436.97
1026.449	1436.06
1026.739	1408.27
1027.029	1408.04
1027.319	1396.52
1027.608	1397.19
1027.898	1379.57
1028.187	1349.74
1028.477	1351.77
1028.766	1354.03
1029.055	1343.19
1029.344	1303.19
1029.634	1311.1
1029.923	1323.98
1030.212	1308.61
1030.501	1300.02
1030.79	1301.6
1031.078	1279.23
1031.367	1237.65
1031.656	1271.55
1031.945	1262.96
1032.233	1232.23
1032.522	1236.52
1032.81	1230.19
1033.099	1222.28
1033.387	1201.49
1033.675	1206.69
1033.963	1187.26
1034.251	1203.3
1034.54	1167.37
1034.828	1163.75
1035.116	1150.65
1035.403	1147.03
1035.691	1135.28
1035.979	1111.1
1036.267	1137.54
1036.554	1134.6
1036.842	1133.92
1037.129	1111.33
1037.417	1096.19
1037.704	1067.71
1037.992	1086.47
1038.279	1074.94
1038.566	1059.12
1038.853	1059.12
1039.14	1059.12
