Data from red_shiny_book_FLMS001491_00001.txt Node
Date: Wed Feb 08 15:23:33 GMT 2017
User: dcchb
Spectrometer: FLMS00149
Trigger mode: 0
Integration Time (sec): 2.000000E-2
Scans to average: 10
Electric dark correction enabled: true
Nonlinearity correction enabled: false
Boxcar width: 0
XAxis mode: Wavelengths
Number of Pixels in Spectrum: 2048
>>>>>Begin Spectral Data<<<<<
341.393	-1.4
341.776	-1.4
342.16	-1.4
342.543	-71.9
342.927	-64.45
343.31	-45.24
343.693	-68.06
344.077	-66.26
344.46	-51.57
344.843	-45.69
345.226	-75.97
345.61	-36.88
345.993	-1.85
346.376	-20.61
346.759	11.93
347.142	25.49
347.525	52.84
347.908	67.07
348.291	75.44
348.674	89.45
349.057	89.9
349.44	140.52
349.823	150.24
350.206	161.54
350.588	217.35
350.971	227.75
351.354	237.69
351.737	232.04
352.119	261.87
352.502	263.45
352.884	295.09
353.267	309.33
353.65	301.64
354.032	318.82
354.414	330.8
354.797	332.83
355.179	355.2
355.562	323.79
355.944	343.23
356.326	364.24
356.709	351.36
357.091	357.01
357.473	342.32
357.855	348.88
358.238	350.91
358.62	362.21
359.002	355.2
359.384	334.19
359.766	339.61
360.148	352.72
360.53	343.68
360.912	373.73
361.294	345.03
361.676	355.2
362.057	350.91
362.439	346.39
362.821	355.88
363.203	356.56
363.584	321.98
363.966	337.8
364.348	315.88
364.729	339.84
365.111	330.8
365.493	325.6
365.874	321.53
366.256	339.61
366.637	324.24
367.019	318.59
367.4	326.28
367.781	324.47
368.163	310.46
368.544	317.46
368.925	333.96
369.306	343.23
369.688	327.63
370.069	335.99
370.45	331.47
370.831	334.41
371.212	334.19
371.593	334.64
371.974	332.6
372.355	305.94
372.736	343
373.117	331.47
373.498	342.32
373.879	329.67
374.26	332.83
374.641	339.61
375.021	338.48
375.402	344.58
375.783	337.8
376.163	354.98
376.544	348.42
376.925	345.03
377.305	336.67
377.686	348.65
378.066	354.98
378.447	332.83
378.827	345.26
379.208	360.17
379.588	341.64
379.968	351.13
380.349	353.39
380.729	372.6
381.109	354.07
381.489	347.29
381.87	362.21
382.25	365.37
382.63	359.27
383.01	363.79
383.39	368.08
383.77	373.73
384.15	352.04
384.53	373.51
384.91	359.95
385.29	377.35
385.67	396.56
386.049	393.85
386.429	372.83
386.809	368.54
387.189	381.19
387.568	378.93
387.948	380.29
388.328	392.26
388.707	393.62
389.087	380.74
389.466	381.19
389.846	392.94
390.225	386.84
390.605	393.17
390.984	397.01
391.363	395.65
391.743	388.2
392.122	398.14
392.501	390.46
392.881	425.71
393.26	409.21
393.639	399.95
394.018	437.46
394.397	412.6
394.776	400.85
395.155	416.67
395.534	409.44
395.913	428.65
396.292	434.3
396.671	426.84
397.05	422.32
397.429	437.91
397.808	430.91
398.186	412.38
398.565	436.78
398.944	401.98
399.323	418.03
399.701	444.92
400.08	428.42
400.458	418.7
400.837	437.23
401.215	448.31
401.594	448.99
401.972	450.57
402.351	442.43
402.729	443.11
403.107	451.92
403.486	448.31
403.864	462.77
404.242	463.9
404.62	454.18
404.999	456.67
405.377	456.44
405.755	489.44
406.133	485.82
406.511	472.71
406.889	490.11
407.267	500.74
407.645	493.28
408.023	494.86
408.401	492.83
408.779	495.54
409.156	476.78
409.534	497.12
409.912	517.91
410.29	516.33
410.667	544.12
411.045	516.55
411.422	530.11
411.8	523.79
412.178	535.76
412.555	547.06
412.933	528.31
413.31	542.54
413.687	541.64
414.065	579.83
414.442	572.82
414.819	548.64
415.197	576.44
415.574	591.13
415.951	579.6
416.328	583.22
416.705	576.44
417.082	597
417.46	593.39
417.837	591.35
418.214	594.52
418.591	617.12
418.967	606.04
419.344	596.55
419.721	631.13
420.098	603.33
420.475	597.68
420.852	637.45
421.228	623.22
421.605	646.27
421.982	641.3
422.358	651.69
422.735	669.32
423.111	659.6
423.488	673.61
423.864	659.15
424.241	677.68
424.617	684.23
424.994	676.32
425.37	674.52
425.746	707.96
426.123	698.24
426.499	700.28
426.875	709.77
427.251	732.37
427.627	730.56
428.003	745.7
428.379	717.68
428.756	702.99
429.132	724.01
429.507	712.71
429.883	729.66
430.259	745.93
430.635	749.77
431.011	775.08
431.387	781.63
431.763	794.29
432.138	799.26
432.514	799.03
432.89	804.23
433.265	785.02
433.641	790.45
434.016	832.25
434.392	803.33
434.767	811.24
435.143	828.86
435.518	854.85
435.894	870.9
436.269	867.51
436.644	877
437.02	883.55
437.395	864.57
437.77	860.5
438.145	872.7
438.52	863.44
438.895	881.74
439.271	876.09
439.646	912.02
440.021	930.78
440.395	893.72
440.77	906.83
441.145	937.33
441.52	982.3
441.895	940.95
442.27	931.01
442.645	905.47
443.019	949.09
443.394	920.84
443.769	968.07
444.143	940.5
444.518	985.47
444.892	979.37
445.267	996.09
445.641	1001.74
446.016	999.48
446.39	995.64
446.764	1003.55
447.139	986.15
447.513	973.72
447.887	974.62
448.262	988.18
448.636	994.73
449.01	1021.17
449.384	1049.2
449.758	1068.86
450.132	1076.77
450.506	1070.66
450.88	1050.78
451.254	1025.47
451.628	1045.58
452.002	1046.94
452.376	1018.24
452.75	1039.48
453.123	1064.34
453.497	1077.9
453.871	1106.82
454.244	1129.19
454.618	1162.86
454.992	1136.65
455.365	1146.82
455.739	1169.87
456.112	1147.95
456.486	1121.96
456.859	1143.2
457.232	1126.26
457.606	1134.84
457.979	1133.94
458.352	1159.7
458.725	1159.93
459.099	1219.81
459.472	1225.91
459.845	1256.65
460.218	1248.96
460.591	1271.34
460.964	1238.12
461.337	1243.09
461.71	1217.55
462.083	1251
462.456	1218.23
462.829	1263.2
463.201	1278.57
463.574	1272.24
463.947	1317.21
464.32	1375.29
464.692	1382.52
465.065	1378.45
465.438	1376.64
465.81	1380.94
466.183	1403.54
466.555	1387.94
466.928	1323.09
467.3	1365.8
467.672	1346.59
468.045	1373.93
468.417	1403.54
468.789	1413.48
469.161	1449.41
469.534	1484.66
469.906	1544.32
470.278	1561.27
470.65	1557.88
471.022	1549.3
471.394	1592.68
471.766	1556.75
472.138	1524.21
472.51	1533.48
472.882	1561.95
473.253	1587.03
473.625	1605.34
473.997	1622.74
474.369	1666.13
474.74	1671.78
475.112	1763.08
475.484	1812.57
475.855	1843.75
476.227	1812.11
476.598	1857.76
476.97	1806.92
477.341	1836.29
477.713	1811.66
478.084	1823.86
478.455	1845.56
478.827	1866.12
479.198	1922.17
479.569	1948.15
479.94	2023.18
480.311	2090.07
480.682	2140.92
481.053	2157.87
481.424	2196.51
481.795	2187.02
482.166	2196.74
482.537	2225.89
482.908	2224.08
483.279	2184.53
483.65	2187.02
484.021	2232.89
484.391	2278.09
484.762	2291.87
485.133	2376.62
485.503	2434.02
485.874	2524.64
486.244	2581.81
486.615	2671.75
486.985	2676.72
487.356	2741.35
487.726	2721.24
488.097	2703.39
488.467	2679.89
488.837	2688.47
489.207	2662.03
489.578	2682.6
489.948	2731.19
490.318	2755.59
490.688	2815.25
491.058	2903.38
491.428	2974.34
491.798	3089.59
492.168	3149.48
492.538	3186.31
492.908	3220.21
493.278	3230.61
493.648	3199.87
494.017	3221.57
494.387	3165.52
494.757	3128.91
495.126	3164.39
495.496	3119.42
495.866	3164.85
496.235	3237.84
496.605	3269.02
496.974	3384.05
497.344	3438.29
497.713	3532.07
498.082	3556.7
498.452	3616.13
498.821	3631.27
499.19	3618.39
499.559	3627.43
499.928	3556.02
500.298	3518.74
500.667	3528
501.036	3433.09
501.405	3473.09
501.774	3492.3
502.143	3495.01
502.512	3562.8
502.88	3677.15
503.249	3744.27
503.618	3791.95
503.987	3856.81
504.356	3895.67
504.724	3933.41
505.093	3929.35
505.462	3913.3
505.83	3856.58
506.199	3847.09
506.567	3836.92
506.936	3736.58
507.304	3706.75
507.672	3702.46
508.041	3747.43
508.409	3754.21
508.777	3833.98
509.145	3920.31
509.514	3976.35
509.882	4053.64
510.25	4110.13
510.618	4178.15
510.986	4206.4
511.354	4210.24
511.722	4193.29
512.09	4128.89
512.458	4044.6
512.826	3995.78
513.193	3943.13
513.561	3926.18
513.929	3899.52
514.297	3943.36
514.664	3979.06
515.032	4035.78
515.4	4163.24
515.767	4208.43
516.135	4307.19
516.502	4333.4
516.869	4473.96
517.237	4442.55
517.604	4419.5
517.972	4424.7
518.339	4359.17
518.706	4305.16
519.073	4255.66
519.44	4173.18
519.808	4131.6
520.175	4130.24
520.542	4114.43
520.909	4100.19
521.276	4214.54
521.643	4257.02
522.009	4425.15
522.376	4548.76
522.743	4573.85
523.11	4749.89
523.477	4795.54
523.843	4831.24
524.21	4810.9
524.577	4811.36
524.943	4768.87
525.31	4687.97
525.676	4690.68
526.043	4598.25
526.409	4478.26
526.776	4558.93
527.142	4529.1
527.508	4562.78
527.874	4617.24
528.241	4713.73
528.607	4824.69
528.973	4950.56
529.339	5080.28
529.705	5195.53
530.071	5360.27
530.437	5408.85
530.803	5309.65
531.169	5359.14
531.535	5319.59
531.901	5277.33
532.267	5197.11
532.632	5158.24
532.998	5106.72
533.364	5064.68
533.73	5017.68
534.095	5061.29
534.461	5118.02
534.826	5190.1
535.192	5273.94
535.557	5438.01
535.923	5540.15
536.288	5657.89
536.653	5786.7
537.019	5856.3
537.384	5972.23
537.749	6002.29
538.114	5931.78
538.479	5905.79
538.845	5832.8
539.21	5678.23
539.575	5678.23
539.94	5602.75
540.305	5550.32
540.67	5483.2
541.034	5514.61
541.399	5588.96
541.764	5645.46
542.129	5790.77
542.494	5907.6
542.858	6035.28
543.223	6140.59
543.587	6303.52
543.952	6371.09
544.316	6482.27
544.681	6483.18
545.045	6497.19
545.41	6469.17
545.774	6434.59
546.138	6327.02
546.503	6275.95
546.867	6161.15
547.231	6092.45
547.595	6009.97
547.959	6003.87
548.324	5957.77
548.688	5992.79
549.052	6116.41
549.416	6169.06
549.779	6227.59
550.143	6472.1
550.507	6633.46
550.871	6710.52
551.235	6830.06
551.599	6827.35
551.962	6855.82
552.326	6860.34
552.689	6869.61
553.053	6764.98
553.417	6691.31
553.78	6628.71
554.143	6510.75
554.507	6404.53
554.87	6344.65
555.234	6289.51
555.597	6261.71
555.96	6269.17
556.323	6323.41
556.686	6395.72
557.05	6499.67
557.413	6602.95
557.776	6770.63
558.139	6947.12
558.502	6995.25
558.865	7193.21
559.228	7246.77
559.59	7324.96
559.953	7294.91
560.316	7331.29
560.679	7233.44
561.041	7108.02
561.404	7065.99
561.767	6927.69
562.129	6790.06
562.492	6713.23
562.854	6675.26
563.217	6661.25
563.579	6615.83
563.941	6731.08
564.304	6843.17
564.666	6961.81
565.028	7164.97
565.39	7254.68
565.753	7482.02
566.115	7507.1
566.477	7626.88
566.839	7747.55
567.201	7834.33
567.563	7836.36
567.925	7816.7
568.287	7792.3
568.648	7685.86
569.01	7604.5
569.372	7523.83
569.734	7332.42
570.095	7301.69
570.457	7228.47
570.819	7206.32
571.18	7122.03
571.542	7224.85
571.903	7247
572.265	7393.89
572.626	7562.47
572.987	7645.86
573.349	7908.68
573.71	8093.76
574.071	8212.17
574.432	8482.22
574.794	8535.1
575.155	8699.84
575.516	8672.05
575.877	8735.1
576.238	8768.54
576.599	8741.42
576.96	8761.08
577.32	8604.48
577.681	8547.08
578.042	8593.18
578.403	8542.78
578.763	8527.64
579.124	8614.19
579.485	8754.53
579.845	8895.99
580.206	9089.66
580.566	9290.11
580.927	9650.1
581.287	9994.72
581.648	10269.29
582.008	10670.86
582.368	11020.23
582.728	11380.22
583.089	11585.64
583.449	11916.93
583.809	12297.26
584.169	12479.63
584.529	12668.78
584.889	13009.11
585.249	13129.1
585.609	13385.37
585.969	13591.24
586.329	13813.15
586.688	14108.51
587.048	14379.01
587.408	14728.38
587.768	15172.44
588.127	15620.79
588.487	16027.11
588.846	16756.35
589.206	17122.45
589.565	17740.73
589.925	18519.92
590.284	19034.03
590.643	19702.49
591.003	20246.66
591.362	20909.24
591.721	21419.51
592.08	21964.58
592.44	22527.05
592.799	22954.38
593.158	23428.04
593.517	23736.96
593.876	24159.77
594.235	24546.43
594.593	24978.28
594.952	25314.55
595.311	25768.77
595.67	26086.5
596.029	26781.4
596.387	27265.46
596.746	27950.18
597.104	28254.81
597.463	28884.85
597.822	29525.51
598.18	30191.48
598.538	30695.42
598.897	31580.37
599.255	31949.85
599.613	32901.24
599.972	33336.03
600.33	33978.95
600.688	34254.88
601.046	34927.85
601.404	35322.87
601.762	35643.77
602.12	36251.89
602.478	36377.98
602.836	36923.73
603.194	36916.28
603.552	37145.2
603.91	37364.17
604.268	37907.44
604.625	38058.39
604.983	38582.9
605.341	38665.61
605.698	39266.5
606.056	39822.19
606.413	40089.3
606.771	40794.14
607.128	41124.07
607.485	41489.71
607.843	41968.8
608.2	42522.46
608.557	43078.6
608.914	43254.41
609.272	43855.75
609.629	44153.37
609.986	44672
610.343	44552.23
610.7	45026.12
611.057	45241.25
611.414	45322.83
611.771	45412.32
612.127	45577.97
612.484	45671.75
612.841	45658.19
613.198	45723.28
613.554	45867.23
613.911	46134.79
614.267	46144.28
614.624	46289.81
614.98	46616.36
615.337	47007.76
615.693	47037.36
616.05	47453.17
616.406	47802.77
616.762	47896.33
617.118	48171.8
617.475	48231.46
617.831	48682.29
618.187	48847.94
618.543	49102.85
618.899	49382.84
619.255	49411.09
619.611	49397.75
619.967	49670.06
620.323	49768.59
620.678	49587.35
621.034	49461.03
621.39	49349.39
621.746	49357.98
622.101	49738.99
622.457	49378.09
622.812	49451.54
623.168	49512.1
623.523	49534.02
623.879	49766.56
624.234	49423.74
624.589	49870.06
624.945	49914.13
625.3	50016.95
625.655	50102.14
626.01	50260.33
626.365	50420.78
626.72	50535.58
627.075	50648.12
627.43	50796.14
627.785	50837.26
628.14	50962.23
628.495	51114.32
628.85	51017.6
629.205	50982.8
629.559	51141.89
629.914	51004.27
630.269	50946.19
630.623	50785.06
630.978	50671.62
631.332	50708.68
631.687	50643.15
632.041	50464.85
632.396	50401.12
632.75	50299.43
633.104	50270.5
633.459	50151.63
633.813	50214.23
634.167	50137.17
634.521	50270.73
634.875	50346.2
635.229	50434.56
635.583	50323.83
635.937	50513.88
636.291	50523.37
636.645	50711.84
636.999	50704.39
637.352	50795.46
637.706	50599.08
638.06	50841.56
638.413	50746.87
638.767	50652.19
639.121	50725.18
639.474	50545.97
639.828	50535.35
640.181	50593.2
640.534	50503.71
640.888	50316.37
641.241	50105.76
641.594	49934.69
641.947	50035.7
642.301	49906.22
642.654	49910.96
643.007	49749.16
643.36	49722.27
643.713	49594.13
644.066	49786.9
644.419	49517.98
644.771	49417.19
645.124	49059.01
645.477	49132
645.83	48899.69
646.182	48934.04
646.535	48985.11
646.888	49214.71
647.24	49090.42
647.593	49472.33
647.945	49224.43
648.298	49170.42
648.65	49136.97
649.002	48981.95
649.355	49178.33
649.707	48997.09
650.059	49075.05
650.411	49443.4
650.763	49421.93
651.115	49642.49
651.467	49396.17
651.819	49270.75
652.171	49134.48
652.523	49056.07
652.875	48841.39
653.227	48617.44
653.578	48907.6
653.93	48783.53
654.282	48588.96
654.633	48631.45
654.985	48578.57
655.337	48744.89
655.688	48704.44
656.039	49025.56
656.391	48746.25
656.742	49014.94
657.094	49083.19
657.445	49315.95
657.796	49290.86
658.147	49254.93
658.498	49331.09
658.849	49499.9
659.2	49398.66
659.551	49249.96
659.902	49392.56
660.253	49264.42
660.604	49277.31
660.955	49111.89
661.306	49196.18
661.656	48902.17
662.007	48841.61
662.358	48756.19
662.708	48573.82
663.059	48402.75
663.409	48213.15
663.76	48417.22
664.11	48307.84
664.461	48361.17
664.811	48151.23
665.161	48237.56
665.511	48111.91
665.862	48186.71
666.212	48396.2
666.562	48462.64
666.912	48518.91
667.262	48434.62
667.612	48556.2
667.962	48659.92
668.312	48651.11
668.662	48863.31
669.011	48838
669.361	48876.86
669.711	48912.12
670.06	48841.39
670.41	48738.34
670.76	48722.29
671.109	48859.01
671.459	48690.88
671.808	48429.87
672.157	48584.67
672.507	48202.76
672.856	48175.19
673.205	48249.76
673.554	48120.5
673.904	47844.58
674.253	48028.53
674.602	47802.09
674.951	47191.94
675.3	46920.76
675.649	47598.71
675.998	47399.39
676.346	47515.77
676.695	47680.96
677.044	47351.25
677.393	47598.25
677.741	47707.86
678.09	47610.68
678.438	47682.32
678.787	47878.92
679.135	47815.65
679.484	47675.09
679.832	47979.26
680.181	47802.54
680.529	47935.19
680.877	47902.88
681.225	47771.36
681.573	48049.54
681.922	47747.18
682.27	47621.98
682.618	47478.03
682.966	47540.85
683.314	47577.46
683.661	47384.93
684.009	47118.94
684.357	46816.35
684.705	46715.34
685.053	46643.93
685.4	46502.46
685.748	46283.49
686.095	46195.35
686.443	45976.83
686.79	45930.28
687.138	45966.21
687.485	45893.89
687.832	45800.79
688.18	45794.23
688.527	45637.63
688.874	45743.39
689.221	45704.07
689.568	45554.24
689.915	45717.4
690.262	45842.59
690.609	45718.3
690.956	45760.34
691.303	45862.71
691.65	45575.93
691.997	45720.34
692.344	45385.2
692.69	45433.79
693.037	45526.67
693.383	45232.89
693.73	45401.48
694.077	45133.69
694.423	45135.27
694.769	44701.61
695.116	44625
695.462	44430.65
695.808	44312.24
696.155	44235.63
696.501	43795.87
696.847	43719.71
697.193	43353.17
697.539	43301.19
697.885	42987.98
698.231	42856.68
698.577	42845.84
698.923	42727.65
699.269	42627.54
699.614	42472.29
699.96	42325.4
700.306	42378.73
700.651	42318.62
700.997	42213.99
701.342	42165.85
701.688	42348
702.033	42181
702.379	42296.47
702.724	42295.57
703.069	42428.22
703.415	41952.07
703.76	41967.44
704.105	42324.95
704.45	42145.29
704.795	41819.2
705.14	41932.19
705.485	41840.21
705.83	41576.04
706.175	41694.45
706.52	41494.91
706.865	41277.52
707.209	41253.79
707.554	40884.31
707.899	40876.85
708.243	40616.29
708.588	40519.8
708.932	40142.18
709.277	40136.3
709.621	40041.84
709.966	39719.59
710.31	39836.2
710.654	39397.79
710.998	39346.27
711.342	39337.23
711.687	39166.16
712.031	39118.7
712.375	38957.58
712.719	39102.66
713.063	38988.31
713.407	39120.28
713.75	39037.12
714.094	39045.26
714.438	39001.64
714.782	39127.97
715.125	38969.33
715.469	39243.9
715.812	39047.29
716.156	38922.55
716.499	39000.29
716.843	39133.84
717.186	38863.34
717.53	39144.69
717.873	39064.24
718.216	38977.92
718.559	38705.83
718.902	38533.63
719.246	38509.91
719.589	38328.67
719.932	38147.2
720.275	38029.01
720.617	37922.35
720.96	37673.54
721.303	37612.08
721.646	37560.55
721.989	37252.09
722.331	37335.93
722.674	37092.32
723.016	37096.84
723.359	36951.98
723.701	36965.54
724.044	36799.44
724.386	36490.52
724.729	36671.54
725.071	36599.9
725.413	36489.85
725.755	36534.36
726.097	36441.03
726.439	36429.28
726.782	36430.86
727.124	36625.66
727.465	36618.66
727.807	36520.13
728.149	36544.08
728.491	36561.26
728.833	36657.75
729.175	36539.34
729.516	36540.24
729.858	36520.58
730.199	36493.91
730.541	36432.22
730.882	36499.56
731.224	36668.15
731.565	36210.53
731.906	36250.3
732.248	36304.31
732.589	35869.07
732.93	35918.79
733.271	35720.83
733.612	35633.14
733.953	35614.39
734.294	35327.84
734.635	35342.53
734.976	35266.83
735.317	34917.68
735.658	34917.23
735.999	34895.31
736.339	34782.55
736.68	34752.72
737.021	34640.18
737.361	34370.35
737.702	34550.24
738.042	34410.35
738.383	34360.86
738.723	34413.29
739.063	34364.93
739.404	34513.63
739.744	34362.44
740.084	34351.37
740.424	34514.08
740.764	34386.4
741.104	34627.3
741.444	34463.91
741.784	34458.49
742.124	34675.66
742.464	34556.34
742.804	34582.78
743.143	34636.34
743.483	34570.8
743.823	34496.23
744.162	34338.49
744.502	34498.26
744.841	34327.64
745.181	34389.11
745.52	34282.67
745.86	34118.83
746.199	34083.58
746.538	34013.3
746.877	34014.43
747.216	33859.18
747.556	33640.66
747.895	33501.9
748.234	33501.45
748.573	33256.71
748.911	33145.75
749.25	33068.69
749.589	32808.59
749.928	32761.36
750.267	32785.54
750.605	32631.87
750.944	32547.8
751.283	32372.67
751.621	32414.92
751.96	32239.79
752.298	32309.62
752.636	32239.56
752.975	32090.87
753.313	32158.21
753.651	32283.4
753.989	32226
754.327	32066.01
754.666	31998.44
755.004	32123.18
755.342	32193.46
755.679	32165.67
756.017	32003.86
756.355	32083.18
756.693	32033.24
757.031	32139
757.368	31936.07
757.706	31992.11
758.044	31883.87
758.381	31874.15
758.719	31677.54
759.056	31682.74
759.394	31572.23
759.731	31442.52
760.068	31336.53
760.405	31212.47
760.743	31036.88
761.08	30955.98
761.417	30677.57
761.754	30604.35
762.091	30611.36
762.428	30357.35
762.765	30109.9
763.102	30205.27
763.438	29894.31
763.775	29683.24
764.112	29680.08
764.449	29651.16
764.785	29512.63
765.122	29316.7
765.458	29175.91
765.795	28999.42
766.131	28971.85
766.467	29014.79
766.804	28912.64
767.14	28760.78
767.476	28889.59
767.812	28779.77
768.148	28814.79
768.485	28695.25
768.821	28644.4
769.157	28642.37
769.492	28611.41
769.828	28700.45
770.164	28440.79
770.5	28421.58
770.836	28556.27
771.171	28321.02
771.507	28258.65
771.842	27994.7
772.178	28118.77
772.513	28002.39
772.849	27941.6
773.184	27774.82
773.519	27831.09
773.855	27668.16
774.19	27485.34
774.525	27449.63
774.86	27427.49
775.195	27192.01
775.53	27083.77
775.865	26905.92
776.2	26738.01
776.535	26502.54
776.87	26418.47
777.205	26205.37
777.539	26019.61
777.874	25996.56
778.209	25664.82
778.543	25648.55
778.878	25470.7
779.212	25450.81
779.547	25190.93
779.881	25362
780.215	25043.59
780.55	25160.88
780.884	25005.4
781.218	24985.97
781.552	24895.8
781.886	24726.09
782.22	24701
782.554	24576.49
782.888	24463.27
783.222	24481.12
783.556	24439.32
783.889	24418.3
784.223	24278.87
784.557	24248.13
784.89	24405.87
785.224	24305.53
785.557	24294.46
785.891	24158.87
786.224	24092.21
786.558	24217.4
786.891	24011.3
787.224	23978.31
787.557	23925.2
787.891	23741.93
788.224	23754.81
788.557	23748.26
788.89	23723.4
789.223	23571.32
789.556	23452.22
789.888	23290.42
790.221	23196.86
790.554	22990.77
790.887	22990.31
791.219	22797.32
791.552	22767.49
791.884	22661.96
792.217	22527.95
792.549	22310.33
792.882	22218.36
793.214	22000.06
793.546	22063.11
793.879	21718.93
794.211	21658.82
794.543	21736.34
794.875	21626.28
795.207	21641.87
795.539	21438.72
795.871	21562.1
796.203	21219.74
796.535	21241.43
796.867	21208.44
797.198	21082.34
797.53	21113.3
797.862	20954.89
798.193	21075.56
798.525	20878.96
798.856	21085.5
799.188	20773.87
799.519	20873.08
799.85	20735.01
800.182	20830.37
800.513	20890.26
800.844	20583.37
801.175	20844.61
801.506	20847.32
801.837	20676.02
802.168	20621.34
802.499	20539.3
802.83	20481.45
803.161	20473.54
803.491	20477.16
803.822	20385.18
804.153	20256.37
804.483	20111.52
804.814	20094.12
805.145	20078.53
805.475	20036.94
805.805	19911.52
806.136	19936.61
806.466	19785.88
806.796	19741.81
807.126	19540.46
807.457	19467.92
807.787	19367.58
808.117	19411.2
808.447	19338.88
808.777	19313.35
809.107	19137.53
809.436	19088.27
809.766	18994.03
810.096	18924.43
810.426	18737.09
810.755	18778.9
811.085	18595.17
811.414	18626.59
811.744	18470.88
812.073	18468.17
812.403	18406.03
812.732	18313.6
813.061	18343.88
813.39	18270.66
813.719	18244.68
814.049	18339.59
814.378	18412.81
814.707	18236.99
815.036	18177.11
815.365	18175.75
815.693	18024.57
816.022	18064.12
816.351	18118.13
816.68	17997.9
817.008	18126.71
817.337	17961.75
817.665	17950.67
817.994	18129.65
818.322	17988.41
818.651	17892.14
818.979	17851.92
819.307	17921.29
819.636	17858.92
819.964	17781.19
820.292	17917.68
820.62	17851.01
820.948	17848.75
821.276	17772.82
821.604	17753.39
821.932	17708.42
822.259	17693.28
822.587	17616.44
822.915	17681.3
823.243	17682.66
823.57	17529.21
823.898	17618.03
824.225	17488.99
824.553	17406.05
824.88	17464.13
825.207	17455.09
825.535	17323.34
825.862	17247.64
826.189	17277.47
826.516	17307.75
826.843	17248.54
827.17	17322.21
827.497	17205.83
827.824	17217.81
828.151	17256.23
828.478	17199.73
828.805	17283.57
829.131	17171.71
829.458	17088.77
829.785	17058.04
830.111	17211.71
830.438	17213.29
830.764	17233.85
831.09	17232.95
831.417	17120.19
831.743	17272.05
832.069	17264.36
832.395	17194.08
832.722	17292.61
833.048	17240.18
833.374	17289.9
833.7	17183.46
834.026	17324.25
834.351	17383.46
834.677	17347.98
835.003	17462.1
835.329	17329.22
835.654	17426.62
835.98	17284.25
836.306	17366.73
836.631	17307.75
836.956	17352.72
837.282	17299.62
837.607	17244.02
837.932	17241.09
838.258	17133.07
838.583	17150.24
838.908	16991.83
839.233	17118.38
839.558	17058.27
839.883	16878.38
840.208	16832.28
840.533	16848.33
840.858	16781.66
841.182	16777.37
841.507	16664.38
841.832	16586.64
842.156	16620.99
842.481	16451.5
842.805	16488.11
843.13	16342.35
843.454	16344.84
843.778	16301.9
844.103	16162.92
844.427	16154.79
844.751	16136.48
845.075	16134.22
845.399	16030.04
845.723	15916.15
846.047	15902.59
846.371	15769.71
846.695	15821.24
847.019	15655.14
847.343	15669.15
847.666	15580.79
847.99	15489.72
848.313	15508.48
848.637	15377.63
848.96	15440.68
849.284	15378.54
849.607	15231.65
849.931	15249.73
850.254	15148.26
850.577	15180.12
850.9	15099.22
851.223	15131.31
851.546	15080.92
851.869	14942.39
852.192	15028.94
852.515	14930.64
852.838	14884.76
853.161	14944.88
853.483	14920.24
853.806	14807.25
854.129	14766.35
854.451	14763.19
854.774	14676.63
855.096	14598.9
855.419	14563.42
855.741	14604.09
856.063	14501.5
856.385	14445.45
856.708	14378.79
857.03	14325.68
857.352	14233.93
857.674	14282.97
857.996	14159.13
858.318	14001.17
858.64	14092.02
858.961	14011.34
859.283	13826.71
859.605	13809.09
859.926	13763.89
860.248	13812.48
860.57	13676.43
860.891	13649.99
861.212	13580.17
861.534	13485.93
861.855	13444.12
862.176	13389.21
862.498	13406.61
862.819	13390.11
863.14	13310.12
863.461	13273.28
863.782	13278.93
864.103	13217.69
864.424	13181.53
864.745	13185.15
865.065	13176.33
865.386	13122.78
865.707	13058.82
866.027	13060.86
866.348	12979.96
866.668	13053.63
866.989	13039.39
867.309	12968.88
867.63	13071.48
867.95	13101.99
868.27	12966.85
868.59	13010.91
868.91	13028.99
869.23	12949.9
869.55	12959.84
869.87	13067.41
870.19	13000.75
870.51	13106.96
870.83	13153.96
871.15	13002.33
871.469	13021.08
871.789	13006.85
872.109	12997.36
872.428	12980.41
872.748	12965.27
873.067	12979.73
873.386	13020.63
873.706	12943.57
874.025	12880.75
874.344	12820.19
874.663	12868.55
874.982	12771.83
875.301	12799.4
875.62	12809.11
875.939	12706.74
876.258	12681.43
876.577	12622
876.896	12543.36
877.214	12538.61
877.533	12473.53
877.852	12460.87
878.17	12415.68
878.489	12494.54
878.807	12411.16
879.125	12353.53
879.444	12334.1
879.762	12229.69
880.08	12221.56
880.398	12155.57
880.716	12117.15
881.034	12126.19
881.352	12115.57
881.67	12051.17
881.988	12045.74
882.306	11982.02
882.624	11968.23
882.941	11842.36
883.259	11882.13
883.577	11822.47
883.894	11811.85
884.212	11761.91
884.529	11782.47
884.846	11702.02
885.164	11650.72
885.481	11667.22
885.798	11713.1
886.115	11591.29
886.432	11679.65
886.75	11669.48
887.067	11629.03
887.383	11551.74
887.7	11685.07
888.017	11628.13
888.334	11611.63
888.651	11633.1
888.967	11612.76
889.284	11516.72
889.6	11528.92
889.917	11387.68
890.233	11577.96
890.55	11405.08
890.866	11442.59
891.182	11443.27
891.498	11403.27
891.815	11423.39
892.131	11352.43
892.447	11321.69
892.763	11283.05
893.079	11241.47
893.395	11213.9
893.71	11214.35
894.026	11157.86
894.342	11172.55
894.657	11089.16
894.973	11072.66
895.289	11051.64
895.604	10976.39
895.92	10938.88
896.235	10881.03
896.55	10797.19
896.865	10804.19
897.181	10747.92
897.496	10721.94
897.811	10630.86
898.126	10511.77
898.441	10494.6
898.756	10491.21
899.071	10402.85
899.386	10376.86
899.7	10282.85
900.015	10214.6
900.33	10209.18
900.644	10201.72
900.959	10100.93
901.273	10064.55
901.588	10048.51
901.902	9975.51
902.216	9801.96
902.531	9794.73
902.845	9831.56
903.159	9765.35
903.473	9725.13
903.787	9713.15
904.101	9640.61
904.415	9681.74
904.729	9610.33
905.042	9549.76
905.356	9517.45
905.67	9506.15
905.984	9521.52
906.297	9551.12
906.611	9504.79
906.924	9437.68
907.237	9427.51
907.551	9372.59
907.864	9302.54
908.177	9341.18
908.491	9372.37
908.804	9241.07
909.117	9260.28
909.43	9280.39
909.743	9230.68
910.056	9200.17
910.368	9139.6
910.681	9159.04
910.994	9137.34
911.307	9150
911.619	9003.79
911.932	9060.96
912.244	8949.55
912.557	9054.41
912.869	8932.83
913.181	8913.4
913.494	8886.5
913.806	8836.56
914.118	8751.59
914.43	8756.11
914.742	8707.53
915.054	8650.58
915.366	8671.59
915.678	8582.33
915.99	8542.56
916.302	8513.41
916.613	8396.57
916.925	8426.85
917.236	8375.1
917.548	8295.11
917.859	8358.61
918.171	8203.58
918.482	8094.43
918.794	8180.53
919.105	8063.25
919.416	8083.81
919.727	7982.35
920.038	7984.38
920.349	7900.09
920.66	7818.96
920.971	7845.18
921.282	7778.96
921.593	7777.61
921.903	7723.37
922.214	7630.94
922.525	7625.52
922.835	7560.44
923.146	7506.2
923.456	7534.22
923.767	7455.58
924.077	7451.51
924.387	7414.23
924.697	7339.88
925.008	7348.24
925.318	7339.88
925.628	7282.93
925.938	7276.83
926.248	7249.26
926.558	7173.78
926.867	7199.09
927.177	7135.82
927.487	7146.21
927.796	7058.76
928.106	7098.53
928.416	7044.97
928.725	7036.38
929.034	7008.36
929.344	7023.28
929.653	7038.19
929.962	6976.5
930.271	6916.39
930.581	6973.79
930.89	6908.7
931.199	6874.13
931.508	6871.64
931.817	6876.84
932.125	6864.18
932.434	6815.6
932.743	6775.82
933.051	6752.55
933.36	6685.21
933.669	6684.53
933.977	6631.2
934.286	6659.22
934.594	6661.25
934.902	6562.72
935.21	6604.98
935.519	6539.22
935.827	6475.49
936.135	6474.82
936.443	6418.77
936.751	6426.23
937.059	6383.74
937.367	6271.21
937.674	6320.7
937.982	6269.85
938.29	6195.05
938.597	6219.68
938.905	6156.63
939.213	6083.41
939.52	6046.58
939.827	6074.83
940.135	6039.35
940.442	5998.44
940.749	5970.65
941.056	5914.6
941.363	5952.12
941.67	5878.45
941.977	5819.47
942.284	5812.23
942.591	5814.95
942.898	5743.99
943.205	5692.24
943.511	5695.18
943.818	5642.52
944.125	5664.22
944.431	5629.41
944.738	5543.77
945.044	5545.35
945.35	5581.05
945.657	5555.29
945.963	5471
946.269	5437.55
946.575	5452.92
946.881	5425.58
947.187	5364.56
947.493	5359.14
947.799	5359.82
948.105	5335.18
948.41	5278.91
948.716	5273.27
949.022	5250.22
949.327	5282.3
949.633	5208.41
949.938	5201.4
950.244	5193.49
950.549	5163.89
950.854	5161.86
951.16	5138.13
951.465	5099.26
951.77	5078.69
952.075	5126.6
952.38	5089.77
952.685	5071.24
952.99	5035.53
953.294	5026.94
953.599	4984.46
953.904	4991.24
954.209	4993.5
954.513	5037.79
954.818	4922.31
955.122	4927.51
955.426	4882.77
955.731	4917.79
956.035	4847.51
956.339	4866.95
956.643	4863.11
956.948	4824.46
957.252	4817.68
957.556	4783.79
957.86	4723.22
958.163	4732.49
958.467	4690.46
958.771	4684.81
959.075	4732.04
959.378	4683
959.682	4631.93
959.985	4614.98
960.289	4577.01
960.592	4561.19
960.896	4527.3
961.199	4508.77
961.502	4480.97
961.805	4491.59
962.108	4414.76
962.411	4412.95
962.714	4379.5
963.017	4374.08
963.32	4356
963.623	4328.43
963.926	4298.15
964.228	4277.13
964.531	4281.88
964.833	4221.54
965.136	4186.74
965.438	4151.71
965.741	4144.03
966.043	4129.79
966.345	4123.69
966.648	4110.58
966.95	4136.12
967.252	4024.03
967.554	4031.94
967.856	3993.07
968.158	3964.37
968.46	3999.4
968.761	3934.32
969.063	3941.77
969.365	3932.51
969.666	3922.11
969.968	3887.31
970.269	3847.54
970.571	3820.87
970.872	3865.39
971.174	3785.17
971.475	3799.41
971.776	3793.3
972.077	3784.72
972.378	3781.33
972.679	3761.21
972.98	3739.97
973.281	3721.44
973.582	3702.91
973.883	3695
974.183	3680.76
974.484	3676.92
974.785	3674.89
975.085	3651.39
975.386	3624.72
975.686	3610.26
975.986	3644.16
976.287	3602.12
976.587	3588.34
976.887	3576.36
977.187	3576.36
977.487	3540.43
977.787	3506.31
978.087	3489.81
978.387	3488.91
978.687	3504.5
978.987	3468.79
979.286	3463.37
979.586	3443.48
979.885	3486.65
980.185	3424.05
980.484	3382.24
980.784	3378.85
981.083	3376.37
981.382	3384.5
981.682	3350.38
981.981	3343.37
982.28	3298.85
982.579	3292.53
982.878	3318.74
983.177	3283.71
983.475	3232.87
983.774	3226.99
984.073	3190.38
984.372	3208.46
984.67	3174.34
984.969	3171.4
985.267	3162.36
985.566	3188.35
985.864	3131.85
986.162	3113.1
986.461	3058.63
986.759	3076.94
987.057	3034.23
987.355	3020.22
987.653	2979.99
987.951	2985.19
988.249	2975.25
988.547	2939.99
988.844	2934.8
989.142	2958.52
989.44	2902.71
989.737	2888.24
990.035	2879.43
990.332	2826.1
990.63	2835.82
990.927	2841.92
991.224	2780.68
991.521	2824.74
991.819	2790.84
992.116	2787.23
992.413	2762.14
992.71	2735.7
993.006	2763.27
993.303	2719.66
993.6	2710.17
993.897	2719.43
994.193	2690.73
994.49	2690.73
994.787	2635.59
995.083	2650.96
995.379	2603.5
995.676	2643.05
995.972	2621.13
996.268	2601.02
996.565	2585.65
996.861	2598.53
997.157	2555.37
997.453	2549.5
997.749	2565.54
998.044	2535.26
998.34	2529.61
998.636	2533.9
998.932	2511.76
999.227	2490.74
999.523	2481.7
999.818	2493.45
1000.114	2460.68
1000.409	2448.25
1000.704	2454.58
1001	2431.08
1001.295	2415.04
1001.59	2420.68
1001.885	2411.65
1002.18	2349.95
1002.475	2375.49
1002.77	2394.24
1003.065	2366.45
1003.359	2342.04
1003.654	2366.9
1003.949	2331.65
1004.243	2331.65
1004.538	2299.33
1004.832	2268.82
1005.127	2266.11
1005.421	2229.96
1005.715	2230.41
1006.009	2232.44
1006.304	2194.02
1006.598	2193.57
1006.892	2212.33
1007.186	2165.32
1007.48	2168.71
1007.773	2140.24
1008.067	2132.78
1008.361	2116.96
1008.655	2133.69
1008.948	2094.37
1009.242	2069.28
1009.535	2079.22
1009.829	2048.72
1010.122	2034.48
1010.415	2042.84
1010.708	2008.94
1011.001	1993.35
1011.295	2010.3
1011.588	1981.83
1011.881	1961.26
1012.173	1909.06
1012.466	1908.38
1012.759	1914.26
1013.052	1913.35
1013.344	1892.56
1013.637	1871.32
1013.93	1893.69
1014.222	1850.08
1014.514	1837.65
1014.807	1861.38
1015.099	1852.34
1015.391	1828.16
1015.683	1824.77
1015.976	1793.58
1016.268	1761.27
1016.56	1759.91
1016.851	1735.28
1017.143	1757.2
1017.435	1724.21
1017.727	1706.13
1018.018	1704.32
1018.31	1689.86
1018.602	1738.67
1018.893	1663.42
1019.185	1671.78
1019.476	1639.01
1019.767	1666.35
1020.058	1602.63
1020.35	1614.15
1020.641	1609.41
1020.932	1620.48
1021.223	1593.81
1021.514	1603.53
1021.804	1573.25
1022.095	1576.41
1022.386	1547.04
1022.677	1535.28
1022.967	1520.6
1023.258	1540.26
1023.548	1491.9
1023.839	1517.21
1024.129	1485.34
1024.419	1508.17
1024.709	1486.02
1025	1443.99
1025.29	1468.17
1025.58	1427.26
1025.87	1464.55
1026.16	1439.24
1026.449	1448.51
1026.739	1410.09
1027.029	1388.4
1027.319	1389.98
1027.608	1396.98
1027.898	1361.28
1028.187	1363.76
1028.477	1363.76
1028.766	1368.06
1029.055	1340.94
1029.344	1343.88
1029.634	1338.23
1029.923	1309.75
1030.212	1310.88
1030.501	1300.49
1030.79	1286.7
1031.078	1288.51
1031.367	1285.12
1031.656	1287.83
1031.945	1268.62
1032.233	1259.36
1032.522	1233.37
1032.81	1258.68
1033.099	1222.3
1033.387	1216.87
1033.675	1229.08
1033.963	1181.4
1034.251	1232.02
1034.54	1180.49
1034.828	1192.02
1035.116	1177.78
1035.403	1171.68
1035.691	1139.36
1035.979	1145.69
1036.267	1138.01
1036.554	1109.08
1036.842	1126.48
1037.129	1128.97
1037.417	1098.46
1037.704	1097.78
1037.992	1098.91
1038.279	1087.39
1038.566	1064.79
1038.853	1064.79
1039.14	1064.79
