Data from red_cardboard_box_FLMS001491_00070.txt Node
Date: Wed Feb 08 11:32:57 GMT 2017
User: dcchb
Spectrometer: FLMS00149
Trigger mode: 0
Integration Time (sec): 2.000000E-2
Scans to average: 10
Electric dark correction enabled: true
Nonlinearity correction enabled: false
Boxcar width: 0
XAxis mode: Wavelengths
Number of Pixels in Spectrum: 2048
>>>>>Begin Spectral Data<<<<<
341.393	-6.75
341.776	-6.75
342.16	-6.75
342.543	-65.28
342.927	-57.15
343.31	-66.86
343.693	-69.8
344.077	-68.9
344.46	-60.08
344.843	-49.46
345.226	-52.17
345.61	-20.31
345.993	-10.59
346.376	-11.5
346.759	4.77
347.142	34.38
347.525	54.04
347.908	58.11
348.291	62.17
348.674	91.55
349.057	104.66
349.44	116.64
349.823	138.33
350.206	172
350.588	190.76
350.971	220.14
351.354	221.72
351.737	236.63
352.119	261.49
352.502	290.87
352.884	276.41
353.267	272.34
353.65	302.62
354.032	303.07
354.414	309.85
354.797	325.67
355.179	323.18
355.562	343.52
355.944	340.13
356.326	327.93
356.709	323.18
357.091	339.23
357.473	341.04
357.855	354.37
358.238	351.66
358.62	346.01
359.002	339.23
359.384	353.24
359.766	333.8
360.148	336.74
360.53	353.92
360.912	345.56
361.294	327.48
361.676	339.23
362.057	305.78
362.439	337.87
362.821	347.82
363.203	327.03
363.584	347.59
363.966	339.91
364.348	331.09
364.729	316.4
365.111	310.75
365.493	317.99
365.874	324.31
366.256	319.79
366.637	309.62
367.019	320.25
367.4	333.13
367.781	313.24
368.163	309.85
368.544	309.17
368.925	325.9
369.306	303.98
369.688	299.23
370.069	322.73
370.45	314.82
370.831	300.36
371.212	296.74
371.593	344.65
371.974	306.91
372.355	302.39
372.736	313.47
373.117	332.45
373.498	306.46
373.879	307.14
374.26	319.57
374.641	302.17
375.021	343.07
375.402	325.22
375.783	335.84
376.163	314.82
376.544	327.03
376.925	294.48
377.305	320.25
377.686	309.4
378.066	317.08
378.447	327.03
378.827	347.82
379.208	324.54
379.588	331.32
379.968	333.8
380.349	362.05
380.729	335.39
381.109	310.75
381.489	340.81
381.87	334.26
382.25	320.25
382.63	338.1
383.01	322.73
383.39	337.65
383.77	330.42
384.15	328.61
384.53	341.26
384.91	334.71
385.29	324.54
385.67	347.82
386.049	368.15
386.429	340.13
386.809	338.78
387.189	359.57
387.568	342.17
387.948	344.43
388.328	354.14
388.707	354.14
389.087	353.24
389.466	343.3
389.846	356.86
390.225	362.05
390.605	336.97
390.984	350.53
391.363	356.63
391.743	349.4
392.122	341.04
392.501	353.24
392.881	338.32
393.26	369.28
393.639	360.92
394.018	361.15
394.397	364.09
394.776	353.01
395.155	376.74
395.534	365.44
395.913	362.05
396.292	392.79
396.671	364.54
397.05	376.06
397.429	369.28
397.808	366.35
398.186	372.67
398.565	369.28
398.944	390.75
399.323	374.48
399.701	381.26
400.08	390.07
400.458	383.07
400.837	374.71
401.215	379.68
401.594	376.52
401.972	386.23
402.351	393.69
402.729	367.02
403.107	376.97
403.486	399.11
403.864	395.27
404.242	383.52
404.62	407.7
404.999	375.39
405.377	405.22
405.755	380.36
406.133	396.63
406.511	379.68
406.889	398.89
407.267	393.01
407.645	377.65
408.023	397.31
408.401	408.61
408.779	407.48
409.156	420.36
409.534	407.48
409.912	404.09
410.29	402.28
410.667	399.79
411.045	399.34
411.422	416.29
411.8	402.05
412.178	426.68
412.555	434.82
412.933	420.13
413.31	417.42
413.687	428.72
414.065	428.49
414.442	431.88
414.819	427.59
415.197	441.37
415.574	431.88
415.951	443.41
416.328	446.12
416.705	451.54
417.082	446.34
417.46	461.71
417.837	448.83
418.214	452.9
418.591	444.54
418.967	453.12
419.344	447.93
419.721	467.59
420.098	468.04
420.475	454.25
420.852	459.9
421.228	477.53
421.605	451.09
421.982	470.98
422.358	479.56
422.735	463.97
423.111	465.1
423.488	482.28
423.864	470.75
424.241	480.24
424.617	500.81
424.994	480.47
425.37	499.9
425.746	475.5
426.123	500.13
426.499	490.41
426.875	486.12
427.251	494.48
427.627	500.58
428.003	504.65
428.379	514.59
428.756	520.92
429.132	504.65
429.507	529.51
429.883	511.88
430.259	503.52
430.635	533.8
431.011	541.03
431.387	527.7
431.763	538.55
432.138	541.26
432.514	550.07
432.89	541.26
433.265	547.81
433.641	572.22
434.016	534.93
434.392	557.3
434.767	569.28
435.143	539.22
435.518	563.63
435.894	537.87
436.269	562.5
436.644	581.26
437.02	587.36
437.395	573.8
437.77	572.89
438.145	578.32
438.52	575.83
438.895	590.75
439.271	584.87
439.646	579.9
440.021	593.01
440.395	593.01
440.77	594.81
441.145	576.51
441.52	602.95
441.895	609.5
442.27	600.92
442.645	607.7
443.019	601.14
443.394	631.42
443.769	617.64
444.143	622.38
444.518	626
444.892	632.1
445.267	625.1
445.641	628.03
446.016	626.9
446.39	634.81
446.764	637.3
447.139	643.63
447.513	651.76
447.887	651.08
448.262	634.81
448.636	637.98
449.01	658.77
449.384	674.36
449.758	654.25
450.132	681.59
450.506	659.22
450.88	663.06
451.254	668.03
451.628	657.19
452.002	661.93
452.376	677.3
452.75	670.52
453.123	674.13
453.497	698.54
453.871	707.81
454.244	703.74
454.618	704.19
454.992	703.74
455.365	689.95
455.739	732.21
456.112	715.49
456.486	723.17
456.859	701.48
457.232	727.47
457.606	724.08
457.979	725.21
458.352	726.34
458.725	753
459.099	769.27
459.472	760.01
459.845	778.76
460.218	779.67
460.591	799.1
460.964	782.83
461.337	787.13
461.71	801.59
462.083	790.52
462.456	791.87
462.829	785.09
463.201	821.02
463.574	817.18
463.947	811.08
464.32	836.39
464.692	836.16
465.065	823.74
465.438	853.34
465.81	840.01
466.183	855.15
466.555	874.58
466.928	868.48
467.3	874.58
467.672	875.03
468.045	880.23
468.417	915.03
468.789	894.92
469.161	919.1
469.534	916.61
469.906	930.63
470.278	950.29
470.65	948.25
471.022	982.15
471.394	971.75
471.766	957.97
472.138	991.19
472.51	1022.15
472.882	985.99
473.253	1009.95
473.625	1013.33
473.997	1025.54
474.369	1047.68
474.74	1056.5
475.112	1035.71
475.484	1075.48
475.855	1080.9
476.227	1091.3
476.598	1130.85
476.97	1118.87
477.341	1148.25
477.713	1142.6
478.084	1155.03
478.455	1195.7
478.827	1198.87
479.198	1228.24
479.569	1215.82
479.94	1228.92
480.311	1242.71
480.682	1256.04
481.053	1312.31
481.424	1302.14
481.795	1301.24
482.166	1324.74
482.537	1314.8
482.908	1362.7
483.279	1392.99
483.65	1381.69
484.021	1391.4
484.391	1429.82
484.762	1444.96
485.133	1450.61
485.503	1459.65
485.874	1490.38
486.244	1495.36
486.615	1493.1
486.985	1548.46
487.356	1535.13
487.726	1557.05
488.097	1589.59
488.467	1584.85
488.837	1600.21
489.207	1651.51
489.578	1656.03
489.948	1677.05
490.318	1692.64
490.688	1684.28
491.058	1728.12
491.428	1737.61
491.798	1763.37
492.168	1772.64
492.538	1779.42
492.908	1824.39
493.278	1827.55
493.648	1827.55
494.017	1846.31
494.387	1852.41
494.757	1883.14
495.126	1919.07
495.496	1877.72
495.866	1942.58
496.235	1945.51
496.605	1962.69
496.974	1949.81
497.344	1969.92
497.713	1986.42
498.082	2006.53
498.452	2028.22
498.821	1992.74
499.19	2052.63
499.559	2072.29
499.928	2068.9
500.298	2070.48
500.667	2093.53
501.036	2096.02
501.405	2150.03
501.774	2137.83
502.143	2173.53
502.512	2171.04
502.88	2167.88
503.249	2178.28
503.618	2162.01
503.987	2209.24
504.356	2229.57
504.724	2260.08
505.093	2270.48
505.462	2270.93
505.83	2240.87
506.199	2330.36
506.567	2317.03
506.936	2304.83
507.304	2336.01
507.672	2353.86
508.041	2355.22
508.409	2388.21
508.777	2411.94
509.145	2439.51
509.514	2421.43
509.882	2446.29
510.25	2461.88
510.618	2458.72
510.986	2510.7
511.354	2513.86
511.722	2513.63
512.09	2542.79
512.458	2531.49
512.826	2569.23
513.193	2592.95
513.561	2613.29
513.929	2612.39
514.297	2646.29
514.664	2676.34
515.032	2672.05
515.4	2697.81
515.767	2680.18
516.135	2708.21
516.502	2699.62
516.869	2746.62
517.237	2769.22
517.604	2788.66
517.972	2816.45
518.339	2838.82
518.706	2846.96
519.073	2853.29
519.44	2885.6
519.808	2902.55
520.175	2920.86
520.542	2949.78
520.909	2933.96
521.276	2967.41
521.643	3007.63
522.009	3009.67
522.376	3063.22
522.743	3037.69
523.11	3102.55
523.477	3125.14
523.843	3168.76
524.21	3216.44
524.577	3223.22
524.943	3199.72
525.31	3209.21
525.676	3233.62
526.043	3288.98
526.409	3271.58
526.776	3335.76
527.142	3325.59
527.508	3366.72
527.874	3369.66
528.241	3394.29
528.607	3399.94
528.973	3419.6
529.339	3486.72
529.705	3490.78
530.071	3543.44
530.437	3536.43
530.803	3562.42
531.169	3586.83
531.535	3549.99
531.901	3597.45
532.267	3602.42
532.632	3606.94
532.998	3628.86
533.364	3713.6
533.73	3741.62
534.095	3740.04
534.461	3766.03
534.826	3811.23
535.192	3815.75
535.557	3810.1
535.923	3825.69
536.288	3872.24
536.653	3837.67
537.019	3859.81
537.384	3900.49
537.749	3908.4
538.114	3916.08
538.479	3935.97
538.845	3971.45
539.21	3960.38
539.575	3976.65
539.94	4048.74
540.305	4022.52
540.67	4034.5
541.034	4096.64
541.399	4086.02
541.764	4134.83
542.129	4151.11
542.494	4185.91
542.858	4157.43
543.223	4196.98
543.587	4191.56
543.952	4188.62
544.316	4197.66
544.681	4216.64
545.045	4263.87
545.41	4311.78
545.774	4302.74
546.138	4317.2
546.503	4369.18
546.867	4323.98
547.231	4397.88
547.595	4448.05
547.959	4439.46
548.324	4515.16
548.688	4450.76
549.052	4528.95
549.416	4513.36
549.779	4511.77
550.143	4548.16
550.507	4622.05
550.871	4658.21
551.235	4601.94
551.599	4653.47
551.962	4682.62
552.326	4759.23
552.689	4707.7
553.053	4755.61
553.417	4805.33
553.78	4794.93
554.143	4855.72
554.507	4878.77
554.87	4943.4
555.234	4963.51
555.597	4951.31
555.96	4996.96
556.323	5046.68
556.686	5093
557.05	5095.71
557.413	5116.5
557.776	5140.91
558.139	5195.82
558.502	5221.59
558.865	5174.36
559.228	5271.98
559.59	5304.3
559.953	5403.95
560.316	5371.41
560.679	5460.9
561.041	5504.06
561.404	5533.22
561.767	5564.85
562.129	5618.86
562.492	5640.56
562.854	5730.05
563.217	5711.97
563.579	5800.55
563.941	5795.58
564.304	5873.09
564.666	5936.14
565.028	5963.71
565.39	6000.32
565.753	6058.4
566.115	6079.87
566.477	6167.55
566.839	6210.26
567.201	6310.82
567.563	6290.26
567.925	6422.68
568.287	6477.37
568.648	6519.63
569.01	6611.83
569.372	6623.81
569.734	6661.77
570.095	6727.31
570.457	6791.26
570.819	6852.73
571.18	6875.1
571.542	6964.59
571.903	7049.11
572.265	7069.67
572.626	7128.2
572.987	7218.6
573.349	7212.95
573.71	7286.16
574.071	7412.94
574.432	7490.68
574.794	7564.8
575.155	7610
575.516	7686.15
575.877	7755.98
576.238	7772.03
576.599	7860.16
576.96	8008.86
577.32	8021.74
577.681	8148.06
578.042	8269.19
578.403	8331.11
578.763	8432.8
579.124	8534.27
579.485	8566.13
579.845	8722.51
580.206	8799.34
580.566	8868.27
580.927	8991.66
581.287	9151.65
581.648	9229.16
582.008	9316.17
582.368	9436.62
582.728	9608.36
583.089	9708.02
583.449	9797.28
583.809	9991.86
584.169	10195.92
584.529	10211.96
584.889	10431.39
585.249	10504.61
585.609	10703.25
585.969	10839.74
586.329	11007.2
586.688	11268.21
587.048	11283.8
587.408	11416
587.768	11754.52
588.127	11897.57
588.487	12084.23
588.846	12405.13
589.206	12406.48
589.565	12682.63
589.925	12984.77
590.284	13110.19
590.643	13401.94
591.003	13655.94
591.362	13845.77
591.721	14055.7
592.08	14332.76
592.44	14685.29
592.799	14932.07
593.158	15132.51
593.517	15395.56
593.876	15654.76
594.235	15991.25
594.593	16266.04
594.952	16593.49
595.311	16942.41
595.67	17171.78
596.029	17613.35
596.387	17928.14
596.746	18179.89
597.104	18479.32
597.463	18735.13
597.822	19180.54
598.18	19408.11
598.538	19753.18
598.897	20177.35
599.255	20201.08
599.613	21011.45
599.972	21081.96
600.33	21570.08
600.688	21742.06
601.046	22076.74
601.404	22561.24
601.762	22876.94
602.12	23258.85
602.478	23711.27
602.836	23982
603.194	24150.35
603.552	24601.19
603.91	24755.54
604.268	25318.91
604.625	25543.76
604.983	25983.3
605.341	26266.46
605.698	26613.79
606.056	26959.55
606.413	27367.9
606.771	27604.73
607.128	28117.26
607.485	28213.75
607.843	28421.88
608.2	28951.36
608.557	29273.38
608.914	29396.09
609.272	29862.52
609.629	30044.21
609.986	30490.53
610.343	30672.67
610.7	31041.25
611.057	31292.76
611.414	31644.62
611.771	31876.25
612.127	32110.37
612.484	32444.37
612.841	32744.48
613.198	32923.91
613.554	32861.09
613.911	33473.72
614.267	33577.68
614.624	33783.09
614.98	34041.17
615.337	34393.7
615.693	34538.56
616.05	34656.29
616.406	34956.85
616.762	34995.72
617.118	35315.94
617.475	35457.18
617.831	35724.74
618.187	35852.64
618.543	36105.52
618.899	36481.1
619.255	36430.71
619.611	36453.76
619.967	36776.69
620.323	37133.06
620.678	37174.87
621.034	37059.62
621.39	37305.04
621.746	37316.56
622.101	38042.87
622.457	37848.75
622.812	38013.04
623.168	38082.64
623.523	38261.17
623.879	38411.9
624.234	38389.75
624.589	38484.44
624.945	38630.42
625.3	38748.61
625.655	38869.29
626.01	38934.15
626.365	39022.28
626.72	38988.38
627.075	39148.6
627.43	39197.19
627.785	39250.75
628.14	39278.77
628.495	39400.12
628.85	39460.46
629.205	39325.1
629.559	39694.35
629.914	39589.5
630.269	39808.47
630.623	39706.33
630.978	39680.57
631.332	39981.35
631.687	40077.62
632.041	39909.04
632.396	39994.23
632.75	40083.95
633.104	40152.42
633.459	39968.24
633.813	40040.78
634.167	40122.82
634.521	40107.45
634.875	40249.82
635.229	40229.7
635.583	40138.18
635.937	40046.21
636.291	40180.89
636.645	40085.53
636.999	40083.49
637.352	40072.87
637.706	40044.63
638.06	40237.61
638.413	40141.35
638.767	40248.01
639.121	40172.98
639.474	40232.64
639.828	40172.08
640.181	40279.2
640.534	40327.78
640.888	40157.62
641.241	40054.12
641.594	40145.41
641.947	40263.83
642.301	40220.67
642.654	40365.52
643.007	40346.54
643.36	40341.34
643.713	40146.77
644.066	40537.95
644.419	40102.48
644.771	39925.76
645.124	39569.38
645.477	39466.11
645.83	39305.89
646.182	39147.93
646.535	39202.39
646.888	39383.63
647.24	39212.33
647.593	39534.13
647.945	39327.58
648.298	39160.13
648.65	39055.95
649.002	39005.33
649.355	39270.41
649.707	39098.44
650.059	39316.06
650.411	39726.67
650.763	39873.56
651.115	40237.84
651.467	40148.35
651.819	40177.5
652.171	40223.15
652.523	40064.74
652.875	40115.36
653.227	40020.44
653.578	40306.77
653.93	40208.24
654.282	39923.95
654.633	40003.27
654.985	39908.13
655.337	40123.94
655.688	40073.32
656.039	40161.68
656.391	39881.24
656.742	39850.96
657.094	39990.62
657.445	40131.18
657.796	40038.75
658.147	40027.9
658.498	39944.51
658.849	40079.88
659.2	39943.61
659.551	39737.74
659.902	39880.56
660.253	39905.65
660.604	39981.8
660.955	39738.19
661.306	39998.98
661.656	39906.78
662.007	39951.52
662.358	39971.86
662.708	40037.17
663.059	39877.4
663.409	39653.9
663.76	40114.91
664.11	40073.32
664.461	40041.24
664.811	40073.1
665.161	39890.28
665.511	39835.37
665.862	39961.46
666.212	39945.42
666.562	39973.44
666.912	39841.24
667.262	39875.14
667.612	39851.86
667.962	39986.1
668.312	39858.64
668.662	40017.73
669.011	39965.53
669.361	39911.97
669.711	39981.58
670.06	39834.24
670.41	39752.66
670.76	39599.21
671.109	39828.13
671.459	39849.6
671.808	39725.99
672.157	39850.96
672.507	39615.71
672.856	39618.65
673.205	39686.67
673.554	39775.93
673.904	39730.28
674.253	39897.74
674.602	39818.42
674.951	39148.83
675.3	39047.82
675.649	39570.51
675.998	39459.33
676.346	39554.47
676.695	39622.49
677.044	39397.18
677.393	39434.7
677.741	39595.82
678.09	39417.75
678.438	39413
678.787	39356.73
679.135	39578.2
679.484	39248.71
679.832	39373
680.181	39114.03
680.529	39281.71
680.877	39200.81
681.225	39191.31
681.573	39441.03
681.922	39149.51
682.27	39034.71
682.618	38989.29
682.966	38897.08
683.314	38941.38
683.661	38783.42
684.009	38672.68
684.357	38646.02
684.705	38523.76
685.053	38490.09
685.4	38563.31
685.748	38314.5
686.095	38518.56
686.443	38242.41
686.79	38267.72
687.138	38229.98
687.485	38195.41
687.832	38150.21
688.18	38278.57
688.527	37980.27
688.874	37896.66
689.221	37901.4
689.568	37805.14
689.915	37674.52
690.262	37718.36
690.609	37590.45
690.956	37446.73
691.303	37459.38
691.65	37183.68
691.997	37311.59
692.344	37063.46
692.69	37155.89
693.037	36969.23
693.383	36753.64
693.73	36891.04
694.077	36731.94
694.423	36690.59
694.769	36653.98
695.116	36576.02
695.462	36404.27
695.808	36304.61
696.155	36360.88
696.501	36000.66
696.847	36236.36
697.193	35775.36
697.539	36096.71
697.885	35742.59
698.231	35693.33
698.577	35702.82
698.923	35611.97
699.269	35427.12
699.614	35280.23
699.96	35166.79
700.306	35412.88
700.651	35079.33
700.997	34958.21
701.342	34864.42
701.688	34806.12
702.033	34771.54
702.379	34749.85
702.724	34652.9
703.069	34796.85
703.415	34413.36
703.76	34383.08
704.105	34339.24
704.45	34285.45
704.795	34029.42
705.14	34005.01
705.485	34022.18
705.83	33898.8
706.175	33984.67
706.52	33731.8
706.865	33805.47
707.209	33576.32
707.554	33473.27
707.899	33642.99
708.243	33354.18
708.588	33399.83
708.932	33145.37
709.277	33140.85
709.621	33201.19
709.966	32948.77
710.31	32946.73
710.654	32663.8
710.998	32719.62
711.342	32842.78
711.687	32835.32
712.031	32641.66
712.375	32457.03
712.719	32518.04
713.063	32477.37
713.407	32554.43
713.75	32414.77
714.094	32363.02
714.438	32182.68
714.782	32325.05
715.125	32222.23
715.469	32175
715.812	31953.99
716.156	32007.77
716.499	31876.48
716.843	31749.93
717.186	31751.06
717.53	31895.01
717.873	31833.77
718.216	31669.48
718.559	31671.29
718.902	31371.18
719.246	31502.02
719.589	31352.42
719.932	31312.65
720.275	31330.5
720.617	31210.51
720.96	31150.4
721.303	31239.43
721.646	31073.34
721.989	30900.46
722.331	31083.96
722.674	31064.07
723.016	31024.07
723.359	30926.45
723.701	30889.16
724.044	30653.23
724.386	30669.05
724.729	30712.22
725.071	30608.71
725.413	30703.85
725.755	30571.43
726.097	30456.4
726.439	30296.18
726.782	30375.27
727.124	30566.91
727.465	30203.08
727.807	30279.91
728.149	30224.09
728.491	30210.08
728.833	30258.67
729.175	30020.03
729.516	29978.68
729.858	30074.04
730.199	30115.85
730.541	29993.82
730.882	29976.19
731.224	29965.57
731.565	29845.12
731.906	29806.7
732.248	29761.51
732.589	29647.61
732.93	29664.11
733.271	29659.36
733.612	29565.58
733.953	29538.91
734.294	29447.62
734.635	29360.61
734.976	29538.01
735.317	29335.98
735.658	29225.47
735.999	29343.44
736.339	29297.56
736.68	29338.92
737.021	29292.14
737.361	29090.79
737.702	29230.67
738.042	29165.82
738.383	29178.47
738.723	29151.8
739.063	28937.35
739.404	29058.93
739.744	29023.45
740.084	28845.6
740.424	28905.48
740.764	28819.84
741.104	28971.02
741.444	28707.3
741.784	28644.25
742.124	28691.7
742.464	28691.03
742.804	28699.61
743.143	28557.7
743.483	28515.89
743.823	28521.99
744.162	28406.74
744.502	28565.15
744.841	28378.49
745.181	28442.22
745.52	28346.85
745.86	28427.08
746.199	28338.27
746.538	28244.26
746.877	28366.74
747.216	28189.34
747.556	28240.42
747.895	28154.32
748.234	28110.93
748.573	28113.64
748.911	28022.34
749.25	27980.76
749.589	27901.44
749.928	27860.76
750.267	27946.41
750.605	27735.8
750.944	27765.63
751.283	27777.6
751.621	27761.33
751.96	27585.97
752.298	27478.63
752.636	27507.55
752.975	27506.88
753.313	27439.31
753.651	27493.32
753.989	27359.08
754.327	27355.69
754.666	27103.04
755.004	27175.81
755.342	27236.15
755.679	27107.11
756.017	26965.65
756.355	27155.7
756.693	27014.69
757.031	26860.34
757.368	26783.05
757.706	26654.92
758.044	26652.89
758.381	26642.49
758.719	26543.96
759.056	26599.1
759.394	26444.98
759.731	26370.41
760.068	26280.02
760.405	26231.88
760.743	26151.43
761.08	26288.15
761.417	26050.19
761.754	25981.04
762.091	25952.34
762.428	25770.65
762.765	25753.93
763.102	25881.61
763.438	25699.01
763.775	25619.02
764.112	25554.61
764.449	25464.44
764.785	25455.63
765.122	25202.76
765.458	25203.66
765.795	25180.16
766.131	25229.65
766.467	25109.65
766.804	24908.53
767.14	24690.68
767.476	24859.71
767.812	24697.68
768.148	24739.72
768.485	24471.02
768.821	24366.62
769.157	24373.85
769.492	24329.11
769.828	24283.68
770.164	24115.55
770.5	24040.07
770.836	24054.54
771.171	23863.36
771.507	23922.11
771.842	23746.52
772.178	23616.58
772.513	23629.24
772.849	23574.32
773.184	23433.99
773.519	23457.04
773.855	23399.41
774.19	23253.88
774.525	23154.67
774.86	23163.94
775.195	23006.88
775.53	22963.04
775.865	22905.87
776.2	22781.8
776.535	22687.79
776.87	22589.94
777.205	22548.14
777.539	22383.17
777.874	22545.42
778.209	22311.08
778.543	22317.86
778.878	22116.28
779.212	22102.95
779.547	21996.06
779.881	21998.77
780.215	21847.36
780.55	21947.25
780.884	21796.29
781.218	21688.72
781.552	21695.28
781.886	21530.99
782.22	21415.74
782.554	21246.93
782.888	21210.09
783.222	21110.21
783.556	21004.9
783.889	21000.83
784.223	20825.47
784.557	20710.22
784.89	20892.36
785.224	20646.72
785.557	20579.83
785.891	20521.52
786.224	20414.41
786.558	20562.65
786.891	20307.52
787.224	20228.87
787.557	20240.85
787.891	20162.44
788.224	20202.21
788.557	20019.61
788.89	19944.36
789.223	19984.36
789.556	19860.97
789.888	19770.13
790.221	19724.48
790.554	19592.51
790.887	19560.64
791.219	19512.06
791.552	19423.47
791.884	19343.02
792.217	19311.38
792.549	19279.97
792.882	19171.05
793.214	18987.1
793.546	19021.67
793.879	19017.61
794.211	18864.17
794.543	18777.84
794.875	18793.43
795.207	18748.24
795.539	18638.86
795.871	18721.8
796.203	18573.1
796.535	18599.99
796.867	18479.77
797.198	18404.06
797.53	18344.63
797.862	18188.7
798.193	18211.07
798.525	18098.76
798.856	18129.5
799.188	17936.73
799.519	17909.84
799.85	17857.64
800.182	17875.72
800.513	17829.62
800.844	17610.86
801.175	17787.58
801.506	17779.22
801.837	17635.72
802.168	17667.59
802.499	17660.58
802.83	17477.99
803.161	17378.1
803.491	17395.28
803.822	17301.49
804.153	17133.59
804.483	17118
804.814	17055.17
805.145	17065.57
805.475	16990.99
805.805	16909.19
806.136	17012.24
806.466	16910.54
806.796	16906.93
807.126	16735.86
807.457	16726.14
807.787	16720.94
808.117	16658.35
808.447	16469.88
808.777	16635.07
809.107	16532.25
809.436	16443.44
809.766	16507.62
810.096	16475.75
810.426	16304.68
810.755	16274.18
811.085	16310.11
811.414	16283.22
811.744	16093.62
812.073	16122.32
812.403	16184.46
812.732	16058.14
813.061	16055.88
813.39	15954.64
813.719	15883.23
814.049	15986.73
814.378	15836
814.707	15854.75
815.036	15788.54
815.365	15726.17
815.693	15535.66
816.022	15574.53
816.351	15590.8
816.68	15492.05
817.008	15519.85
817.337	15399.17
817.665	15387.42
817.994	15406.63
818.322	15379.96
818.651	15241.21
818.979	15171.15
819.307	15295.45
819.636	15199.18
819.964	15232.17
820.292	15155.56
820.62	15169.35
820.948	15102.23
821.276	15118.95
821.604	15123.25
821.932	15140.2
822.259	15124.6
822.587	15098.16
822.915	15047.09
823.243	15130.48
823.57	15122.79
823.898	15078.5
824.225	15047.54
824.553	15047.99
824.88	15024.27
825.207	15100.2
825.535	15097.48
825.862	15086.19
826.189	15014.1
826.516	15038.05
826.843	15102.23
827.17	15055.23
827.497	15051.84
827.824	15001.44
828.151	15083.93
828.478	15025.4
828.805	15109.91
829.131	14969.8
829.458	15081.21
829.785	14961.44
830.111	14993.31
830.438	15064.72
830.764	14993.98
831.09	15049.58
831.417	14923.93
831.743	14981.78
832.069	14984.27
832.395	14890.94
832.722	14885.96
833.048	14876.7
833.374	14969.58
833.7	14900.88
834.026	14831.73
834.351	14968.45
834.677	14872.41
835.003	14907.88
835.329	14917.6
835.654	14858.39
835.98	14811.62
836.306	14832.18
836.631	14772.07
836.956	14802.8
837.282	14733.43
837.607	14669.47
837.932	14652.07
838.258	14712.41
838.583	14671.28
838.908	14548.57
839.233	14632.41
839.558	14516.03
839.883	14586.99
840.208	14460.44
840.533	14481.68
840.858	14461.79
841.182	14485.07
841.507	14512.19
841.832	14336.15
842.156	14380.22
842.481	14358.52
842.805	14300.9
843.13	14299.54
843.454	14260.22
843.778	14219.99
844.103	14119.88
844.427	14137.96
844.751	14128.7
845.075	14088.25
845.399	14009.15
845.723	13972.77
846.047	13955.14
846.371	13799.67
846.695	13737.97
847.019	13707.01
847.343	13696.84
847.666	13600.8
847.99	13576.39
848.313	13580.69
848.637	13470.86
848.96	13484.65
849.284	13437.19
849.607	13236.97
849.931	13278.55
850.254	13114.71
850.577	13122.4
850.9	13039.46
851.223	13012.57
851.546	12949.74
851.869	12832.46
852.192	12977.54
852.515	12862.29
852.838	12774.16
853.161	12834.04
853.483	12706.59
853.806	12661.84
854.129	12665.23
854.451	12557.89
854.774	12528.06
855.096	12494.84
855.419	12449.19
855.741	12428.63
856.063	12377.33
856.385	12316.99
856.708	12369.87
857.03	12241.29
857.352	12360.38
857.674	12329.2
857.996	12136.88
858.318	12098.47
858.64	12089.43
858.961	12055.98
859.283	12046.27
859.605	12034.06
859.926	12035.64
860.248	11956.78
860.57	11959.04
860.891	11947.74
861.212	11817.12
861.534	11875.65
861.855	11731.02
862.176	11786.16
862.498	11730.79
862.819	11712.94
863.14	11628.42
863.461	11686.5
863.782	11583.68
864.103	11598.14
864.424	11594.53
864.745	11608.54
865.065	11509.56
865.386	11545.04
865.707	11560.85
866.027	11496
866.348	11473.17
866.668	11449.67
866.989	11449.9
867.309	11300.75
867.63	11462.55
867.95	11399.95
868.27	11374.87
868.59	11427.07
868.91	11384.14
869.23	11278.38
869.55	11212.39
869.87	11256.91
870.19	11177.81
870.51	11177.36
870.83	11263.69
871.15	11218.94
871.469	11181.2
871.789	11182.79
872.109	11204.48
872.428	11100.75
872.748	11052.84
873.067	11111.37
873.386	11103.69
873.706	11077.48
874.025	10987.08
874.344	11005.84
874.663	11006.29
874.982	11009.91
875.301	10946.41
875.62	10942.57
875.939	10881.32
876.258	10955.22
876.577	10872.74
876.896	10858.5
877.214	10865.28
877.533	10846.75
877.852	10830.7
878.17	10846.97
878.489	10814.66
878.807	10851.04
879.125	10832.96
879.444	10745.73
879.762	10695.34
880.08	10702.35
880.398	10711.61
880.716	10782.57
881.034	10629.13
881.352	10618.51
881.67	10623.03
881.988	10622.12
882.306	10591.84
882.624	10549.13
882.941	10507.77
883.259	10517.72
883.577	10434.56
883.894	10432.3
884.212	10404.05
884.529	10369.02
884.846	10370.83
885.164	10386.65
885.481	10313.2
885.798	10303.71
886.115	10223.26
886.432	10275.46
886.75	10144.39
887.067	10227.78
887.383	10053.55
887.7	10174.9
888.017	10085.41
888.334	10083.6
888.651	10058.75
888.967	10047.22
889.284	10006.32
889.6	9924.29
889.917	9916.38
890.233	9961.57
890.55	9856.49
890.866	9877.06
891.182	9832.54
891.498	9786.21
891.815	9759.09
892.131	9739.43
892.447	9690.17
892.763	9667.12
893.079	9728.59
893.395	9625.54
893.71	9635.48
894.026	9613.56
894.342	9572.88
894.657	9478.65
894.973	9495.15
895.289	9488.14
895.604	9417.86
895.92	9424.87
896.235	9372.66
896.55	9363.85
896.865	9267.58
897.181	9187.36
897.496	9286.79
897.811	9202.72
898.126	9174.48
898.441	9159.56
898.756	9136.74
899.071	9068.49
899.386	9169.05
899.7	9026.23
900.015	8943.3
900.33	8832.56
900.644	8915.73
900.959	8882.96
901.273	8899.68
901.588	8833.47
901.902	8868.27
902.216	8775.84
902.531	8792.11
902.845	8746.46
903.159	8698.56
903.473	8645.68
903.787	8626.02
904.101	8561.39
904.415	8559.35
904.729	8534.95
905.042	8486.58
905.356	8497.88
905.67	8448.85
905.984	8449.52
906.297	8425.34
906.611	8361.84
906.924	8341.73
907.237	8245.69
907.551	8191
907.864	8228.96
908.177	8267.83
908.491	8220.6
908.804	8192.36
909.117	8065.58
909.43	7994.39
909.743	7948.29
910.056	8042.08
910.368	7968.41
910.681	7899.93
910.994	7864.23
911.307	7808.41
911.619	7779.26
911.932	7800.05
912.244	7686.38
912.557	7709.2
912.869	7709.88
913.181	7680.28
913.494	7663.56
913.806	7552.82
914.118	7528.42
914.43	7544.91
914.742	7499.94
915.054	7444.58
915.366	7385.6
915.678	7417.46
915.99	7417.23
916.302	7309.21
916.613	7283.68
916.925	7276.45
917.236	7243.23
917.548	7239.39
917.859	7259.5
918.171	7092.95
918.482	7117.81
918.794	7085.72
919.105	7031.48
919.416	7036.91
919.727	7031.26
920.038	6998.26
920.349	6936.12
920.66	6930.92
920.971	6925.72
921.282	6850.02
921.593	6792.84
921.903	6817.48
922.214	6782.22
922.525	6717.59
922.835	6704.94
923.146	6659.51
923.456	6686.18
923.767	6603.24
924.077	6621.1
924.387	6583.13
924.697	6497.48
925.008	6489.8
925.318	6495.45
925.628	6484.83
925.938	6467.88
926.248	6412.74
926.558	6359.64
926.867	6391.72
927.177	6297.94
927.487	6304.27
927.796	6207.32
928.106	6242.12
928.416	6213.65
928.725	6231.28
929.034	6161
929.344	6151.73
929.653	6133.43
929.962	6128.23
930.271	6097.95
930.581	6028.57
930.89	6023.6
931.199	5960.78
931.508	5963.49
931.817	5918.97
932.125	5919.65
932.434	5895.69
932.743	5846.2
933.051	5821.57
933.36	5815.24
933.669	5712.87
933.977	5764.17
934.286	5725.98
934.594	5697.73
934.902	5665.42
935.21	5630.16
935.519	5691.4
935.827	5639.65
936.135	5571.63
936.443	5518.08
936.751	5517.62
937.059	5539.54
937.367	5497.96
937.674	5488.25
937.982	5443.05
938.29	5446.44
938.597	5399.21
938.905	5422.48
939.213	5318.08
939.52	5303.17
939.827	5299.1
940.135	5228.59
940.442	5254.35
940.749	5196.5
941.056	5248.25
941.363	5201.7
941.67	5208.03
941.977	5168.93
942.284	5112.44
942.591	5082.61
942.898	5065.66
943.205	5069.27
943.511	5037.86
943.818	5051.42
944.125	4979.33
944.431	5008.94
944.738	4996.06
945.044	4952.89
945.35	4919.45
945.657	4891.65
945.963	4871.09
946.269	4831.09
946.575	4842.61
946.881	4803.29
947.187	4802.39
947.493	4810.98
947.799	4754.71
948.105	4719
948.41	4657.53
948.716	4685.55
949.022	4693.69
949.327	4665.67
949.633	4586.57
949.938	4587.93
950.244	4604.43
950.549	4552.68
950.854	4556.52
951.16	4512.68
951.465	4505.22
951.77	4473.58
952.075	4466.13
952.38	4488.72
952.685	4485.11
952.99	4406.69
953.294	4408.95
953.599	4373.02
953.904	4371.89
954.209	4273.59
954.513	4338.9
954.818	4300.48
955.122	4271.55
955.426	4275.85
955.731	4186.81
956.035	4225.68
956.339	4191.33
956.643	4212.57
956.948	4168.05
957.252	4141.61
957.556	4156.76
957.86	4074.27
958.163	4131.67
958.467	4070.88
958.771	4066.14
959.075	4051.9
959.378	4038.79
959.682	4026.59
959.985	4002.63
960.289	3977.1
960.592	3963.99
960.896	3940.72
961.199	3932.58
961.502	3869.53
961.805	3846.25
962.108	3864.33
962.411	3796.99
962.714	3864.33
963.017	3800.38
963.32	3835.18
963.623	3780.72
963.926	3770.1
964.228	3756.31
964.531	3739.14
964.833	3750.21
965.136	3672.93
965.438	3700.95
965.741	3689.42
966.043	3641.74
966.345	3614.4
966.648	3626.83
966.95	3613.49
967.252	3587.28
967.554	3579.82
967.856	3599.03
968.158	3521.07
968.46	3506.15
968.761	3518.35
969.063	3491.01
969.365	3480.39
969.666	3454.85
969.968	3463.44
970.269	3458.24
970.571	3432.03
970.872	3418.24
971.174	3422.09
971.475	3378.7
971.776	3335.08
972.077	3302.09
972.378	3340.51
972.679	3347.96
972.98	3315.2
973.281	3298.47
973.582	3307.06
973.883	3253.95
974.183	3234.07
974.484	3210.11
974.785	3189.1
975.085	3181.64
975.386	3181.41
975.686	3177.8
975.986	3148.19
976.287	3194.52
976.587	3113.39
976.887	3126.95
977.187	3096.9
977.487	3076.33
977.787	3039.27
978.087	3051.47
978.387	3021.64
978.687	3053.06
978.987	3053.06
979.286	3008.31
979.586	3022.55
979.885	2984.58
980.185	2988.88
980.484	2955.43
980.784	2956.79
981.083	2945.04
981.382	2941.42
981.682	2889.22
981.981	2924.25
982.28	2866.62
982.579	2848.54
982.878	2852.16
983.177	2860.97
983.475	2843.12
983.774	2830.91
984.073	2803.8
984.372	2770.8
984.67	2769.22
984.969	2799.28
985.267	2765.15
985.566	2756.57
985.864	2708.66
986.162	2746.62
986.461	2709.11
986.759	2660.07
987.057	2686.96
987.355	2656.68
987.653	2613.97
987.951	2633.86
988.249	2624.14
988.547	2634.76
988.844	2606.97
989.142	2583.69
989.44	2595.67
989.737	2582.11
990.035	2516.8
990.332	2557.02
990.63	2557.25
990.927	2505.05
991.224	2491.71
991.521	2505.05
991.819	2461.43
992.116	2464.82
992.413	2485.39
992.71	2447.2
993.006	2428.21
993.303	2403.13
993.6	2408.78
993.897	2425.5
994.193	2368.55
994.49	2374.66
994.787	2368.1
995.083	2351.83
995.379	2370.14
995.676	2319.52
995.972	2327.65
996.268	2331.49
996.565	2317.03
996.861	2315
997.157	2287.65
997.453	2248.33
997.749	2280.19
998.044	2244.94
998.34	2274.77
998.636	2241.33
998.932	2187.09
999.227	2204.72
999.523	2174.66
999.818	2204.94
1000.114	2178.28
1000.409	2115.9
1000.704	2128.79
1001	2149.12
1001.295	2117.26
1001.59	2125.85
1001.885	2105.06
1002.18	2097.15
1002.475	2090.82
1002.77	2058.73
1003.065	2079.97
1003.359	2052.63
1003.654	2011.5
1003.949	2025.06
1004.243	2008.34
1004.538	1983.25
1004.832	2029.35
1005.127	1958.17
1005.421	1961.78
1005.715	1958.62
1006.009	1939.86
1006.304	1923.59
1006.598	1930.82
1006.892	1918.4
1007.186	1879.75
1007.48	1882.92
1007.773	1906.19
1008.067	1844.05
1008.361	1835.46
1008.655	1843.14
1008.948	1840.88
1009.242	1828.68
1009.535	1816.25
1009.829	1846.31
1010.122	1795.69
1010.415	1792.07
1010.708	1799.98
1011.001	1764.95
1011.295	1770.38
1011.588	1767.89
1011.881	1724.73
1012.173	1712.53
1012.466	1733.32
1012.759	1706.65
1013.052	1720.66
1013.344	1679.08
1013.637	1670.27
1013.93	1681.57
1014.222	1664.84
1014.514	1662.13
1014.807	1636.82
1015.099	1634.34
1015.391	1619.19
1015.683	1644.5
1015.976	1597.27
1016.268	1598.86
1016.56	1565.41
1016.851	1582.81
1017.143	1582.36
1017.435	1544.62
1017.727	1555.92
1018.018	1526.99
1018.31	1554.56
1018.602	1546.88
1018.893	1509.14
1019.185	1523.38
1019.476	1498.07
1019.767	1474.57
1020.058	1458.07
1020.35	1432.31
1020.641	1455.36
1020.932	1462.36
1021.223	1447
1021.514	1426.88
1021.804	1428.01
1022.095	1376.94
1022.386	1403.16
1022.677	1389.6
1022.967	1362.03
1023.258	1376.49
1023.548	1362.25
1023.839	1333.1
1024.129	1352.76
1024.419	1345.08
1024.709	1332.2
1025	1323.16
1025.29	1325.64
1025.58	1289.26
1025.87	1253.1
1026.16	1273.22
1026.449	1255.14
1026.739	1239.32
1027.029	1245.65
1027.319	1260.11
1027.608	1228.92
1027.898	1232.76
1028.187	1219.66
1028.477	1211.97
1028.766	1209.04
1029.055	1166.33
1029.344	1178.08
1029.634	1155.93
1029.923	1179.66
1030.212	1169.94
1030.501	1134.91
1030.79	1141.47
1031.078	1150.96
1031.367	1124.97
1031.656	1113.9
1031.945	1125.2
1032.233	1109.83
1032.522	1071.41
1032.81	1098.3
1033.099	1106.89
1033.387	1093.56
1033.675	1075.48
1033.963	1065.99
1034.251	1096.04
1034.54	1073.45
1034.828	1040.9
1035.116	1058.08
1035.403	1011.75
1035.691	1022.6
1035.979	1064.41
1036.267	1008.36
1036.554	1036.16
1036.842	1002.49
1037.129	1003.39
1037.417	997.74
1037.704	999.1
1037.992	996.84
1038.279	973.79
1038.566	985.31
1038.853	985.31
1039.14	985.31
