Data from red_cardboard_box_FLMS001491_00027.txt Node
Date: Wed Feb 08 11:31:46 GMT 2017
User: dcchb
Spectrometer: FLMS00149
Trigger mode: 0
Integration Time (sec): 2.000000E-2
Scans to average: 10
Electric dark correction enabled: true
Nonlinearity correction enabled: false
Boxcar width: 0
XAxis mode: Wavelengths
Number of Pixels in Spectrum: 2048
>>>>>Begin Spectral Data<<<<<
341.393	1.1
341.776	1.1
342.16	1.1
342.543	-60.82
342.927	-67.37
343.31	-79.12
343.693	-69.4
344.077	-73.02
344.46	-50.87
344.843	-46.58
345.226	-38.22
345.61	-44.32
345.993	-24.89
346.376	-10.42
346.759	19.41
347.142	36.58
347.525	41.55
347.908	65.51
348.291	83.81
348.674	89.69
349.057	100.31
349.44	118.39
349.823	155.22
350.206	168.78
350.588	197.71
350.971	206.07
351.354	239.74
351.737	250.36
352.119	254.43
352.502	284.48
352.884	261.43
353.267	285.39
353.65	305.5
354.032	305.27
354.414	320.87
354.797	331.04
355.179	320.42
355.562	329.45
355.944	324.03
356.326	347.99
356.709	347.76
357.091	346.4
357.473	343.92
357.855	369.45
358.238	357.48
358.62	343.69
359.002	326.97
359.384	349.12
359.766	329
360.148	330.13
360.53	355.67
360.912	361.09
361.294	336.46
361.676	357.25
362.057	323.81
362.439	319.96
362.821	310.7
363.203	346.4
363.584	342.34
363.966	336.23
364.348	331.49
364.729	313.64
365.111	326.52
365.493	339.62
365.874	321.77
366.256	314.09
366.637	336.46
367.019	315.67
367.4	321.32
367.781	342.34
368.163	316.12
368.544	326.29
368.925	317.93
369.306	328.1
369.688	333.97
370.069	335.56
370.45	313.86
370.831	311.15
371.212	317.25
371.593	323.58
371.974	314.77
372.355	296.24
372.736	310.92
373.117	303.47
373.498	335.1
373.879	320.42
374.26	319.96
374.641	317.48
375.021	308.21
375.402	317.03
375.783	314.09
376.163	336.23
376.544	319.51
376.925	309.57
377.305	317.25
377.686	325.16
378.066	319.51
378.447	350.25
378.827	321.09
379.208	335.1
379.588	346.4
379.968	334.65
380.349	338.04
380.729	350.92
381.109	323.58
381.489	347.53
381.87	322.22
382.25	335.33
382.63	358.15
383.01	338.49
383.39	325.84
383.77	340.53
384.15	340.98
384.53	348.89
384.91	341.43
385.29	345.27
385.67	370.13
386.049	343.69
386.429	338.95
386.809	374.2
387.189	368.32
387.568	344.14
387.948	342.34
388.328	339.85
388.707	361.77
389.087	354.76
389.466	357.7
389.846	348.44
390.225	359.96
390.605	358.83
390.984	357.25
391.363	380.53
391.743	361.09
392.122	353.86
392.501	386.63
392.881	383.24
393.26	369.23
393.639	339.17
394.018	382.79
394.397	371.04
394.776	364.71
395.155	383.24
395.534	383.46
395.913	373.07
396.292	383.01
396.671	381.88
397.05	366.52
397.429	379.85
397.808	370.36
398.186	359.51
398.565	393.86
398.944	396.57
399.323	377.14
399.701	371.71
400.08	372.39
400.458	421.43
400.837	401.09
401.215	395.89
401.594	415.33
401.972	386.4
402.351	399.51
402.729	408.1
403.107	397.02
403.486	393.63
403.864	385.72
404.242	392.5
404.62	411.49
404.999	401.54
405.377	391.15
405.755	414.88
406.133	416.01
406.511	420.53
406.889	421.2
407.267	432.5
407.645	435.67
408.023	437.47
408.401	425.5
408.779	421.66
409.156	420.3
409.534	430.24
409.912	446.74
410.29	426.85
410.667	437.02
411.045	435.67
411.422	449.45
411.8	465.95
412.178	458.49
412.555	464.14
412.933	467.53
413.31	467.76
413.687	455.1
414.065	467.98
414.442	465.04
414.819	485.38
415.197	456
415.574	467.08
415.951	479.28
416.328	473.63
416.705	476.57
417.082	492.61
417.46	488.09
417.837	472.05
418.214	481.09
418.591	473.86
418.967	496.68
419.344	481.99
419.721	491.26
420.098	491.26
420.475	495.55
420.852	492.39
421.228	487.87
421.605	502.78
421.982	517.02
422.358	503.01
422.735	506.17
423.111	525.61
423.488	525.38
423.864	516.34
424.241	514.08
424.617	517.47
424.994	525.16
425.37	530.81
425.746	525.61
426.123	526.06
426.499	545.27
426.875	542.56
427.251	549.79
427.627	566.74
428.003	572.84
428.379	554.99
428.756	563.57
429.132	543.91
429.507	564.7
429.883	565.38
430.259	594.53
430.635	566.96
431.011	597.24
431.387	573.97
431.763	585.04
432.138	588.66
432.514	597.24
432.89	586.85
433.265	592.72
433.641	620.52
434.016	618.26
434.392	604.7
434.767	626.4
435.143	630.24
435.518	632.5
435.894	636.57
436.269	638.15
436.644	633.85
437.02	634.53
437.395	632.72
437.77	648.77
438.145	666.62
438.52	667.07
438.895	671.59
439.271	674.98
439.646	673.63
440.021	667.98
440.395	679.28
440.77	666.85
441.145	660.75
441.52	707.75
441.895	696.22
442.27	686.73
442.645	692.16
443.019	699.61
443.394	695.32
443.769	700.74
444.143	706.62
444.518	703
444.892	721.76
445.267	697.58
445.641	723.57
446.016	708.65
446.39	723.57
446.764	730.8
447.139	745.04
447.513	738.71
447.887	750.91
448.262	724.47
448.636	723.79
449.01	742.1
449.384	752.49
449.758	747.07
450.132	773.28
450.506	759.95
450.88	747.3
451.254	766.28
451.628	786.39
452.002	762.89
452.376	778.03
452.75	797.69
453.123	792.95
453.497	803.11
453.871	767.64
454.244	808.99
454.618	798.82
454.992	836.11
455.365	818.26
455.739	817.35
456.112	820.52
456.486	853.06
456.859	841.98
457.232	869.33
457.606	837.46
457.979	854.41
458.352	870.91
458.725	859.84
459.099	876.11
459.472	911.36
459.845	922.66
460.218	881.53
460.591	898.93
460.964	868.2
461.337	928.99
461.71	908.2
462.083	917.24
462.456	948.87
462.829	948.87
463.201	968.76
463.574	976.44
463.947	975.31
464.32	996.78
464.692	986.61
465.065	985.48
465.438	1019.15
465.81	985.48
466.183	1019.83
466.555	1050.57
466.928	1056.44
467.3	1030
467.672	1034.29
468.045	1056.22
468.417	1061.64
468.789	1045.14
469.161	1093.5
469.534	1080.17
469.906	1093.05
470.278	1129.21
470.65	1128.53
471.022	1146.61
471.394	1148.87
471.766	1169.21
472.138	1197
472.51	1197.68
472.882	1188.87
473.253	1201.07
473.625	1218.7
473.997	1230
474.369	1244.23
474.74	1270.22
475.112	1305.7
475.484	1291.46
475.855	1332.82
476.227	1303.21
476.598	1369.43
476.97	1345.47
477.341	1383.21
477.713	1408.3
478.084	1358.58
478.455	1445.36
478.827	1443.1
479.198	1461.85
479.569	1482.64
479.94	1512.7
480.311	1498.92
480.682	1569.65
481.053	1576.65
481.424	1559.25
481.795	1581.63
482.166	1598.12
482.537	1616.43
482.908	1661.85
483.279	1654.84
483.65	1718.12
484.021	1729.87
484.391	1776.42
484.762	1769.19
485.133	1768.96
485.503	1810.09
485.874	1861.17
486.244	1840.38
486.615	1871.79
486.985	1867.49
487.356	1892.58
487.726	1967.6
488.097	1968.73
488.467	1977.32
488.837	2029.52
489.207	2029.97
489.578	2066.13
489.948	2059.35
490.318	2076.98
490.688	2122.63
491.058	2135.73
491.428	2181.84
491.798	2167.6
492.168	2212.57
492.538	2198.78
492.908	2218.22
493.278	2255.05
493.648	2291.21
494.017	2294.37
494.387	2315.84
494.757	2328.72
495.126	2366.92
495.496	2352.23
495.866	2385.9
496.235	2418.89
496.605	2450.75
496.974	2419.34
497.344	2472.9
497.713	2488.72
498.082	2484.43
498.452	2515.61
498.821	2543.63
499.19	2578.89
499.559	2559
499.928	2590.41
500.298	2593.8
500.667	2636.96
501.036	2603.75
501.405	2680.58
501.774	2660.01
502.143	2693.01
502.512	2658.66
502.88	2692.78
503.249	2716.06
503.618	2772.1
503.987	2752.67
504.356	2825.66
504.724	2806.23
505.093	2801.71
505.462	2816.39
505.83	2841.93
506.199	2877.18
506.567	2888.71
506.936	2894.58
507.304	2954.92
507.672	2944.53
508.041	2998.09
508.409	3002.38
508.777	2993.57
509.145	3059.55
509.514	3066.11
509.882	3062.94
510.25	3125.99
510.618	3138.19
510.986	3149.95
511.354	3179.1
511.722	3201.7
512.09	3217.29
512.458	3224.52
512.826	3246.67
513.193	3241.24
513.561	3279.66
513.929	3317.4
514.297	3314.69
514.664	3344.97
515.032	3369.6
515.4	3430.84
515.767	3418.41
516.135	3414.57
516.502	3436.72
516.869	3493.44
517.237	3498.64
517.604	3507.68
517.972	3558.52
518.339	3600.78
518.706	3575.24
519.073	3568.92
519.44	3607.79
519.808	3668.35
520.175	3683.94
520.542	3716.71
520.909	3736.14
521.276	3753.09
521.643	3824.05
522.009	3808.91
522.376	3885.75
522.743	3908.8
523.11	3917.38
523.477	3983.14
523.843	3976.14
524.21	4052.97
524.577	4064.05
524.943	4077.15
525.31	4080.32
525.676	4149.02
526.043	4210.03
526.409	4221.78
526.776	4221.56
527.142	4243.48
527.508	4287.09
527.874	4325.28
528.241	4339.97
528.607	4384.94
528.973	4376.81
529.339	4388.56
529.705	4480.98
530.071	4521.89
530.437	4462
530.803	4547.87
531.169	4553.52
531.535	4587.2
531.901	4653.41
532.267	4635.78
532.632	4636.69
532.998	4698.38
533.364	4689.79
533.73	4712.16
534.095	4784.03
534.461	4765.5
534.826	4817.25
535.192	4867.19
535.557	4931.14
535.923	4909.9
536.288	4931.14
536.653	4924.36
537.019	4967.52
537.384	4955.55
537.749	5005.72
538.114	5017.24
538.479	5034.19
538.845	5072.38
539.21	5047.07
539.575	5077.8
539.94	5180.17
540.305	5167.75
540.67	5180.17
541.034	5200.06
541.399	5278.7
541.764	5227.86
542.129	5255.2
542.494	5336.55
542.858	5327.52
543.223	5341.3
543.587	5398.02
543.952	5395.54
544.316	5394.86
544.681	5459.72
545.045	5439.6
545.41	5461.52
545.774	5559.6
546.138	5531.58
546.503	5536.1
546.867	5567.06
547.231	5667.62
547.595	5667.85
547.959	5679.6
548.324	5727.28
548.688	5753.27
549.052	5808.63
549.416	5790.78
549.779	5808.41
550.143	5847.5
550.507	5902.64
550.871	5928.18
551.235	5974.73
551.599	6007.05
551.962	6000.04
552.326	6000.49
552.689	6072.35
553.053	6085.46
553.417	6075.52
553.78	6197.32
554.143	6209.3
554.507	6252.46
554.87	6284.33
555.234	6327.49
555.597	6343.53
555.96	6413.81
556.323	6433.7
556.686	6482.06
557.05	6559.12
557.413	6548.27
557.776	6605.9
558.139	6647.48
558.502	6682.96
558.865	6731.09
559.228	6839.79
559.59	6879.79
559.953	6896.51
560.316	6974.7
560.679	6986.68
561.041	7068.71
561.404	7128.82
561.767	7254.24
562.129	7191.2
562.492	7292.66
562.854	7338.76
563.217	7374.92
563.579	7429.61
563.941	7584.18
564.304	7592.54
564.666	7658.3
565.028	7739.66
565.39	7788.47
565.753	7922.02
566.115	7871.18
566.477	7968.58
566.839	8088.35
567.201	8158.63
567.563	8211.51
567.925	8253.77
568.287	8380.54
568.648	8385.06
569.01	8517.26
569.372	8584.15
569.734	8658.28
570.095	8792.96
570.457	8864.15
570.819	8931.26
571.18	9004.71
571.542	9051.03
571.903	9128.77
572.265	9256
572.626	9301.42
572.987	9405.83
573.349	9477.91
573.71	9617.57
574.071	9714.97
574.432	9792.03
574.794	9926.04
575.155	9982.53
575.516	10021.63
575.877	10206.26
576.238	10282.19
576.599	10383.88
576.96	10520.83
577.32	10680.59
577.681	10754.27
578.042	10867.48
578.403	11005.11
578.763	11202.39
579.124	11231.99
579.485	11462.5
579.845	11525.09
580.206	11646.67
580.566	11778.19
580.927	11911.52
581.287	12099.54
581.648	12303.15
582.008	12499.53
582.368	12599.41
582.728	12816.58
583.089	12946.52
583.449	13115.56
583.809	13293.63
584.169	13511.48
584.529	13646.39
584.889	13992.37
585.249	13952.83
585.609	14240.28
585.969	14585.8
586.329	14720.94
586.688	15038.45
587.048	15237.31
587.408	15341.94
587.768	15678.66
588.127	15976.27
588.487	16305.31
588.846	16581.68
589.206	16679.76
589.565	17127.43
589.925	17469.34
590.284	17778.04
590.643	17990.91
591.003	18368.75
591.362	18733.04
591.721	18944.33
592.08	19304.77
592.44	19602.85
592.799	19908.6
593.158	20314.24
593.517	20660.67
593.876	21032.64
594.235	21286.42
594.593	21785.16
594.952	22204.36
595.311	22503.33
595.67	22872.36
596.029	23355.74
596.387	23645.68
596.746	24217.64
597.104	24368.82
597.463	24769.94
597.822	25191.63
598.18	25432.07
598.538	25896.92
598.897	26512.27
599.255	26585.49
599.613	27494.62
599.972	27547.27
600.33	28178.44
600.688	28413.91
601.046	28788.14
601.404	29350.84
601.762	29720.32
602.12	30256.35
602.478	30593.97
602.836	30961.19
603.194	31162.77
603.552	31564.57
603.91	31917.55
604.268	32435.96
604.625	32829.17
604.983	33327.68
605.341	33357.06
605.698	34089.92
606.056	34397.03
606.413	34740.08
606.771	35133.96
607.128	35483.33
607.485	35691.69
607.843	36033.83
608.2	36514.04
608.557	36789.51
608.914	37071.77
609.272	37456.16
609.629	37975.7
609.986	38295.69
610.343	38334.11
610.7	38932.06
611.057	39066.29
611.414	39305.38
611.771	39648.65
612.127	39958.7
612.484	40173.83
612.841	40478.91
613.198	40632.12
613.554	40915.73
613.911	41225.1
614.267	41535.6
614.624	41628.26
614.98	41937.17
615.337	42281.12
615.693	42338.29
616.05	42632.3
616.406	42926.3
616.762	42962.68
617.118	43114.09
617.475	43172.85
617.831	43716.34
618.187	43778.93
618.543	43969.44
618.899	44473.83
619.255	44416.43
619.611	44447.39
619.967	44831.56
620.323	44968.51
620.678	44989.52
621.034	45051.44
621.39	45084.21
621.746	45316.29
622.101	45793.57
622.457	45543.41
622.812	45777.98
623.168	45872.89
623.523	45972.1
623.879	46211.64
624.234	45967.35
624.589	46279.21
624.945	46335.48
625.3	46483.04
625.655	46600.55
626.01	46656.37
626.365	46699.08
626.72	46772.08
627.075	46792.64
627.43	46989.24
627.785	46858.17
628.14	47056.14
628.495	47077.83
628.85	47240.09
629.205	47217.71
629.559	47525.95
629.914	47330.25
630.269	47403.92
630.623	47295.68
630.978	47363.02
631.332	47467.42
631.687	47657.25
632.041	47504.71
632.396	47649.57
632.75	47619.96
633.104	47680.53
633.459	47530.47
633.813	47442.34
634.167	47648.44
634.521	47710.58
634.875	47688.44
635.229	47703.58
635.583	47513.52
635.937	47598.27
636.291	47640.75
636.645	47578.38
636.999	47584.48
637.352	47724.14
637.706	47402.34
638.06	47694.99
638.413	47570.02
638.767	47561.43
639.121	47551.04
639.474	47429.23
639.828	47526.63
640.181	47725.27
640.534	47741.77
640.888	47626.74
641.241	47391.49
641.594	47598.27
641.947	47680.98
642.301	47481.44
642.654	47656.35
643.007	47695.44
643.36	47585.16
643.713	47651.37
644.066	47807.98
644.419	47571.83
644.771	47214.78
645.124	46817.95
645.477	46836.03
645.83	46618.18
646.182	46550.16
646.535	46477.85
646.888	46585.19
647.24	46395.36
647.593	46594.45
647.945	46633.55
648.298	46490.27
648.65	46309.94
649.002	46287.79
649.355	46412.54
649.707	46465.19
650.059	46617.05
650.411	46967.55
650.763	47131.84
651.115	47497.25
651.467	47316.69
651.819	47367.77
652.171	47320.54
652.523	47272.4
652.875	47379.29
653.227	47183.36
653.578	47477.59
653.93	47353.53
654.282	47206.64
654.633	47020.66
654.985	47166.87
655.337	47290.48
655.688	47213.19
656.039	47357.82
656.391	47023.59
656.742	47130.48
657.094	47178.84
657.445	47382.45
657.796	47196.7
658.147	47152.63
658.498	47135.91
658.849	47182.23
659.2	47175.91
659.551	46972.3
659.902	47137.26
660.253	47121.9
660.604	46978.85
660.955	46941.79
661.306	47071.73
661.656	47144.95
662.007	47215.23
662.358	47111.5
662.708	47043.71
663.059	47114.44
663.409	46823.15
663.76	47180.88
664.11	47107.66
664.461	47176.58
664.811	47218.17
665.161	47048.23
665.511	46982.01
665.862	47027.44
666.212	47209.35
666.562	47170.71
666.912	47058.85
667.262	46956.48
667.612	47110.37
667.962	46976.59
668.312	46923.71
668.662	47252.29
669.011	47071.28
669.361	47056.59
669.711	47025.18
670.06	47050.03
670.41	46827.22
670.76	46809.59
671.109	46990.37
671.459	46962.58
671.808	46862.92
672.157	46951.05
672.507	46652.98
672.856	46696.37
673.205	46799.42
673.554	46791.51
673.904	46724.84
674.253	46929.13
674.602	46810.72
674.951	46140
675.3	46055.03
675.649	46749.03
675.998	46558.97
676.346	46655.47
676.695	46665.19
677.044	46380.22
677.393	46523.27
677.741	46658.63
678.09	46483.5
678.438	46445.76
678.787	46440.78
679.135	46491.63
679.484	46319.66
679.832	46410.05
680.181	46197.63
680.529	46304.97
680.877	46137.74
681.225	46100.68
681.573	46382.48
681.922	46070.17
682.27	45985.43
682.618	46081.92
682.966	45918.31
683.314	45994.02
683.661	45863.62
684.009	45641.03
684.357	45478.78
684.705	45421.83
685.053	45625.66
685.4	45490.08
685.748	45326.92
686.095	45387.48
686.443	45199.69
686.79	45113.36
687.138	45206.47
687.485	45142.29
687.832	44974.83
688.18	45183.19
688.527	44835.63
688.874	44709.98
689.221	44755.18
689.568	44505.24
689.915	44586.82
690.262	44622.53
690.609	44502.3
690.956	44256.89
691.303	44313.38
691.65	44053.28
691.997	43976.67
692.344	43855.32
692.69	43902.55
693.037	43883.11
693.383	43539.62
693.73	43644.47
694.077	43320.19
694.423	43288.1
694.769	43314.77
695.116	43159.06
695.462	43077.94
695.808	42974.44
696.155	42912.97
696.501	42731.05
696.847	42811.05
697.193	42549.36
697.539	42679.75
697.885	42197.51
698.231	42410.38
698.577	42383.94
698.923	42231.63
699.269	41958.42
699.614	41709.16
699.96	41616.73
700.306	41873.45
700.651	41652.66
700.997	41437.3
701.342	41466.45
701.688	41299.9
702.033	41239.34
702.379	41185.1
702.724	41047.25
703.069	41166.35
703.415	40735.17
703.76	40838.9
704.105	40785.57
704.45	40493.6
704.795	40381.96
705.14	40277.1
705.485	40391
705.83	40141.06
706.175	40203.43
706.52	40108.52
706.865	40006.6
707.209	39905.36
707.554	39823.33
707.899	39942.88
708.243	39734.52
708.588	39733.62
708.932	39368.2
709.277	39363.23
709.621	39372.95
709.966	39040.98
710.31	39188.55
710.654	38907.2
710.998	39054.09
711.342	39043.46
711.687	39124.14
712.031	38738.16
712.375	38544.95
712.719	38711.72
713.063	38633.08
713.407	38646.64
713.75	38413.88
714.094	38545.4
714.438	38225.18
714.782	38319.64
715.125	38044.17
715.469	38224.5
715.812	37935.25
716.156	37815.7
716.499	37857.73
716.843	37975.24
717.186	37736.83
717.53	37936.6
717.873	37840.56
718.216	37724.86
718.559	37623.84
718.902	37225.66
719.246	37383.4
719.589	37200.35
719.932	37166.45
720.275	37193.34
720.617	37095.72
720.96	37030.86
721.303	37078.32
721.646	37086.45
721.989	36777.08
722.331	36863.86
722.674	36784.99
723.016	36790.64
723.359	36812.34
723.701	36805.11
724.044	36543.42
724.386	36346.81
724.729	36546.58
725.071	36461.61
725.413	36344.33
725.755	36278.11
726.097	36170.32
726.439	36020.04
726.782	36119.47
727.124	36207.83
727.465	35985.92
727.807	35966.26
728.149	35982.08
728.491	35832.25
728.833	35912.02
729.175	35680.16
729.516	35610.56
729.858	35554.07
730.199	35702.99
730.541	35685.81
730.882	35559.26
731.224	35599.26
731.565	35265.03
731.906	35386.61
732.248	35383.45
732.589	35185.94
732.93	35221.87
733.271	35164.24
733.612	35077.69
733.953	35136
734.294	34999.28
734.635	34973.06
734.976	35129.22
735.317	35008.32
735.658	34758.15
735.999	34771.94
736.339	34632.73
736.68	34840.19
737.021	34605.39
737.361	34582.11
737.702	34825.95
738.042	34537.14
738.383	34579.63
738.723	34531.72
739.063	34357.03
739.404	34452.4
739.744	34313.42
740.084	34279.3
740.424	34331.5
740.764	34310.93
741.104	34394.77
741.444	34088.57
741.784	34075.46
742.124	34009.7
742.464	34027.55
742.804	34000.43
743.143	33902.13
743.483	33923.37
743.823	33654.23
744.162	33729.03
744.502	33680.67
744.841	33616.26
745.181	33625.53
745.52	33654.23
745.86	33549.15
746.199	33618.97
746.538	33544.17
746.877	33530.16
747.216	33490.16
747.556	33331.07
747.895	33375.14
748.234	33349.38
748.573	33153.68
748.911	33208.36
749.25	33125.43
749.589	33094.24
749.928	33065.77
750.267	33060.8
750.605	32921.14
750.944	32764.53
751.283	32799.56
751.621	32931.54
751.96	32617.42
752.298	32484.09
752.636	32508.95
752.975	32465.78
753.313	32413.36
753.651	32563.86
753.989	32237.99
754.327	32346.24
754.666	31997.77
755.004	32270.54
755.342	31948.96
755.679	31980.37
756.017	31797.33
756.355	31990.54
756.693	31755.29
757.031	31837.55
757.368	31612.47
757.706	31582.42
758.044	31440.5
758.381	31536.09
758.719	31411.58
759.056	31324.35
759.394	31302.88
759.731	31091.58
760.068	31178.36
760.405	30965.26
760.743	30934.98
761.08	30999.61
761.417	30853.4
761.754	30918.25
762.091	30704.02
762.428	30556.91
762.765	30342.22
763.102	30440.98
763.438	30303.36
763.775	30185.84
764.112	30103.14
764.449	30128.45
764.785	29983.59
765.122	29823.14
765.458	29607.1
765.795	29687.78
766.131	29636.25
766.467	29500.21
766.804	29350.16
767.14	29356.94
767.476	29264.29
767.812	29122.82
768.148	29154.69
768.485	28935.48
768.821	28761.93
769.157	28785.2
769.492	28751.31
769.828	28666.34
770.164	28430.18
770.5	28417.3
770.836	28438.55
771.171	28149.29
771.507	28085.79
771.842	27912.91
772.178	27989.07
772.513	27930.76
772.849	27846.25
773.184	27709.75
773.519	27759.02
773.855	27664.56
774.19	27411.68
774.525	27368.74
774.86	27396.31
775.195	27138.69
775.53	27206.26
775.865	26975.31
776.2	26884.91
776.535	26656.67
776.87	26644.02
777.205	26667.52
777.539	26486.28
777.874	26501.87
778.209	26274.99
778.543	26288.77
778.878	26033.41
779.212	26139.4
779.547	25947.99
779.881	25933.3
780.215	25819.18
780.55	25824.83
780.884	25713.65
781.218	25638.17
781.552	25511.84
781.886	25467.1
782.22	25240.21
782.554	25253.55
782.888	25070.72
783.222	24908.92
783.556	24822.6
783.889	24792.09
784.223	24526.78
784.557	24601.36
784.89	24576.5
785.224	24500.8
785.557	24327.24
785.891	24324.76
786.224	24148.26
786.558	24190.07
786.891	24047.25
787.224	23897.42
787.557	23885.67
787.891	23797.09
788.224	23772.91
788.557	23646.13
788.89	23712.12
789.223	23569.3
789.556	23496.53
789.888	23400.26
790.221	23275.29
790.554	23043.89
790.887	23030.1
791.219	23035.98
791.552	22875.53
791.884	22814.51
792.217	22765.02
792.549	22794.17
792.882	22525.71
793.214	22483
793.546	22412.49
793.879	22294.3
794.211	22093.4
794.543	22389.44
794.875	22172.72
795.207	22301.08
795.539	22048.43
795.871	22073.97
796.203	21905.84
796.535	21812.51
796.867	21829
797.198	21749
797.53	21734.77
797.862	21580.65
798.193	21593.98
798.525	21403.02
798.856	21435.57
799.188	21201.22
799.519	21203.26
799.85	21054.33
800.182	21190.83
800.513	21034.45
800.844	20873.32
801.175	20933.21
801.506	20930.49
801.837	20767.34
802.168	20725.75
802.499	20600.79
802.83	20576.38
803.161	20455.25
803.491	20425.88
803.822	20415.25
804.153	20342.04
804.483	20209.61
804.814	20174.81
805.145	20181.81
805.475	20044.64
805.805	20025.66
806.136	20015.26
806.466	20062.72
806.796	19988.6
807.126	19769.17
807.457	19752.22
807.787	19730.75
808.117	19645.78
808.447	19453.47
808.777	19719.68
809.107	19595.61
809.436	19441.72
809.766	19505.22
810.096	19401.27
810.426	19366.47
810.755	19295.28
811.085	19262.97
811.414	19157.21
811.744	19008.51
812.073	18998.79
812.403	19061.84
812.732	18997.44
813.061	19009.64
813.39	18783.43
813.719	18775.07
814.049	18788.63
814.378	18649.2
814.707	18654.85
815.036	18538.47
815.365	18559.94
815.693	18410.34
816.022	18400.62
816.351	18372.37
816.68	18245.37
817.008	18354.97
817.337	18220.96
817.665	18160.62
817.994	18201.75
818.322	18095.77
818.651	18024.81
818.979	18020.06
819.307	18100.51
819.636	17957.47
819.964	17850.12
820.292	17904.13
820.62	17906.39
820.948	17902.33
821.276	17881.08
821.604	17916.79
821.932	17852.16
822.259	17829.33
822.587	17836.11
822.915	17791.14
823.243	17769
823.57	17668.21
823.898	17799.28
824.225	17760.86
824.553	17770.35
824.88	17780.07
825.207	17861.65
825.535	17850.35
825.862	17797.7
826.189	17734.19
826.516	17799.96
826.843	17855.32
827.17	17796.11
827.497	17758.37
827.824	17883.8
828.151	17790.46
828.478	17748.21
828.805	17834.53
829.131	17684.48
829.458	17640.41
829.785	17615.1
830.111	17607.64
830.438	17737.13
830.764	17645.38
831.09	17771.71
831.417	17669.11
831.743	17774.42
832.069	17778.26
832.395	17623.92
832.722	17664.14
833.048	17641.54
833.374	17648.77
833.7	17541.43
834.026	17618.27
834.351	17600.86
834.677	17520.42
835.003	17596.35
835.329	17561.77
835.654	17503.01
835.98	17431.83
836.306	17389.57
836.631	17343.47
836.956	17460.53
837.282	17373.53
837.607	17241.1
837.932	17242
838.258	17270.48
838.583	17248.56
838.908	17155.45
839.233	17294.21
839.558	17159.29
839.883	17121.78
840.208	17101.22
840.533	17094.21
840.858	17103.02
841.182	17121.1
841.507	17055.34
841.832	16867.1
842.156	16877.04
842.481	16977.38
842.805	16862.58
843.13	16854.67
843.454	16854.67
843.778	16690.61
844.103	16744.16
844.427	16651.51
844.751	16653.32
845.075	16569.71
845.399	16451.52
845.723	16434.12
846.047	16477.05
846.371	16302.59
846.695	16218.53
847.019	16181.47
847.343	16077.29
847.666	16003.62
847.99	16016.95
848.313	16047.46
848.637	15794.81
848.96	15807.47
849.284	15724.3
849.607	15625.1
849.931	15641.59
850.254	15602.05
850.577	15500.36
850.9	15385.1
851.223	15318.67
851.546	15256.29
851.869	15124.32
852.192	15194.15
852.515	15122.51
852.838	15055.85
853.161	15058.11
853.483	15020.82
853.806	14899.02
854.129	14886.36
854.451	14845.01
854.774	14762.3
855.096	14614.73
855.419	14749.87
855.741	14577.67
856.063	14623.09
856.385	14558.23
856.708	14487.5
857.03	14485.92
857.352	14532.25
857.674	14397.79
857.996	14316.66
858.318	14241.41
858.64	14261.29
858.961	14220.16
859.283	14169.77
859.605	14133.39
859.926	14195.08
860.248	14038.92
860.57	13962.09
860.891	14057
861.212	13915.54
861.534	13920.51
861.855	13904.01
862.176	13902.43
862.498	13874.64
862.819	13791.47
863.14	13814.98
863.461	13754.19
863.782	13683.45
864.103	13757.58
864.424	13625.6
864.745	13693.4
865.065	13655.88
865.386	13589.9
865.707	13593.29
866.027	13563.23
866.348	13472.84
866.668	13509.67
866.989	13456.57
867.309	13343.58
867.63	13446.4
867.95	13411.37
868.27	13386.74
868.59	13338.38
868.91	13341.32
869.23	13233.52
869.55	13191.26
869.87	13271.49
870.19	13192.62
870.51	13217.48
870.83	13330.24
871.15	13118.72
871.469	13204.82
871.789	13223.13
872.109	13136.35
872.428	13055.9
872.748	13089.57
873.067	13078.5
873.386	13067.2
873.706	13017.03
874.025	12938.39
874.344	12935.22
874.663	12968.22
874.982	12955.11
875.301	12991.49
875.62	12895
875.939	12834.89
876.258	12804.61
876.577	12820.65
876.896	12796.25
877.214	12766.42
877.533	12752.63
877.852	12803.7
878.17	12758.73
878.489	12693.88
878.807	12662.24
879.125	12719.64
879.444	12688.68
879.762	12554.9
880.08	12678.96
880.398	12515.8
880.716	12554.44
881.034	12569.58
881.352	12452.53
881.67	12518.96
881.988	12582.69
882.306	12509.25
882.624	12448.46
882.941	12326.43
883.259	12267.45
883.577	12235.81
883.894	12257.95
884.212	12243.04
884.529	12289.59
884.846	12175.7
885.164	12213.89
885.481	12187.22
885.798	12113.1
886.115	12039.66
886.432	11999.88
886.75	11941.58
887.067	11955.82
887.383	11938.87
887.7	11926.44
888.017	11953.56
888.334	11864.97
888.651	11805.09
888.967	11805.76
889.284	11721.92
889.6	11723.51
889.917	11726.67
890.233	11678.76
890.55	11544.3
890.866	11594.47
891.182	11608.25
891.498	11557.18
891.815	11536.84
892.131	11486.9
892.447	11418.2
892.763	11389.28
893.079	11397.86
893.395	11435.38
893.71	11339.56
894.026	11289.39
894.342	11257.08
894.657	11210.3
894.973	11150.86
895.289	11169.17
895.604	11122.17
895.92	11049.62
896.235	10995.61
896.55	10960.36
896.865	10941.6
897.181	10852.34
897.496	10868.16
897.811	10745.23
898.126	10803.3
898.441	10780.93
898.756	10735.28
899.071	10675.62
899.386	10653.93
899.7	10576.64
900.015	10545.68
900.33	10443.09
900.644	10424.1
900.959	10464.78
901.273	10431.56
901.588	10400.15
901.902	10338.91
902.216	10269.31
902.531	10356.31
902.845	10217.1
903.159	10271.79
903.473	10138.46
903.787	10101.85
904.101	10058.01
904.415	10080.61
904.729	9954.29
905.042	9976.88
905.356	10014.17
905.67	9967.17
905.984	9894.63
906.297	9834.29
906.611	9776.44
906.924	9762.2
907.237	9738.7
907.551	9695.31
907.864	9658.93
908.177	9580.06
908.491	9597.01
908.804	9561.53
909.117	9498.93
909.43	9412.15
909.743	9372.61
910.056	9326.96
910.368	9373.74
910.681	9304.59
910.994	9327.18
911.307	9232.72
911.619	9144.36
911.932	9162.44
912.244	9077.25
912.557	9109.56
912.869	9057.81
913.181	9032.05
913.494	8943.47
913.806	8909.57
914.118	8824.37
914.43	8795.9
914.742	8806.29
915.054	8736.01
915.366	8748.89
915.678	8735.79
915.99	8698.27
916.302	8623.47
916.613	8641.1
916.925	8592.06
917.236	8577.83
917.548	8446.98
917.859	8469.58
918.171	8468.9
918.482	8389.58
918.794	8356.14
919.105	8288.12
919.416	8247.89
919.727	8209.7
920.038	8213.99
920.349	8120.66
920.66	8149.81
920.971	8108.91
921.282	8098.97
921.593	8011.74
921.903	7957.5
922.214	7991.17
922.525	7949.59
922.835	7868.01
923.146	7834.57
923.456	7857.17
923.767	7806.77
924.077	7804.96
924.387	7777.17
924.697	7643.61
925.008	7599.77
925.318	7659.88
925.628	7635.03
925.938	7556.84
926.248	7546.67
926.558	7508.93
926.867	7434.8
927.177	7386.22
927.487	7411.98
927.796	7296.73
928.106	7269.84
928.416	7261.02
928.725	7277.52
929.034	7257.86
929.344	7240.69
929.653	7267.13
929.962	7135.38
930.271	7081.14
930.581	7085.66
930.89	7051.76
931.199	7062.38
931.508	6991.43
931.817	7018.09
932.125	6992.1
932.434	6976.06
932.743	6860.81
933.051	6800.47
933.36	6774.48
933.669	6708.5
933.977	6737.42
934.286	6714.15
934.594	6677.54
934.902	6659.91
935.21	6643.41
935.519	6560.03
935.827	6623.3
936.135	6583.75
936.443	6496.07
936.751	6495.62
937.059	6482.97
937.367	6430.76
937.674	6384.44
937.982	6339.01
938.29	6351.67
938.597	6373.82
938.905	6291.56
939.213	6236.19
939.52	6224.89
939.827	6219.92
940.135	6165.23
940.442	6112.81
940.749	6137.44
941.056	6155.06
941.363	6044.78
941.67	6077.33
941.977	6048.4
942.284	5958.69
942.591	5917.56
942.898	5943.77
943.205	5926.82
943.511	5859.93
943.818	5903.55
944.125	5805.24
944.431	5857.9
944.738	5833.26
945.044	5751.23
945.35	5739.71
945.657	5691.57
945.963	5633.04
946.269	5647.96
946.575	5655.64
946.881	5609.32
947.187	5585.36
947.493	5536.78
947.799	5559.83
948.105	5516.44
948.41	5505.36
948.716	5467.4
949.022	5479.83
949.327	5397.12
949.633	5372.71
949.938	5412.94
950.244	5393.5
950.549	5299.72
950.854	5283.9
951.16	5288.19
951.465	5237.12
951.77	5215.88
952.075	5246.16
952.38	5169.33
952.685	5204.58
952.99	5137.01
953.294	5119.61
953.599	5094.75
953.904	5085.71
954.209	4996.45
954.513	5037.81
954.818	4985.83
955.122	4985.38
955.426	4959.62
955.731	4934.98
956.035	4847.98
956.339	4879.62
956.643	4848.66
956.948	4809.79
957.252	4842.1
957.556	4842.1
957.86	4730.24
958.163	4801.43
958.467	4742.67
958.771	4669.68
959.075	4717.14
959.378	4704.93
959.682	4683.01
959.985	4615.9
960.289	4644.82
960.592	4570.47
960.896	4622.45
961.199	4555.78
961.502	4522.34
961.805	4520.76
962.108	4507.88
962.411	4446.18
962.714	4474.88
963.017	4398.95
963.32	4471.72
963.623	4380.2
963.926	4401.21
964.228	4362.12
964.531	4363.7
964.833	4388.1
965.136	4290.03
965.438	4260.2
965.741	4272.18
966.043	4215.23
966.345	4272.18
966.648	4187.43
966.95	4176.13
967.252	4196.02
967.554	4173.2
967.856	4159.41
968.158	4095.91
968.46	4087.55
968.761	4091.16
969.063	4059.75
969.365	4049.36
969.666	4055.46
969.968	4000.54
970.269	4010.49
970.571	3962.81
970.872	3935.46
971.174	3932.75
971.475	3906.31
971.776	3903.37
972.077	3889.59
972.378	3874.45
972.679	3912.41
972.98	3840.1
973.281	3846.88
973.582	3782.25
973.883	3817.05
974.183	3752.87
974.484	3743.6
974.785	3742.92
975.085	3754.68
975.386	3702.93
975.686	3692.08
975.986	3664.28
976.287	3667.22
976.587	3659.54
976.887	3583.61
977.187	3612.53
977.487	3579.09
977.787	3551.52
978.087	3574.12
978.387	3553.32
978.687	3524.17
978.987	3527.79
979.286	3505.87
979.586	3488.02
979.885	3450.73
980.185	3432.2
980.484	3376.15
980.784	3403.72
981.083	3388.58
981.382	3363.05
981.682	3377.51
981.981	3363.95
982.28	3351.97
982.579	3316.49
982.878	3314.23
983.177	3303.39
983.475	3254.8
983.774	3268.59
984.073	3240.11
984.372	3252.77
984.67	3210.73
984.969	3220.23
985.267	3127.35
985.566	3160.34
985.864	3139.32
986.162	3121.25
986.461	3121.47
986.759	3091.87
987.057	3069.5
987.355	3068.37
987.653	3079.89
987.951	3065.2
988.249	3072.89
988.547	3017.97
988.844	3007.58
989.142	2987.92
989.44	3012.32
989.737	3005.77
990.035	2971.42
990.332	2926.9
990.63	2932.32
990.927	2919.44
991.224	2897.07
991.521	2895.71
991.819	2847.58
992.116	2873.79
992.413	2855.94
992.71	2842.61
993.006	2819.78
993.303	2809.84
993.6	2840.8
993.897	2812.78
994.193	2778.43
994.49	2759.45
994.787	2743.4
995.083	2716.74
995.379	2713.35
995.676	2701.82
995.972	2688.04
996.268	2675.16
996.565	2645.55
996.861	2650.75
997.157	2639.22
997.453	2638.55
997.749	2607.81
998.044	2586.57
998.34	2567.59
998.636	2590.86
998.932	2541.37
999.227	2512.45
999.523	2523.52
999.818	2490.3
1000.114	2470.87
1000.409	2466.12
1000.704	2488.72
1001	2493.92
1001.295	2448.49
1001.59	2457.08
1001.885	2436.07
1002.18	2383.19
1002.475	2412.79
1002.77	2382.96
1003.065	2372.11
1003.359	2345.9
1003.654	2352.23
1003.949	2308.84
1004.243	2314.04
1004.538	2259.12
1004.832	2305.45
1005.127	2292.11
1005.421	2254.83
1005.715	2242.17
1006.009	2239.01
1006.304	2226.35
1006.598	2224.09
1006.892	2200.14
1007.186	2174.15
1007.48	2214.15
1007.773	2160.82
1008.067	2158.11
1008.361	2152.68
1008.655	2119.01
1008.948	2130.54
1009.242	2090.99
1009.535	2061.61
1009.829	2056.41
1010.122	2064.55
1010.415	2064.55
1010.708	2076.53
1011.001	2031.56
1011.295	2011.44
1011.588	1993.82
1011.881	1963.99
1012.173	1980.94
1012.466	1977.55
1012.759	1942.07
1013.052	1975.51
1013.344	1942.07
1013.637	1949.53
1013.93	1921.73
1014.222	1905.46
1014.514	1909.3
1014.807	1878.79
1015.099	1877.66
1015.391	1855.74
1015.683	1837.89
1015.976	1819.58
1016.268	1806.93
1016.56	1805.35
1016.851	1773.26
1017.143	1794.05
1017.435	1792.47
1017.727	1756.99
1018.018	1752.69
1018.31	1737.1
1018.602	1710.89
1018.893	1721.96
1019.185	1696.88
1019.476	1661.85
1019.767	1690.1
1020.058	1678.35
1020.35	1660.49
1020.641	1633.38
1020.932	1649.19
1021.223	1630.21
1021.514	1620.49
1021.804	1633.6
1022.095	1583.43
1022.386	1558.57
1022.677	1594.05
1022.967	1555.19
1023.258	1569.42
1023.548	1546.82
1023.839	1520.16
1024.129	1513.15
1024.419	1512.02
1024.709	1488.07
1025	1482.87
1025.29	1476.09
1025.58	1467.05
1025.87	1479.03
1026.16	1450.1
1026.449	1447.17
1026.739	1446.26
1027.029	1427.05
1027.319	1394.96
1027.608	1407.84
1027.898	1375.08
1028.187	1364.23
1028.477	1355.64
1028.766	1368.07
1029.055	1360.16
1029.344	1349.77
1029.634	1326.94
1029.923	1341.63
1030.212	1299.15
1030.501	1301.41
1030.79	1309.77
1031.078	1261.86
1031.367	1263.22
1031.656	1287.85
1031.945	1263.89
1032.233	1245.81
1032.522	1239.49
1032.81	1226.61
1033.099	1217.79
1033.387	1231.58
1033.675	1202.88
1033.963	1211.69
1034.251	1207.62
1034.54	1172.82
1034.828	1164.91
1035.116	1191.13
1035.403	1175.53
1035.691	1138.92
1035.979	1152.94
1036.267	1123.11
1036.554	1133.95
1036.842	1108.87
1037.129	1121.98
1037.417	1096.21
1037.704	1113.84
1037.992	1090.79
1038.279	1104.8
1038.566	1064.58
1038.853	1064.58
1039.14	1064.58
