Data from red_shiny_book_FLMS001491_00009.txt Node
Date: Wed Feb 08 15:23:34 GMT 2017
User: dcchb
Spectrometer: FLMS00149
Trigger mode: 0
Integration Time (sec): 2.000000E-2
Scans to average: 10
Electric dark correction enabled: true
Nonlinearity correction enabled: false
Boxcar width: 0
XAxis mode: Wavelengths
Number of Pixels in Spectrum: 2048
>>>>>Begin Spectral Data<<<<<
341.393	-29.91
341.776	-29.91
342.16	-29.91
342.543	-55.45
342.927	-56.13
343.31	-76.92
343.693	-60.42
344.077	-70.82
344.46	-62.91
344.843	-34.21
345.226	-57.48
345.61	-17.49
345.993	-9.35
346.376	-8.22
346.759	15.28
347.142	9.86
347.525	30.42
347.908	60.93
348.291	74.72
348.674	102.06
349.057	104.55
349.44	112
349.823	139.57
350.206	174.15
350.588	181.38
350.971	211.66
351.354	225.45
351.737	267.93
352.119	276.07
352.502	274.94
352.884	267.93
353.267	286.01
353.65	306.57
354.032	304.77
354.414	303.64
354.797	306.35
355.179	328.27
355.562	336.4
355.944	334.14
356.326	337.08
356.709	350.87
357.091	336.86
357.473	361.26
357.855	374.37
358.238	356.97
358.62	360.58
359.002	355.39
359.384	362.17
359.766	360.36
360.148	353.13
360.53	347.7
360.912	348.15
361.294	343.41
361.676	333.92
362.057	340.7
362.439	333.24
362.821	336.18
363.203	349.96
363.584	334.37
363.966	325.1
364.348	320.13
364.729	333.24
365.111	344.31
365.493	325.78
365.874	332.79
366.256	354.26
366.637	333.24
367.019	314.71
367.4	333.01
367.781	331.43
368.163	316.97
368.544	331.21
368.925	340.7
369.306	334.82
369.688	335.5
370.069	333.69
370.45	326.01
370.831	332.34
371.212	336.18
371.593	321.94
371.974	327.36
372.355	322.39
372.736	341.15
373.117	326.91
373.498	342.73
373.879	335.95
374.26	333.47
374.641	346.12
375.021	329.17
375.402	337.53
375.783	341.6
376.163	335.27
376.544	328.04
376.925	334.37
377.305	337.31
377.686	361.26
378.066	331.43
378.447	354.48
378.827	359
379.208	355.61
379.588	378.44
379.968	349.74
380.349	365.56
380.729	356.74
381.109	345.44
381.489	347.93
381.87	361.94
382.25	363.52
382.63	384.31
383.01	356.29
383.39	369.62
383.77	359.23
384.15	356.52
384.53	366.69
384.91	371.88
385.29	372.33
385.67	374.82
386.049	375.27
386.429	369.85
386.809	355.61
387.189	365.1
387.568	381.6
387.948	391.32
388.328	385.22
388.707	400.36
389.087	388.15
389.466	413.24
389.846	371.43
390.225	372.56
390.605	375.05
390.984	410.98
391.363	396.51
391.743	419.11
392.122	396.97
392.501	404.65
392.881	406.01
393.26	402.16
393.639	415.72
394.018	405.33
394.397	406.46
394.776	406.46
395.155	406.46
395.534	415.5
395.913	439.23
396.292	407.59
396.671	411.43
397.05	414.59
397.429	406.23
397.808	427.47
398.186	408.49
398.565	424.08
398.944	400.58
399.323	426.8
399.701	426.57
400.08	427.25
400.458	433.35
400.837	448.27
401.215	428.38
401.594	435.38
401.972	437.19
402.351	457.98
402.729	433.58
403.107	462.5
403.486	439.9
403.864	466.34
404.242	460.69
404.62	464.31
404.999	433.8
405.377	459.79
405.755	460.47
406.133	467.02
406.511	469.73
406.889	476.06
407.267	509.05
407.645	507.25
408.023	480.58
408.401	490.3
408.779	469.73
409.156	496.17
409.534	521.71
409.912	509.05
410.29	501.82
410.667	508.15
411.045	527.36
411.422	539.11
411.8	525.55
412.178	524.87
412.555	533.23
412.933	517.42
413.31	544.53
413.687	551.31
414.065	556.06
414.442	573.23
414.819	568.94
415.197	573.23
415.574	568.49
415.951	585.21
416.328	580.24
416.705	591.31
417.082	581.14
417.46	580.01
417.837	578.21
418.214	617.75
418.591	617.53
418.967	614.14
419.344	626.57
419.721	627.92
420.098	590.86
420.475	609.84
420.852	620.46
421.228	637.64
421.605	645.1
421.982	621.82
422.358	644.64
422.735	662.72
423.111	676.06
423.488	676.96
423.864	669.05
424.241	705.43
424.617	682.61
424.994	657.3
425.37	704.98
425.746	674.47
426.123	693.23
426.499	695.49
426.875	707.24
427.251	715.6
427.627	735.94
428.003	742.49
428.379	724.64
428.756	742.49
429.132	735.04
429.507	723.74
429.883	718.09
430.259	738.88
430.635	755.38
431.011	768.26
431.387	780.01
431.763	782.49
432.138	775.04
432.514	803.51
432.89	801.93
433.265	784.98
433.641	833.34
434.016	804.87
434.392	781.59
434.767	805.32
435.143	837.18
435.518	827.69
435.894	861.14
436.269	883.96
436.644	881.25
437.02	878.31
437.395	844.86
437.77	890.29
438.145	876.73
438.52	872.43
438.895	918.76
439.271	883.06
439.646	919.21
440.021	943.17
440.395	948.14
440.77	937.29
441.145	925.54
441.52	954.92
441.895	953.11
442.27	941.13
442.645	915.82
443.019	940
443.394	942.04
443.769	954.92
444.143	959.21
444.518	976.39
444.892	958.76
445.267	990.17
445.641	1002.6
446.016	1013.67
446.39	1020.23
446.764	997.4
447.139	972.55
447.513	1005.09
447.887	946.11
448.262	999.21
448.636	1006.89
449.01	1009.15
449.384	1040.79
449.758	1034.46
450.132	1071.53
450.506	1076.72
450.88	1045.54
451.254	1061.58
451.628	1049.83
452.002	1043.73
452.376	1036.5
452.75	1041.7
453.123	1036.5
453.497	1057.29
453.871	1123.95
454.244	1115.14
454.618	1112.43
454.992	1136.83
455.365	1129.83
455.739	1168.02
456.112	1147.23
456.486	1135.25
456.859	1109.04
457.232	1104.29
457.606	1094.12
457.979	1131.18
458.352	1144.74
458.725	1187
459.099	1201.01
459.472	1213.44
459.845	1256.61
460.218	1255.02
460.591	1245.31
460.964	1242.37
461.337	1217.96
461.71	1231.07
462.083	1247.34
462.456	1205.31
462.829	1241.46
463.201	1232.65
463.574	1280.56
463.947	1296.15
464.32	1315.13
464.692	1338.19
465.065	1394
465.438	1362.14
465.81	1383.83
466.183	1377.96
466.555	1355.13
466.928	1372.31
467.3	1359.2
467.672	1377.05
468.045	1393.32
468.417	1394.45
468.789	1416.15
469.161	1443.72
469.534	1476.03
469.906	1520.1
470.278	1554.22
470.65	1553.32
471.022	1566.43
471.394	1559.87
471.766	1549.93
472.138	1548.8
472.51	1554.9
472.882	1572.98
473.253	1567.56
473.625	1598.97
473.997	1645.52
474.369	1646.65
474.74	1688.23
475.112	1760.55
475.484	1788.12
475.855	1805.74
476.227	1855.91
476.598	1855.23
476.97	1841.45
477.341	1844.61
477.713	1815.23
478.084	1826.31
478.455	1840.09
478.827	1852.52
479.198	1882.58
479.569	1911.96
479.94	2034.44
480.311	2082.12
480.682	2139.52
481.053	2165.28
481.424	2210.7
481.795	2205.73
482.166	2221.1
482.537	2239.4
482.908	2219.29
483.279	2212.96
483.65	2218.16
484.021	2235.34
484.391	2278.73
484.762	2308.33
485.133	2370.47
485.503	2449.12
485.874	2487.76
486.244	2575.89
486.615	2646.17
486.985	2659.51
487.356	2718.71
487.726	2728.88
488.097	2697.02
488.467	2654.08
488.837	2670.81
489.207	2696.57
489.578	2680.3
489.948	2707.87
490.318	2754.87
490.688	2845.72
491.058	2920.06
491.428	3010.91
491.798	3051.59
492.168	3163.9
492.538	3206.38
492.908	3227.18
493.278	3220.62
493.648	3177.23
494.017	3196.22
494.387	3186.5
494.757	3155.99
495.126	3137.01
495.496	3104.47
495.866	3161.87
496.235	3192.6
496.605	3281.18
496.974	3355.53
497.344	3405.48
497.713	3506.72
498.082	3553.27
498.452	3623.32
498.821	3615.19
499.19	3623.55
499.559	3615.41
499.928	3595.98
500.298	3511.46
500.667	3497
501.036	3484.34
501.405	3455.42
501.774	3471.24
502.143	3481.63
502.512	3553.49
502.88	3636.43
503.249	3698.8
503.618	3804.33
503.987	3825.8
504.356	3944.67
504.724	3932.47
505.093	3926.82
505.462	3888.63
505.83	3896.31
506.199	3812.92
506.567	3776.99
506.936	3706.94
507.304	3727.05
507.672	3677.78
508.041	3722.08
508.409	3770.66
508.777	3855.18
509.145	3921.17
509.514	3990.77
509.882	4052.24
510.25	4144.44
510.618	4183.31
510.986	4190.31
511.354	4237.32
511.722	4190.54
512.09	4138.11
512.458	4056.76
512.826	4042.07
513.193	3933.15
513.561	3881.85
513.929	3920.72
514.297	3957.33
514.664	3988.51
515.032	4066.25
515.4	4156.19
515.767	4258.11
516.135	4327.71
516.502	4330.87
516.869	4475.5
517.237	4489.51
517.604	4416.52
517.972	4429.63
518.339	4386.24
518.706	4324.77
519.073	4241.84
519.44	4185.79
519.808	4181.05
520.175	4109.41
520.542	4133.82
520.909	4124.78
521.276	4223.31
521.643	4298.56
522.009	4407.71
522.376	4473.24
522.743	4583.75
523.11	4662.39
523.477	4793.01
523.843	4767.47
524.21	4823.52
524.577	4773.35
524.943	4698.55
525.31	4705.33
525.676	4602.96
526.043	4547.37
526.409	4508.95
526.776	4543.52
527.142	4504.43
527.508	4549.63
527.874	4615.39
528.241	4709.4
528.607	4887.92
528.973	4940.58
529.339	5113.45
529.705	5208.14
530.071	5322.26
530.437	5364.29
530.803	5390.51
531.169	5396.16
531.535	5332.43
531.901	5254.69
532.267	5211.3
532.632	5098.31
532.998	5081.14
533.364	5065.77
533.73	5040.23
534.095	5023.74
534.461	5118.65
534.826	5183.73
535.192	5269.38
535.557	5426.67
535.923	5543.27
536.288	5639.77
536.653	5773.55
537.019	5839.08
537.384	5969.93
537.749	5941.23
538.114	5963.83
538.479	5946.43
538.845	5829.59
539.21	5733.78
539.575	5670.95
539.94	5583.27
540.305	5551.41
540.67	5451.52
541.034	5524.74
541.399	5595.7
541.764	5624.4
542.129	5757.5
542.494	5906.2
542.858	6013.99
543.223	6156.36
543.587	6276.59
543.952	6388.67
544.316	6452.4
544.681	6466.86
545.045	6526.07
545.41	6462.8
545.774	6451.72
546.138	6360.43
546.503	6273.2
546.867	6178.74
547.231	6086.99
547.595	6035.69
547.959	5975.8
548.324	6007.21
548.688	6024.84
549.052	6077.72
549.416	6208.11
549.779	6228.23
550.143	6393.87
550.507	6610.81
550.871	6664.15
551.235	6779.62
551.599	6884.03
551.962	6851.26
552.326	6859.85
552.689	6855.33
553.053	6770.36
553.417	6742.34
553.78	6642.68
554.143	6531.95
554.507	6444.27
554.87	6342.8
555.234	6291.28
555.597	6227.32
555.96	6248.79
556.323	6302.8
556.686	6393.87
557.05	6580.31
557.413	6670.25
557.776	6814.65
558.139	6985.72
558.502	7111.14
558.865	7148.43
559.228	7253.74
559.59	7307.97
559.953	7409.89
560.316	7348.65
560.679	7209.9
561.041	7216.45
561.404	7029.33
561.767	6902.11
562.129	6808.55
562.492	6761.09
562.854	6666.18
563.217	6604.71
563.579	6686.75
563.941	6721.55
564.304	6787.31
564.666	6919.73
565.028	7073.4
565.39	7319.04
565.753	7409.89
566.115	7584.35
566.477	7678.13
566.839	7758.58
567.201	7823.89
567.563	7851.23
567.925	7861.18
568.287	7785.93
568.648	7672.93
569.01	7600.62
569.372	7524.92
569.734	7385.48
570.095	7258.26
570.457	7180.97
570.819	7226.84
571.18	7155.43
571.542	7229.33
571.903	7268.2
572.265	7399.95
572.626	7541.19
572.987	7698.02
573.349	7875.64
573.71	8114.28
574.071	8271.11
574.432	8422.97
574.794	8611.89
575.155	8678.56
575.516	8778.44
575.877	8797.42
576.238	8742.74
576.599	8769.18
576.96	8658.9
577.32	8654.83
577.681	8631.55
578.042	8527.83
578.403	8503.65
578.763	8552.46
579.124	8612.8
579.485	8764.43
579.845	8882.17
580.206	9076.74
580.566	9348.37
580.927	9605.54
581.287	9966.43
581.648	10266.31
582.008	10640.09
582.368	11024.71
582.728	11309.9
583.089	11681.64
583.449	11960.5
583.809	12272.36
584.169	12514.39
584.529	12773.14
584.889	13092.23
585.249	13113.02
585.609	13327.25
585.969	13629.84
586.329	13897.63
586.688	14158.64
587.048	14441.57
587.408	14691.05
587.768	15195.67
588.127	15597.02
588.487	16006.27
588.846	16737.33
589.206	17212.8
589.565	17807.81
589.925	18541.8
590.284	19034.22
590.643	19717.81
591.003	20321.41
591.362	21035.07
591.721	21398.9
592.08	21963.86
592.44	22650.17
592.799	23028.46
593.158	23487.43
593.517	23900.3
593.876	24107.98
594.235	24570.12
594.593	25022.76
594.952	25449.64
595.311	25616.64
595.67	26225.89
596.029	26865.88
596.387	27170.73
596.746	27850.93
597.104	28328.21
597.463	28802.77
597.822	29501.29
598.18	30106.24
598.538	30673.91
598.897	31506.66
599.255	31850.38
599.613	32990.46
599.972	33373.05
600.33	33901.62
600.688	34319.24
601.046	34944.99
601.404	35343.62
601.762	35830.16
602.12	36335.01
602.478	36608.44
602.836	36762.56
603.194	36969.56
603.552	37149.22
603.91	37430.57
604.268	37926.83
604.625	38113.49
604.983	38516.64
605.341	38624.89
605.698	39261.48
606.056	39762.49
606.413	40113.21
606.771	40637.04
607.128	41084.48
607.485	41349.56
607.843	41853.5
608.2	42586.59
608.557	43166.69
608.914	43354.71
609.272	43847.12
609.629	44124.86
609.986	44709.93
610.343	44742.92
610.7	45288.67
611.057	45115.11
611.414	45316.92
611.771	45515.1
612.127	45597.81
612.484	45621.54
612.841	45787.64
613.198	45844.81
613.554	45831.48
613.911	46068.53
614.267	46307.4
614.624	46332.93
614.98	46701.51
615.337	46976.08
615.693	47117.09
616.05	47356.64
616.406	47715.5
616.762	47818.09
617.118	48017.18
617.475	48498.08
617.831	48672.76
618.187	48932.41
618.543	49088.34
618.899	49410.82
619.255	49475.68
619.611	49369.01
619.967	49641.1
620.323	49727.42
620.678	49463.02
621.034	49469.12
621.39	49519.74
621.746	49411.27
622.101	49735.78
622.457	49435.23
622.812	49433.87
623.168	49583.02
623.523	49537.6
623.879	49616.01
624.234	49359.52
624.589	49705.73
624.945	49768.78
625.3	49997.02
625.655	50045.15
626.01	50276.56
626.365	50435.2
626.72	50584.35
627.075	50633.16
627.43	50731.24
627.785	50841.29
628.14	51029.53
628.495	51047.61
628.85	51044.67
629.205	50863.44
629.559	51191.11
629.914	50999.7
630.269	51039.48
630.623	50883.1
630.978	50658.47
631.332	50787.96
631.687	50682.42
632.041	50479.27
632.396	50445.59
632.75	50347.52
633.104	50164.7
633.459	50172.16
633.813	50201.31
634.167	50256.45
634.521	50267.97
634.875	50385.94
635.229	50362.43
635.583	50442.66
635.937	50447.4
636.291	50527.4
636.645	50706.38
636.999	50812.82
637.352	50828.64
637.706	50732.37
638.06	50929.88
638.413	50755.42
638.767	50686.04
639.121	50693.95
639.474	50540.96
639.828	50576.89
640.181	50562.88
640.534	50440.62
640.888	50385.48
641.241	49997.7
641.594	50042.22
641.947	50000.41
642.301	49817.36
642.654	49809
643.007	49738.04
643.36	49679.29
643.713	49704.37
644.066	49787.98
644.419	49607.42
644.771	49328.56
645.124	49034.33
645.477	49197.94
645.83	48922.92
646.182	48951.4
646.535	48944.39
646.888	49041.34
647.24	49125.18
647.593	49302.35
647.945	49344.15
648.298	49157.49
648.65	49141.9
649.002	48998.17
649.355	49255.8
649.707	49052.64
650.059	49143.48
650.411	49449.46
650.763	49371.05
651.115	49577.59
651.467	49425.28
651.819	49281.11
652.171	49201.79
652.523	49000.43
652.875	48897.84
653.227	48579.43
653.578	48955.24
653.93	48774.45
654.282	48689.26
654.633	48648.58
654.985	48651.07
655.337	48775.58
655.688	48726.32
656.039	49100.77
656.391	48776.03
656.742	48924.5
657.094	48987.78
657.445	49416.69
657.796	49367.88
658.147	49263.03
658.498	49324.95
658.849	49477.26
659.2	49384.15
659.551	49279.07
659.902	49522
660.253	49281.33
660.604	49368.56
660.955	49147.55
661.306	49157.04
661.656	48984.84
662.007	48814.45
662.358	48802.47
662.708	48586.66
663.059	48559.09
663.409	48196.16
663.76	48398.64
664.11	48367.91
664.461	48443.61
664.811	48344.41
665.161	48270.51
665.511	48204.3
665.862	48310.96
666.212	48423.05
666.562	48403.16
666.912	48444.29
667.262	48449.49
667.612	48508.92
667.962	48677.28
668.312	48586.66
668.662	48929.93
669.011	48915.24
669.361	48843.38
669.711	48940.55
670.06	48825.07
670.41	48785.98
670.76	48736.26
671.109	48783.04
671.459	48657.62
671.808	48569.94
672.157	48581.46
672.507	48240.91
672.856	48096.5
673.205	48104.19
673.554	48094.47
673.904	47929.73
674.253	47924.98
674.602	47792.56
674.951	47201.61
675.3	46902.18
675.649	47573.58
675.998	47448.39
676.346	47489.51
676.695	47602.96
677.044	47396.18
677.393	47584.43
677.741	47657.19
678.09	47676.85
678.438	47713.01
678.787	47794.36
679.135	47962.04
679.484	47773.57
679.832	47938.09
680.181	47691.32
680.529	47930.18
680.877	47810.18
681.225	47870.29
681.573	48087.69
681.922	47717.76
682.27	47673.24
682.618	47683.18
682.966	47494.71
683.314	47420.82
683.661	47247.94
684.009	46920.04
684.357	46894.95
684.705	46740.16
685.053	46663.55
685.4	46545.58
685.748	46094.52
686.095	46151.7
686.443	46046.39
686.79	46003.23
687.138	46013.17
687.485	45954.41
687.832	45661.09
688.18	45818.15
688.527	45695.44
688.874	45655.66
689.221	45612.95
689.568	45684.36
689.915	45692.73
690.262	45804.36
690.609	45820.41
690.956	45821.31
691.303	45774.08
691.65	45701.54
691.997	45669.45
692.344	45518.04
692.69	45476.01
693.037	45523.69
693.383	45226.97
693.73	45276.24
694.077	45072.4
694.423	45022.46
694.769	44640.78
695.116	44576.14
695.462	44490.5
695.808	44277.4
696.155	44178.19
696.501	43838.76
696.847	43719.9
697.193	43396.97
697.539	43359.23
697.885	42953.59
698.231	42754.5
698.577	42842.4
698.923	42663.65
699.269	42633.82
699.614	42444
699.96	42377.33
700.306	42365.35
700.651	42299.59
700.997	42208.07
701.342	42244.68
701.688	42272.48
702.033	42229.54
702.379	42211.23
702.724	42379.37
703.069	42336.88
703.415	42067.51
703.76	42136.89
704.105	42031.8
704.45	42139.15
704.795	41792.94
705.14	41765.14
705.485	41868.87
705.83	41626.62
706.175	41667.29
706.52	41434.08
706.865	41293.29
707.209	41081.09
707.554	40978.05
707.899	40985.96
708.243	40639.07
708.588	40449.25
708.932	40227.11
709.277	40158.86
709.621	40028.02
709.966	39635.48
710.31	39633
710.654	39316.17
710.998	39413.57
711.342	39237.08
711.687	39394.59
712.031	39161.6
712.375	39004.09
712.719	39026.23
713.063	39117.53
713.407	39270.75
713.75	39025.56
714.094	39178.55
714.438	39026.91
714.782	39156.4
715.125	39177.64
715.469	39244.53
715.812	39121.6
716.156	39004.09
716.499	39078.21
716.843	39143.07
717.186	38967.03
717.53	39141.03
717.873	39126.34
718.216	38964.31
718.559	38748.73
718.902	38481.16
719.246	38547.38
719.589	38353.03
719.932	38101.74
720.275	38165.69
720.617	37903.33
720.96	37765.7
721.303	37685.48
721.646	37560.51
721.989	37287.75
722.331	37247.52
722.674	37174.53
723.016	37110.58
723.359	36973.86
723.701	36938.61
724.044	36606.41
724.386	36566.41
724.729	36695.9
725.071	36641.66
725.413	36597.82
725.755	36563.93
726.097	36520.54
726.439	36312.86
726.782	36509.01
727.124	36720.08
727.465	36483.25
727.807	36506.3
728.149	36434.21
728.491	36444.83
728.833	36663.58
729.175	36575
729.516	36479.18
729.858	36476.7
730.199	36592.4
730.541	36502.91
730.882	36466.53
731.224	36572.96
731.565	36262.69
731.906	36228.79
732.248	36116.03
732.589	36157.16
732.93	35938.18
733.271	35835.36
733.612	35762.59
733.953	35684.17
734.294	35317.18
734.635	35294.13
734.976	35223.4
735.317	35024.53
735.658	34919
735.999	34816.17
736.339	34672
736.68	34760.36
737.021	34507.48
737.361	34467.03
737.702	34631.1
738.042	34496.86
738.383	34468.39
738.723	34537.31
739.063	34417.32
739.404	34515.62
739.744	34432.91
740.084	34423.64
740.424	34600.14
740.764	34525.56
741.104	34704.99
741.444	34559.46
741.784	34442.17
742.124	34566.46
742.464	34598.55
742.804	34611.21
743.143	34547.26
743.483	34660.25
743.823	34414.38
744.162	34470.42
744.502	34508.84
744.841	34280.82
745.181	34447.37
745.52	34163.76
745.86	34140.03
746.199	34041.28
746.538	33888.29
746.877	33963.09
747.216	33867.05
747.556	33632.03
747.895	33398.36
748.234	33342.77
748.573	33276.1
748.911	33129.44
749.25	33072.72
749.589	32847.19
749.928	32823.68
750.267	32815.32
750.605	32596.8
750.944	32608.55
751.283	32415.11
751.621	32530.59
751.96	32315
752.298	32326.52
752.636	32269.35
752.975	32262.8
753.313	32196.36
753.651	32282.23
753.989	32091.05
754.327	32086.98
754.666	32062.58
755.004	32149.58
755.342	32213.53
755.679	32292.4
756.017	32089.24
756.355	32134.66
756.693	32182.35
757.031	32263.47
757.368	31940.54
757.706	32024.16
758.044	31915.46
758.381	31965.63
758.719	31663.04
759.056	31686.54
759.394	31720.44
759.731	31345.08
760.068	31342.37
760.405	31192.09
760.743	31015.14
761.08	30976.95
761.417	30744.87
761.754	30677.07
762.091	30753.46
762.428	30397.53
762.765	30099.46
763.102	30108.28
763.438	29895.4
763.775	29766.59
764.112	29743.99
764.449	29561.4
764.785	29517.56
765.122	29191.92
765.458	29113.73
765.795	29114.86
766.131	29140.84
766.467	29033.95
766.804	28844.58
767.14	28729.78
767.476	28853.17
767.812	28810.91
768.148	28890.91
768.485	28690.91
768.821	28642.55
769.157	28682.55
769.492	28704.92
769.828	28537.7
770.164	28456.12
770.5	28353.75
770.836	28492.73
771.171	28279.17
771.507	28278.49
771.842	28061.1
772.178	28207.54
772.513	28135.9
772.849	27956.92
773.184	27922.34
773.519	27960.31
773.855	27756.7
774.19	27503.82
774.525	27355.81
774.86	27462.24
775.195	27237.84
775.53	27050.73
775.865	26918.53
776.2	26651.64
776.535	26486.9
776.87	26462.95
777.205	26246.91
777.539	26070.64
777.874	26014.6
778.209	25846.24
778.543	25594.95
778.878	25443.99
779.212	25468.17
779.547	25170.1
779.881	25324.67
780.215	25088.75
780.55	25164.9
780.884	24954.06
781.218	24939.82
781.552	24948.86
781.886	24818.02
782.22	24762.43
782.554	24708.19
782.888	24613.96
783.222	24475.2
783.556	24530.8
783.889	24385.49
784.223	24265.94
784.557	24339.39
784.89	24487.86
785.224	24282.67
785.557	24210.13
785.891	24266.17
786.224	24165.83
786.558	24076.8
786.891	24003.35
787.224	23850.59
787.557	23804.26
787.891	23807.42
788.224	23756.58
788.557	23694.43
788.89	23656.24
789.223	23634.55
789.556	23374.89
789.888	23318.85
790.221	23312.97
790.554	22992.98
790.887	23029.14
791.219	22783.27
791.552	22734.23
791.884	22640.45
792.217	22481.81
792.549	22349.16
792.882	22171.08
793.214	22075.94
793.546	21947.59
793.879	21722.73
794.211	21749.17
794.543	21629.4
794.875	21626.92
795.207	21597.77
795.539	21435.74
795.871	21509.41
796.203	21259.24
796.535	21212.92
796.867	21109.87
797.198	21123.65
797.53	21143.54
797.862	20943.09
798.193	21039.36
798.525	20950.78
798.856	20951.91
799.188	20800.27
799.519	20777.22
799.85	20722.08
800.182	20753.49
800.513	20808.41
800.844	20677.56
801.175	20850.89
801.506	20862.64
801.837	20752.82
802.168	20703.1
802.499	20610.45
802.83	20424.91
803.161	20472.6
803.491	20488.87
803.822	20407.06
804.153	20338.36
804.483	20127.75
804.814	20056.11
805.145	20093.85
805.475	20019.05
805.805	19985.6
806.136	19935.44
806.466	19810.92
806.796	19675.78
807.126	19522.79
807.457	19454.54
807.787	19405.96
808.117	19355.56
808.447	19212.29
808.777	19263.14
809.107	19110.6
809.436	19064.27
809.766	18969.36
810.096	18963.26
810.426	18859.08
810.755	18798.52
811.085	18627.45
811.414	18605.08
811.744	18485.3
812.073	18462.03
812.403	18520.11
812.732	18345.42
813.061	18294.58
813.39	18302.48
813.719	18233.79
814.049	18386.1
814.378	18227.23
814.707	18184.97
815.036	18205.99
815.365	18135.94
815.693	18066.78
816.022	18162.6
816.351	18012.1
816.68	17948.6
817.008	18111.98
817.337	18003.96
817.665	17993.57
817.994	18042.83
818.322	18017.52
818.651	17969.61
818.979	17933
819.307	18011.65
819.636	17984.53
819.964	17811.2
820.292	17934.58
820.62	17883.51
820.948	17749.96
821.276	17856.39
821.604	17766.91
821.932	17809.16
822.259	17751.09
822.587	17608.94
822.915	17604.65
823.243	17769.84
823.57	17533.92
823.898	17613.24
824.225	17452.56
824.553	17484.65
824.88	17430.64
825.207	17449.4
825.535	17383.41
825.862	17340.48
826.189	17256.41
826.516	17329.18
826.843	17327.37
827.17	17297.31
827.497	17226.81
827.824	17175.73
828.151	17223.64
828.478	17194.04
828.805	17313.81
829.131	17226.58
829.458	17081.95
829.785	17077.66
830.111	17169.41
830.438	17320.82
830.764	17218.45
831.09	17165.11
831.417	17196.75
831.743	17213.47
832.069	17249.63
832.395	17176.41
832.722	17361.72
833.048	17278.78
833.374	17348.16
833.7	17310.65
834.026	17216.19
834.351	17313.13
834.677	17347.93
835.003	17470.87
835.329	17353.13
835.654	17342.51
835.98	17320.82
836.306	17360.59
836.631	17243.3
836.956	17324.43
837.282	17286.92
837.607	17097.09
837.932	17113.82
838.258	17201.04
838.583	17213.25
838.908	16967.15
839.233	16950.43
839.558	16950.43
839.883	16896.65
840.208	16763.54
840.533	16874.95
840.858	16769.64
841.182	16742.3
841.507	16693.94
841.832	16616.65
842.156	16579.14
842.481	16521.74
842.805	16473.61
843.13	16384.12
843.454	16358.58
843.778	16277.68
844.103	16234.97
844.427	16218.7
844.751	16138.47
845.075	16108.87
845.399	16039.72
845.723	15861.19
846.047	15947.29
846.371	15810.8
846.695	15791.82
847.019	15645.61
847.343	15626.4
847.666	15494.65
847.99	15534.87
848.313	15481.54
848.637	15429.79
848.96	15387.31
849.284	15321.09
849.607	15362.22
849.931	15244.49
850.254	15176.69
850.577	15133.98
850.9	15046.98
851.223	15117.71
851.546	15048.79
851.869	14985.28
852.192	15057.6
852.515	14875
852.838	14850.82
853.161	14844.04
853.483	14972.85
853.806	14861.67
854.129	14757.27
854.451	14739.41
854.774	14632.98
855.096	14542.36
855.419	14627.1
855.741	14528.12
856.063	14454.9
856.385	14376.94
856.708	14368.13
857.03	14275.25
857.352	14303.04
857.674	14303.27
857.996	14155.02
858.318	14072.99
858.64	14102.37
858.961	13993.45
859.283	13875.26
859.605	13860.12
859.926	13861.02
860.248	13736.28
860.57	13669.84
860.891	13635.26
861.212	13619.44
861.534	13518.43
861.855	13443.63
862.176	13466.45
862.498	13400.47
862.819	13386.68
863.14	13333.58
863.461	13287.48
863.782	13233.47
864.103	13275.27
864.424	13172.68
864.745	13254.93
865.065	13122.28
865.386	12980.36
865.707	13042.06
866.027	13005.9
866.348	13129.29
866.668	12988.05
866.989	13073.02
867.309	12986.92
867.63	13010.65
867.95	13066.01
868.27	12923.64
868.59	13030.53
868.91	12995.28
869.23	13023.08
869.55	12941.5
869.87	13060.36
870.19	13016.97
870.51	13059.91
870.83	13040.48
871.15	12974.04
871.469	13032.34
871.789	13019.91
872.109	13020.36
872.428	12904.66
872.748	13065.79
873.067	12970.2
873.386	13066.01
873.706	12930.87
874.025	12875.73
874.344	12919.8
874.663	12861.05
874.982	12847.71
875.301	12829.41
875.62	12731.33
875.939	12717.55
876.258	12704.21
876.577	12678.45
876.896	12605.23
877.214	12543.09
877.533	12521.17
877.852	12442.07
878.17	12428.97
878.489	12448.4
878.807	12388.97
879.125	12268.29
879.444	12327.5
879.762	12229.42
880.08	12207.96
880.398	12118.47
880.716	12153.95
881.034	12155.98
881.352	12090.67
881.67	11974.52
881.988	12056.55
882.306	12024.91
882.624	11870.79
882.941	11815.2
883.259	11809.77
883.577	11801.64
883.894	11819.49
884.212	11807.74
884.529	11721.64
884.846	11687.74
885.164	11670.34
885.481	11713.05
885.798	11699.27
886.115	11674.41
886.432	11626.5
886.75	11604.13
887.067	11640.97
887.383	11523.45
887.7	11563
888.017	11619.04
888.334	11598.03
888.651	11591.93
888.967	11557.13
889.284	11551.48
889.6	11493.17
889.917	11469.9
890.233	11486.17
890.55	11390.35
890.866	11415.43
891.182	11405.49
891.498	11472.16
891.815	11375.21
892.131	11311.71
892.447	11356
892.763	11302.44
893.079	11318.04
893.395	11232.39
893.71	11217.47
894.026	11100.64
894.342	11168.89
894.657	11102.9
894.973	11050.25
895.289	11034.65
895.604	10907.2
895.92	10844.38
896.235	10848.9
896.55	10818.39
896.865	10844.38
897.181	10723.93
897.496	10717.15
897.811	10657.94
898.126	10627.21
898.441	10546.98
898.756	10467.44
899.071	10359.64
899.386	10406.87
899.7	10258.18
900.015	10251.4
900.33	10085.3
900.644	10138.41
900.959	10084.17
901.273	10031.06
901.588	10041.46
901.902	9938.41
902.216	9964.4
902.531	9840.56
902.845	9842.59
903.159	9738.87
903.473	9730.51
903.787	9679.21
904.101	9676.27
904.415	9635.37
904.729	9685.76
905.042	9578.42
905.356	9577.29
905.67	9544.3
905.984	9534.13
906.297	9481.7
906.611	9459.1
906.924	9393.79
907.237	9420.91
907.551	9436.96
907.864	9312.21
908.177	9410.29
908.491	9396.5
908.804	9321.93
909.117	9294.36
909.43	9243.29
909.743	9244.42
910.056	9230.86
910.368	9203.06
910.681	9159.22
910.994	9166
911.307	9169.62
911.619	9070.64
911.932	9114.93
912.244	8933.24
912.557	8975.5
912.869	8891.88
913.181	8993.8
913.494	8929.17
913.806	8817.99
914.118	8763.3
914.43	8718.78
914.742	8780.48
915.054	8701.83
915.366	8698.22
915.678	8545
915.99	8471.78
916.302	8437.66
916.613	8412.12
916.925	8403.99
917.236	8400.15
917.548	8379.58
917.859	8342.07
918.171	8280.38
918.482	8193.6
918.794	8171.9
919.105	8111.34
919.416	8054.17
919.727	8043.32
920.038	7985.69
920.349	7926.26
920.66	7846.71
920.971	7835.64
921.282	7865.7
921.593	7754.29
921.903	7637.68
922.214	7674.97
922.525	7613.73
922.835	7563.56
923.146	7477.46
923.456	7528.76
923.767	7502.54
924.077	7479.49
924.387	7428.42
924.697	7369.66
925.008	7374.18
925.318	7312.94
925.628	7289.89
925.938	7298.25
926.248	7149.33
926.558	7187.3
926.867	7174.42
927.177	7149.11
927.487	7121.54
927.796	7059.62
928.106	7149.11
928.416	7060.75
928.725	7049.22
929.034	7003.57
929.344	6994.99
929.653	7008.09
929.962	6952.05
930.271	6946.17
930.581	6947.98
930.89	6906.63
931.199	6852.62
931.508	6880.19
931.817	6880.64
932.125	6840.19
932.434	6820.3
932.743	6745.95
933.051	6757.25
933.36	6698.5
933.669	6728.33
933.977	6663.02
934.286	6681.55
934.594	6615.33
934.902	6603.58
935.21	6536.47
935.519	6524.49
935.827	6511.83
936.135	6434.77
936.443	6399.3
936.751	6425.96
937.059	6399.75
937.367	6308.45
937.674	6303.25
937.982	6262.35
938.29	6212.63
938.597	6164.95
938.905	6125.18
939.213	6114.33
939.52	6057.16
939.827	6098.06
940.135	6071.85
940.442	6035.46
940.749	5986.88
941.056	5951.17
941.363	5894.45
941.67	5851.29
941.977	5827.11
942.284	5762.48
942.591	5782.36
942.898	5750.72
943.205	5735.36
943.511	5697.39
943.818	5715.25
944.125	5649.94
944.431	5616.72
944.738	5582.14
945.044	5526.55
945.35	5526.1
945.657	5516.38
945.963	5523.61
946.269	5467.12
946.575	5409.04
946.881	5466.44
947.187	5405.87
947.493	5371.53
947.799	5327.23
948.105	5380.11
948.41	5270.74
948.716	5282.26
949.022	5239.1
949.327	5234.35
949.633	5230.51
949.938	5202.04
950.244	5232.77
950.549	5153.9
950.854	5146.45
951.16	5143.06
951.465	5077.52
951.77	5102.15
952.075	5060.35
952.38	5064.41
952.685	5087.92
952.99	5016.05
953.294	5044.98
953.599	5038.65
953.904	5007.92
954.209	4961.59
954.513	4945.32
954.818	4925.44
955.122	4956.17
955.426	4920.69
955.731	4861.71
956.035	4886.79
956.339	4851.99
956.643	4838.21
956.948	4800.02
957.252	4780.13
957.556	4788.04
957.86	4747.14
958.163	4783.52
958.467	4671.88
958.771	4681.83
959.075	4668.72
959.378	4671.2
959.682	4634.37
959.985	4621.71
960.289	4583.75
960.592	4524.54
960.896	4518.44
961.199	4504.88
961.502	4490.87
961.805	4438.22
962.108	4448.39
962.411	4412
962.714	4392.34
963.017	4353.7
963.32	4351.89
963.623	4319.35
963.926	4313.47
964.228	4240.26
964.531	4231.67
964.833	4198
965.136	4191.44
965.438	4199.35
965.741	4145.79
966.043	4116.64
966.345	4093.37
966.648	4087.94
966.95	4072.8
967.252	4046.36
967.554	4024.89
967.856	4034.39
968.158	3934.5
968.46	3983.77
968.761	3914.84
969.063	3948.51
969.365	3899.25
969.666	3915.07
969.968	3866.48
970.269	3868.97
970.571	3857.89
970.872	3834.39
971.174	3817.22
971.475	3792.58
971.776	3790.1
972.077	3789.42
972.378	3781.74
972.679	3751.91
972.98	3731.57
973.281	3734.51
973.582	3720.5
973.883	3744
974.183	3686.82
974.484	3694.28
974.785	3664.23
975.085	3615.19
975.386	3695.86
975.686	3641.85
975.986	3617.9
976.287	3599.59
976.587	3578.8
976.887	3569.99
977.187	3507.85
977.487	3570.89
977.787	3508.3
978.087	3519.6
978.387	3518.92
978.687	3498.35
978.987	3468.75
979.286	3443.67
979.586	3452.03
979.885	3435.08
980.185	3408.41
980.484	3388.53
980.784	3379.04
981.083	3399.6
981.382	3383.56
981.682	3384.46
981.981	3325.7
982.28	3326.16
982.579	3290.68
982.878	3312.82
983.177	3280.51
983.475	3267.17
983.774	3245.93
984.073	3189.66
984.372	3164.35
984.67	3137.46
984.969	3166.84
985.267	3171.81
985.566	3142.21
985.864	3106.95
986.162	3117.35
986.461	3076.67
986.759	3040.74
987.057	2999.38
987.355	3023.11
987.653	3028.76
987.951	2976.56
988.249	2988.76
988.547	2977.69
988.844	2946.28
989.142	2927.07
989.44	2868.31
989.737	2853.17
990.035	2867.18
990.332	2839.16
990.63	2854.53
990.927	2831.25
991.224	2830.58
991.521	2810.01
991.819	2809.11
992.116	2759.84
992.413	2749
992.71	2734.53
993.006	2762.78
993.303	2713.29
993.6	2677.81
993.897	2709.22
994.193	2676.23
994.49	2669.9
994.787	2683.69
995.083	2621.32
995.379	2622.22
995.676	2616.12
995.972	2598.27
996.268	2582.9
996.565	2589.45
996.861	2589.9
997.157	2558.94
997.453	2551.03
997.749	2535.44
998.044	2518.49
998.34	2539.06
998.636	2542.45
998.932	2489.79
999.227	2488.89
999.523	2511.71
999.818	2512.84
1000.114	2469.68
1000.409	2437.59
1000.704	2454.54
1001	2405.05
1001.295	2419.06
1001.59	2437.14
1001.885	2388.33
1002.18	2359.85
1002.475	2350.59
1002.77	2372.28
1003.065	2341.55
1003.359	2349.91
1003.654	2341.55
1003.949	2310.36
1004.243	2285.73
1004.538	2263.58
1004.832	2271.27
1005.127	2315.56
1005.421	2281.66
1005.715	2236.69
1006.009	2215.9
1006.304	2170.71
1006.598	2198.95
1006.892	2209.57
1007.186	2164.83
1007.48	2179.74
1007.773	2130.93
1008.067	2132.06
1008.361	2148.11
1008.655	2108.79
1008.948	2102.23
1009.242	2058.39
1009.535	2082.35
1009.829	2055.23
1010.122	2074.44
1010.415	2027.43
1010.708	2015.23
1011.001	2015
1011.295	1986.53
1011.588	1979.52
1011.881	1926.64
1012.173	1926.42
1012.466	1943.59
1012.759	1954.89
1013.052	1904.72
1013.344	1890.49
1013.637	1851.62
1013.93	1903.37
1014.222	1884.61
1014.514	1865.4
1014.807	1844.84
1015.099	1820.88
1015.391	1787.89
1015.683	1785.41
1015.976	1804.84
1016.268	1774.33
1016.56	1742.02
1016.851	1732.98
1017.143	1730.27
1017.435	1738.85
1017.727	1696.82
1018.018	1721.9
1018.31	1694.11
1018.602	1678.97
1018.893	1665.63
1019.185	1667.89
1019.476	1663.6
1019.767	1636.26
1020.058	1627.22
1020.35	1614.79
1020.641	1600.33
1020.932	1590.61
1021.223	1601.46
1021.514	1583.15
1021.804	1551.29
1022.095	1549.03
1022.386	1541.34
1022.677	1555.58
1022.967	1552.87
1023.258	1554.22
1023.548	1509.25
1023.839	1495.92
1024.129	1480.55
1024.419	1482.59
1024.709	1472.42
1025	1499.31
1025.29	1460.44
1025.58	1440.78
1025.87	1459.76
1026.16	1448.46
1026.449	1438.97
1026.739	1424.96
1027.029	1415.7
1027.319	1398.75
1027.608	1402.59
1027.898	1387.9
1028.187	1384.29
1028.477	1384.74
1028.766	1360.56
1029.055	1357.85
1029.344	1342.93
1029.634	1309.03
1029.923	1351.07
1030.212	1322.82
1030.501	1328.69
1030.79	1290.28
1031.078	1260.45
1031.367	1258.41
1031.656	1273.1
1031.945	1231.52
1032.233	1252.54
1032.522	1229.49
1032.81	1215.7
1033.099	1233.33
1033.387	1210.96
1033.675	1223.39
1033.963	1179.77
1034.251	1201.92
1034.54	1172.31
1034.828	1161.24
1035.116	1190.17
1035.403	1147.23
1035.691	1150.39
1035.979	1157.4
1036.267	1114.01
1036.554	1112.88
1036.842	1135.48
1037.129	1115.59
1037.417	1085.54
1037.704	1092.99
1037.992	1052.99
1038.279	1050.74
1038.566	1048.02
1038.853	1048.02
1039.14	1048.02
