Data from red_shiny_book_FLMS001491_00052.txt Node
Date: Wed Feb 08 15:25:02 GMT 2017
User: dcchb
Spectrometer: FLMS00149
Trigger mode: 0
Integration Time (sec): 2.000000E-2
Scans to average: 10
Electric dark correction enabled: true
Nonlinearity correction enabled: false
Boxcar width: 0
XAxis mode: Wavelengths
Number of Pixels in Spectrum: 2048
>>>>>Begin Spectral Data<<<<<
341.393	-5.1
341.776	-5.1
342.16	-5.1
342.543	-67.92
342.927	-75.38
343.31	-56.62
343.693	-84.19
344.077	-63.4
344.46	-41.71
344.843	-56.17
345.226	-44.87
345.61	-49.17
345.993	-25.21
346.376	8.46
346.759	16.6
347.142	10.49
347.525	54.56
347.908	55.69
348.291	83.49
348.674	85.29
349.057	106.76
349.44	129.81
349.823	142.92
350.206	177.5
350.588	199.87
350.971	217.04
351.354	243.48
351.737	245.52
352.119	256.82
352.502	260.66
352.884	282.58
353.267	312.41
353.65	309.7
354.032	314.89
354.414	318.51
354.797	334.55
355.179	332.07
355.562	340.43
355.944	342.24
356.326	328.45
356.709	355.57
357.091	330.49
357.473	368
357.855	369.13
358.238	357.38
358.62	368.68
359.002	345.85
359.384	354.89
359.766	350.82
360.148	356.7
360.53	342.24
360.912	339.98
361.294	354.89
361.676	332.75
362.057	341.56
362.439	346.53
362.821	341.11
363.203	343.59
363.584	354.89
363.966	336.59
364.348	317.38
364.729	355.34
365.111	338.85
365.493	331.39
365.874	342.91
366.256	343.59
366.637	329.36
367.019	318.51
367.4	325.29
367.781	338.85
368.163	327.55
368.544	326.42
368.925	348.56
369.306	335.46
369.688	322.8
370.069	314.67
370.45	328.9
370.831	341.56
371.212	357.83
371.593	333.88
371.974	339.3
372.355	335.91
372.736	358.96
373.117	328.68
373.498	344.04
373.879	344.04
374.26	352.86
374.641	332.97
375.021	326.19
375.402	326.42
375.783	356.02
376.163	347.21
376.544	343.14
376.925	352.86
377.305	325.74
377.686	359.19
378.066	368.9
378.447	351.28
378.827	370.48
379.208	350.15
379.588	362.8
379.968	368
380.349	372.97
380.729	359.19
381.109	373.2
381.489	355.57
381.87	377.49
382.25	380.2
382.63	384.5
383.01	361.45
383.39	396.7
383.77	371.84
384.15	361.22
384.53	385.4
384.91	380.65
385.29	384.27
385.67	392.18
386.049	410.26
386.429	396.25
386.809	400.31
387.189	393.76
387.568	372.74
387.948	403.03
388.328	406.19
388.707	389.92
389.087	405.51
389.466	414.78
389.846	407.55
390.225	419.3
390.605	402.12
390.984	398.28
391.363	421.56
391.743	425.17
392.122	426.75
392.501	433.31
392.881	413.65
393.26	430.14
393.639	418.62
394.018	426.75
394.397	423.82
394.776	411.61
395.155	446.19
395.534	422.91
395.913	448.45
396.292	425.85
396.671	467.66
397.05	458.39
397.429	453.65
397.808	454.32
398.186	452.52
398.565	441.9
398.944	446.19
399.323	466.3
399.701	457.04
400.08	464.27
400.458	471.5
400.837	483.25
401.215	473.08
401.594	478.5
401.972	469.01
402.351	472.85
402.729	473.76
403.107	481.22
403.486	487.32
403.864	502.23
404.242	498.39
404.62	504.94
404.999	505.85
405.377	513.08
405.755	515.11
406.133	495.68
406.511	485.06
406.889	506.75
407.267	523.02
407.645	539.97
408.023	527.32
408.401	521.67
408.779	570.25
409.156	532.51
409.534	537.71
409.912	541.33
410.29	544.04
410.667	541.33
411.045	584.72
411.422	600.76
411.8	560.99
412.178	578.61
412.555	575.45
412.933	590.37
413.31	586.3
413.687	595.11
414.065	586.52
414.442	594.21
414.819	620.65
415.197	629.46
415.574	618.61
415.951	638.05
416.328	631.72
416.705	612.06
417.082	648.22
417.46	670.14
417.837	652.06
418.214	630.14
418.591	650.25
418.967	647.31
419.344	669.01
419.721	694.09
420.098	727.99
420.475	716.69
420.852	711.49
421.228	703.36
421.605	689.35
421.982	698.16
422.358	697.71
422.735	700.42
423.111	708.1
423.488	732.73
423.864	729.57
424.241	764.15
424.617	778.84
424.994	747.88
425.37	763.24
425.746	718.27
426.123	792.17
426.499	742.68
426.875	761.66
427.251	777.71
427.627	803.69
428.003	819.51
428.379	825.61
428.756	854.09
429.132	842.79
429.507	838.72
429.883	856.35
430.259	859.96
430.635	829.23
431.011	826.07
431.387	802.34
431.763	863.13
432.138	868.55
432.514	880.53
432.89	932.05
433.265	933.63
433.641	956.01
434.016	932.05
434.392	921.66
434.767	923.69
435.143	932.5
435.518	939.28
435.894	918.94
436.269	948.32
436.644	955.1
437.02	975.21
437.395	1010.92
437.77	1033.29
438.145	1046.85
438.52	1037.81
438.895	1027.87
439.271	1035.55
439.646	1024.93
440.021	998.94
440.395	1000.3
440.77	1019.28
441.145	1021.77
441.52	1067.19
441.895	1100.63
442.27	1125.49
442.645	1117.58
443.019	1137.47
443.394	1098.83
443.769	1106.51
444.143	1080.07
444.518	1089.34
444.892	1069.45
445.267	1091.37
445.641	1102.22
446.016	1105.61
446.39	1116.68
446.764	1173.18
447.139	1170.24
447.513	1172.05
447.887	1182.67
448.262	1180.63
448.636	1160.29
449.01	1169.11
449.384	1146.96
449.758	1121.88
450.132	1162.1
450.506	1185.83
450.88	1196.23
451.254	1219.28
451.628	1258.82
452.002	1253.17
452.376	1285.04
452.75	1281.87
453.123	1252.5
453.497	1230.35
453.871	1239.16
454.244	1204.59
454.618	1244.81
454.992	1260.63
455.365	1247.52
455.739	1304.7
456.112	1332.49
456.486	1386.28
456.859	1406.62
457.232	1410.23
457.606	1410.01
457.979	1393.96
458.352	1399.16
458.725	1364.58
459.099	1367.07
459.472	1320.06
459.845	1343.11
460.218	1382.21
460.591	1411.36
460.964	1440.06
461.337	1521.64
461.71	1519.15
462.083	1551.02
462.456	1546.72
462.829	1552.6
463.201	1539.72
463.574	1526.84
463.947	1484.58
464.32	1490.68
464.692	1483
465.065	1543.34
465.438	1543.11
465.81	1586.72
466.183	1620.85
466.555	1679.83
466.928	1696.55
467.3	1739.04
467.672	1747.4
468.045	1760.28
468.417	1710.11
468.789	1701.3
469.161	1680.28
469.534	1697.91
469.906	1701.52
470.278	1692.94
470.65	1689.32
471.022	1798.02
471.394	1875.3
471.766	1899.71
472.138	1967.28
472.51	2023.32
472.882	2047.5
473.253	2066.03
473.625	2009.09
473.997	2026.94
474.369	1995.75
474.74	1958.24
475.112	1982.42
475.484	1996.66
475.855	2044.11
476.227	2048.86
476.598	2138.35
476.97	2239.14
477.341	2324.56
477.713	2395.52
478.084	2412.92
478.455	2446.59
478.827	2477.32
479.198	2450.43
479.569	2422.86
479.94	2403.88
480.311	2403.88
480.682	2388.51
481.053	2435.29
481.424	2470.77
481.795	2548.05
482.166	2648.39
482.537	2731.1
482.908	2844.09
483.279	2898.78
483.65	2970.42
484.021	3040.02
484.391	3034.14
484.762	3028.04
485.133	2952.11
485.503	2912.11
485.874	2970.42
486.244	2942.62
486.615	2912.11
486.985	3001.15
487.356	3134.93
487.726	3207.47
488.097	3332.21
488.467	3436.84
488.837	3594.58
489.207	3671.64
489.578	3681.36
489.948	3702.15
490.318	3724.07
490.688	3647.46
491.058	3619.44
491.428	3582.38
491.798	3534.24
492.168	3624.18
492.538	3603.39
492.908	3647.23
493.278	3757.51
493.648	3887.45
494.017	3985.76
494.387	4156.37
494.757	4206.99
495.126	4304.62
495.496	4286.31
495.866	4314.34
496.235	4318.86
496.605	4269.37
496.974	4171.97
497.344	4118.41
497.713	4066.43
498.082	4030.28
498.452	4084.06
498.821	4140.1
499.19	4166.32
499.559	4333.32
499.928	4420.55
500.298	4585.52
500.667	4667.32
501.036	4721.33
501.405	4776.92
501.774	4806.98
502.143	4755.68
502.512	4711.16
502.88	4587.55
503.249	4542.13
503.618	4477.5
503.987	4436.37
504.356	4415.12
504.724	4456.25
505.093	4462.81
505.462	4661.45
505.83	4678.85
506.199	4835
506.567	4992.51
506.936	5116.35
507.304	5204.48
507.672	5206.52
508.041	5209.23
508.409	5179.4
508.777	5063.92
509.145	5006.29
509.514	4874.77
509.882	4854.21
510.25	4775.57
510.618	4720.65
510.986	4765.85
511.354	4854.89
511.722	4988.44
512.09	5148.66
512.458	5220.75
512.826	5363.12
513.193	5466.4
513.561	5509.56
513.929	5622.78
514.297	5637.24
514.664	5629.1
515.032	5496
515.4	5384.14
515.767	5272.05
516.135	5177.59
516.502	5060.98
516.869	5113.86
517.237	5069.34
517.604	5106.41
517.972	5199.06
518.339	5366.06
518.706	5498.26
519.073	5616
519.44	5878.59
519.808	5932.82
520.175	6028.87
520.542	6053.05
520.909	6088.53
521.276	6000.39
521.643	5906.38
522.009	5828.87
522.376	5672.72
522.743	5590.69
523.11	5443.35
523.477	5492.38
523.843	5480.63
524.21	5553.63
524.577	5708.42
524.943	5842.21
525.31	6018.25
525.676	6275.41
526.043	6365.81
526.409	6552.92
526.776	6656.65
527.142	6808.73
527.508	6772.8
527.874	6665.01
528.241	6652.81
528.607	6480.38
528.973	6364
529.339	6296.88
529.705	6194.96
530.071	6199.48
530.437	6126.04
530.803	6147.51
531.169	6253.95
531.535	6382.76
531.901	6628.4
532.267	6826.13
532.632	6984.77
532.998	7206.69
533.364	7355.39
533.73	7450.98
534.095	7558.09
534.461	7601.25
534.826	7554.48
535.192	7437.19
535.557	7295.5
535.923	7140.48
536.288	7028.61
536.653	6920.14
537.019	6808.96
537.384	6845.34
537.749	6820.03
538.114	6923.31
538.479	7029.97
538.845	7248.27
539.21	7393.58
539.575	7650.52
539.94	7892.77
540.305	8132.31
540.67	8218.19
541.034	8328.69
541.399	8308.13
541.764	8392.87
542.129	8316.94
542.494	8055.48
542.858	7919.44
543.223	7770.97
543.587	7674.7
543.952	7504.53
544.316	7470.64
544.681	7416.18
545.045	7446.91
545.41	7638.09
545.774	7758.31
546.138	7950.17
546.503	8143.84
546.867	8352.2
547.231	8652.75
547.595	8835.12
547.959	8908.79
548.324	8955.12
548.688	8997.83
549.052	9010.26
549.416	8850.04
549.779	8717.38
550.143	8549.03
550.507	8408.47
550.871	8210.28
551.235	8072.65
551.599	7955.37
551.962	7880.57
552.326	7882.6
552.689	8047.34
553.053	8094.12
553.417	8273.55
553.78	8571.17
554.143	8715.58
554.507	8929.58
554.87	9231.04
555.234	9378.61
555.597	9393.98
555.96	9537.7
556.323	9492.73
556.686	9429
557.05	9338.38
557.413	9166.64
557.776	8942.01
558.139	8797.83
558.502	8620.89
558.865	8433.32
559.228	8394
559.59	8355.81
559.953	8468.8
560.316	8551.06
560.679	8657.27
561.041	8854.78
561.404	9109.92
561.767	9331.38
562.129	9547.87
562.492	9826.96
562.854	9980.85
563.217	10018.82
563.579	10131.13
563.941	10229.21
564.304	10144.69
564.666	10094.52
565.028	9895.43
565.39	9696.34
565.753	9559.85
566.115	9345.84
566.477	9262
566.839	9124.15
567.201	9036.47
567.563	9027.43
567.925	9063.14
568.287	9166.19
568.648	9408.67
569.01	9627.42
569.372	9892.04
569.734	10111.25
570.095	10343.1
570.457	10571.8
570.819	10802.07
571.18	10927.72
571.542	10984.67
571.903	11017.44
572.265	11011.56
572.626	10944.44
572.987	10785.13
573.349	10574.74
573.71	10433.27
574.071	10152.15
574.432	10056.78
574.794	10008.42
575.155	9982.89
575.516	9885.94
575.877	10029.67
576.238	10192.37
576.599	10460.61
576.96	10680.27
577.32	10982.41
577.681	11356.41
578.042	11683.18
578.403	12023.74
578.763	12383.73
579.124	12634.12
579.485	12941.45
579.845	13055.35
580.206	13046.76
580.566	13129.7
580.927	13173.99
581.287	13228.45
581.648	13107.1
582.008	13174.67
582.368	13157.27
582.728	13364.27
583.089	13312.97
583.449	13486.75
583.809	13780.08
584.169	14110.69
584.529	14463.22
584.889	15059.82
585.249	15460.03
585.609	16081.48
585.969	16783.39
586.329	17407.1
586.688	18068.78
587.048	18808.19
587.408	19229.2
587.768	19841.84
588.127	20347.59
588.487	20685.43
588.846	21283.38
589.206	21502.81
589.565	21808.34
589.925	22081.1
590.284	22290.81
590.643	22634.53
591.003	22833.85
591.362	23321.52
591.721	23586.82
592.08	24059.58
592.44	24608.04
592.799	25231.3
593.158	25846.42
593.517	26568.21
593.876	27388.53
594.235	28041.4
594.593	28882.05
594.952	29684.74
595.311	30301
595.67	31096.23
596.029	31990.22
596.387	32575.06
596.746	33067.93
597.104	33578.43
597.463	34064.06
597.822	34663.14
598.18	34782.24
598.538	35160.3
598.897	35561.88
599.255	35499.05
599.613	36232.82
599.972	36381.06
600.33	36716.2
600.688	36959.35
601.046	37583.07
601.404	38072.77
601.762	38587.56
602.12	39192.97
602.478	39804.93
602.836	40369.43
603.194	40919.93
603.552	41633.35
603.91	42018.88
604.268	42848.92
604.625	43237.61
604.983	43760.3
605.341	44240.97
605.698	44701.07
606.056	45250.21
606.413	45265.58
606.771	45681.38
607.128	45950.08
607.485	45789.63
607.843	45973.81
608.2	46172.44
608.557	46398.65
608.914	46400.46
609.272	46572.21
609.629	46847.45
609.986	47215.13
610.343	47132.19
610.7	47645.17
611.057	47791.38
611.414	48084.94
611.771	48507.52
612.127	48914.52
612.484	49309.76
612.841	49785
613.198	49790.43
613.554	50108.16
613.911	50582.95
614.267	50736.39
614.624	50934.35
614.98	51142.93
615.337	51426.32
615.693	51483.94
616.05	51474
616.406	51647.78
616.762	51536.37
617.118	51532.53
617.475	51397.62
617.831	51453.89
618.187	51416.15
618.543	51359.65
618.899	51621.79
619.255	51519.65
619.611	51509.25
619.967	51656.59
620.323	51944.5
620.678	51907.66
621.034	51975.68
621.39	52163.02
621.746	52368.67
622.101	52918.93
622.457	52726.85
622.812	52970.91
623.168	53249.09
623.523	53364.12
623.879	53532.93
624.234	53407.06
624.589	53617.67
624.945	53569.54
625.3	53654.06
625.655	53519.37
626.01	53493.61
626.365	53536.32
626.72	53393.27
627.075	53280.96
627.43	53164.8
627.785	53048.65
628.14	52975.43
628.495	52976.56
628.85	52880.06
629.205	52810.69
629.559	53112.83
629.914	52893.17
630.269	52992.83
630.623	53114.86
630.978	53059.72
631.332	53336.1
631.687	53504
632.041	53538.35
632.396	53761.85
632.75	53751
633.104	53887.27
633.459	53919.36
633.813	53864.45
634.167	53841.17
634.521	53824.67
634.875	53985.35
635.229	53856.76
635.583	53711.45
635.937	53654.28
636.291	53439.82
636.645	53430.56
636.999	53137.46
637.352	53220.17
637.706	52877.8
638.06	52966.39
638.413	52737.92
638.767	52676.91
639.121	52635.33
639.474	52426.29
639.828	52534.76
640.181	52598.49
640.534	52694.08
640.888	52769.33
641.241	52671.03
641.594	52941.08
641.947	53120.51
642.301	53110.34
642.654	53226.04
643.007	53272.14
643.36	53338.13
643.713	53439.37
644.066	53599.37
644.419	53330.9
644.771	53148.76
645.124	52859.27
645.477	52778.37
645.83	52431.94
646.182	52291.61
646.535	52091.16
646.888	52009.35
647.24	51813.2
647.593	51756.25
647.945	51620.66
648.298	51353.55
648.65	51280.11
649.002	51185.42
649.355	51230.62
649.707	51075.37
650.059	51172.99
650.411	51634.22
650.763	51679.42
651.115	52120.76
651.467	52034.89
651.819	52118.95
652.171	52171.83
652.523	52208.44
652.875	52315.33
653.227	52308.55
653.578	52560.07
653.93	52532.95
654.282	52533.63
654.633	52540.19
654.985	52661.99
655.337	52535.21
655.688	52447.53
656.039	52502.67
656.391	52165.73
656.742	52182.68
657.094	52101.78
657.445	52193.53
657.796	51858.85
658.147	51760.55
658.498	51594
658.849	51616.37
659.2	51438.52
659.551	51325.98
659.902	51384.96
660.253	51353.32
660.604	51311.07
660.955	51156.49
661.306	51343.83
661.656	51324.17
662.007	51504.28
662.358	51571.17
662.708	51658.63
663.059	51791.51
663.409	51776.36
663.76	52039.63
664.11	52125.51
664.461	52225.62
664.811	52144.72
665.161	52302.68
665.511	52141.78
665.862	52249.12
666.212	52280.08
666.562	52267.88
666.912	52073.98
667.262	51910.6
667.612	51757.83
667.962	51743.15
668.312	51568.91
668.662	51532.08
669.011	51405.3
669.361	51204.63
669.711	51050.73
670.06	50998.53
670.41	50873.34
670.76	50646.22
671.109	50785.2
671.459	50754.02
671.808	50673.12
672.157	50829.95
672.507	50693.23
672.856	50769.39
673.205	50953.11
673.554	51090.28
673.904	51008.02
674.253	51428.8
674.602	51326.88
674.951	50977.97
675.3	50935.48
675.649	51581.57
675.998	51508.8
676.346	51640.1
676.695	51786.99
677.044	51477.62
677.393	51559.87
677.741	51439.2
678.09	51426.54
678.438	51145.87
678.787	51186.1
679.135	51088.47
679.484	50685.55
679.832	50650.97
680.181	50443.29
680.529	50348.61
680.877	50177.54
681.225	50037.88
681.573	50159.23
681.922	49870.65
682.27	49724.22
682.618	49748.17
682.966	49638.34
683.314	49805.12
683.661	49696.19
684.009	49622.75
684.357	49640.15
684.705	49691
685.053	49876.98
685.4	49896.41
685.748	49838.79
686.095	49929.18
686.443	49907.04
686.79	49982.97
687.138	50177.08
687.485	50197.2
687.832	50122.4
688.18	50140.93
688.527	49983.19
688.874	49967.6
689.221	49835.17
689.568	49601.96
689.915	49460.49
690.262	49367.61
690.609	49174.85
690.956	48886.05
691.303	48881.98
691.65	48560.86
691.997	48453.97
692.344	48071.38
692.69	47864.83
693.037	47697.83
693.383	47270.27
693.73	47457.61
694.077	47216.71
694.423	47266.65
694.769	46978.52
695.116	46929.03
695.462	47032.31
695.808	46893.33
696.155	47100.1
696.501	47044.06
696.847	47110.5
697.193	46945.98
697.539	47055.58
697.885	46923.38
698.231	46860.79
698.577	47011.29
698.923	47039.09
699.269	47054.91
699.614	46967.9
699.96	46889.04
700.306	46944.4
700.651	46706.67
700.997	46517.97
701.342	46418.31
701.688	46449.27
702.033	46129.06
702.379	46000.7
702.724	45833.24
703.069	45670.99
703.415	45265.58
703.76	45136.31
704.105	45024
704.45	44742.2
704.795	44370.91
705.14	44165.49
705.485	44058.6
705.83	43768.21
706.175	43770.25
706.52	43635.56
706.865	43488.45
707.209	43474.66
707.554	43449.8
707.899	43612.74
708.243	43439.41
708.588	43278.06
708.932	43254.55
709.277	43357.38
709.621	43522.34
709.966	43412.74
710.31	43665.39
710.654	43258.85
710.998	43502.91
711.342	43688.44
711.687	43544.49
712.031	43425.4
712.375	43382.24
712.719	43373.2
713.063	43464.94
713.407	43539.97
713.75	43218.17
714.094	43031.28
714.438	43039.87
714.782	42742.93
715.125	42567.12
715.469	42551.3
715.812	42147.69
716.156	41826.34
716.499	41739.34
716.843	41678.78
717.186	41287.83
717.53	41468.39
717.873	41199.69
718.216	41159.24
718.559	40700.72
718.902	40589.31
719.246	40672.02
719.589	40495.98
719.932	40393.84
720.275	40281.53
720.617	40387.06
720.96	40334.86
721.303	40350.68
721.646	40524.91
721.989	40519.94
722.331	40686.71
722.674	40686.94
723.016	40811.68
723.359	40608.75
723.701	40860.04
724.044	40759.48
724.386	40693.49
724.729	40868.85
725.071	40649.65
725.413	40851
725.755	40618.01
726.097	40589.09
726.439	40308.87
726.782	40383.22
727.124	40418.92
727.465	40098.71
727.807	39892.84
728.149	39834.08
728.491	39492.62
728.833	39499.63
729.175	39210.82
729.516	39023.03
729.858	38801.56
730.199	38904.61
730.541	38693.09
730.882	38484.28
731.224	38537.84
731.565	38339.2
731.906	38251.52
732.248	38260.11
732.589	38077.74
732.93	37934.69
733.271	37935.82
733.612	38029.83
733.953	38152.09
734.294	37964.52
734.635	38040
734.976	38148.25
735.317	38008.59
735.658	38221.92
735.999	38294.69
736.339	38200.22
736.68	38376.04
737.021	38463.27
737.361	38320.67
737.702	38554.34
738.042	38432.99
738.383	38479.54
738.723	38616.71
739.063	38378.75
739.404	38438.86
739.744	38307.11
740.084	38223.05
740.424	38141.47
740.764	38041.81
741.104	38164.52
741.444	37712.1
741.784	37630.52
742.124	37579.45
742.464	37328.16
742.804	37155.96
743.143	36962.52
743.483	36861.5
743.823	36505.81
744.162	36447.95
744.502	36659.02
744.841	36123.67
745.181	36389.88
745.52	36128.87
745.86	36167.51
746.199	36029.43
746.538	35885.26
746.877	36016.33
747.216	36009.1
747.556	36012.94
747.895	35994.63
748.234	35986.05
748.573	35968.19
748.911	36010
749.25	35969.77
749.589	36044.12
749.928	36148.07
750.267	36304.23
750.605	36151.46
750.944	36145.36
751.283	36180.62
751.621	36200.95
751.96	36019.04
752.298	36153.5
752.636	36183.78
752.975	35991.47
753.313	35800.74
753.651	35991.24
753.989	35617.24
754.327	35577.24
754.666	35493.85
755.004	35330.47
755.342	35179.74
755.679	35099.29
756.017	34780.65
756.355	34848.45
756.693	34563.26
757.031	34387.9
757.368	34220.89
757.706	34032.2
758.044	33868.36
758.381	33813.45
758.719	33566.9
759.056	33481.93
759.394	33241.48
759.731	33187.47
760.068	33058.21
760.405	32941.15
760.743	32888.95
761.08	32878.33
761.417	32796.07
761.754	32857.31
762.091	32809.86
762.428	32729.41
762.765	32705.91
763.102	32786.58
763.438	32674.27
763.775	32587.72
764.112	32824.55
764.449	32791.55
764.785	32620.03
765.122	32695.74
765.458	32535.97
765.795	32620.48
766.131	32567.15
766.467	32665.45
766.804	32514.27
767.14	32350.66
767.476	32388.63
767.812	32164
768.148	32300.94
768.485	31961.74
768.821	31679.72
769.157	31722.2
769.492	31616.22
769.828	31467.07
770.164	31215.55
770.5	31026.85
770.836	30918.16
771.171	30593.87
771.507	30328.79
771.842	30104.84
772.178	30051.51
772.513	29895.81
772.849	29675.02
773.184	29520.23
773.519	29414.69
773.855	29298.54
774.19	29078.66
774.525	29019.9
774.86	29049.05
775.195	28855.84
775.53	28669.63
775.865	28428.5
776.2	28454.72
776.535	28274.84
776.87	28323.65
777.205	28269.86
777.539	28125.91
777.874	28262.41
778.209	27978.35
778.543	28089.98
778.878	28066.03
779.212	28091.79
779.547	28037.33
779.881	28111
780.215	28097.89
780.55	28162.75
780.884	28002.75
781.218	27943.77
781.552	27995.29
781.886	27931.34
782.22	27793.72
782.554	27646.83
782.888	27435.31
783.222	27321.87
783.556	27209.1
783.889	27099.73
784.223	26819.73
784.557	26728.44
784.89	26822.67
785.224	26440.76
785.557	26400.76
785.891	26349.01
786.224	26091.39
786.558	25975.01
786.891	25622.25
787.224	25549.94
787.557	25353.33
787.891	25378.19
788.224	25171.19
788.557	25162.38
788.89	24994.02
789.223	24854.13
789.556	24695.95
789.888	24506.12
790.221	24579.11
790.554	24349.74
790.887	24392.9
791.219	24303.87
791.552	24295.96
791.884	24152.91
792.217	24116.53
792.549	23985.23
792.882	23978.23
793.214	23985
793.546	24087.6
793.879	23942.07
794.211	23811
794.543	23922.63
794.875	23912.01
795.207	24021.61
795.539	23983.2
795.871	23979.36
796.203	23818.68
796.535	23758.34
796.867	23725.58
797.198	23679.7
797.53	23673.83
797.862	23534.85
798.193	23527.39
798.525	23448.97
798.856	23314.29
799.188	23283.1
799.519	23104.8
799.85	22889.67
800.182	22881.53
800.513	22845.6
800.844	22478.38
801.175	22681.54
801.506	22577.13
801.837	22417.59
802.168	22223.02
802.499	22114.77
802.83	22003.14
803.161	21805.63
803.491	21790.26
803.822	21692.86
804.153	21557.72
804.483	21357.96
804.814	21233.89
805.145	21231.63
805.475	21161.12
805.805	21074.57
806.136	21118.19
806.466	21042.48
806.796	20920.45
807.126	20901.47
807.457	20738.31
807.787	20805.2
808.117	20757.52
808.447	20656.5
808.777	20837.97
809.107	20764.98
809.436	20717.97
809.766	20753
810.096	20790.96
810.426	20744.19
810.755	20870.06
811.085	20657.41
811.414	20626.68
811.744	20703.51
812.073	20605.88
812.403	20568.37
812.732	20579.22
813.061	20569.28
813.39	20561.82
813.719	20489.28
814.049	20524.3
814.378	20504.64
814.707	20418.09
815.036	20414.48
815.365	20204.09
815.693	20096.75
816.022	20135.84
816.351	20040.02
816.68	19783.08
817.008	19963.42
817.337	19605.23
817.665	19540.38
817.994	19516.42
818.322	19527.95
818.651	19405.69
818.979	19237.79
819.307	19359.14
819.636	19028.3
819.964	18997.57
820.292	19056.32
820.62	18943.56
820.948	18885.48
821.276	18869.43
821.604	18764.13
821.932	18654.75
822.259	18726.39
822.587	18624.69
822.915	18558.71
823.243	18717.12
823.57	18692.49
823.898	18635.54
824.225	18649.33
824.553	18746.27
824.88	18676.67
825.207	18804.58
825.535	18762.54
825.862	18810.45
826.189	18838.7
826.516	18999.6
826.843	19027.85
827.17	18909.21
827.497	19092.93
827.824	19086.38
828.151	19091.12
828.478	19209.76
828.805	19349.65
829.131	19188.97
829.458	19219.71
829.785	19221.06
830.111	19309.2
830.438	19362.08
830.764	19342.42
831.09	19364.56
831.417	19186.04
831.743	19342.42
832.069	19215.86
832.395	19112.59
832.722	19199.14
833.048	19138.13
833.374	19175.41
833.7	18891.58
834.026	19040.95
834.351	19036.89
834.677	18897.46
835.003	18866.72
835.329	18835.99
835.654	18732.04
835.98	18603.68
836.306	18566.16
836.631	18426.73
836.956	18448.65
837.282	18382.44
837.607	18194.87
837.932	18220.86
838.258	18116.01
838.583	18127.76
838.908	18125.27
839.233	18089.11
839.558	17874.66
839.883	17864.04
840.208	17811.61
840.533	17795.79
840.858	17838.05
841.182	17824.26
841.507	17844.83
841.832	17737.94
842.156	17841.66
842.481	17790.14
842.805	17712.63
843.13	17775.45
843.454	17746.98
843.778	17735.45
844.103	17735.23
844.427	17648.67
844.751	17785.39
845.075	17874.43
845.399	17749.91
845.723	17721.44
846.047	17787.43
846.371	17608.45
846.695	17652.97
847.019	17576.13
847.343	17531.39
847.666	17446.19
847.99	17471.5
848.313	17387.21
848.637	17319.64
848.96	17283.49
849.284	17150.16
849.607	17080.33
849.931	17063.15
850.254	16826.1
850.577	16866.32
850.9	16787.23
851.223	16719.21
851.546	16454.13
851.869	16398.99
852.192	16437.63
852.515	16253.23
852.838	16159.45
853.161	16166.68
853.483	15970.3
853.806	15932.56
854.129	15896.4
854.451	15733.7
854.774	15613.93
855.096	15566.92
855.419	15490.31
855.741	15375.51
856.063	15330.32
856.385	15170.1
856.708	15128.97
857.03	15126.71
857.352	15148.18
857.674	14941.85
857.996	15014.62
858.318	14831.12
858.64	14843.55
858.961	14858.01
859.283	14768.98
859.605	14717.68
859.926	14741.86
860.248	14668.87
860.57	14726.94
860.891	14679.94
861.212	14707.96
861.534	14679.26
861.855	14652.82
862.176	14662.76
862.498	14581.64
862.819	14657.11
863.14	14683.33
863.461	14650.79
863.782	14647.17
864.103	14767.39
864.424	14675.65
864.745	14722.88
865.065	14720.16
865.386	14619.15
865.707	14651.69
866.027	14665.25
866.348	14671.58
866.668	14689.2
866.989	14619.38
867.309	14485.82
867.63	14497.12
867.95	14594.07
868.27	14532.37
868.59	14490.34
868.91	14401.98
869.23	14371.25
869.55	14322.89
869.87	14378.7
870.19	14292.38
870.51	14274.07
870.83	14329.21
871.15	14103.68
871.469	14061.65
871.789	14109.78
872.109	14031.14
872.428	13951.37
872.748	13927.19
873.067	13825.95
873.386	13867.3
873.706	13820.3
874.025	13710.7
874.344	13656.69
874.663	13673.86
874.982	13538.73
875.301	13516.13
875.62	13428.9
875.939	13422.12
876.258	13377.6
876.577	13293.99
876.896	13348.67
877.214	13205.85
877.533	13282.01
877.852	13211.73
878.17	13242.01
878.489	13228.68
878.807	13190.94
879.125	13188.68
879.444	13345.74
879.762	13210.15
880.08	13175.35
880.398	13070.04
880.716	13226.64
881.034	13200.2
881.352	13229.13
881.67	13170.83
881.988	13219.86
882.306	13188.9
882.624	13220.99
882.941	13164.95
883.259	13156.14
883.577	13216.25
883.894	13213.08
884.212	13132.41
884.529	13182.35
884.846	13130.15
885.164	13195.23
885.481	13033.43
885.798	13139.19
886.115	13033.43
886.432	13027.1
886.75	12995.24
887.067	12997.95
887.383	12933.54
887.7	12956.37
888.017	12960.66
888.334	12929.93
888.651	12800.89
888.967	12828.91
889.284	12706.21
889.6	12712.53
889.917	12569.94
890.233	12603.84
890.55	12482.71
890.866	12480
891.182	12346.67
891.498	12364.52
891.815	12227.8
892.131	12166.11
892.447	12059.22
892.763	12049.95
893.079	11958.65
893.395	11847.47
893.71	11846.79
894.026	11757.3
894.342	11785.55
894.657	11738.1
894.973	11624.43
895.289	11699.68
895.604	11623.75
895.92	11525.9
896.235	11428.05
896.55	11535.84
896.865	11391.89
897.181	11383.53
897.496	11412.45
897.811	11284.77
898.126	11272.12
898.441	11281.38
898.756	11221.95
899.071	11160.26
899.386	11215.4
899.7	11072.12
900.015	11069.19
900.33	11011.56
900.644	11092.01
900.959	11117.77
901.273	11061.05
901.588	11034.16
901.902	10913.26
902.216	10868.97
902.531	10944.44
902.845	10866.71
903.159	10827.38
903.473	10848.4
903.787	10744
904.101	10705.58
904.415	10808.4
904.729	10746.93
905.042	10705.58
905.356	10725.24
905.67	10693.15
905.984	10671.68
906.297	10705.35
906.611	10631.46
906.924	10604.79
907.237	10519.6
907.551	10436.43
907.864	10436.21
908.177	10404.12
908.491	10459.94
908.804	10325.03
909.117	10326.61
909.43	10227.85
909.743	10136.33
910.056	10043.68
910.368	9973.4
910.681	9978.82
910.994	9914.19
911.307	9848.2
911.619	9708.54
911.932	9750.35
912.244	9615.21
912.557	9601.65
912.869	9554.65
913.181	9551.03
913.494	9454.54
913.806	9396.91
914.118	9315.56
914.43	9286.86
914.742	9277.6
915.054	9135.45
915.366	9162.8
915.678	8960.32
915.99	9048.22
916.302	8876.48
916.613	8904.95
916.925	8843.71
917.236	8914.67
917.548	8818.62
917.859	8801
918.171	8761
918.482	8667.44
918.794	8738.63
919.105	8725.52
919.416	8591.29
919.727	8632.19
920.038	8615.47
920.349	8513.1
920.66	8542.25
920.971	8520.1
921.282	8527.78
921.593	8476.26
921.903	8407.79
922.214	8411.4
922.525	8396.71
922.835	8319.43
923.146	8325.98
923.456	8297.51
923.767	8358.98
924.077	8237.4
924.387	8282.82
924.697	8217.51
925.008	8175.25
925.318	8237.85
925.628	8243.05
925.938	8219.32
926.248	8117.63
926.558	8091.86
926.867	8037.63
927.177	8028.81
927.487	8038.31
927.796	7924.86
928.106	7961.25
928.416	7895.94
928.725	7876.73
929.034	7785.88
929.344	7857.97
929.653	7765.54
929.962	7740.46
930.271	7624.98
930.581	7603.74
930.89	7615.27
931.199	7577.07
931.508	7510.41
931.817	7455.95
932.125	7410.75
932.434	7405.78
932.743	7319.45
933.051	7303.41
933.36	7222.28
933.669	7240.59
933.977	7125.56
934.286	7155.39
934.594	7129.63
934.902	7040.14
935.21	6995.17
935.519	6960.59
935.827	6879.47
936.135	6850.54
936.443	6796.76
936.751	6742.29
937.059	6715.63
937.367	6653.03
937.674	6679.25
937.982	6608.29
938.29	6571
938.597	6546.14
938.905	6488.06
939.213	6380.72
939.52	6495.75
939.827	6453.94
940.135	6399.93
940.442	6399.25
940.749	6398.35
941.056	6383.66
941.363	6345.02
941.67	6262.08
941.977	6346.82
942.284	6235.87
942.591	6229.77
942.898	6226.83
943.205	6258.24
943.511	6199.94
943.818	6194.06
944.125	6123.33
944.431	6140.73
944.738	6157.9
945.044	6156.1
945.35	6121.75
945.657	6068.19
945.963	6069.09
946.269	6071.58
946.575	6098.24
946.881	5963.11
947.187	6083.33
947.493	6013.5
947.799	5985.03
948.105	5932.15
948.41	5968.08
948.716	5921.07
949.022	5858.25
949.327	5870.9
949.633	5838.82
949.938	5780.06
950.244	5784.81
950.549	5733.51
950.854	5739.38
951.16	5714.75
951.465	5635.66
951.77	5694.64
952.075	5610.35
952.38	5574.42
952.685	5606.51
952.99	5517.24
953.294	5536.45
953.599	5473.18
953.904	5412.84
954.209	5425.72
954.513	5408.09
954.818	5338.04
955.122	5317.25
955.426	5270.69
955.731	5259.85
956.035	5259.17
956.339	5203.13
956.643	5179.17
956.948	5147.31
957.252	5094.65
957.556	5075.22
957.86	5076.12
958.163	5052.85
958.467	5004.71
958.771	5007.42
959.075	4926.75
959.378	4895.79
959.682	4866.41
959.985	4875
960.289	4830.71
960.592	4842.91
960.896	4789.58
961.199	4732.63
961.502	4759.52
961.805	4706.87
962.108	4687.89
962.411	4729.47
962.714	4669.13
963.017	4612.18
963.32	4665.51
963.623	4576.02
963.926	4625.06
964.228	4618.73
964.531	4559.3
964.833	4550.26
965.136	4505.29
965.438	4505.74
965.741	4465.97
966.043	4491.28
966.345	4470.49
966.648	4428.68
966.95	4450.15
967.252	4433.88
967.554	4424.84
967.856	4405.41
968.158	4356.37
968.46	4381
968.761	4319.53
969.063	4345.97
969.365	4341
969.666	4261.46
969.968	4251.51
970.269	4299.65
970.571	4264.62
970.872	4265.52
971.174	4216.03
971.475	4224.85
971.776	4263.04
972.077	4167.45
972.378	4192.76
972.679	4161.8
972.98	4176.26
973.281	4172.87
973.582	4169.93
973.883	4093.55
974.183	4063.04
974.484	4092.65
974.785	4050.39
975.085	4044.29
975.386	4037.51
975.686	3967.45
975.986	3929.26
976.287	3926.1
976.587	3880.67
976.887	3905.31
977.187	3889.26
977.487	3848.59
977.787	3846.33
978.087	3786.21
978.387	3767.91
978.687	3788.7
978.987	3706.67
979.286	3692.66
979.586	3707.35
979.885	3647.46
980.185	3651.53
980.484	3614.92
980.784	3598.2
981.083	3580.12
981.382	3550.51
981.682	3549.16
981.981	3511.87
982.28	3521.59
982.579	3472.78
982.878	3456.96
983.177	3445.43
983.475	3444.53
983.774	3408.14
984.073	3416.05
984.372	3356.62
984.67	3362.72
984.969	3330.41
985.267	3337.64
985.566	3271.43
985.864	3304.19
986.162	3277.3
986.461	3261.03
986.759	3232.56
987.057	3233.69
987.355	3227.58
987.653	3231.2
987.951	3200.69
988.249	3187.59
988.547	3148.04
988.844	3177.42
989.142	3151.2
989.44	3122.95
989.737	3120.69
990.035	3109.85
990.332	3098.77
990.63	3087.48
990.927	3041.6
991.224	3078.21
991.521	3024.88
991.819	3051.32
992.116	3015.61
992.413	3014.71
992.71	2982.85
993.006	3023.75
993.303	3055.61
993.6	3015.84
993.897	2968.16
994.193	2974.94
994.49	2982.17
994.787	2944.43
995.083	2938.33
995.379	2926.8
995.676	2887.48
995.972	2850.87
996.268	2876.63
996.565	2847.26
996.861	2843.64
997.157	2840.02
997.453	2826.24
997.749	2817.88
998.044	2825.11
998.34	2794.83
998.636	2758.22
998.932	2742.85
999.227	2706.24
999.523	2758.44
999.818	2738.33
1000.114	2702.4
1000.409	2617.88
1000.704	2684.55
1001	2654.27
1001.295	2636.64
1001.59	2603.42
1001.885	2624.89
1002.18	2586.25
1002.475	2562.52
1002.77	2539.24
1003.065	2527.49
1003.359	2532.01
1003.654	2503.08
1003.949	2486.14
1004.243	2479.58
1004.538	2435.29
1004.832	2434.16
1005.127	2423.99
1005.421	2389.19
1005.715	2396.42
1006.009	2341.05
1006.304	2356.2
1006.598	2324.33
1006.892	2331.34
1007.186	2318.68
1007.48	2367.72
1007.773	2273.71
1008.067	2271.9
1008.361	2242.75
1008.655	2215.86
1008.948	2211.34
1009.242	2236.2
1009.535	2193.04
1009.829	2167.5
1010.122	2122.98
1010.415	2095.64
1010.708	2143.77
1011.001	2106.26
1011.295	2105.35
1011.588	2093.15
1011.881	2085.02
1012.173	2067.16
1012.466	2054.96
1012.759	2056.09
1013.052	2033.72
1013.344	2012.48
1013.637	2005.47
1013.93	2000.05
1014.222	2014.74
1014.514	1973.61
1014.807	1948.75
1015.099	1951.23
1015.391	1952.14
1015.683	1951.91
1015.976	1913.95
1016.268	1930.44
1016.56	1869.2
1016.851	1881.86
1017.143	1892.25
1017.435	1891.12
1017.727	1864.23
1018.018	1848.64
1018.31	1845.93
1018.602	1833.5
1018.893	1812.71
1019.185	1815.19
1019.476	1800.28
1019.767	1802.99
1020.058	1803.89
1020.35	1790.11
1020.641	1763.67
1020.932	1773.39
1021.223	1738.13
1021.514	1735.42
1021.804	1715.99
1022.095	1714.86
1022.386	1697.46
1022.677	1687.29
1022.967	1673.73
1023.258	1659.72
1023.548	1658.13
1023.839	1629.66
1024.129	1673.28
1024.419	1613.84
1024.709	1605.93
1025	1587.85
1025.29	1605.25
1025.58	1600.06
1025.87	1542.88
1026.16	1546.05
1026.449	1553.5
1026.739	1535.65
1027.029	1491.13
1027.319	1487.74
1027.608	1505.14
1027.898	1510.79
1028.187	1463.56
1028.477	1460.17
1028.766	1455.88
1029.055	1451.13
1029.344	1424.24
1029.634	1418.59
1029.923	1395.09
1030.212	1393.73
1030.501	1380.85
1030.79	1398.03
1031.078	1386.5
1031.367	1365.94
1031.656	1331.59
1031.945	1320.29
1032.233	1330.46
1032.522	1315.77
1032.81	1269.22
1033.099	1288.2
1033.387	1282.1
1033.675	1264.92
1033.963	1250.46
1034.251	1254.53
1034.54	1245.49
1034.828	1255.43
1035.116	1230.57
1035.403	1209.78
1035.691	1196.68
1035.979	1184.02
1036.267	1172.05
1036.554	1160.97
1036.842	1181.76
1037.129	1167.3
1037.417	1167.98
1037.704	1175.66
1037.992	1158.49
1038.279	1116.23
1038.566	1121.65
1038.853	1121.65
1039.14	1121.65
