Data from red_shiny_book_FLMS001491_00068.txt Node
Date: Wed Feb 08 15:25:14 GMT 2017
User: dcchb
Spectrometer: FLMS00149
Trigger mode: 0
Integration Time (sec): 2.000000E-2
Scans to average: 10
Electric dark correction enabled: true
Nonlinearity correction enabled: false
Boxcar width: 0
XAxis mode: Wavelengths
Number of Pixels in Spectrum: 2048
>>>>>Begin Spectral Data<<<<<
341.393	-11.88
341.776	-11.88
342.16	-11.88
342.543	-68.37
342.927	-86.68
343.31	-65.21
343.693	-63.4
344.077	-71.76
344.46	-57.3
344.843	-64.08
345.226	-40.35
345.61	-34.25
345.993	-10.07
346.376	-6.45
346.759	28.35
347.142	43.04
347.525	38.06
347.908	57.05
348.291	64.5
348.674	96.82
349.057	85.07
349.44	128.91
349.823	142.02
350.206	153.09
350.588	183.14
350.971	196.7
351.354	220.66
351.737	234.22
352.119	244.16
352.502	263.59
352.884	264.27
353.267	267.44
353.65	287.77
354.032	275.35
354.414	303.59
354.797	336.36
355.179	321.67
355.562	309.92
355.944	307.66
356.326	334.78
356.709	321.22
357.091	315.57
357.473	337.27
357.855	312.18
358.238	332.29
358.62	337.94
359.002	337.72
359.384	322.8
359.766	340.2
360.148	332.29
360.53	316.02
360.912	319.64
361.294	334.33
361.676	327.55
362.057	331.16
362.439	336.59
362.821	303.82
363.203	335.23
363.584	320.32
363.966	299.75
364.348	321.67
364.729	308.79
365.111	317.83
365.493	317.15
365.874	307.21
366.256	288.45
366.637	308.34
367.019	291.84
367.4	299.98
367.781	302.01
368.163	297.49
368.544	311.5
368.925	310.6
369.306	320.32
369.688	294.55
370.069	296.81
370.45	291.39
370.831	296.14
371.212	309.92
371.593	280.77
371.974	307.89
372.355	300.66
372.736	298.4
373.117	290.94
373.498	326.42
373.879	300.2
374.26	310.37
374.641	277.15
375.021	310.37
375.402	307.44
375.783	328.45
376.163	321.45
376.544	301.33
376.925	298.62
377.305	318.28
377.686	306.31
378.066	336.59
378.447	317.6
378.827	306.98
379.208	311.28
379.588	315.12
379.968	307.66
380.349	327.77
380.729	323.03
381.109	323.71
381.489	319.41
381.87	309.24
382.25	322.8
382.63	321.45
383.01	347.66
383.39	321.22
383.77	310.83
384.15	346.08
384.53	335.68
384.91	316.7
385.29	322.35
385.67	328.23
386.049	340.43
386.429	308.79
386.809	312.18
387.189	342.01
387.568	337.72
387.948	328
388.328	331.16
388.707	341.11
389.087	351.5
389.466	338.85
389.846	353.31
390.225	328.9
390.605	331.84
390.984	324.84
391.363	360.32
391.743	351.5
392.122	349.69
392.501	332.97
392.881	352.18
393.26	356.25
393.639	362.8
394.018	357.38
394.397	340.65
394.776	358.51
395.155	345.63
395.534	365.51
395.913	371.16
396.292	348.11
396.671	349.02
397.05	361.9
397.429	344.5
397.808	354.44
398.186	352.63
398.565	364.38
398.944	351.5
399.323	358.51
399.701	374.55
400.08	358.73
400.458	361.67
400.837	365.06
401.215	367.77
401.594	353.31
401.972	363.93
402.351	378.17
402.729	369.13
403.107	370.94
403.486	375.68
403.864	377.04
404.242	383.37
404.62	385.4
404.999	376.81
405.377	377.26
405.755	398.28
406.133	372.07
406.511	385.4
406.889	393.31
407.267	404.38
407.645	386.08
408.023	377.26
408.401	392.4
408.779	404.16
409.156	393.76
409.534	397.38
409.912	389.47
410.29	395.34
410.667	400.99
411.045	424.95
411.422	418.84
411.8	389.47
412.178	430.14
412.555	419.75
412.933	419.75
413.31	428.79
413.687	423.82
414.065	429.24
414.442	418.84
414.819	426.3
415.197	453.42
415.574	450.93
415.951	437.83
416.328	450.48
416.705	456.36
417.082	463.82
417.46	455
417.837	451.16
418.214	453.19
418.591	454.1
418.967	466.08
419.344	469.01
419.721	479.18
420.098	467.21
420.475	466.75
420.852	486.87
421.228	480.54
421.605	475.11
421.982	474.21
422.358	509.01
422.735	478.28
423.111	509.24
423.488	489.8
423.864	502.23
424.241	509.24
424.617	519.18
424.994	492.74
425.37	478.05
425.746	518.5
426.123	502.91
426.499	503.81
426.875	504.49
427.251	510.37
427.627	526.19
428.003	525.06
428.379	530.93
428.756	519.86
429.132	548.33
429.507	516.02
429.883	539.07
430.259	513.08
430.635	530.71
431.011	544.27
431.387	540.88
431.763	548.11
432.138	571.38
432.514	576.81
432.89	569.58
433.265	566.86
433.641	577.26
434.016	580.65
434.392	570.25
434.767	578.61
435.143	591.72
435.518	598.73
435.894	603.25
436.269	600.54
436.644	624.49
437.02	599.86
437.395	603.25
437.77	633.3
438.145	626.3
438.52	612.06
438.895	597.82
439.271	611.38
439.646	623.59
440.021	604.6
440.395	641.44
440.77	610.93
441.145	633.98
441.52	652.74
441.895	653.19
442.27	655.67
442.645	667.88
443.019	660.87
443.394	651.16
443.769	639.18
444.143	642.12
444.518	636.24
444.892	634.21
445.267	644.38
445.641	664.49
446.016	671.04
446.39	672.85
446.764	696.35
447.139	690.02
447.513	683.02
447.887	679.63
448.262	674.43
448.636	663.81
449.01	670.36
449.384	663.58
449.758	669.46
450.132	684.6
450.506	684.83
450.88	709.91
451.254	710.14
451.628	707.42
452.002	707.65
452.376	693.64
452.75	712.85
453.123	701.1
453.497	714.2
453.871	714.43
454.244	727.54
454.618	711.94
454.992	705.39
455.365	697.03
455.739	719.85
456.112	716.46
456.486	719.85
456.859	748.78
457.232	737.93
457.606	745.39
457.979	735.67
458.352	738.84
458.725	749.46
459.099	758.27
459.472	746.07
459.845	734.99
460.218	740.87
460.591	765.5
460.964	746.75
461.337	767.76
461.71	784.94
462.083	784.03
462.456	802.56
462.829	780.64
463.201	808.21
463.574	792.17
463.947	803.92
464.32	802.56
464.692	789.91
465.065	810.02
465.438	789
465.81	793.52
466.183	796.01
466.555	816.8
466.928	850.7
467.3	860.19
467.672	838.49
468.045	851.15
468.417	859.96
468.789	854.77
469.161	843.92
469.534	841.88
469.906	844.82
470.278	850.47
470.65	877.82
471.022	889.34
471.394	887.99
471.766	900.41
472.138	917.81
472.51	915.1
472.882	940.64
473.253	930.47
473.625	939.74
473.997	958.27
474.369	937.93
474.74	942.22
475.112	948.55
475.484	938.83
475.855	944.71
476.227	993.07
476.598	968.89
476.97	1009.34
477.341	1044.59
477.713	1050.01
478.084	1039.62
478.455	1096.79
478.827	1114.87
479.198	1126.17
479.569	1096.12
479.94	1114.65
480.311	1090.69
480.682	1103.8
481.053	1115.55
481.424	1128.2
481.795	1120.75
482.166	1145.38
482.537	1167.3
482.908	1202.1
483.279	1232.38
483.65	1246.17
484.021	1258.14
484.391	1311.02
484.762	1284.36
485.133	1289.1
485.503	1311.25
485.874	1321.87
486.244	1312.61
486.615	1320.97
486.985	1307.86
487.356	1357.13
487.726	1351.7
488.097	1386.05
488.467	1391.02
488.837	1471.7
489.207	1469.44
489.578	1530.45
489.948	1521.19
490.318	1571.13
490.688	1540.62
491.058	1563.45
491.428	1560.96
491.798	1566.84
492.168	1568.87
492.538	1576.55
492.908	1581.75
493.278	1562.32
493.648	1570.45
494.017	1641.19
494.387	1645.25
494.757	1664.01
495.126	1734.74
495.496	1727.29
495.866	1726.16
496.235	1773.61
496.605	1762.31
496.974	1751.69
497.344	1784.23
497.713	1734.52
498.082	1742.2
498.452	1762.31
498.821	1772.48
499.19	1739.04
499.559	1789.66
499.928	1736.1
500.298	1812.48
500.667	1816.32
501.036	1843.21
501.405	1906.72
501.774	1886.38
502.143	1897.22
502.512	1925.25
502.88	1942.65
503.249	1913.72
503.618	1913.49
503.987	1877.79
504.356	1851.35
504.724	1869.2
505.093	1878.24
505.462	1830.33
505.83	1852.93
506.199	1885.25
506.567	1901.74
506.936	1913.72
507.304	1972.02
507.672	1975.87
508.041	1957.34
508.409	1997.11
508.777	2013.15
509.145	2000.5
509.514	1983.1
509.882	2009.99
510.25	1977.67
510.618	1958.47
510.986	1920.27
511.354	1886.83
511.722	1907.39
512.09	1898.58
512.458	1883.89
512.826	1935.42
513.193	1920.95
513.561	1955.98
513.929	2003.21
514.297	2051.8
514.664	2054.28
515.032	2035.53
515.4	2075.07
515.767	2054.73
516.135	2043.66
516.502	2025.13
516.869	1993.94
517.237	1998.46
517.604	1934.96
517.972	1919.14
518.339	1927.51
518.706	1912.59
519.073	1919.37
519.44	1948.52
519.808	1964.79
520.175	1988.3
520.542	1976.32
520.909	2039.37
521.276	2051.8
521.643	2066.26
522.009	2097.22
522.376	2067.62
522.743	2066.26
523.11	2053.15
523.477	2084.34
523.843	2030.33
524.21	2000.05
524.577	1978.58
524.943	1997.56
525.31	1995.98
525.676	1987.62
526.043	2012.02
526.409	2060.61
526.776	2089.31
527.142	2128.63
527.508	2133.6
527.874	2162.08
528.241	2214.05
528.607	2244.79
528.973	2234.62
529.339	2258.8
529.705	2255.86
530.071	2257.21
530.437	2231.9
530.803	2220.15
531.169	2196.88
531.535	2201.17
531.901	2182.87
532.267	2176.54
532.632	2181.74
532.998	2195.97
533.364	2263.99
533.73	2268.06
534.095	2362.07
534.461	2404.1
534.826	2419.47
535.192	2433.03
535.557	2481.62
535.923	2500.82
536.288	2510.77
536.653	2504.44
537.019	2482.52
537.384	2493.14
537.749	2469.41
538.114	2473.25
538.479	2435.06
538.845	2431.22
539.21	2415.63
539.575	2416.31
539.94	2448.17
540.305	2492.24
540.67	2515.29
541.034	2546.02
541.399	2605
541.764	2634.15
542.129	2690.42
542.494	2719.12
542.858	2713.7
543.223	2741.27
543.587	2774.94
543.952	2777.43
544.316	2738.56
544.681	2729.74
545.045	2710.31
545.41	2691.1
545.774	2670.99
546.138	2668.28
546.503	2701.27
546.867	2662.4
547.231	2649.29
547.595	2680.48
547.959	2661.5
548.324	2694.49
548.688	2736.75
549.052	2784.43
549.416	2830.98
549.779	2859.68
550.143	2892.45
550.507	2884.77
550.871	2902.17
551.235	2882.06
551.599	2870.31
551.962	2867.82
552.326	2858.33
552.689	2820.36
553.053	2793.92
553.417	2751.66
553.78	2720.03
554.143	2719.12
554.507	2679.58
554.87	2706.02
555.234	2723.64
555.597	2710.08
555.96	2749.86
556.323	2783.3
556.686	2836.41
557.05	2853.36
557.413	2917.99
557.776	2947.37
558.139	2942.39
558.502	2947.82
558.865	2982.62
559.228	3002.51
559.59	2950.08
559.953	2920.7
560.316	2892
560.679	2904.66
561.041	2859.01
561.404	2802.74
561.767	2770.65
562.129	2784.88
562.492	2793.47
562.854	2784.21
563.217	2794.6
563.579	2821.04
563.941	2849.74
564.304	2895.84
564.666	2966.57
565.028	2993.92
565.39	3014.71
565.753	3046.12
566.115	3080.24
566.477	3138.1
566.839	3109.17
567.201	3105.55
567.563	3105.1
567.925	3085.67
568.287	3077.31
568.648	3030.75
569.01	3010.87
569.372	2989.62
569.734	2939.91
570.095	2923.41
570.457	2943.07
570.819	2950.53
571.18	2957.99
571.542	2980.81
571.903	3059.91
572.265	3104.2
572.626	3195.5
572.987	3214.48
573.349	3271.43
573.71	3361.37
574.071	3412.44
574.432	3479.33
574.794	3527.92
575.155	3562.04
575.516	3556.62
575.877	3559.78
576.238	3601.59
576.599	3639.55
576.96	3553.68
577.32	3640.68
577.681	3674.58
578.042	3676.61
578.403	3735.59
578.763	3803.16
579.124	3859.66
579.485	3971.75
579.845	4117.05
580.206	4256.03
580.566	4360.21
580.927	4570.37
581.287	4746.19
581.648	4905.73
582.008	5139.85
582.368	5312.5
582.728	5516.11
583.089	5759.5
583.449	5961.98
583.809	6192.25
584.169	6351.34
584.529	6558.34
584.889	6820.48
585.249	6975.06
585.609	7161.72
585.969	7466.57
586.329	7726.9
586.688	8043.05
587.048	8308.58
587.408	8686.2
587.768	8956.02
588.127	9305.62
588.487	9697.7
588.846	10075.31
589.206	10403.22
589.565	10796.65
589.925	11320.48
590.284	11687.02
590.643	12183.06
591.003	12637.51
591.362	13012.64
591.721	13503.02
592.08	13860.3
592.44	14371.47
592.799	14822.76
593.158	15178.46
593.517	15509.3
593.876	15948.83
594.235	16306.79
594.593	16707.91
594.952	17157.61
595.311	17539.3
595.67	17905.62
596.029	18456.56
596.387	18878.25
596.746	19352.58
597.104	19626.48
597.463	20019.23
597.822	20578.54
598.18	20900.57
598.538	21488.12
598.897	22096.69
599.255	22291.49
599.613	23028.42
599.972	23376.43
600.33	23844.22
600.688	24261.16
601.046	24770.3
601.404	25218.19
601.762	25563.95
602.12	26000.55
602.478	26264.72
602.836	26665.39
603.194	26818.38
603.552	27226.95
603.91	27472.37
604.268	27826.49
604.625	28127.04
604.983	28527.03
605.341	28658.55
605.698	29196.85
606.056	29489.49
606.413	29734.01
606.771	30147.55
607.128	30429.36
607.485	30631.61
607.843	31035.44
608.2	31498.25
608.557	31870.22
608.914	32065.24
609.272	32532.58
609.629	32874.04
609.986	33138.66
610.343	33249.62
610.7	33741.58
611.057	33989.04
611.414	34089.6
611.771	34290.5
612.127	34563.48
612.484	34704.05
612.841	34966.19
613.198	35022.45
613.554	35102.9
613.911	35541.99
614.267	35567.3
614.624	35640.52
614.98	35885.03
615.337	36117.12
615.693	36328.86
616.05	36343.1
616.406	36689.08
616.762	36673.71
617.118	36944.44
617.475	37162.96
617.831	37327.93
618.187	37468.72
618.543	37701.48
618.899	38037.29
619.255	38079.78
619.611	38243.39
619.967	38530.16
620.323	38714.79
620.678	38716.37
621.034	38849.47
621.39	38836.37
621.746	38738.06
622.101	39158.17
622.457	38943.48
622.812	39137.15
623.168	39079.98
623.523	39169.69
623.879	39319.97
624.234	39171.72
624.589	39310.25
624.945	39371.04
625.3	39368.33
625.655	39399.97
626.01	39582.79
626.365	39573.07
626.72	39717.25
627.075	39717.47
627.43	39942.1
627.785	39922.89
628.14	40167.63
628.495	40015.54
628.85	40265.03
629.205	40240.85
629.559	40443.33
629.914	40440.17
630.269	40601.97
630.623	40422.99
630.978	40259.38
631.332	40450.33
631.687	40572.37
632.041	40291.47
632.396	40438.36
632.75	40134.64
633.104	40219.15
633.459	40062.1
633.813	40098.25
634.167	40116.56
634.521	40013.51
634.875	40018.93
635.229	40023.68
635.583	39861.65
635.937	39847.19
636.291	39822.1
636.645	40091.25
636.999	39920.41
637.352	40042.66
637.706	39688.32
638.06	40173.05
638.413	39896.45
638.767	40059.61
639.121	40006.5
639.474	39964.92
639.828	39958.82
640.181	40212.6
640.534	40046.28
640.888	39795.21
641.241	39752.5
641.594	39884.02
641.947	39936.68
642.301	39876.79
642.654	39870.46
643.007	39770.13
643.36	39701.65
643.713	39549.34
644.066	39654.2
644.419	39355.9
644.771	38989.36
645.124	38784.16
645.477	38609.93
645.83	38390.05
646.182	38266.44
646.535	38309.37
646.888	38321.13
647.24	38147.12
647.593	38414
647.945	38293.33
648.298	38239.55
648.65	38090.85
649.002	38181.69
649.355	38318.64
649.707	38344.4
650.059	38401.35
650.411	38784.16
650.763	38948
651.115	39322.23
651.467	39274.77
651.819	39232.29
652.171	39078.85
652.523	38930.6
652.875	38811.73
653.227	38814.67
653.578	38985.74
653.93	38858.06
654.282	38630.5
654.633	38483.83
654.985	38585.3
655.337	38502.82
655.688	38494.68
656.039	38623.04
656.391	38264.86
656.742	38357.96
657.094	38329.94
657.445	38435.25
657.796	38463.72
658.147	38318.64
658.498	38356.38
658.849	38481.57
659.2	38411.07
659.551	38347.57
659.902	38668.23
660.253	38531.29
660.604	38659.65
660.955	38374.46
661.306	38625.52
661.656	38596.82
662.007	38538.07
662.358	38518.18
662.708	38495.13
663.059	38541.23
663.409	38208.36
663.76	38475.25
664.11	38349.6
664.461	38461.23
664.811	38271.86
665.161	38275.7
665.511	38191.64
665.862	38051.53
666.212	38180.56
666.562	38199.09
666.912	37951.87
667.262	37874.13
667.612	37934.02
667.962	37949.38
668.312	37861.02
668.662	38060.57
669.011	37849.73
669.361	37859.89
669.711	37897.41
670.06	37835.71
670.41	38003.17
670.76	37982.83
671.109	38007.01
671.459	37903.28
671.808	37967.91
672.157	38045.88
672.507	37860.8
672.856	37837.07
673.205	37909.38
673.554	38122.71
673.904	37869.61
674.253	38008.37
674.602	37915.71
674.951	37468.04
675.3	37177.2
675.649	37736.28
675.998	37534.03
676.346	37613.57
676.695	37498.55
677.044	37298.33
677.393	37435.05
677.741	37443.63
678.09	37047.26
678.438	37171.1
678.787	37163.87
679.135	37283.64
679.484	36828.51
679.832	37068.95
680.181	36879.58
680.529	37024.44
680.877	36913.03
681.225	36971.56
681.573	37109.18
681.922	36978.11
682.27	36732.69
682.618	37059.24
682.966	36893.14
683.314	37000.71
683.661	36955.06
684.009	36816.08
684.357	36733.14
684.705	36715.74
685.053	36805.01
685.4	36626.71
685.748	36534.96
686.095	36633.26
686.443	36183.55
686.79	36270.78
687.138	36297.45
687.485	36257.22
687.832	36016.33
688.18	35962.77
688.527	35898.82
688.874	35633.29
689.221	35546.06
689.568	35533.18
689.915	35316.01
690.262	35289.34
690.609	35128.21
690.956	35181.09
691.303	35189.46
691.65	34975.22
691.997	34866.07
692.344	34687.77
692.69	34775
693.037	34862.69
693.383	34469.25
693.73	34594.44
694.077	34468.12
694.423	34565.74
694.769	34489.59
695.116	34388.8
695.462	34342.7
695.808	34217.28
696.155	34360.33
696.501	34138.64
696.847	34079.65
697.193	33902.94
697.539	34002.37
697.885	33837.85
698.231	33623.17
698.577	33617.97
698.923	33586.56
699.269	33433.57
699.614	33294.59
699.96	33154.93
700.306	33166.68
700.651	33025.45
700.997	32775.51
701.342	32675.17
701.688	32634.72
702.033	32526.02
702.379	32477.89
702.724	32392.24
703.069	32394.5
703.415	31928.98
703.76	32058.46
704.105	31922.65
704.45	31997.68
704.795	31775.53
705.14	31755.87
705.485	31707.74
705.83	31617.35
706.175	31560.62
706.52	31588.42
706.865	31560.62
707.209	31525.37
707.554	31497.58
707.899	31452.61
708.243	31403.79
708.588	31385.26
708.932	31036.34
709.277	31233.85
709.621	31195.21
709.966	30981.66
710.31	31026.85
710.654	30820.98
710.998	30860.98
711.342	30761.1
711.687	30709.8
712.031	30662.8
712.375	30445.85
712.719	30405.18
713.063	30359.75
713.407	30353.2
713.75	30166.54
714.094	29983.04
714.438	29877.05
714.782	29949.14
715.125	29829.82
715.469	29786.89
715.812	29495.82
716.156	29506.44
716.499	29481.81
716.843	29524.29
717.186	29356.84
717.53	29563.62
717.873	29433.9
718.216	29427.12
718.559	29298.76
718.902	29090.41
719.246	29234.58
719.589	29114.14
719.932	29022.39
720.275	29086.79
720.617	29097.41
720.96	29127.92
721.303	29070.52
721.646	29056.28
721.989	28908.49
722.331	29071.88
722.674	28867.14
723.016	28988.49
723.359	28738.33
723.701	28818.1
724.044	28776.74
724.386	28553.92
724.729	28651.1
725.071	28613.58
725.413	28541.72
725.755	28336.75
726.097	28327.04
726.439	28076.65
726.782	28034.62
727.124	28190.77
727.465	27967.05
727.807	27941.06
728.149	27880.95
728.491	27872.13
728.833	27775.64
729.175	27584.46
729.516	27658.35
729.858	27649.54
730.199	27543.1
730.541	27524.8
730.882	27367.06
731.224	27505.59
731.565	27312.15
731.906	27399.6
732.248	27370.9
732.589	27372.94
732.93	27264.47
733.271	27271.02
733.612	27297.01
733.953	27156
734.294	27219.95
734.635	27195.09
734.976	27378.14
735.317	27250
735.658	27193.73
735.999	27235.09
736.339	27143.79
736.68	27363
737.021	27157.8
737.361	26981.99
737.702	27064.92
738.042	27040.07
738.383	26850.01
738.723	26982.44
739.063	26685.72
739.404	26857.25
739.744	26681.88
740.084	26538.84
740.424	26626.29
740.764	26524.6
741.104	26518.27
741.444	26262.01
741.784	26259.75
742.124	26316.92
742.464	26092.29
742.804	26129.81
743.143	26048.23
743.483	26025.4
743.823	25960.09
744.162	25973.43
744.502	25850.27
744.841	25798.29
745.181	25826.09
745.52	25829.7
745.86	25800.55
746.199	25825.63
746.538	25757.16
746.877	25796.48
747.216	25837.16
747.556	25746.31
747.895	25758.07
748.234	25603.04
748.573	25633.1
748.911	25627
749.25	25683.49
749.589	25522.37
749.928	25605.98
750.267	25553.1
750.605	25473.55
750.944	25415.02
751.283	25361.01
751.621	25380.45
751.96	25218.64
752.298	25286.21
752.636	25162.83
752.975	24996.73
753.313	24930.06
753.651	25057.97
753.989	24757.19
754.327	24770.07
754.666	24601.26
755.004	24634.03
755.342	24640.81
755.679	24581.6
756.017	24376.63
756.355	24526.91
756.693	24307.71
757.031	24196.98
757.368	24063.42
757.706	24102.74
758.044	23909.98
758.381	23978
758.719	23919.47
759.056	23889.19
759.394	23754.73
759.731	23791.79
760.068	23657.56
760.405	23580.95
760.743	23545.69
761.08	23677.22
761.417	23447.62
761.754	23407.39
762.091	23318.13
762.428	23366.94
762.765	23183.67
763.102	23337.56
763.438	23093.95
763.775	23024.58
764.112	23129.89
764.449	23211.01
764.785	22965.6
765.122	22838.59
765.458	22878.59
765.795	22824.81
766.131	22892.83
766.467	22702.33
766.804	22505.72
767.14	22458.04
767.476	22447.64
767.812	22277.25
768.148	22355.9
768.485	22214.43
768.821	22031.61
769.157	21984.61
769.492	21976.7
769.828	21847.89
770.164	21698.06
770.5	21604.05
770.836	21502.81
771.171	21421.46
771.507	21341.68
771.842	21134.01
772.178	21246.32
772.513	21140.56
772.849	21026.66
773.184	20857.18
773.519	20901.24
773.855	20787.8
774.19	20701.48
774.525	20707.35
774.86	20672.32
775.195	20649.27
775.53	20526.56
775.865	20387.81
776.2	20382.61
776.535	20134.03
776.87	20263.97
777.205	20100.59
777.539	20188.49
777.874	20006.13
778.209	19894.04
778.543	19838.22
778.878	19826.24
779.212	19898.33
779.547	19696.98
779.881	19806.58
780.215	19670.32
780.55	19688.62
780.884	19532.47
781.218	19455.18
781.552	19440.27
781.886	19354.62
782.22	19199.82
782.554	19166.83
782.888	18991.69
783.222	19005.02
783.556	18942.88
783.889	18869.89
784.223	18735.88
784.557	18599.84
784.89	18658.82
785.224	18510.57
785.557	18428.99
785.891	18331.37
786.224	18218.83
786.558	18172.05
786.891	18003.92
787.224	18001.21
787.557	17895
787.891	17883.7
788.224	17838.5
788.557	17852.74
788.89	17696.13
789.223	17793.3
789.556	17621.33
789.888	17514.67
790.221	17509.69
790.554	17382.69
790.887	17318.29
791.219	17349.47
791.552	17229.25
791.884	17234.9
792.217	17165.3
792.549	17076.49
792.882	16965.53
793.214	16927.34
793.546	17020.44
793.879	16846.44
794.211	16854.12
794.543	16849.6
794.875	16837.17
795.207	16861.58
795.539	16773.9
795.871	16831.52
796.203	16557.86
796.535	16576.84
796.867	16517.63
797.198	16483.51
797.53	16449.61
797.862	16306.56
798.193	16356.5
798.525	16231.76
798.856	16236.73
799.188	16100.24
799.519	16018.43
799.85	15938.66
800.182	15974.82
800.513	15902.73
800.844	15751.1
801.175	15799.23
801.506	15738.89
801.837	15718.56
802.168	15578.67
802.499	15580.48
802.83	15448.05
803.161	15355.85
803.491	15323.54
803.822	15320.83
804.153	15185.01
804.483	15104.56
804.814	15170.55
805.145	15058.23
805.475	15074.96
805.805	15025.24
806.136	15033.15
806.466	15020.27
806.796	14930.78
807.126	14797.22
807.457	14808.98
807.787	14807.85
808.117	14763.1
808.447	14695.08
808.777	14841.97
809.107	14758.13
809.436	14732.37
809.766	14604.23
810.096	14596.55
810.426	14555.65
810.755	14713.16
811.085	14516.55
811.414	14419.15
811.744	14357.91
812.073	14376.44
812.403	14323.11
812.732	14286.05
813.061	14358.37
813.39	14262.1
813.719	14254.19
814.049	14266.84
814.378	14234.75
814.707	14178.94
815.036	14091.48
815.365	14013.97
815.693	13931.48
816.022	13938.94
816.351	13972.16
816.68	13774.88
817.008	13770.58
817.337	13701.66
817.665	13711.38
817.994	13723.13
818.322	13680.64
818.651	13535.56
818.979	13453.76
819.307	13453.76
819.636	13458.05
819.964	13414.44
820.292	13395.9
820.62	13462.8
820.948	13256.93
821.276	13365.85
821.604	13247.89
821.932	13382.12
822.259	13276.13
822.587	13276.81
822.915	13293.99
823.243	13317.04
823.57	13312.07
823.898	13315.23
824.225	13222.58
824.553	13237.94
824.88	13271.84
825.207	13306.87
825.535	13258.28
825.862	13308.22
826.189	13300.09
826.516	13369.24
826.843	13418.28
827.17	13340.31
827.497	13397.71
827.824	13423.7
828.151	13466.19
828.478	13418.28
828.805	13427.77
829.131	13366.98
829.458	13362.69
829.785	13369.24
830.111	13362.01
830.438	13433.64
830.764	13433.87
831.09	13409.01
831.417	13333.99
831.743	13459.63
832.069	13310.48
832.395	13309.81
832.722	13377.37
833.048	13295.79
833.374	13323.14
833.7	13200.43
834.026	13289.47
834.351	13277.94
834.677	13189.36
835.003	13225.97
835.329	13159.3
835.654	13164.72
835.98	13055.57
836.306	13076.59
836.631	13021.23
836.956	13004.73
837.282	12893.32
837.607	12895.58
837.932	12905.52
838.258	12854
838.583	12893.55
838.908	12747.33
839.233	12854
839.558	12827.56
839.883	12696.26
840.208	12658.98
840.533	12673.44
840.858	12696.49
841.182	12592.76
841.507	12573.78
841.832	12574.01
842.156	12598.41
842.481	12690.16
842.805	12543.27
843.13	12550.73
843.454	12512.31
843.778	12571.75
844.103	12442.48
844.427	12461.47
844.751	12447.23
845.075	12487.68
845.399	12380.79
845.723	12367.01
846.047	12393.9
846.371	12284.07
846.695	12326.1
847.019	12250.17
847.343	12181.25
847.666	12133.57
847.99	12135.6
848.313	12109.84
848.637	11940.35
848.96	11978.09
849.284	11959.78
849.607	11793.91
849.931	11809.51
850.254	11675.95
850.577	11653.8
850.9	11640.02
851.223	11684.54
851.546	11517.76
851.869	11474.37
852.192	11504.43
852.515	11397.54
852.838	11285
853.161	11385.79
853.483	11230.99
853.806	11144.44
854.129	11198
854.451	11094.72
854.774	11081.84
855.096	10967.27
855.419	10937.66
855.741	10961.84
856.063	10917.1
856.385	10827.38
856.708	10842.3
857.03	10734.28
857.352	10766.82
857.674	10627.62
857.996	10654.73
858.318	10647.5
858.64	10578.8
858.961	10582.65
859.283	10541.97
859.605	10470.33
859.926	10578.35
860.248	10488.64
860.57	10444.34
860.891	10517.79
861.212	10393.27
861.534	10325.93
861.855	10406.38
862.176	10367.51
862.498	10386.04
862.819	10361.18
863.14	10266.95
863.461	10258.81
863.782	10312.37
864.103	10306.49
864.424	10233.5
864.745	10313.5
865.065	10202.32
865.386	10269.66
865.707	10230.34
866.027	10141.53
866.348	10217.46
866.668	10181.53
866.989	10108.99
867.309	10086.16
867.63	10193.5
867.95	10064.02
868.27	10023.79
868.59	10062.66
868.91	10042.55
869.23	10024.24
869.55	10016.56
869.87	10086.16
870.19	9984.24
870.51	10040.29
870.83	9965.94
871.15	9879.39
871.469	9927.52
871.789	9881.19
872.109	9854.53
872.428	9809.11
872.748	9801.42
873.067	9783.12
873.386	9798.03
873.706	9779.28
874.025	9713.74
874.344	9641.65
874.663	9701.76
874.982	9680.52
875.301	9611.15
875.62	9605.5
875.939	9588.32
876.258	9538.83
876.577	9471.04
876.896	9581.09
877.214	9425.61
877.533	9497.02
877.852	9501.77
878.17	9495.44
878.489	9446.86
878.807	9398.95
879.125	9439.85
879.444	9422.22
879.762	9399.4
880.08	9355.33
880.398	9389
880.716	9411.83
881.034	9332.06
881.352	9292.51
881.67	9246.64
881.988	9294.09
882.306	9270.14
882.624	9231.95
882.941	9246.41
883.259	9199.86
883.577	9220.87
883.894	9180.42
884.212	9167.09
884.529	9160.76
884.846	9190.59
885.164	9097.49
885.481	9124.83
885.798	9083.93
886.115	9027.66
886.432	9096.13
886.75	9057.49
887.067	9068.79
887.383	8966.87
887.7	9025.62
888.017	8953.76
888.334	9042.8
888.651	8914.44
888.967	8880.32
889.284	8924.38
889.6	8935.68
889.917	8820.43
890.233	8818.62
890.55	8706.99
890.866	8717.61
891.182	8716.93
891.498	8618.63
891.815	8656.82
892.131	8616.37
892.447	8604.84
892.763	8525.07
893.079	8550.16
893.395	8504.06
893.71	8410.95
894.026	8474
894.342	8415.7
894.657	8383.83
894.973	8332.76
895.289	8332.54
895.604	8303.61
895.92	8201.24
896.235	8185.19
896.55	8202.37
896.865	8219.77
897.181	8159.43
897.496	8158.53
897.811	8052.54
898.126	8032.43
898.441	8048.02
898.756	7995.14
899.071	8011.87
899.386	7939.1
899.7	7914.69
900.015	7856.39
900.33	7784.3
900.644	7845.99
900.959	7796.73
901.273	7751.99
901.588	7771.19
901.902	7667.47
902.216	7659.11
902.531	7657.98
902.845	7663.17
903.159	7624.31
903.473	7657.75
903.787	7599.45
904.101	7603.51
904.415	7537.53
904.729	7556.06
905.042	7434.03
905.356	7469.96
905.67	7377.98
905.984	7405.78
906.297	7405.55
906.611	7390.64
906.924	7351.77
907.237	7323.52
907.551	7297.53
907.864	7295.73
908.177	7238.1
908.491	7219.57
908.804	7196.75
909.117	7146.8
909.43	7137.31
909.743	7093.47
910.056	7133.47
910.368	7041.5
910.681	6966.24
910.994	7000.14
911.307	6935.51
911.619	6916.53
911.932	6964.44
912.244	6862.97
912.557	6777.32
912.869	6793.37
913.181	6731
913.494	6748.85
913.806	6659.13
914.118	6627.95
914.43	6656.2
914.742	6638.12
915.054	6520.15
915.366	6546.14
915.678	6526.93
915.99	6493.04
916.302	6442.42
916.613	6391.57
916.925	6396.09
917.236	6344.79
917.548	6242.42
917.859	6314.06
918.171	6310.22
918.482	6294.17
918.794	6185.25
919.105	6214.4
919.416	6106.15
919.727	6162.42
920.038	6151.8
920.349	6079.49
920.66	6032.03
920.971	6073.16
921.282	6046.04
921.593	5932.37
921.903	5935.99
922.214	5919.27
922.525	5949.77
922.835	5919.94
923.146	5839.27
923.456	5846.05
923.767	5836.56
924.077	5818.7
924.387	5822.32
924.697	5757.01
925.008	5738.03
925.318	5692.38
925.628	5720.17
925.938	5678.14
926.248	5673.17
926.558	5620.52
926.867	5609.22
927.177	5568.31
927.487	5596.56
927.796	5528.54
928.106	5551.59
928.416	5500.29
928.725	5488.09
929.034	5479.95
929.344	5537.35
929.653	5474.08
929.962	5421.88
930.271	5348.88
930.581	5355.66
930.89	5347.98
931.199	5300.52
931.508	5340.52
931.817	5271.6
932.125	5263.01
932.434	5213.75
932.743	5172.17
933.051	5187.99
933.36	5159.51
933.669	5122.45
933.977	5091.04
934.286	5082.45
934.594	5094.88
934.902	5008.33
935.21	4961.32
935.519	4976.01
935.827	4995.45
936.135	4945.05
936.443	4876.81
936.751	4876.13
937.059	4898.5
937.367	4859.18
937.674	4844.04
937.982	4781.89
938.29	4784.83
938.597	4779.18
938.905	4699.18
939.213	4685.4
939.52	4663.03
939.827	4631.39
940.135	4675.68
940.442	4616.93
940.749	4622.58
941.056	4598.17
941.363	4589.36
941.67	4552.3
941.977	4523.82
942.284	4509.36
942.591	4461.22
942.898	4476.82
943.205	4485.63
943.511	4436.59
943.818	4432.52
944.125	4391.4
944.431	4370.15
944.738	4362.02
945.044	4354.56
945.35	4314.79
945.657	4276.6
945.963	4286.99
946.269	4298.29
946.575	4299.65
946.881	4216.26
947.187	4264.39
947.493	4228.01
947.799	4235.69
948.105	4218.29
948.41	4159.76
948.716	4164.28
949.022	4164.96
949.327	4106.88
949.633	4108.47
949.938	4075.25
950.244	4102.82
950.549	4045.19
950.854	4014.23
951.16	4039.31
951.465	3990.05
951.77	3997.06
952.075	4011.97
952.38	3950.28
952.685	3976.72
952.99	3917.96
953.294	3897.85
953.599	3900.34
953.904	3898.75
954.209	3871.86
954.513	3848.59
954.818	3815.59
955.122	3805.2
955.426	3786.67
955.731	3758.64
956.035	3787.12
956.339	3726.33
956.643	3741.24
956.948	3699.44
957.252	3696.27
957.556	3709.38
957.86	3643.62
958.163	3623.05
958.467	3642.04
958.771	3593
959.075	3619.44
959.378	3599.1
959.682	3589.16
959.985	3530.4
960.289	3519.1
960.592	3492.66
960.896	3504.41
961.199	3455.15
961.502	3451.76
961.805	3409.05
962.108	3404.3
962.411	3370.41
962.714	3398.88
963.017	3397.75
963.32	3411.31
963.623	3350.52
963.926	3359.78
964.228	3297.87
964.531	3294.7
964.833	3311.65
965.136	3242.05
965.438	3283.63
965.741	3241.14
966.043	3235.72
966.345	3235.49
966.648	3216.74
966.95	3197.75
967.252	3175.38
967.554	3180.81
967.856	3159.11
968.158	3152.33
968.46	3127.7
968.761	3117.53
969.063	3120.02
969.365	3091.32
969.666	3075.05
969.968	3024.43
970.269	3071.66
970.571	3042.73
970.872	3027.36
971.174	2986.91
971.475	3012.22
971.776	2995.95
972.077	3025.78
972.378	2928.38
972.679	2965.9
972.98	2938.1
973.281	2927.48
973.582	2947.82
973.883	2919.8
974.183	2900.14
974.484	2888.38
974.785	2869.18
975.085	2872.11
975.386	2882.73
975.686	2892.45
975.986	2809.74
976.287	2831.21
976.587	2828.27
976.887	2779.91
977.187	2772.68
977.487	2782.62
977.787	2754.6
978.087	2749.63
978.387	2771.33
978.687	2765.22
978.987	2737.88
979.286	2704.89
979.586	2693.36
979.885	2676.64
980.185	2675.28
980.484	2628.05
980.784	2642.52
981.083	2630.76
981.382	2614.27
981.682	2643.65
981.981	2558.9
982.28	2587.38
982.579	2527.04
982.878	2554.61
983.177	2546.02
983.475	2537.89
983.774	2502.86
984.073	2481.84
984.372	2486.81
984.67	2497.21
984.969	2485.91
985.267	2463.54
985.566	2431.22
985.864	2437.55
986.162	2419.92
986.461	2421.96
986.759	2368.17
987.057	2377.21
987.355	2361.84
987.653	2379.47
987.951	2361.84
988.249	2367.27
988.547	2370.66
988.844	2301.73
989.142	2301.96
989.44	2265.12
989.737	2299.02
990.035	2267.61
990.332	2268.74
990.63	2268.97
990.927	2229.64
991.224	2243.88
991.521	2230.55
991.819	2214.96
992.116	2228.74
992.413	2209.76
992.71	2190.1
993.006	2196.43
993.303	2203.66
993.6	2168.4
993.897	2164.56
994.193	2158.23
994.49	2163.66
994.787	2121.63
995.083	2107.39
995.379	2121.17
995.676	2104.22
995.972	2060.84
996.268	2089.08
996.565	2073.72
996.861	2099.93
997.157	2057.22
997.453	2022.64
997.749	2042.08
998.044	2000.05
998.34	2035.07
998.636	2008.86
998.932	1970.67
999.227	1979.71
999.523	1986.26
999.818	2017.9
1000.114	1940.39
1000.409	1976.77
1000.704	1932.48
1001	1938.35
1001.295	1918.69
1001.59	1923.89
1001.885	1903.33
1002.18	1906.72
1002.475	1876.21
1002.77	1860.39
1003.065	1858.36
1003.359	1873.72
1003.654	1837.11
1003.949	1844.12
1004.243	1836.89
1004.538	1790.11
1004.832	1830.79
1005.127	1829.43
1005.421	1781.29
1005.715	1748.08
1006.009	1758.24
1006.304	1736.78
1006.598	1707.62
1006.892	1734.29
1007.186	1714.4
1007.48	1701.52
1007.773	1705.59
1008.067	1683.22
1008.361	1701.52
1008.655	1693.39
1008.948	1670.79
1009.242	1674.63
1009.535	1633.5
1009.829	1646.38
1010.122	1598.93
1010.415	1604.35
1010.708	1606.16
1011.001	1618.14
1011.295	1563.22
1011.588	1559.61
1011.881	1564.58
1012.173	1544.92
1012.466	1536.1
1012.759	1529.32
1013.052	1511.25
1013.344	1522.32
1013.637	1504.01
1013.93	1521.64
1014.222	1444.35
1014.514	1498.36
1014.807	1450.46
1015.099	1473.96
1015.391	1483.68
1015.683	1465.15
1015.976	1456.56
1016.268	1439.16
1016.56	1455.2
1016.851	1411.36
1017.143	1397.12
1017.435	1416.33
1017.727	1372.72
1018.018	1387.18
1018.31	1370.68
1018.602	1369.78
1018.893	1356
1019.185	1359.61
1019.476	1325.94
1019.767	1333.62
1020.058	1316.22
1020.35	1329.78
1020.641	1312.38
1020.932	1323.23
1021.223	1337.69
1021.514	1297.01
1021.804	1264.92
1022.095	1262.66
1022.386	1252.27
1022.677	1255.89
1022.967	1240.74
1023.258	1244.36
1023.548	1236.22
1023.839	1242.1
1024.129	1221.99
1024.419	1214.53
1024.709	1200.52
1025	1193.51
1025.29	1155.77
1025.58	1186.28
1025.87	1153.51
1026.16	1173.18
1026.449	1147.64
1026.739	1152.38
1027.029	1143.57
1027.319	1149.67
1027.608	1114.87
1027.898	1101.99
1028.187	1137.7
1028.477	1108.77
1028.766	1121.88
1029.055	1076.68
1029.344	1085.49
1029.634	1115.78
1029.923	1061.99
1030.212	1100.63
1030.501	1070.13
1030.79	1075.78
1031.078	1031.03
1031.367	1055.44
1031.656	1014.31
1031.945	1033.07
1032.233	1045.27
1032.522	988.77
1032.81	996.91
1033.099	986.51
1033.387	982.45
1033.675	998.72
1033.963	965.05
1034.251	962.79
1034.54	980.19
1034.828	972.5
1035.116	971.37
1035.403	953.75
1035.691	963.01
1035.979	942.67
1036.267	941.77
1036.554	921.88
1036.842	928.44
1037.129	904.26
1037.417	905.39
1037.704	918.72
1037.992	895.44
1038.279	865.84
1038.566	883.92
1038.853	883.92
1039.14	883.92
