Data from red_shiny_book_FLMS001491_00016.txt Node
Date: Wed Feb 08 15:23:42 GMT 2017
User: dcchb
Spectrometer: FLMS00149
Trigger mode: 0
Integration Time (sec): 2.000000E-2
Scans to average: 10
Electric dark correction enabled: true
Nonlinearity correction enabled: false
Boxcar width: 0
XAxis mode: Wavelengths
Number of Pixels in Spectrum: 2048
>>>>>Begin Spectral Data<<<<<
341.393	-3.15
341.776	-3.15
342.16	-3.15
342.543	-55.13
342.927	-70.04
343.31	-77.95
343.693	-58.06
344.077	-69.81
344.46	-60.78
344.843	-68.68
345.226	-46.76
345.61	-11.29
345.993	-30.27
346.376	1.82
346.759	14.25
347.142	21.03
347.525	40.92
347.908	70.75
348.291	68.71
348.674	97.19
349.057	108.94
349.44	140.12
349.823	131.99
350.206	162.04
350.588	249.73
350.971	242.49
351.354	257.86
351.737	263.51
352.119	257.63
352.502	285.2
352.884	294.02
353.267	286.11
353.65	332.43
354.032	319.55
354.414	339.21
354.797	328.59
355.179	355.26
355.562	339.44
355.944	342.15
356.326	366.33
356.709	361.13
357.091	349.84
357.473	357.07
357.855	369.04
358.238	370.4
358.62	347.58
359.002	386.44
359.384	362.49
359.766	354.13
360.148	344.41
360.53	351.64
360.912	351.64
361.294	371.53
361.676	371.76
362.057	367.46
362.439	364.75
362.821	346.67
363.203	357.52
363.584	364.98
363.966	352.1
364.348	347.35
364.729	384.18
365.111	342.38
365.493	334.69
365.874	347.12
366.256	337.63
366.637	353
367.019	327.46
367.4	338.08
367.781	363.85
368.163	355.71
368.544	345.99
368.925	339.67
369.306	353.9
369.688	323.85
370.069	343.96
370.45	347.8
370.831	351.42
371.212	348.03
371.593	354.58
371.974	335.82
372.355	343.73
372.736	367.01
373.117	333.11
373.498	337.63
373.879	342.83
374.26	351.87
374.641	357.52
375.021	357.52
375.402	350.74
375.783	352.77
376.163	364.07
376.544	363.85
376.925	370.63
377.305	347.58
377.686	364.07
378.066	372.21
378.447	376.05
378.827	353.9
379.208	385.77
379.588	360.46
379.968	353.23
380.349	360.68
380.729	366.11
381.109	368.37
381.489	389.38
381.87	378.31
382.25	376.5
382.63	391.87
383.01	358.2
383.39	392.32
383.77	388.7
384.15	375.6
384.53	392.77
384.91	378.08
385.29	422.15
385.67	401.36
386.049	406.78
386.429	404.98
386.809	400.68
387.189	377.41
387.568	402.94
387.948	408.59
388.328	428.03
388.707	429.38
389.087	402.72
389.466	416.73
389.846	420.34
390.225	415.6
390.605	437.74
390.984	392.32
391.363	409.95
391.743	417.4
392.122	436.84
392.501	432.55
392.881	450.4
393.26	444.75
393.639	439.55
394.018	434.58
394.397	444.75
394.776	433.22
395.155	441.13
395.534	434.58
395.913	430.29
396.292	476.84
396.671	429.16
397.05	448.82
397.429	425.54
397.808	462.6
398.186	443.17
398.565	449.72
398.944	460.12
399.323	473.9
399.701	451.53
400.08	443.62
400.458	454.69
400.837	484.75
401.215	477.06
401.594	460.12
401.972	453.34
402.351	478.42
402.729	486.56
403.107	463.96
403.486	487.23
403.864	483.62
404.242	486.78
404.62	499.66
404.999	480.68
405.377	499.66
405.755	489.49
406.133	492.43
406.511	495.82
406.889	490.85
407.267	515.71
407.645	536.72
408.023	509.61
408.401	524.29
408.779	527.91
409.156	537.4
409.534	533.11
409.912	526.78
410.29	541.92
410.667	565.65
411.045	574.46
411.422	572.65
411.8	566.78
412.178	567.23
412.555	551.86
412.933	558.64
413.31	569.04
413.687	591.64
414.065	613.78
414.442	574.24
414.819	625.99
415.197	633.44
415.574	623.27
415.951	635.93
416.328	600.68
416.705	602.71
417.082	636.38
417.46	607.46
417.837	640.45
418.214	626.44
418.591	642.48
418.967	664.63
419.344	664.86
419.721	667.79
420.098	672.54
420.475	668.7
420.852	673.22
421.228	654.23
421.605	675.02
421.982	677.74
422.358	684.52
422.735	712.31
423.111	713.89
423.488	730.39
423.864	712.31
424.241	750.05
424.617	729.03
424.994	714.57
425.37	752.31
425.746	745.98
426.123	715.48
426.499	726.55
426.875	772.88
427.251	747.57
427.627	784.4
428.003	803.83
428.379	784.17
428.756	762.93
429.132	788.47
429.507	797.28
429.883	783.5
430.259	798.86
430.635	816.49
431.011	794.57
431.387	830.95
431.763	836.6
432.138	873.89
432.514	849.48
432.89	865.3
433.265	886.54
433.641	886.54
434.016	843.83
434.392	878.41
434.767	880.67
435.143	854.23
435.518	899.65
435.894	918.18
436.269	926.09
436.644	958.41
437.02	931.52
437.395	970.16
437.77	969.71
438.145	954.11
438.52	924.96
438.895	934.23
439.271	954.11
439.646	967.45
440.021	991.63
440.395	1011.06
440.77	991.85
441.145	1037.27
441.52	1048.8
441.895	1034.34
442.27	1040.89
442.645	997.28
443.019	1046.99
443.394	1011.74
443.769	1026.65
444.143	1010.84
444.518	1026.2
444.892	1066.43
445.267	1051.74
445.641	1082.02
446.016	1085.86
446.39	1086.31
446.764	1068.23
447.139	1077.5
447.513	1089.48
447.887	1069.59
448.262	1062.36
448.636	1098.06
449.01	1072.3
449.384	1073.21
449.758	1096.03
450.132	1127.44
450.506	1135.58
450.88	1137.39
451.254	1146.88
451.628	1180.1
452.002	1170.83
452.376	1134.67
452.75	1144.16
453.123	1150.49
453.497	1114.56
453.871	1149.81
454.244	1164.5
454.618	1181.45
454.992	1225.29
455.365	1239.76
455.739	1255.8
456.112	1248.57
456.486	1246.08
456.859	1268
457.232	1243.15
457.606	1214.22
457.979	1207.21
458.352	1233.65
458.725	1220.55
459.099	1255.57
459.472	1282.01
459.845	1316.14
460.218	1342.58
460.591	1354.78
460.964	1353.65
461.337	1397.27
461.71	1380.32
462.083	1402.46
462.456	1358.4
462.829	1343.03
463.201	1342.58
463.574	1352.75
463.947	1343.71
464.32	1398.85
464.692	1423.93
465.065	1438.85
465.438	1462.8
465.81	1497.38
466.183	1513.65
466.555	1532.86
466.928	1526.98
467.3	1481.78
467.672	1512.97
468.045	1517.26
468.417	1486.08
468.789	1538.73
469.161	1508.9
469.534	1541.44
469.906	1566.98
470.278	1616.92
470.65	1643.13
471.022	1691.27
471.394	1732.4
471.766	1735.11
472.138	1722
472.51	1729.23
472.882	1724.26
473.253	1759.06
473.625	1726.07
473.997	1717.03
474.369	1732.4
474.74	1790.02
475.112	1787.99
475.484	1856.24
475.855	1903.47
476.227	1965.61
476.598	1994.54
476.97	2041.32
477.341	2044.71
477.713	2070.92
478.084	2027.53
478.455	2049.45
478.827	2037.25
479.198	2085.16
479.569	2046.97
479.94	2106.63
480.311	2102.78
480.682	2201.31
481.053	2293.97
481.424	2354.98
481.795	2391.14
482.166	2439.95
482.537	2460.29
482.908	2487.63
483.279	2501.42
483.65	2482.89
484.021	2512.26
484.391	2533.96
484.762	2470.23
485.133	2506.84
485.503	2507.74
485.874	2564.69
486.244	2601.08
486.615	2706.38
486.985	2788.19
487.356	2870.45
487.726	2961.29
488.097	3017.34
488.467	3003.1
488.837	3042.19
489.207	3052.14
489.578	3058.69
489.948	3029.76
490.318	3015.75
490.688	3023.44
491.058	3012.82
491.428	3067.28
491.798	3121.51
492.168	3208.52
492.538	3283.77
492.908	3347.95
493.278	3462.3
493.648	3516.08
494.017	3549.53
494.387	3597.21
494.757	3603.08
495.126	3552.92
495.496	3534.61
495.866	3510.2
496.235	3449.19
496.605	3503.65
496.974	3474.95
497.344	3528.28
497.713	3528.73
498.082	3603.99
498.452	3696.19
498.821	3776.86
499.19	3899.12
499.559	3951.32
499.928	3977.54
500.298	3990.64
500.667	3995.62
501.036	3970.31
501.405	3951.1
501.774	3858.22
502.143	3868.61
502.512	3732.35
502.88	3780.25
503.249	3749.07
503.618	3813.7
503.987	3888.27
504.356	3980.02
504.724	4039.68
505.093	4150.64
505.462	4208.04
505.83	4260.24
506.199	4342.05
506.567	4294.59
506.936	4306.57
507.304	4262.73
507.672	4259.79
508.041	4149.28
508.409	4108.83
508.777	4047.14
509.145	4033.13
509.514	4028.38
509.882	4033.13
510.25	4104.54
510.618	4178.21
510.986	4298.66
511.354	4410.29
511.722	4483.74
512.09	4561.48
512.458	4579.1
512.826	4537.97
513.193	4586.56
513.561	4550.85
513.929	4452.1
514.297	4394.02
514.664	4370.07
515.032	4296.4
515.4	4304.53
515.767	4287.13
516.135	4267.25
516.502	4299.56
516.869	4400.35
517.237	4524.41
517.604	4532.55
517.972	4692.55
518.339	4762.6
518.706	4788.14
519.073	4848.25
519.44	4857.74
519.808	4884.63
520.175	4815.25
520.542	4754.69
520.909	4720.12
521.276	4652.55
521.643	4577.97
522.009	4517.64
522.376	4550.18
522.743	4568.26
523.11	4631.76
523.477	4725.99
523.843	4824.75
524.21	4961.24
524.577	5038.75
524.943	5158.3
525.31	5273.77
525.676	5358.07
526.043	5345.86
526.409	5324.85
526.776	5325.98
527.142	5213.44
527.508	5202.59
527.874	5113.55
528.241	5059.09
528.607	4974.57
528.973	4984.06
529.339	4984.97
529.705	5104.74
530.071	5138.18
530.437	5275.36
530.803	5373.43
531.169	5546.53
531.535	5657.04
531.901	5747.21
532.267	5841.44
532.632	5899.75
532.998	5972.96
533.364	6006.18
533.73	5855.68
534.095	5864.49
534.461	5822.46
534.826	5747.43
535.192	5616.82
535.557	5604.39
535.923	5633.54
536.288	5583.6
536.653	5636.02
537.019	5731.84
537.384	5868.56
537.749	6021.78
538.114	6134.32
538.479	6266.06
538.845	6433.29
539.21	6478.49
539.575	6520.52
539.94	6601.2
540.305	6651.59
540.67	6562.78
541.034	6521.42
541.399	6437.81
541.764	6307.19
542.129	6330.47
542.494	6265.61
542.858	6193.3
543.223	6132.51
543.587	6163.02
543.952	6207.99
544.316	6287.76
544.681	6443.01
545.045	6600.97
545.41	6715.32
545.774	6940.85
546.138	7024.46
546.503	7104.01
546.867	7173.61
547.231	7210.67
547.595	7196.89
547.959	7125.7
548.324	7061.3
548.688	6983.33
549.052	6817.91
549.416	6711.93
549.779	6605.94
550.143	6576.56
550.507	6584.93
550.871	6637.35
551.235	6599.39
551.599	6694.3
551.962	6806.16
552.326	6915.09
552.689	7061.98
553.053	7258.13
553.417	7332.93
553.78	7506.71
554.143	7599.59
554.507	7625.8
554.87	7621.73
555.234	7623.99
555.597	7437.56
555.96	7369.09
556.323	7315.98
556.686	7186.72
557.05	7125.93
557.413	6998.93
557.776	6891.36
558.139	6957.8
558.502	6960.06
558.865	6972.49
559.228	7085.93
559.59	7250.22
559.953	7358.92
560.316	7602.07
560.679	7762.52
561.041	7938.56
561.404	8070.76
561.767	8165.45
562.129	8154.83
562.492	8189.4
562.854	8148.05
563.217	8055.62
563.579	7979.92
563.941	7892.46
564.304	7739.92
564.666	7613.6
565.028	7573.83
565.39	7509.42
565.753	7478.24
566.115	7428.75
566.477	7435.52
566.839	7555.52
567.201	7689.76
567.563	7802.07
567.925	7967.49
568.287	8205.22
568.648	8309.85
569.01	8548.94
569.372	8680.69
569.734	8724.3
570.095	8851.76
570.457	8870.74
570.819	8824.19
571.18	8799.78
571.542	8700.35
571.903	8559.34
572.265	8444.09
572.626	8322.96
572.987	8232.79
573.349	8171.78
573.71	8163.87
574.071	8145.56
574.432	8186.01
574.794	8340.81
575.155	8458.55
575.516	8658.09
575.877	8893.34
576.238	9133.33
576.599	9391.41
576.96	9618.74
577.32	9842.69
577.681	10000.88
578.042	10134.66
578.403	10234.32
578.763	10344.37
579.124	10413.98
579.485	10458.72
579.845	10446.07
580.206	10424.37
580.566	10477.25
580.927	10482.9
581.287	10493.75
581.648	10573.97
582.008	10826.62
582.368	11070.91
582.728	11237.68
583.089	11528.75
583.449	11898.91
583.809	12461.61
584.169	12958.09
584.529	13377.74
584.889	13994.45
585.249	14357.6
585.609	14850.25
585.969	15434.64
586.329	15816.1
586.688	16321.62
587.048	16727.03
587.408	17142.16
587.768	17399.56
588.127	17789.15
588.487	18102.81
588.846	18448.34
589.206	18601.56
589.565	19023.02
589.925	19492.38
590.284	19743.9
590.643	20273.83
591.003	20694.61
591.362	21376.85
591.721	21831.08
592.08	22531.85
592.44	23250.7
592.799	24068.08
593.158	24702.64
593.517	25454.03
593.876	26091.53
594.235	26757.5
594.593	27565.39
594.952	28150.23
595.311	28619.15
595.67	29306.14
596.029	29844.43
596.387	30301.59
596.746	30801.01
597.104	31050.05
597.463	31328.68
597.822	31730.93
598.18	32078.27
598.538	32460.18
598.897	32972.93
599.255	33259.93
599.613	34123.41
599.972	34450.86
600.33	34954.8
600.688	35476.14
601.046	36220.76
601.404	36887.41
601.762	37362.87
602.12	38300.48
602.478	38819.78
602.836	39346.55
603.194	39727.11
603.552	40325.73
603.91	40722.56
604.268	41370.68
604.625	41494.97
604.983	42094.27
605.341	42264.21
605.698	42641.15
606.056	42817.19
606.413	43018.54
606.771	43400.68
607.128	43572.65
607.485	43512.32
607.843	43720.67
608.2	44258.96
608.557	44612.85
608.914	44651.72
609.272	45126.29
609.629	45549.55
609.986	45926.94
610.343	46215.3
610.7	46889.4
611.057	46973.69
611.414	47454.81
611.771	47790.4
612.127	48217.05
612.484	48428.35
612.841	48740.65
613.198	48926.86
613.554	49086.41
613.911	49333.41
614.267	49377.47
614.624	49547.64
614.98	49624.92
615.337	49866.73
615.693	49716
616.05	49683.23
616.406	50017
616.762	49782.89
617.118	49899.04
617.475	49926.84
617.831	50066.04
618.187	50249.54
618.543	50212.03
618.899	50614.05
619.255	50639.13
619.611	50799.13
619.967	51079.58
620.323	51363.86
620.678	51358.66
621.034	51446.8
621.39	51500.35
621.746	51748.26
622.101	52113.67
622.457	52079.1
622.812	52135.82
623.168	52318.19
623.523	52276.15
623.879	52411.52
624.234	52257.17
624.589	52320.22
624.945	52251.3
625.3	52312.76
625.655	52191.64
626.01	52164.97
626.365	52083.39
626.72	52039.32
627.075	51912.1
627.43	51932.89
627.785	51921.13
628.14	52054.69
628.495	52163.84
628.85	52192.99
629.205	52169.72
629.559	52421.46
629.914	52432.53
630.269	52604.28
630.623	52657.61
630.978	52597.95
631.332	52957.49
631.687	53024.83
632.041	53060.99
632.396	53117.71
632.75	52931.96
633.104	52949.81
633.459	52736.71
633.813	52821
634.167	52758.4
634.521	52678.63
634.875	52672.08
635.229	52383.5
635.583	52221.01
635.937	52192.99
636.291	52016.5
636.645	52030.28
636.999	51872.1
637.352	51968.14
637.706	51758.43
638.06	51956.61
638.413	51821.02
638.767	51812.66
639.121	51963.85
639.474	51826
639.828	51936.73
640.181	52123.39
640.534	52184.86
640.888	52229.38
641.241	52209.49
641.594	52351.18
641.947	52483.15
642.301	52402.25
642.654	52453.78
643.007	52433.89
643.36	52448.35
643.713	52296.72
644.066	52397.05
644.419	52174.69
644.771	51890.4
645.124	51456.51
645.477	51189.18
645.83	50947.6
646.182	50757.55
646.535	50766.81
646.888	50654.28
647.24	50373.15
647.593	50685.24
647.945	50447.28
648.298	50346.94
648.65	50206.15
649.002	50146.04
649.355	50386.26
649.707	50456.09
650.059	50563.66
650.411	51019.46
650.763	51113.92
651.115	51504.87
651.467	51432.33
651.819	51604.98
652.171	51511.43
652.523	51547.81
652.875	51641.37
653.227	51510.52
653.578	51634.59
653.93	51572.44
654.282	51404.31
654.633	51384.65
654.985	51209.06
655.337	51204.09
655.688	51172.68
656.039	51220.14
656.391	50764.1
656.742	50760.26
657.094	50700.83
657.445	50704.44
657.796	50625.35
658.147	50444.11
658.498	50485.92
658.849	50515.75
659.2	50344
659.551	50520.27
659.902	50637.78
660.253	50588.06
660.604	50816.76
660.955	50721.62
661.306	50922.29
661.656	50951.44
662.007	50998.22
662.358	51120.25
662.708	51133.36
663.059	51145.56
663.409	51030.76
663.76	51263.3
664.11	51264.65
664.461	51161.61
664.811	51232.79
665.161	51139.23
665.511	50912.12
665.862	51014.04
666.212	50866.47
666.562	50819.47
666.912	50751.67
667.262	50576.99
667.612	50419.25
667.962	50321.18
668.312	50214.51
668.662	50365.24
669.011	50185.36
669.361	50007.51
669.711	49933.39
670.06	49898.14
670.41	49940.85
670.76	49838.48
671.109	50175.19
671.459	50029.43
671.808	50101.75
672.157	50272.14
672.507	50164.57
672.856	50301.97
673.205	50393.49
673.554	50481.62
673.904	50465.58
674.253	50715.29
674.602	50579.02
674.951	50095.42
675.3	50038.92
675.649	50524.79
675.998	50449.08
676.346	50387.39
676.695	50381.51
677.044	50201.41
677.393	50173.16
677.741	50077.79
678.09	49889.78
678.438	49767.52
678.787	49736.79
679.135	49551.48
679.484	49377.25
679.832	49318.49
680.181	49017.26
680.529	49226.52
680.877	49045.96
681.225	48972.29
681.573	49150.13
681.922	48953.98
682.27	48880.99
682.618	48953.53
682.966	48952.85
683.314	49166.4
683.661	49037.37
684.009	48977.03
684.357	49077.37
684.705	49169.57
685.053	49407.3
685.4	49230.13
685.748	49166.18
686.095	49137.25
686.443	49071.27
686.79	48992.62
687.138	49178.83
687.485	49090.25
687.832	48858.62
688.18	48936.13
688.527	48652.97
688.874	48553.31
689.221	48367.33
689.568	48160.1
689.915	47873.78
690.262	47907.23
690.609	47599.67
690.956	47441.93
691.303	47336.17
691.65	46963.75
691.997	46960.36
692.344	46701.61
692.69	46676.07
693.037	46695.51
693.383	46369.87
693.73	46659.13
694.077	46233.37
694.423	46364.67
694.769	46406.7
695.116	46400.38
695.462	46316.08
695.808	46363.77
696.155	46514.5
696.501	46283.99
696.847	46380.72
697.193	46249.19
697.539	46318.34
697.885	46181.62
698.231	46026.6
698.577	46216.2
698.923	45992.93
699.269	46000.39
699.614	45731.24
699.96	45458.03
700.306	45468.65
700.651	45227.98
700.997	45069.79
701.342	44878.38
701.688	44662.34
702.033	44500.09
702.379	44397.04
702.724	44279.08
703.069	44185.97
703.415	43670.05
703.76	43626.44
704.105	43600.45
704.45	43388.25
704.795	43188.71
705.14	42995.72
705.485	42969.28
705.83	42769.51
706.175	42947.81
706.52	42862.16
706.865	42841.6
707.209	42945.1
707.554	42803.41
707.899	42975.16
708.243	42748.27
708.588	42898.1
708.932	42735.39
709.277	42846.35
709.621	42867.59
709.966	42683.41
710.31	42771.09
710.654	42455.62
710.998	42620.81
711.342	42610.19
711.687	42414.27
712.031	42164.33
712.375	42024.22
712.719	42179.92
713.063	41983.32
713.407	41968.63
713.75	41525.93
714.094	41457.68
714.438	41323.67
714.782	41311.7
715.125	40993.06
715.469	40904.25
715.812	40617.25
716.156	40478.05
716.499	40346.07
716.843	40253.19
717.186	40019.75
717.53	40255.9
717.873	40308.11
718.216	40097.94
718.559	39844.84
718.902	39730.27
719.246	39921.22
719.589	39699.54
719.932	39786.09
720.275	39811.4
720.617	39917.16
720.96	39909.7
721.303	39889.81
721.646	39901.56
721.989	39859.98
722.331	40192.63
722.674	40027.66
723.016	39996.02
723.359	39882.36
723.701	39986.76
724.044	39757.84
724.386	39525.3
724.729	39714
725.071	39626.09
725.413	39391.52
725.755	39385.87
726.097	39172.77
726.439	38929.16
726.782	38867.92
727.124	38906.11
727.465	38631.31
727.807	38567.81
728.149	38256.18
728.491	38183.42
728.833	38276.52
729.175	37743.65
729.516	37873.14
729.858	37674.28
730.199	37536.43
730.541	37571.23
730.882	37387.51
731.224	37553.83
731.565	37230
731.906	37366.94
732.248	37498.24
732.589	37333.72
732.93	37313.16
733.271	37388.64
733.612	37459.59
733.953	37575.75
734.294	37375.08
734.635	37482.64
734.976	37621.4
735.317	37495.75
735.658	37526.94
735.999	37575.3
736.339	37585.47
736.68	37666.59
737.021	37469.76
737.361	37408.3
737.702	37690.32
738.042	37340.73
738.383	37346.83
738.723	37348.64
739.063	37139.15
739.404	37147.96
739.744	36952.49
740.084	36724.02
740.424	36627.98
740.764	36567.64
741.104	36685.6
741.444	36208.55
741.784	36053.53
742.124	36077.94
742.464	35884.49
742.804	35752.52
743.143	35741.67
743.483	35610.6
743.823	35535.35
744.162	35449.7
744.502	35505.07
744.841	35327.22
745.181	35385.3
745.52	35288.58
745.86	35307.33
746.199	35403.15
746.538	35338.07
746.877	35457.39
747.216	35549.81
747.556	35518.63
747.895	35640.21
748.234	35402.02
748.573	35457.84
748.911	35569.47
749.25	35442.7
749.589	35434.11
749.928	35470.04
750.267	35490.83
750.605	35324.96
750.944	35456.93
751.283	35186.43
751.621	35225.53
751.96	35009.26
752.298	35008.81
752.636	34978.08
752.975	34739.21
753.313	34613.57
753.651	34622.83
753.989	34453.8
754.327	34354.14
754.666	34108.04
755.004	34009.06
755.342	33844.1
755.679	33785.11
756.017	33480.26
756.355	33525.01
756.693	33184
757.031	33400.72
757.368	33078.69
757.706	32928.87
758.044	32807.74
758.381	32865.82
758.719	32743.56
759.056	32714.86
759.394	32613.85
759.731	32351.93
760.068	32433.06
760.405	32299.73
760.743	32308.77
761.08	32388.09
761.417	32353.51
761.754	32203.69
762.091	32300.86
762.428	32195.1
762.765	32110.81
763.102	32259.5
763.438	32125.5
763.775	32040.53
764.112	32284.14
764.449	32259.73
764.785	32090.47
765.122	31910.14
765.458	31866.07
765.795	31810.03
766.131	31710.59
766.467	31644.38
766.804	31463.59
767.14	31203.26
767.476	31203.71
767.812	31054.34
768.148	31103.38
768.485	30674.91
768.821	30496.16
769.157	30410.06
769.492	30355.6
769.828	30214.81
770.164	29946.35
770.5	29761.94
770.836	29692.57
771.171	29373.71
771.507	29435.62
771.842	29032.7
772.178	29039.7
772.513	28895.98
772.849	28806.26
773.184	28712.48
773.519	28746.83
773.855	28531.24
774.19	28472.49
774.525	28406.5
774.86	28436.55
775.195	28281.3
775.53	28162.21
775.865	28010.8
776.2	27924.93
776.535	27892.84
776.87	27910.24
777.205	27877.7
777.539	27724.71
777.874	27797.7
778.209	27566.75
778.543	27701.66
778.878	27505.51
779.212	27652.39
779.547	27462.57
779.881	27535.34
780.215	27391.16
780.55	27420.99
780.884	27228.9
781.218	27118.85
781.552	27077.49
781.886	26964.95
782.22	26673.21
782.554	26643.16
782.888	26360
783.222	26360.68
783.556	26267.8
783.889	26072.77
784.223	25880.01
784.557	25799.56
784.89	25668.72
785.224	25622.62
785.557	25411.55
785.891	25277.32
786.224	25160.93
786.558	24966.14
786.891	24716.43
787.224	24710.55
787.557	24686.14
787.891	24529.31
788.224	24461.07
788.557	24422.87
788.89	24372.48
789.223	24288.87
789.556	24114.86
789.888	24137.01
790.221	23939.27
790.554	23788.77
790.887	23879.61
791.219	23858.82
791.552	23857.47
791.884	23823.79
792.217	23750.12
792.549	23782.44
792.882	23629.68
793.214	23511.94
793.546	23752.16
793.879	23478.72
794.211	23426.06
794.543	23483.24
794.875	23494.09
795.207	23463.13
795.539	23342.9
795.871	23345.84
796.203	23186.52
796.535	23143.13
796.867	23051.61
797.198	22982.23
797.53	22901.11
797.862	22712.19
798.193	22814.78
798.525	22483.26
798.856	22455.24
799.188	22340.22
799.519	22243.95
799.85	22020.45
800.182	22104.29
800.513	21864.98
800.844	21766.9
801.175	21714.92
801.506	21751.08
801.837	21549.96
802.168	21469.51
802.499	21434.25
802.83	21282.62
803.161	21128.72
803.491	21139.12
803.822	21017.09
804.153	20920.82
804.483	20750.88
804.814	20749.3
805.145	20626.14
805.475	20646.25
805.805	20611.9
806.136	20638.12
806.466	20587.72
806.796	20582.98
807.126	20422.3
807.457	20381.63
807.787	20465.46
808.117	20477.44
808.447	20480.38
808.777	20494.16
809.107	20396.09
809.436	20416.88
809.766	20502.75
810.096	20323.55
810.426	20398.8
810.755	20362.19
811.085	20371.46
811.414	20310.67
811.744	20156.55
812.073	20104.34
812.403	20104.57
812.732	20098.92
813.061	20009.21
813.39	19856.67
813.719	19826.84
814.049	19849.66
814.378	19846.27
814.707	19618.26
815.036	19597.01
815.365	19568.09
815.693	19434.98
816.022	19323.8
816.351	19208.77
816.68	19147.53
817.008	19089.91
817.337	18997.48
817.665	18856.69
817.994	18853.08
818.322	18787.99
818.651	18591.84
818.979	18550.71
819.307	18619.86
819.636	18541.67
819.964	18394.11
820.292	18493.54
820.62	18418.96
820.948	18390.72
821.276	18442.69
821.604	18222.13
821.932	18434.78
822.259	18390.27
822.587	18356.14
822.915	18241.34
823.243	18302.81
823.57	18283.15
823.898	18436.37
824.225	18347.1
824.553	18417.16
824.88	18449.7
825.207	18474.33
825.535	18547.78
825.862	18562.46
826.189	18540.32
826.516	18718.39
826.843	18715.23
827.17	18644.5
827.497	18763.36
827.824	18743.93
828.151	18751.61
828.478	18759.29
828.805	18825.73
829.131	18766.07
829.458	18896.01
829.785	18785.51
830.111	18725.62
830.438	18727.66
830.764	18688.34
831.09	18757.04
831.417	18607.66
831.743	18611.5
832.069	18550.49
832.395	18441.11
832.722	18551.62
833.048	18427.55
833.374	18365.41
833.7	18301.91
834.026	18311.62
834.351	18324.96
834.677	18127.9
835.003	18181.68
835.329	18215.35
835.654	18189.14
835.98	17941.01
836.306	18000.22
836.631	17863.95
836.956	17880.45
837.282	17763.61
837.607	17753.67
837.932	17718.19
838.258	17696.27
838.583	17648.82
838.908	17589.83
839.233	17631.87
839.558	17667.8
839.883	17554.35
840.208	17545.99
840.533	17635.71
840.858	17406.11
841.182	17610.85
841.507	17506.9
841.832	17491.31
842.156	17518.2
842.481	17518.2
842.805	17576.95
843.13	17434.13
843.454	17504.86
843.778	17474.81
844.103	17479.55
844.427	17431.42
844.751	17375.15
845.075	17499.44
845.399	17463.74
845.723	17332.67
846.047	17328.15
846.371	17290.41
846.695	17165.44
847.019	17099.23
847.343	17055.16
847.666	17023.52
847.99	16908.27
848.313	16915.73
848.637	16755.96
848.96	16707.37
849.284	16709.86
849.607	16471.22
849.931	16464.67
850.254	16335.63
850.577	16211.11
850.9	16050.89
851.223	16084.11
851.546	15879.37
851.869	15794.4
852.192	15765.25
852.515	15614.52
852.838	15600.73
853.161	15579.04
853.483	15415.65
853.806	15328.65
854.129	15245.71
854.451	15116.45
854.774	15141.08
855.096	15048.66
855.419	14987.64
855.741	14974.76
856.063	14861.54
856.385	14821.77
856.708	14727.54
857.03	14683.24
857.352	14763.69
857.674	14656.35
857.996	14690.25
858.318	14521.67
858.64	14615.9
858.961	14554.21
859.283	14580.87
859.605	14454.1
859.926	14619.29
860.248	14515.56
860.57	14532.74
860.891	14504.27
861.212	14503.14
861.534	14460.88
861.855	14453.65
862.176	14516.92
862.498	14451.84
862.819	14471.72
863.14	14386.3
863.461	14393.08
863.782	14356.92
864.103	14465.17
864.424	14403.25
864.745	14400.99
865.065	14348.11
865.386	14250.94
865.707	14238.28
866.027	14266.08
866.348	14217.72
866.668	14165.29
866.989	14145.86
867.309	14064.28
867.63	14142.24
867.95	14119.87
868.27	13977.05
868.59	13891.4
868.91	13896.37
869.23	13812.53
869.55	13775.25
869.87	13823.15
870.19	13817.28
870.51	13758.52
870.83	13699.77
871.15	13625.87
871.469	13555.36
871.789	13548.13
872.109	13551.97
872.428	13391.98
872.748	13471.52
873.067	13351.53
873.386	13373.67
873.706	13356.05
874.025	13253.68
874.344	13265.2
874.663	13225.2
874.982	13157.63
875.301	13174.58
875.62	13141.59
875.939	13116.05
876.258	13118.99
876.577	13136.17
876.896	13092.33
877.214	12939.79
877.533	12973.01
877.852	13004.64
878.17	13065.89
878.489	13056.39
878.807	13069.5
879.125	13074.02
879.444	13115.15
879.762	13041.48
880.08	13026.56
880.398	13001.71
880.716	13023.85
881.034	13059.56
881.352	13038.54
881.67	12980.01
881.988	13066.34
882.306	12983.63
882.624	12976.62
882.941	12927.81
883.259	12839.22
883.577	12842.84
883.894	12891.43
884.212	12876.51
884.529	12853.24
884.846	12818.89
885.164	12793.12
885.481	12738.66
885.798	12769.4
886.115	12579.34
886.432	12692.79
886.75	12677.87
887.067	12610.08
887.383	12556.29
887.7	12623.19
888.017	12540.93
888.334	12497.31
888.651	12391.33
888.967	12374.15
889.284	12253.7
889.6	12164.67
889.917	12098.68
890.233	12051.22
890.55	12004.44
890.866	11967.16
891.182	11907.05
891.498	11825.01
891.815	11763.32
892.131	11770.55
892.447	11720.38
892.763	11656.2
893.079	11621.18
893.395	11527.39
893.71	11561.29
894.026	11503.67
894.342	11481.07
894.657	11395.65
894.973	11370.79
895.289	11373.73
895.604	11381.64
895.92	11284.01
896.235	11185.03
896.55	11230
896.865	11084.92
897.181	11171.92
897.496	11196.1
897.811	11110
898.126	11174.18
898.441	11077.91
898.756	11070.68
899.071	11036.79
899.386	11096.22
899.7	10961.76
900.015	10960.63
900.33	10960.4
900.644	10885.38
900.959	10983
901.273	10895.09
901.588	10835.89
901.902	10827.98
902.216	10668.66
902.531	10798.15
902.845	10723.12
903.159	10712.5
903.473	10637.47
903.787	10586.4
904.101	10550.47
904.415	10557.25
904.729	10521.32
905.042	10538.27
905.356	10474.31
905.67	10435.22
905.984	10459.63
906.297	10395.67
906.611	10295.56
906.924	10280.87
907.237	10241.55
907.551	10149.13
907.864	10082.91
908.177	10110.93
908.491	10003.37
908.804	9957.94
909.117	9934.89
909.43	9776.93
909.743	9783.49
910.056	9722.02
910.368	9669.36
910.681	9637.73
910.994	9559.99
911.307	9535.58
911.619	9367.68
911.932	9392.99
912.244	9387.34
912.557	9256.72
912.869	9262.82
913.181	9194.12
913.494	9144.86
913.806	9098.53
914.118	9105.99
914.43	8999.78
914.742	8955.48
915.054	8900.8
915.366	8905.54
915.678	8789.84
915.99	8836.84
916.302	8735.38
916.613	8728.15
916.925	8727.69
917.236	8715.49
917.548	8645.66
917.859	8713.91
918.171	8617.41
918.482	8520.47
918.794	8558.43
919.105	8501.26
919.416	8476.63
919.727	8455.61
920.038	8509.62
920.349	8458.55
920.66	8381.71
920.971	8381.94
921.282	8407.7
921.593	8323.41
921.903	8306.01
922.214	8266.01
922.525	8237.99
922.835	8205.45
923.146	8197.76
923.456	8144.43
923.767	8189.18
924.077	8152.79
924.387	8088.84
924.697	8069.41
925.008	8006.81
925.318	8028.05
925.628	8019.46
925.938	7920.94
926.248	7907.38
926.558	7780.6
926.867	7756.65
927.177	7768.17
927.487	7726.36
927.796	7667.61
928.106	7668.06
928.416	7606.82
928.725	7628.97
929.034	7533.38
929.344	7573.37
929.653	7552.81
929.962	7450.89
930.271	7373.61
930.581	7370.44
930.89	7325.47
931.199	7262.42
931.508	7194.18
931.817	7227.17
932.125	7173.61
932.434	7131.58
932.743	7030.11
933.051	7026.95
933.36	6953.5
933.669	6948.98
933.977	6910.79
934.286	6873.28
934.594	6881.87
934.902	6762.77
935.21	6725.71
935.519	6748.31
935.827	6762.1
936.135	6682.55
936.443	6617.69
936.751	6589.67
937.059	6551.03
937.367	6527.3
937.674	6543.57
937.982	6463.8
938.29	6408.21
938.597	6420.18
938.905	6390.81
939.213	6367.3
939.52	6355.33
939.827	6327.08
940.135	6282.11
940.442	6299.96
940.749	6267.65
941.056	6297.7
941.363	6210.47
941.67	6198.27
941.977	6200.08
942.284	6202.79
942.591	6149
942.898	6198.27
943.205	6196.69
943.511	6117.82
943.818	6103.13
944.125	6071.04
944.431	6108.1
944.738	6076.01
945.044	6037.37
945.35	5972.06
945.657	5997.6
945.963	5978.16
946.269	5962.8
946.575	5930.48
946.881	5922.57
947.187	5865.62
947.493	5835.34
947.799	5870.59
948.105	5777.72
948.41	5774.33
948.716	5755.12
949.022	5757.38
949.327	5745.17
949.633	5648.91
949.938	5636.48
950.244	5628.11
950.549	5573.65
950.854	5528.68
951.16	5549.7
951.465	5498.85
951.77	5502.24
952.075	5479.87
952.38	5417.72
952.685	5435.58
952.99	5349.03
953.294	5330.95
953.599	5290.5
953.904	5271.51
954.209	5195.36
954.513	5225.41
954.818	5209.82
955.122	5145.87
955.426	5134.79
955.731	5050.5
956.035	5054.34
956.339	5038.3
956.643	5037.62
956.948	4998.53
957.252	4962.14
957.556	5002.37
957.86	4869.49
958.163	4884.86
958.467	4841.92
958.771	4798.53
959.075	4775.48
959.378	4792.66
959.682	4772.77
959.985	4758.53
960.289	4678.54
960.592	4710.4
960.896	4673.56
961.199	4652.32
961.502	4623.17
961.805	4613.23
962.108	4605.99
962.411	4577.07
962.714	4577.07
963.017	4554.47
963.32	4575.71
963.623	4479.9
963.926	4545.88
964.228	4470.63
964.531	4523.74
964.833	4490.52
965.136	4427.24
965.438	4472.44
965.741	4431.76
966.043	4443.06
966.345	4373.91
966.648	4401.71
966.95	4396.73
967.252	4393.8
967.554	4349.96
967.856	4313.8
968.158	4293.91
968.46	4306.79
968.761	4284.2
969.063	4255.04
969.365	4241.48
969.666	4235.61
969.968	4159.23
970.269	4146.57
970.571	4178.66
970.872	4185.21
971.174	4092.34
971.475	4113.8
971.776	4114.03
972.077	4108.83
972.378	4063.41
972.679	4095.5
972.98	4002.39
973.281	4019.34
973.582	3989.51
973.883	3975.28
974.183	3966.01
974.484	3904.09
974.785	3932.79
975.085	3896.41
975.386	3879.69
975.686	3887.14
975.986	3863.42
976.287	3800.14
976.587	3753.36
976.887	3781.84
977.187	3765.56
977.487	3699.35
977.787	3706.36
978.087	3674.95
978.387	3687.15
978.687	3636.98
978.987	3618.45
979.286	3576.19
979.586	3618
979.885	3575.06
980.185	3544.78
980.484	3519.7
980.784	3475.4
981.083	3474.95
981.382	3450.54
981.682	3479.92
981.981	3427.49
982.28	3400.38
982.579	3398.57
982.878	3394.95
983.177	3361.51
983.475	3343.66
983.774	3349.53
984.073	3316.99
984.372	3303.2
984.67	3284.9
984.969	3305.01
985.267	3259.59
985.566	3205.58
985.864	3237.44
986.162	3203.32
986.461	3183.89
986.759	3187.73
987.057	3155.64
987.355	3124.45
987.653	3171.46
987.951	3144.56
988.249	3152.25
988.547	3112.47
988.844	3143.21
989.142	3102.08
989.44	3085.36
989.737	3066.37
990.035	3064.79
990.332	3092.36
990.63	3015.98
990.927	3064.34
991.224	3045.13
991.521	3008.75
991.819	3037.67
992.116	3009.2
992.413	2970.33
992.71	2964
993.006	2951.57
993.303	2942.08
993.6	2939.6
993.897	2917.45
994.193	2944.34
994.49	2893.95
994.787	2876.32
995.083	2848.3
995.379	2847.62
995.676	2838.13
995.972	2831.35
996.268	2812.37
996.565	2792.71
996.861	2781.41
997.157	2770.56
997.453	2741.41
997.749	2715.87
998.044	2717.91
998.34	2749.55
998.636	2720.85
998.932	2700.73
999.227	2661.41
999.523	2641.3
999.818	2635.43
1000.114	2564.69
1000.409	2622.77
1000.704	2582.77
1001	2603.11
1001.295	2552.04
1001.59	2538.7
1001.885	2525.15
1002.18	2489.44
1002.475	2479.04
1002.77	2473.4
1003.065	2446.5
1003.359	2384.58
1003.654	2418.48
1003.949	2390.91
1004.243	2407.86
1004.538	2329.9
1004.832	2357.24
1005.127	2331.93
1005.421	2282.67
1005.715	2316.56
1006.009	2305.72
1006.304	2288.77
1006.598	2268.66
1006.892	2261.42
1007.186	2254.42
1007.48	2243.34
1007.773	2226.85
1008.067	2200.18
1008.361	2187.98
1008.655	2189.79
1008.948	2133.52
1009.242	2146.85
1009.535	2169.22
1009.829	2102.78
1010.122	2102.56
1010.415	2121.77
1010.708	2077.25
1011.001	2069.79
1011.295	2070.47
1011.588	2073.86
1011.881	2069.56
1012.173	2049
1012.466	2028.66
1012.759	2029.34
1013.052	1973.97
1013.344	1980.3
1013.637	1979.4
1013.93	1979.85
1014.222	1986.4
1014.514	1971.26
1014.807	1980.53
1015.099	1939.17
1015.391	1912.73
1015.683	1950.02
1015.976	1910.92
1016.268	1884.48
1016.56	1903.01
1016.851	1874.99
1017.143	1895.11
1017.435	1864.37
1017.727	1841.32
1018.018	1824.15
1018.31	1792.51
1018.602	1812.85
1018.893	1776.01
1019.185	1802.68
1019.476	1782.34
1019.767	1795.45
1020.058	1784.37
1020.35	1774.66
1020.641	1741.44
1020.932	1729.01
1021.223	1695.79
1021.514	1696.69
1021.804	1667.77
1022.095	1670.93
1022.386	1693.53
1022.677	1653.3
1022.967	1634.1
1023.258	1631.61
1023.548	1613.98
1023.839	1605.4
1024.129	1604.49
1024.419	1557.26
1024.709	1564.49
1025	1561.33
1025.29	1548
1025.58	1568.33
1025.87	1519.52
1026.16	1529.24
1026.449	1499.18
1026.739	1489.01
1027.029	1481.11
1027.319	1465.29
1027.608	1442.69
1027.898	1459.64
1028.187	1425.97
1028.477	1467.32
1028.766	1410.82
1029.055	1384.16
1029.344	1381.22
1029.634	1373.76
1029.923	1390.94
1030.212	1340.54
1030.501	1336.25
1030.79	1344.16
1031.078	1332.86
1031.367	1344.16
1031.656	1323.37
1031.945	1318.85
1032.233	1291.73
1032.522	1299.87
1032.81	1272.52
1033.099	1255.12
1033.387	1249.25
1033.675	1263.48
1033.963	1234.78
1034.251	1202.24
1034.54	1202.47
1034.828	1212.19
1035.116	1208.34
1035.403	1189.14
1035.691	1194.56
1035.979	1179.42
1036.267	1165.41
1036.554	1188.01
1036.842	1166.76
1037.129	1149.81
1037.417	1161.79
1037.704	1171.06
1037.992	1129.7
1038.279	1126.54
1038.566	1106.65
1038.853	1106.65
1039.14	1106.65
