Data from red_cardboard_box_FLMS001491_00084.txt Node
Date: Wed Feb 08 11:33:16 GMT 2017
User: dcchb
Spectrometer: FLMS00149
Trigger mode: 0
Integration Time (sec): 2.000000E-2
Scans to average: 10
Electric dark correction enabled: true
Nonlinearity correction enabled: false
Boxcar width: 0
XAxis mode: Wavelengths
Number of Pixels in Spectrum: 2048
>>>>>Begin Spectral Data<<<<<
341.393	-0.35
341.776	-0.35
342.16	-0.35
342.543	-67.24
342.927	-64.53
343.31	-70.63
343.693	-72.89
344.077	-60.92
344.46	-76.51
344.843	-55.49
345.226	-35.61
345.61	-39.22
345.993	1.91
346.376	-25.21
346.759	15.01
347.142	20.66
347.525	38.97
347.908	76.71
348.291	83.71
348.674	90.72
349.057	108.8
349.44	123.71
349.823	153.54
350.206	190.15
350.588	191.51
350.971	206.65
351.354	245.29
351.737	237.38
352.119	254.33
352.502	248.68
352.884	272.63
353.267	292.29
353.65	289.36
354.032	311.73
354.414	320.09
354.797	332.75
355.179	317.83
355.562	336.59
355.944	340.43
356.326	338.85
356.709	337.49
357.091	339.3
357.473	350.37
357.855	354.21
358.238	341.78
358.62	368
359.002	349.92
359.384	333.88
359.766	340.88
360.148	337.94
360.53	322.12
360.912	333.42
361.294	335.91
361.676	345.4
362.057	325.06
362.439	326.64
362.821	335.68
363.203	328.23
363.584	337.04
363.966	316.25
364.348	319.19
364.729	331.62
365.111	323.71
365.493	317.6
365.874	314.44
366.256	319.64
366.637	328.45
367.019	303.37
367.4	307.66
367.781	345.17
368.163	305.18
368.544	299.07
368.925	320.54
369.306	311.73
369.688	332.07
370.069	321.22
370.45	313.54
370.831	311.73
371.212	321.22
371.593	299.75
371.974	307.44
372.355	310.6
372.736	291.62
373.117	305.63
373.498	326.64
373.879	312.18
374.26	308.79
374.641	312.86
375.021	324.16
375.402	325.29
375.783	332.52
376.163	333.65
376.544	335.01
376.925	328.23
377.305	322.12
377.686	324.38
378.066	329.13
378.447	326.64
378.827	331.39
379.208	332.29
379.588	339.07
379.968	325.74
380.349	355.57
380.729	348.34
381.109	315.12
381.489	344.95
381.87	314.44
382.25	320.77
382.63	316.47
383.01	340.2
383.39	327.55
383.77	335.68
384.15	326.19
384.53	341.33
384.91	342.01
385.29	353.31
385.67	355.57
386.049	353.31
386.429	341.78
386.809	340.88
387.189	332.07
387.568	343.59
387.948	333.88
388.328	338.4
388.707	354.67
389.087	357.38
389.466	356.47
389.846	351.05
390.225	336.81
390.605	369.58
390.984	360.77
391.363	324.16
391.743	355.34
392.122	375.91
392.501	370.71
392.881	382.24
393.26	358.06
393.639	398.73
394.018	356.93
394.397	387.89
394.776	369.13
395.155	374.1
395.534	377.49
395.913	370.26
396.292	398.51
396.671	402.35
397.05	374.1
397.429	382.01
397.808	364.84
398.186	397.83
398.565	386.3
398.944	375.68
399.323	370.03
399.701	378.39
400.08	379.52
400.458	365.06
400.837	376.13
401.215	375
401.594	381.78
401.972	378.39
402.351	398.73
402.729	404.61
403.107	395.79
403.486	383.37
403.864	409.13
404.242	396.7
404.62	400.09
404.999	399.18
405.377	405.74
405.755	405.29
406.133	400.09
406.511	407.55
406.889	393.08
407.267	413.65
407.645	405.74
408.023	415.68
408.401	421.1
408.779	421.33
409.156	437.15
409.534	431.27
409.912	424.95
410.29	415.46
410.667	432.86
411.045	429.24
411.422	438.28
411.8	434.44
412.178	429.47
412.555	445.28
412.933	445.74
413.31	435.34
413.687	441.67
414.065	445.51
414.442	457.04
414.819	456.58
415.197	454.78
415.574	463.82
415.951	465.62
416.328	452.97
416.705	459.52
417.082	479.41
417.46	451.84
417.837	465.85
418.214	467.43
418.591	462.91
418.967	479.86
419.344	462.23
419.721	482.57
420.098	484.38
420.475	463.59
420.852	477.6
421.228	479.18
421.605	481.44
421.982	484.15
422.358	482.57
422.735	489.58
423.111	485.51
423.488	497.94
423.864	516.24
424.241	490.03
424.617	513.53
424.994	500.65
425.37	496.58
425.746	511.95
426.123	499.52
426.499	509.24
426.875	507.43
427.251	506.3
427.627	528.22
428.003	530.48
428.379	519.41
428.756	525.28
429.132	537.49
429.507	532.29
429.883	541.33
430.259	535.45
430.635	554.89
431.011	546.07
431.387	558.28
431.763	551.95
432.138	571.38
432.514	559.18
432.89	535
433.265	588.78
433.641	567.54
434.016	569.35
434.392	556.69
434.767	600.31
435.143	582.68
435.518	593.53
435.894	581.78
436.269	607.09
436.644	606.64
437.02	613.64
437.395	603.7
437.77	612.29
438.145	623.13
438.52	601.89
438.895	636.92
439.271	644.83
439.646	625.85
440.021	637.14
440.395	614.32
440.77	631.49
441.145	613.19
441.52	625.85
441.895	652.51
442.27	645.05
442.645	638.27
443.019	666.52
443.394	665.17
443.769	658.39
444.143	664.49
444.518	677.6
444.892	680.31
445.267	674.21
445.641	669.69
446.016	673.3
446.39	669.91
446.764	703.81
447.139	688.67
447.513	676.24
447.887	688.89
448.262	673.75
448.636	698.61
449.01	694.54
449.384	711.49
449.758	692.28
450.132	704.49
450.506	693.19
450.88	722.11
451.254	730.48
451.628	713.98
452.002	724.83
452.376	742.9
452.75	726.18
453.123	731.15
453.497	742.45
453.871	748.33
454.244	764.6
454.618	754.66
454.992	768.67
455.365	741.32
455.739	777.48
456.112	786.97
456.486	767.54
456.859	786.74
457.232	788.55
457.606	773.19
457.979	813.18
458.352	796.91
458.725	812.96
459.099	819.06
459.472	818.83
459.845	845.27
460.218	828.1
460.591	851.83
460.964	839.85
461.337	857.93
461.71	871.04
462.083	864.71
462.456	852.51
462.829	895.89
463.201	872.84
463.574	895.22
463.947	910.13
464.32	910.13
464.692	920.3
465.065	902
465.438	925.05
465.81	940.41
466.183	935.89
466.555	959.4
466.928	956.01
467.3	954.65
467.672	979.28
468.045	961.2
468.417	982.22
468.789	966.85
469.161	982.67
469.534	990.81
469.906	989.23
470.278	1033.29
470.65	1012.5
471.022	1034.65
471.394	1073.52
471.766	1080.07
472.138	1072.84
472.51	1105.83
472.882	1130.24
473.253	1120.97
473.625	1132.72
473.997	1116.23
474.369	1146.74
474.74	1154.42
475.112	1167.75
475.484	1209.78
475.855	1206.39
476.227	1203.01
476.598	1239.39
476.97	1236.9
477.341	1244.59
477.713	1263.79
478.084	1288.43
478.455	1294.53
478.827	1308.09
479.198	1335.43
479.569	1346.5
479.94	1352.15
480.311	1372.04
480.682	1404.58
481.053	1402.55
481.424	1423.56
481.795	1470.12
482.166	1451.81
482.537	1492.04
482.908	1522.32
483.279	1508.76
483.65	1561.41
484.021	1576.55
484.391	1589.21
484.762	1574.52
485.133	1602.09
485.503	1602.77
485.874	1624.91
486.244	1650.68
486.615	1689.77
486.985	1718.92
487.356	1734.29
487.726	1732.93
488.097	1805.48
488.467	1771.35
488.837	1810.45
489.207	1786.94
489.578	1849.54
489.948	1859.03
490.318	1884.34
490.688	1900.84
491.058	1927.51
491.428	1919.6
491.798	1958.69
492.168	1984.23
492.538	1981.52
492.908	2014.51
493.278	2023.32
493.648	2038.01
494.017	2082.08
494.387	2059.93
494.757	2094.73
495.126	2079.14
495.496	2110.33
495.866	2150.32
496.235	2166.6
496.605	2175.41
496.974	2184.67
497.344	2184
497.713	2263.09
498.082	2248.85
498.452	2244.33
498.821	2250.21
499.19	2257.89
499.559	2293.82
499.928	2322.75
500.298	2351.45
500.667	2343.99
501.036	2339.7
501.405	2357.33
501.774	2368.85
502.143	2421.5
502.512	2423.99
502.88	2413.82
503.249	2417.44
503.618	2472.58
503.987	2463.31
504.356	2482.97
504.724	2501.73
505.093	2531.56
505.462	2534.5
505.83	2562.29
506.199	2550.09
506.567	2594.15
506.936	2574.72
507.304	2595.74
507.672	2600.03
508.041	2651.1
508.409	2681.61
508.777	2682.97
509.145	2713.47
509.514	2708.73
509.882	2742.17
510.25	2757.99
510.618	2785.79
510.986	2786.69
511.354	2814.04
511.722	2846.8
512.09	2836.86
512.458	2858.78
512.826	2885.67
513.193	2897.65
513.561	2892.68
513.929	2964.54
514.297	2955.05
514.664	3009.29
515.032	2986.91
515.4	3040.92
515.767	3034.6
516.135	3082.5
516.502	3062.17
516.869	3102.62
517.237	3167.93
517.604	3115.5
517.972	3172.44
518.339	3169.51
518.706	3197.98
519.073	3257.64
519.44	3234.82
519.808	3299.45
520.175	3294.48
520.542	3341.48
520.909	3345.1
521.276	3363.4
521.643	3395.72
522.009	3385.55
522.376	3424.19
522.743	3487.92
523.11	3488.59
523.477	3487.92
523.843	3560.23
524.21	3610.63
524.577	3578.31
524.943	3608.82
525.31	3668.25
525.676	3695.37
526.043	3698.76
526.409	3727.23
526.776	3781.47
527.142	3770.17
527.508	3796.38
527.874	3818.53
528.241	3842.48
528.607	3908.24
528.973	3910.96
529.339	3922.03
529.705	3974.23
530.071	3979.88
530.437	4035.02
530.803	4031.63
531.169	4042.03
531.535	4092.19
531.901	4085.87
532.267	4118.41
532.632	4148.69
532.998	4175.58
533.364	4201.8
533.73	4209.25
534.095	4229.14
534.461	4287.22
534.826	4315.24
535.192	4286.09
535.557	4362.47
535.923	4319.08
536.288	4347.1
536.653	4397.5
537.019	4400.21
537.384	4449.25
537.749	4476.37
538.114	4449.47
538.479	4489.47
538.845	4485.86
539.21	4496.03
539.575	4530.38
539.94	4599.3
540.305	4612.41
540.67	4611.96
541.034	4636.59
541.399	4646.53
541.764	4683.82
542.129	4682.24
542.494	4729.01
542.858	4703.48
543.223	4777.37
543.587	4782.12
543.952	4768.11
544.316	4826.19
544.681	4831.38
545.045	4871.16
545.41	4886.3
545.774	4915
546.138	4915.68
546.503	4937.82
546.867	4907.99
547.231	5030.93
547.595	5028.89
547.959	5055.33
548.324	5057.37
548.688	5065.05
549.052	5123.35
549.416	5164.48
549.779	5157.03
550.143	5201.32
550.507	5239.06
550.871	5247.19
551.235	5245.84
551.599	5347.08
551.962	5286.74
552.326	5407.87
552.689	5418.26
553.053	5398.83
553.417	5420.07
553.78	5549.78
554.143	5493.97
554.507	5534.87
554.87	5574.42
555.234	5672.72
555.597	5677.46
555.96	5675.43
556.323	5705.49
556.686	5773.05
557.05	5840.62
557.413	5806.5
557.776	5909.32
558.139	5907.97
558.502	5977.34
558.865	5987.96
559.228	6015.08
559.59	6114.74
559.953	6134.4
560.316	6196.77
560.679	6237.45
561.041	6305.47
561.404	6338.01
561.767	6415.75
562.129	6388.41
562.492	6495.3
562.854	6522.19
563.217	6534.84
563.579	6608.06
563.941	6633.82
564.304	6717.89
564.666	6777.1
565.028	6836.3
565.39	6890.99
565.753	6927.6
566.115	7042.17
566.477	7081.95
566.839	7182.73
567.201	7275.84
567.563	7267.25
567.925	7389.74
568.287	7415.05
568.648	7409.85
569.01	7549.5
569.372	7653.91
569.734	7614.14
570.095	7779.56
570.457	7834.47
570.819	7884.41
571.18	7946.1
571.542	8024.52
571.903	8085.31
572.265	8242.59
572.626	8279.66
572.987	8322.14
573.349	8403.04
573.71	8566.65
574.071	8634.67
574.432	8684.84
574.794	8856.14
575.155	8916.02
575.516	8895.68
575.877	9057.49
576.238	9173.19
576.599	9232.62
576.96	9352.85
577.32	9489.79
577.681	9553.75
578.042	9648.21
578.403	9768.66
578.763	9876.45
579.124	9969.33
579.485	10109.44
579.845	10261.3
580.206	10407.51
580.566	10469.2
580.927	10506.94
581.287	10764.11
581.648	10891.11
582.008	11082.07
582.368	11206.36
582.728	11365.45
583.089	11505.56
583.449	11673.24
583.809	11795.27
584.169	11964.08
584.529	12148.25
584.889	12417.17
585.249	12564.06
585.609	12748.92
585.969	13029.59
586.329	13116.59
586.688	13335.34
587.048	13594.54
587.408	13812.62
587.768	14004.48
588.127	14214.19
588.487	14476.1
588.846	14887.17
589.206	15000.38
589.565	15320.15
589.925	15606.24
590.284	15844.43
590.643	16099.79
591.003	16384.75
591.362	16723.73
591.721	16887.79
592.08	17251.85
592.44	17636.25
592.799	17905.16
593.158	18237.59
593.517	18533.4
593.876	18832.15
594.235	19131.12
594.593	19499.02
594.952	19839.13
595.311	20189.4
595.67	20553.91
596.029	21011.07
596.387	21477.5
596.746	21898.73
597.104	22040.42
597.463	22415.1
597.822	22853.74
598.18	23099.38
598.538	23430.9
598.897	24013.25
599.255	24249.18
599.613	24853.46
599.972	24961.48
600.33	25449.83
600.688	25643.72
601.046	26248
601.404	26652.96
601.762	27006.85
602.12	27390.11
602.478	27880.27
602.836	28145.8
603.194	28369.75
603.552	28765.44
603.91	29048.83
604.268	29536.95
604.625	29743.72
604.983	30253.09
605.341	30527.88
605.698	30803.36
606.056	31358.82
606.413	31555.65
606.771	31884.23
607.128	32246.03
607.485	32467.72
607.843	32742.74
608.2	33187.25
608.557	33601.25
608.914	33777.52
609.272	34267.67
609.629	34489.14
609.986	34838.96
610.343	34900.65
610.7	35477.58
611.057	35565.04
611.414	35879.16
611.771	35981.07
612.127	36332.93
612.484	36671
612.841	36930.88
613.198	36941.27
613.554	37193.02
613.911	37712.78
614.267	37664.65
614.624	37929.72
614.98	38187.12
615.337	38465.98
615.693	38587.33
616.05	38891.05
616.406	39178.73
616.762	39241.78
617.118	39339.4
617.475	39515.67
617.831	39924.7
618.187	40051.25
618.543	40148.65
618.899	40581.86
619.255	40635.41
619.611	40694.17
619.967	40949.98
620.323	41230.65
620.678	41012.58
621.034	41219.81
621.39	41289.86
621.746	41330.09
622.101	41922.39
622.457	41647.82
622.812	41884.42
623.168	42090.29
623.523	42193.34
623.879	42405.54
624.234	42037.86
624.589	42404.86
624.945	42443.73
625.3	42695.25
625.655	42783.61
626.01	42810.72
626.365	42850.27
626.72	42934.11
627.075	43009.36
627.43	43073.32
627.785	43038.74
628.14	43217.49
628.495	43421.1
628.85	43236.93
629.205	43216.59
629.559	43501.1
629.914	43476.24
630.269	43588.56
630.623	43515.11
630.978	43515.11
631.332	43674.88
631.687	43568.67
632.041	43630.14
632.396	43813.64
632.75	43695.9
633.104	43756.91
633.459	43641.44
633.813	43659.52
634.167	43761.66
634.521	43878.72
634.875	43786.74
635.229	43805.73
635.583	43668.33
635.937	43599.18
636.291	43742
636.645	43848.66
636.999	43618.84
637.352	43934.76
637.706	43625.84
638.06	43845.27
638.413	43773.86
638.767	43651.38
639.121	43922.11
639.474	43645.28
639.828	43674.2
640.181	43826.74
640.534	43828.32
640.888	43746.07
641.241	43518.95
641.594	43629.46
641.947	43945.38
642.301	43710.59
642.654	43814.31
643.007	43825.61
643.36	43803.92
643.713	43758.5
644.066	43954.65
644.419	43504.94
644.771	43389.01
645.124	42979.53
645.477	42925.52
645.83	42809.37
646.182	42687.79
646.535	42611.18
646.888	42691.86
647.24	42547.91
647.593	42863.38
647.945	42721.24
648.298	42544.52
648.65	42492.09
649.002	42322.6
649.355	42588.36
649.707	42514.24
650.059	42789.48
650.411	43045.75
650.763	43193.99
651.115	43586.52
651.467	43440.54
651.819	43499.75
652.171	43469.92
652.523	43366.42
652.875	43448.22
653.227	43291.62
653.578	43554.43
653.93	43524.15
654.282	43317.6
654.633	43056.59
654.985	43359.64
655.337	43324.16
655.688	43257.72
656.039	43418.84
656.391	43036.48
656.742	43227.44
657.094	43207.1
657.445	43435.34
657.796	43215.23
658.147	43234.22
658.498	43242.8
658.849	43303.14
659.2	43200.09
659.551	42927.11
659.902	43289.36
660.253	43316.93
660.604	43310.6
660.955	43136.37
661.306	43279.41
661.656	43052.07
662.007	43329.36
662.358	43226.76
662.708	43250.49
663.059	43240.32
663.409	42999.19
663.76	43448
664.11	43320.32
664.461	43199.87
664.811	43233.09
665.161	43214.1
665.511	43090.04
665.862	43283.03
666.212	43330.94
666.562	43237.61
666.912	43136.82
667.262	43102.47
667.612	43189.25
667.962	43053.66
668.312	43076.71
668.662	43312.63
669.011	43140.66
669.361	43230.6
669.711	43136.59
670.06	43047.78
670.41	42950.38
670.76	42986.54
671.109	43062.7
671.459	43021.79
671.808	42945.86
672.157	43194.9
672.507	42708.35
672.856	42694.57
673.205	42921.46
673.554	42952.87
673.904	42846.66
674.253	43072.19
674.602	42927.56
674.951	42518.98
675.3	42158.99
675.649	42772.76
675.998	42760.1
676.346	42760.1
676.695	42932.53
677.044	42530.73
677.393	42764.4
677.741	42731.86
678.09	42564.4
678.438	42605.08
678.787	42749.26
679.135	42659.32
679.484	42342.04
679.832	42681.24
680.181	42349.49
680.529	42384.07
680.877	42276.05
681.225	42347.91
681.573	42555.14
681.922	42226.11
682.27	41967.36
682.618	42223.17
682.966	42060.24
683.314	42142.49
683.661	41891.65
684.009	41863.86
684.357	41735.27
684.705	41642.17
685.053	41709.06
685.4	41702.96
685.748	41419.8
686.095	41413.47
686.443	41351.55
686.79	41322.4
687.138	41420.03
687.485	41305
687.832	41342.97
688.18	41191.78
688.527	41071.34
688.874	40919.02
689.221	40904.56
689.568	40670.44
689.915	40507.06
690.262	40614.85
690.609	40632.7
690.956	40591.8
691.303	40421.86
691.65	40143.45
691.997	40211.92
692.344	39958.37
692.69	39988.88
693.037	40049.89
693.383	39843.12
693.73	39827.75
694.077	39608.32
694.423	39687.87
694.769	39603.8
695.116	39500.98
695.462	39415.79
695.808	39286.3
696.155	39241.55
696.501	38950.49
696.847	39088.11
697.193	38705.97
697.539	38954.33
697.885	38661.68
698.231	38617.61
698.577	38699.87
698.923	38467.34
699.269	38178.76
699.614	38173.78
699.96	38132.66
700.306	38137.4
700.651	37735.83
700.997	37866.67
701.342	37698.77
701.688	37666.91
702.033	37612.9
702.379	37650.41
702.724	37480.02
703.069	37541.71
703.415	37245.45
703.76	37162.06
704.105	37239.12
704.45	37117.09
704.795	36802.75
705.14	36777.21
705.485	36831.9
705.83	36547.16
706.175	36603.88
706.52	36592.13
706.865	36496.77
707.209	36338.13
707.554	36261.97
707.899	36289.09
708.243	36171.35
708.588	36059.04
708.932	35826.73
709.277	35855.2
709.621	35767.52
709.966	35525.94
710.31	35556.9
710.654	35304.26
710.998	35382.22
711.342	35599.39
711.687	35323.69
712.031	35286.4
712.375	35130.02
712.719	35286.85
713.063	35153.52
713.407	35205.27
713.75	35003.7
714.094	34985.17
714.438	34770.03
714.782	34846.64
715.125	34577.49
715.469	34680.54
715.812	34445.29
716.156	34502.69
716.499	34409.14
716.843	34411.17
717.186	34202.59
717.53	34530.49
717.873	34427.67
718.216	34155.58
718.559	34100.9
718.902	33841.02
719.246	34009.6
719.589	33939.09
719.932	33744.52
720.275	33727.35
720.617	33803.5
720.96	33682.6
721.303	33725.09
721.646	33744.52
721.989	33508.37
722.331	33442.16
722.674	33450.07
723.016	33535.04
723.359	33358.32
723.701	33462.95
724.044	33145.67
724.386	33087.82
724.729	33255.27
725.071	33296.62
725.413	33065.22
725.755	33130.08
726.097	32839.24
726.439	32825.9
726.782	32801.95
727.124	32890.99
727.465	32675.62
727.807	32836.52
728.149	32619.35
728.491	32618.45
728.833	32635.17
729.175	32485.8
729.516	32262.98
729.858	32327.38
730.199	32413.48
730.541	32472.01
730.882	32341.62
731.224	32389.98
731.565	32173.04
731.906	32170.78
732.248	32170.78
732.589	32051.23
732.93	32067.5
733.271	31954.96
733.612	31890.33
733.953	31996.32
734.294	31881.75
734.635	31949.77
734.976	31862.09
735.317	31728.76
735.658	31740.28
735.999	31713.84
736.339	31554.75
736.68	31771.24
737.021	31558.37
737.361	31540.06
737.702	31498.93
738.042	31492.38
738.383	31422.78
738.723	31403.11
739.063	31345.04
739.404	31397.24
739.744	31256.68
740.084	31158.83
740.424	31249.67
740.764	31206.28
741.104	31206.06
741.444	30990.24
741.784	30869.34
742.124	31105.5
742.464	30947.99
742.804	30981.21
743.143	30866.86
743.483	30800.19
743.823	30712.51
744.162	30650.82
744.502	30713.87
744.841	30616.92
745.181	30715
745.52	30642.01
745.86	30640.42
746.199	30594.1
746.538	30496.92
746.877	30606.53
747.216	30463.03
747.556	30454.44
747.895	30484.95
748.234	30242.24
748.573	30254.44
748.911	30201.34
749.25	30290.15
749.589	30006.32
749.928	30199.3
750.267	30200.21
750.605	29954.11
750.944	30006.09
751.283	29834.57
751.621	29950.05
751.96	29901.23
752.298	29811.97
752.636	29710.96
752.975	29710.96
753.313	29557.29
753.651	29660.56
753.989	29424.41
754.327	29432.55
754.666	29279.33
755.004	29366.11
755.342	29336.28
755.679	29321.14
756.017	29220.8
756.355	29271.42
756.693	29056.06
757.031	29212.89
757.368	28909.4
757.706	28832.79
758.044	28897.19
758.381	28813.13
758.719	28924.08
759.056	28592.79
759.394	28633.47
759.731	28492.46
760.068	28536.3
760.405	28423.76
760.743	28313.25
761.08	28394.15
761.417	28167.49
761.754	28088.4
762.091	28170.43
762.428	27824.9
762.765	27696.55
763.102	27898.8
763.438	27806.6
763.775	27636.21
764.112	27621.29
764.449	27618.13
764.785	27404.58
765.122	27369.77
765.458	27252.04
765.795	27196.22
766.131	27161.87
766.467	26973.17
766.804	26843.46
767.14	26908.77
767.476	26769.56
767.812	26638.49
768.148	26659.51
768.485	26610.7
768.821	26416.58
769.157	26337.71
769.492	26314.44
769.828	26263.82
770.164	26057.27
770.5	26091.16
770.836	26140.2
771.171	25814.79
771.507	25834
771.842	25605.75
772.178	25623.61
772.513	25525.98
772.849	25547.45
773.184	25276.72
773.519	25362.6
773.855	25270.39
774.19	25134.13
774.525	25032.21
774.86	25093.45
775.195	25052.32
775.53	24936.62
775.865	24778.88
776.2	24726.23
776.535	24488.49
776.87	24541.15
777.205	24352.45
777.539	24381.15
777.874	24363.3
778.209	24121.72
778.543	24123.08
778.878	24049.64
779.212	23910.66
779.547	23731.45
779.881	23869.08
780.215	23676.31
780.55	23778.23
780.884	23513.83
781.218	23464.34
781.552	23531.91
781.886	23402.42
782.22	23193.84
782.554	23133.95
782.888	22905.03
783.222	22788.65
783.556	22670.92
783.889	22689.45
784.223	22551.37
784.557	22383.69
784.89	22471.15
785.224	22402.45
785.557	22308.44
785.891	22167.2
786.224	22157.26
786.558	22165.84
786.891	21944.61
787.224	21790.03
787.557	21797.27
787.891	21767.89
788.224	21708.45
788.557	21774.89
788.89	21586.88
789.223	21536.03
789.556	21420.78
789.888	21390.95
790.221	21348.92
790.554	21138.3
790.887	21161.8
791.219	21104.63
791.552	20984.86
791.884	20929.04
792.217	20816.27
792.549	20850.4
792.882	20656.05
793.214	20542.61
793.546	20621.25
793.879	20445.89
794.211	20330.19
794.543	20437.75
794.875	20288.15
795.207	20391.43
795.539	20215.39
795.871	20190.08
796.203	20056.75
796.535	19976.75
796.867	19862.85
797.198	19829.86
797.53	19835.96
797.862	19780.82
798.193	19810.2
798.525	19589.41
798.856	19609.3
799.188	19456.31
799.519	19393.04
799.85	19335.86
800.182	19384
800.513	19245.47
800.844	19083.44
801.175	19183.78
801.506	19185.13
801.837	19007.96
802.168	19043.21
802.499	18923.22
802.83	18875.53
803.161	18798.7
803.491	18750.57
803.822	18843.45
804.153	18689.78
804.483	18514.41
804.814	18522.32
805.145	18560.29
805.475	18532.27
805.805	18343.35
806.136	18436.9
806.466	18227.42
806.796	18337.47
807.126	18122.11
807.457	18078.27
807.787	18104.71
808.117	18033.3
808.447	17860.87
808.777	18036.91
809.107	17940.87
809.436	17970.7
809.766	17835.34
810.096	17752.4
810.426	17781.78
810.755	17586.53
811.085	17609.13
811.414	17566.19
811.744	17514.44
812.073	17425.86
812.403	17504.5
812.732	17431.28
813.061	17370.04
813.39	17176.6
813.719	17224.28
814.049	17307.67
814.378	17302.02
814.707	17077.62
815.036	17217.27
815.365	16938.64
815.693	16864.29
816.022	16837.17
816.351	16825.19
816.68	16703.84
817.008	16805.53
817.337	16744.07
817.665	16609.83
817.994	16676.04
818.322	16644.63
818.651	16544.75
818.979	16461.81
819.307	16550.4
819.636	16504.3
819.964	16406.9
820.292	16447.35
820.62	16449.16
820.948	16339.1
821.276	16434.47
821.604	16372.32
821.932	16422.94
822.259	16397.86
822.587	16302.04
822.915	16319.67
823.243	16363.96
823.57	16260.46
823.898	16285.77
824.225	16235.6
824.553	16239.45
824.88	16351.31
825.207	16392.21
825.535	16317.86
825.862	16311.08
826.189	16284.87
826.516	16366.45
826.843	16251.65
827.17	16403.06
827.497	16397.41
827.824	16273.12
828.151	16296.17
828.478	16276.51
828.805	16326
829.131	16233.57
829.458	16200.35
829.785	16121.03
830.111	16146.79
830.438	16288.03
830.764	16265.43
831.09	16240.58
831.417	16173.23
831.743	16265.21
832.069	16174.59
832.395	16126
832.722	16241.71
833.048	16076.06
833.374	16158.54
833.7	16056.85
834.026	16123.29
834.351	16138.66
834.677	16049.62
835.003	16154.48
835.329	16065.44
835.654	15983.18
835.98	15991.99
836.306	16005.33
836.631	15980.47
836.956	16024.76
837.282	16027.7
837.607	15917.87
837.932	15992.67
838.258	15862.51
838.583	15916.52
838.908	15717.43
839.233	15848.72
839.558	15736.86
839.883	15676.52
840.208	15699.57
840.533	15723.98
840.858	15663.42
841.182	15634.26
841.507	15674.26
841.832	15573.02
842.156	15558.11
842.481	15462.29
842.805	15415.29
843.13	15393.82
843.454	15392.24
843.778	15352.46
844.103	15379.36
844.427	15233.82
844.751	15209.42
845.075	15224.56
845.399	15160.6
845.723	15065.01
846.047	15064.56
846.371	14977.56
846.695	14916.09
847.019	14842.87
847.343	14783.89
847.666	14806.72
847.99	14681.75
848.313	14662.54
848.637	14554.29
848.96	14567.85
849.284	14484.01
849.607	14456.22
849.931	14317.46
850.254	14238.14
850.577	14215.77
850.9	14113.17
851.223	14024.14
851.546	14039.28
851.869	13999.96
852.192	14090.8
852.515	13957.7
852.838	13890.58
853.161	13907.98
853.483	13833.86
853.806	13800.19
854.129	13706.18
854.451	13626.63
854.774	13564.49
855.096	13582.34
855.419	13613.98
855.741	13435.9
856.063	13393.19
856.385	13358.84
856.708	13326.75
857.03	13393.65
857.352	13336.7
857.674	13305.96
857.996	13244.04
858.318	13119.08
858.64	13136.7
858.961	13089.7
859.283	13035.46
859.605	12998.85
859.926	13048.8
860.248	12984.39
860.57	12915.92
860.891	12928.57
861.212	12798.18
861.534	12801.8
861.855	12810.84
862.176	12867.56
862.498	12851.29
862.819	12755.24
863.14	12666.21
863.461	12677.05
863.782	12630.05
864.103	12600.45
864.424	12618.98
864.745	12657.85
865.065	12570.16
865.386	12482.26
865.707	12439.77
866.027	12546.89
866.348	12468.02
866.668	12392.09
866.989	12378.3
867.309	12318.42
867.63	12289.72
867.95	12340.57
868.27	12258.31
868.59	12259.44
868.91	12345.76
869.23	12212.43
869.55	12130.18
869.87	12214.47
870.19	12178.99
870.51	12134.24
870.83	12209.5
871.15	12146.45
871.469	12183.06
871.789	12097.63
872.109	12160.68
872.428	11961.59
872.748	12019.44
873.067	12014.47
873.386	12050.18
873.706	11975.15
874.025	11946.9
874.344	11923.85
874.663	11897.87
874.982	11893.35
875.301	11902.16
875.62	11807.7
875.939	11799.79
876.258	11841.82
876.577	11820.81
876.896	11828.71
877.214	11671.2
877.533	11764.76
877.852	11718.21
878.17	11638.21
878.489	11735.38
878.807	11673.24
879.125	11660.58
879.444	11669.85
879.762	11528.38
880.08	11599.12
880.398	11517.08
880.716	11568.16
881.034	11456.29
881.352	11522.73
881.67	11467.82
881.988	11515.95
882.306	11492.23
882.624	11430.08
882.941	11397.77
883.259	11372.68
883.577	11229.63
883.894	11239.58
884.212	11256.07
884.529	11306.47
884.846	11226.24
885.164	11223.76
885.481	11207.94
885.798	11158.45
886.115	11042.75
886.432	11056.98
886.75	11060.82
887.067	11086.81
887.383	10984.22
887.7	11037.1
888.017	10951.22
888.334	10935.63
888.651	10946.7
888.967	10876.65
889.284	10849.31
889.6	10822.64
889.917	10683.89
890.233	10721.4
890.55	10731.79
890.866	10676.88
891.182	10614.06
891.498	10569.76
891.815	10551.91
892.131	10528.86
892.447	10509.65
892.763	10489.77
893.079	10439.37
893.395	10467.62
893.71	10426.04
894.026	10402.76
894.342	10363.22
894.657	10292.03
894.973	10276.89
895.289	10240.06
895.604	10271.02
895.92	10159.83
896.235	10100.62
896.55	10164.58
896.865	10085.48
897.181	9976.79
897.496	10051.36
897.811	9979.27
898.126	10018.59
898.441	9939.05
898.756	9907.41
899.071	9858.6
899.386	9868.31
899.7	9765.49
900.015	9651.37
900.33	9668.55
900.644	9683.01
900.959	9603.01
901.273	9670.35
901.588	9581.09
901.902	9487.08
902.216	9534.54
902.531	9529.57
902.845	9473.3
903.159	9431.94
903.473	9296.8
903.787	9322.57
904.101	9281.66
904.415	9292.74
904.729	9202.57
905.042	9186.07
905.356	9202.34
905.67	9124.38
905.984	9161.44
906.297	9096.13
906.611	8932.29
906.924	8978.17
907.237	8976.13
907.551	8901.33
907.864	8772.3
908.177	8888
908.491	8811.84
908.804	8780.66
909.117	8746.76
909.43	8717.61
909.743	8664.05
910.056	8640.78
910.368	8569.82
910.681	8544.28
910.994	8544.28
911.307	8522.81
911.619	8439.88
911.932	8394.23
912.244	8345.64
912.557	8344.29
912.869	8289.82
913.181	8291.86
913.494	8322.59
913.806	8210.73
914.118	8218.87
914.43	8108.59
914.742	8156.95
915.054	8064.52
915.366	8100.68
915.678	8011.87
915.99	7969.38
916.302	7990.62
916.613	7926.67
916.925	7927.8
917.236	7869.27
917.548	7833.11
917.859	7790.4
918.171	7722.83
918.482	7701.14
918.794	7679.44
919.105	7598.54
919.416	7564.87
919.727	7633.8
920.038	7570.97
920.349	7495.95
920.66	7470.18
920.971	7463.63
921.282	7483.52
921.593	7406.46
921.903	7331.21
922.214	7290.08
922.525	7325.1
922.835	7250.76
923.146	7194.71
923.456	7231.32
923.767	7165.56
924.077	7184.32
924.387	7024.09
924.697	7028.61
925.008	7093.7
925.318	7055.28
925.628	7045.56
925.938	7003.76
926.248	6929.41
926.558	6895.74
926.867	6902.97
927.177	6812.35
927.487	6787.27
927.796	6744.55
928.106	6749.98
928.416	6754.27
928.725	6737.1
929.034	6650.32
929.344	6697.78
929.653	6657.1
929.962	6590.21
930.271	6573.26
930.581	6462.98
930.89	6465.47
931.199	6468.4
931.508	6428.4
931.817	6475.18
932.125	6336.66
932.434	6379.82
932.743	6339.37
933.051	6234.29
933.36	6276.77
933.669	6218.24
933.977	6224.57
934.286	6208.75
934.594	6163.78
934.902	6122.88
935.21	6094.4
935.519	6122.65
935.827	6057.57
936.135	6049.66
936.443	5954.29
936.751	5983.67
937.059	5990.68
937.367	5914.75
937.674	5868.87
937.982	5874.29
938.29	5846.05
938.597	5832.49
938.905	5801.75
939.213	5772.38
939.52	5734.41
939.827	5739.83
940.135	5729.21
940.442	5641.53
940.749	5696.9
941.056	5654.41
941.363	5615.09
941.67	5588.2
941.977	5554.3
942.284	5527.19
942.591	5506.62
942.898	5479.28
943.205	5461.88
943.511	5412.61
943.818	5413.97
944.125	5391.37
944.431	5401.09
944.738	5367.87
945.044	5326.51
945.35	5296.91
945.657	5232.28
945.963	5214.88
946.269	5202.67
946.575	5221.66
946.881	5199.74
947.187	5210.58
947.493	5129.91
947.799	5136.01
948.105	5114.31
948.41	5058.27
948.716	5056.92
949.022	5065.05
949.327	5055.56
949.633	4974.88
949.938	4969.23
950.244	4921.1
950.549	4891.5
950.854	4894.89
951.16	4911.38
951.465	4875.9
951.77	4817.83
952.075	4788.45
952.38	4769.24
952.685	4830.25
952.99	4750.03
953.294	4716.59
953.599	4671.84
953.904	4657.38
954.209	4655.34
954.513	4630.94
954.818	4606.08
955.122	4612.63
955.426	4565.4
955.731	4503.03
956.035	4537.38
956.339	4528.57
956.643	4560.88
956.948	4452.19
957.252	4438.63
957.556	4436.82
957.86	4404.28
958.163	4413.77
958.467	4405.18
958.771	4399.98
959.075	4375.58
959.378	4316.14
959.682	4307.33
959.985	4262.81
960.289	4294.9
960.592	4241.34
960.896	4224.39
961.199	4217.16
961.502	4207.67
961.805	4161.57
962.108	4192.08
962.411	4144.62
962.714	4083.83
963.017	4082.93
963.32	4072.31
963.623	4100.1
963.926	4098.52
964.228	4067.11
964.531	4032.54
964.833	4030.73
965.136	4002.25
965.438	3972.65
965.741	3934.23
966.043	3871.64
966.345	3952.99
966.648	3889.04
966.95	3896.49
967.252	3835.03
967.554	3796.16
967.856	3844.97
968.158	3790.51
968.46	3752.77
968.761	3745.76
969.063	3759.77
969.365	3744.63
969.666	3733.11
969.968	3725.2
970.269	3702.15
970.571	3689.27
970.872	3677.06
971.174	3602.94
971.475	3616.73
971.776	3603.39
972.077	3596.16
972.378	3615.6
972.679	3585.54
972.98	3544.19
973.281	3552.55
973.582	3516.39
973.883	3484.3
974.183	3514.36
974.484	3486.56
974.785	3467.8
975.085	3465.77
975.386	3427.13
975.686	3431.87
975.986	3400.69
976.287	3400.24
976.587	3301.93
976.887	3348.71
977.187	3330.63
977.487	3335.38
977.787	3298.32
978.087	3252.67
978.387	3277.3
978.687	3288.6
978.987	3296.06
979.286	3244.08
979.586	3204.99
979.885	3154.14
980.185	3182.84
980.484	3156.85
980.784	3194.82
981.083	3146.23
981.382	3142.39
981.682	3119.34
981.981	3136.51
982.28	3110.75
982.579	3080.7
982.878	3034.82
983.177	3060.13
983.475	3075.27
983.774	3022.84
984.073	3013.8
984.372	2990.53
984.67	2987.82
984.969	2982.39
985.267	2933.58
985.566	2957.31
985.864	2918.21
986.162	2930.64
986.461	2900.36
986.759	2861.72
987.057	2851.78
987.355	2865.56
987.653	2844.77
987.951	2863.3
988.249	2831.66
988.547	2824.21
988.844	2802.74
989.142	2798.9
989.44	2787.82
989.737	2765.68
990.035	2726.81
990.332	2745.56
990.63	2711.21
990.927	2678.67
991.224	2687.26
991.521	2695.85
991.819	2675.73
992.116	2669.63
992.413	2628.73
992.71	2618.56
993.006	2602.06
993.303	2618.34
993.6	2602.74
993.897	2608.84
994.193	2593.25
994.49	2561.61
994.787	2491.78
995.083	2538.56
995.379	2491.33
995.676	2521.39
995.972	2524.1
996.268	2479.58
996.565	2476.19
996.861	2487.49
997.157	2453.59
997.453	2436.42
997.749	2430.77
998.044	2409.53
998.34	2384.44
998.636	2405.91
998.932	2380.38
999.227	2367.27
999.523	2375.86
999.818	2337.66
1000.114	2310.55
1000.409	2323.65
1000.704	2309.87
1001	2285.24
1001.295	2281.62
1001.59	2250.89
1001.885	2290.43
1002.18	2228.97
1002.475	2211.11
1002.77	2210.66
1003.065	2179.48
1003.359	2217.44
1003.654	2170.21
1003.949	2145.13
1004.243	2152.58
1004.538	2140.38
1004.832	2140.61
1005.127	2094.96
1005.421	2109.65
1005.715	2123.43
1006.009	2086.15
1006.304	2055.86
1006.598	2057.67
1006.892	2074.39
1007.186	2044.11
1007.48	2028.52
1007.773	2025.36
1008.067	1999.37
1008.361	2008.86
1008.655	2014.74
1008.948	1974.74
1009.242	1958.24
1009.535	1945.58
1009.829	1940.84
1010.122	1922.53
1010.415	1910.56
1010.708	1929.31
1011.001	1897
1011.295	1877.11
1011.588	1859.71
1011.881	1867.17
1012.173	1853.16
1012.466	1851.12
1012.759	1849.54
1013.052	1817.68
1013.344	1836.43
1013.637	1808.41
1013.93	1774.29
1014.222	1791.46
1014.514	1783.1
1014.807	1760.28
1015.099	1757.11
1015.391	1711.92
1015.683	1737
1015.976	1699.04
1016.268	1712.14
1016.56	1713.5
1016.851	1696.1
1017.143	1694.29
1017.435	1651.81
1017.727	1633.95
1018.018	1650.68
1018.31	1647.51
1018.602	1622.66
1018.893	1600.51
1019.185	1587.4
1019.476	1606.16
1019.767	1569.55
1020.058	1574.29
1020.35	1553.05
1020.641	1546.5
1020.932	1538.14
1021.223	1498.36
1021.514	1518.25
1021.804	1486.39
1022.095	1468.76
1022.386	1504.47
1022.677	1472.38
1022.967	1453.17
1023.258	1450.68
1023.548	1478.7
1023.839	1422.66
1024.129	1421.3
1024.419	1408.2
1024.709	1379.27
1025	1392.6
1025.29	1399.84
1025.58	1385.83
1025.87	1365.26
1026.16	1353.06
1026.449	1380.4
1026.739	1366.62
1027.029	1332.04
1027.319	1325.71
1027.608	1295.43
1027.898	1303.79
1028.187	1297.01
1028.477	1246.85
1028.766	1276.22
1029.055	1279.16
1029.344	1268.99
1029.634	1239.39
1029.923	1247.07
1030.212	1253.17
1030.501	1197.81
1030.79	1235.32
1031.078	1216.79
1031.367	1227.86
1031.656	1185.83
1031.945	1173.18
1032.233	1177.24
1032.522	1181.31
1032.81	1149
1033.099	1168.43
1033.387	1158.71
1033.675	1133.18
1033.963	1143.8
1034.251	1139.73
1034.54	1128.88
1034.828	1134.76
1035.116	1092.95
1035.403	1080.52
1035.691	1084.82
1035.979	1086.4
1036.267	1060.41
1036.554	1046.85
1036.842	1051.82
1037.129	1052.27
1037.417	1047.53
1037.704	1042.56
1037.992	1042.11
1038.279	1031.26
1038.566	1026.06
1038.853	1026.06
1039.14	1026.06
