Data from red_cardboard_box_FLMS001491_00022.txt Node
Date: Wed Feb 08 11:31:45 GMT 2017
User: dcchb
Spectrometer: FLMS00149
Trigger mode: 0
Integration Time (sec): 2.000000E-2
Scans to average: 10
Electric dark correction enabled: true
Nonlinearity correction enabled: false
Boxcar width: 0
XAxis mode: Wavelengths
Number of Pixels in Spectrum: 2048
>>>>>Begin Spectral Data<<<<<
341.393	-6.43
341.776	-6.43
342.16	-6.43
342.543	-52.75
342.927	-89.59
343.31	-79.19
343.693	-72.41
344.077	-66.76
344.46	-71.51
344.843	-61.57
345.226	-39.65
345.61	-46.88
345.993	-41
346.376	-8.69
346.759	19.79
347.142	36.28
347.525	35.38
347.908	87.58
348.291	76.51
348.674	98.43
349.057	133.68
349.44	128.03
349.823	135.72
350.206	166.22
350.588	207.81
350.971	214.58
351.354	244.41
351.737	245.54
352.119	255.71
352.502	271.98
352.884	287.13
353.267	283.96
353.65	288.03
354.032	311.31
354.414	311.76
354.797	310.4
355.179	318.08
355.562	327.35
355.944	317.63
356.326	330.97
356.709	328.71
357.091	333.9
357.473	335.03
357.855	357.18
358.238	343.39
358.62	354.02
359.002	354.69
359.384	353.79
359.766	353.56
360.148	374.58
360.53	346.33
360.912	331.42
361.294	335.94
361.676	327.58
362.057	338.88
362.439	328.48
362.821	335.26
363.203	335.26
363.584	349.5
363.966	343.85
364.348	342.72
364.729	332.1
365.111	335.49
365.493	310.63
365.874	317.86
366.256	327.35
366.637	322.38
367.019	320.57
367.4	299.1
367.781	303.85
368.163	329.61
368.544	328.71
368.925	329.38
369.306	341.81
369.688	323.51
370.069	315.83
370.45	294.13
370.831	333.9
371.212	323.73
371.593	326.45
371.974	305.88
372.355	322.38
372.736	340.23
373.117	345.65
373.498	319.89
373.879	304.3
374.26	335.71
374.641	330.97
375.021	311.08
375.402	335.49
375.783	324.41
376.163	343.17
376.544	330.51
376.925	339.78
377.305	328.93
377.686	355.37
378.066	321.7
378.447	349.5
378.827	354.69
379.208	338.65
379.588	318.08
379.968	325.77
380.349	353.11
380.729	326.45
381.109	340.68
381.489	334.13
381.87	335.71
382.25	331.64
382.63	353.11
383.01	342.94
383.39	341.36
383.77	365.54
384.15	332.55
384.53	353.11
384.91	346.33
385.29	339.1
385.67	364.64
386.049	350.85
386.429	336.39
386.809	373.22
387.189	349.27
387.568	351.08
387.948	360.57
388.328	344.98
388.707	347.69
389.087	350.17
389.466	380.23
389.846	344.52
390.225	362.38
390.605	367.58
390.984	389.72
391.363	360.34
391.743	363.28
392.122	372.77
392.501	365.32
392.881	374.35
393.26	390.4
393.639	393.56
394.018	354.24
394.397	376.16
394.776	361.25
395.155	378.42
395.534	383.17
395.913	364.19
396.292	408.25
396.671	379.1
397.05	392.66
397.429	394.69
397.808	396.05
398.186	368.48
398.565	389.72
398.944	388.37
399.323	387.01
399.701	394.92
400.08	383.17
400.458	411.64
400.837	398.31
401.215	379.55
401.594	382.04
401.972	375.94
402.351	381.36
402.729	402.6
403.107	396.27
403.486	387.69
403.864	379.1
404.242	413.9
404.62	403.73
404.999	401.47
405.377	410.06
405.755	407.8
406.133	402.15
406.511	414.35
406.889	420
407.267	433.11
407.645	441.25
408.023	413.9
408.401	404.86
408.779	446.44
409.156	429.72
409.534	434.01
409.912	439.66
410.29	436.95
410.667	424.52
411.045	440.12
411.422	445.77
411.8	438.08
412.178	432.21
412.555	456.16
412.933	468.14
413.31	474.01
413.687	449.15
414.065	471.08
414.442	466.33
414.819	451.87
415.197	467.91
415.574	493.45
415.951	488.93
416.328	477.63
416.705	493
417.082	471.3
417.46	495.93
417.837	468.59
418.214	459.78
418.591	484.63
418.967	509.94
419.344	481.02
419.721	483.96
420.098	500.45
420.475	517.85
420.852	503.16
421.228	506.1
421.605	509.72
421.982	520.57
422.358	523.73
422.735	519.44
423.111	528.47
423.488	538.87
423.864	523.05
424.241	534.8
424.617	521.02
424.994	527.57
425.37	512.66
425.746	532.77
426.123	545.2
426.499	519.21
426.875	544.75
427.251	559.89
427.627	537.51
428.003	537.29
428.379	551.53
428.756	552.2
429.132	558.98
429.507	584.29
429.883	550.17
430.259	588.81
430.635	569.15
431.011	576.61
431.387	576.16
431.763	576.16
432.138	579.55
432.514	609.38
432.89	607.79
433.265	619.32
433.641	599.89
434.016	616.61
434.392	621.13
434.767	641.69
435.143	617.74
435.518	620.45
435.894	628.59
436.269	624.52
436.644	642.6
437.02	655.25
437.395	660.9
437.77	657.96
438.145	671.52
438.52	657.28
438.895	656.61
439.271	679.21
439.646	686.21
440.021	669.71
440.395	676.95
440.77	687.79
441.145	695.25
441.52	693.44
441.895	685.31
442.27	681.01
442.645	707.91
443.019	711.29
443.394	699.54
443.769	708.13
444.143	697.51
444.518	709.71
444.892	703.39
445.267	693.44
445.641	706.32
446.016	730.5
446.39	741.8
446.764	718.3
447.139	752.2
447.513	733.67
447.887	748.13
448.262	729.15
448.636	722.82
449.01	751.52
449.384	740.22
449.758	753.33
450.132	765.08
450.506	781.8
450.88	760.79
451.254	748.36
451.628	776.6
452.002	804.85
452.376	756.94
452.75	760.56
453.123	796.26
453.497	781.12
453.871	794.91
454.244	793.78
454.618	814.57
454.992	822.93
455.365	824.06
455.739	821.35
456.112	852.08
456.486	841.23
456.859	852.08
457.232	861.8
457.606	839.65
457.979	876.71
458.352	889.14
458.725	885.53
459.099	870.84
459.472	907.22
459.845	893.89
460.218	898.86
460.591	912.19
460.964	901.12
461.337	932.98
461.71	915.58
462.083	943.83
462.456	942.7
462.829	951.97
463.201	933.89
463.574	958.75
463.947	965.53
464.32	962.59
464.692	975.47
465.065	986.32
465.438	991.97
465.81	1003.26
466.183	993.77
466.555	1014.11
466.928	1036.26
467.3	1020.67
467.672	1061.79
468.045	1070.16
468.417	1064.05
468.789	1096.6
469.161	1100.66
469.534	1113.54
469.906	1122.13
470.278	1131.17
470.65	1122.13
471.022	1161.9
471.394	1162.58
471.766	1154.67
472.138	1180.66
472.51	1226.99
472.882	1201
473.253	1212.75
473.625	1214.11
473.997	1264.05
474.369	1263.6
474.74	1270.15
475.112	1278.74
475.484	1324.16
475.855	1302.92
476.227	1332.97
476.598	1350.6
476.97	1339.3
477.341	1380.2
477.713	1414.1
478.084	1417.72
478.455	1428.11
478.827	1414.33
479.198	1475.79
479.569	1459.3
479.94	1507.43
480.311	1522.12
480.682	1535.23
481.053	1574.1
481.424	1589.69
481.795	1608.45
482.166	1618.84
482.537	1642.34
482.908	1692.74
483.279	1683.92
483.65	1715.34
484.021	1724.15
484.391	1745.17
484.762	1772.06
485.133	1787.88
485.503	1777.48
485.874	1833.53
486.244	1843.47
486.615	1859.51
486.985	1892.73
487.356	1922.11
487.726	1932.73
488.097	1968.89
488.467	1967.31
488.837	2034.42
489.207	2020.19
489.578	2036.01
489.948	2062.9
490.318	2073.29
490.688	2111.03
491.058	2123.24
491.428	2137.92
491.798	2170.69
492.168	2214.98
492.538	2222.67
492.908	2229.9
493.278	2252.27
493.648	2273.29
494.017	2302.44
494.387	2305.6
494.757	2363.68
495.126	2331.37
495.496	2389.22
495.866	2386.05
496.235	2400.74
496.605	2455.66
496.974	2446.16
497.344	2473.96
497.713	2471.93
498.082	2507.63
498.452	2508.31
498.821	2493.62
499.19	2544.47
499.559	2590.79
499.928	2570
500.298	2656.78
500.667	2622.66
501.036	2632.37
501.405	2660.62
501.774	2650.45
502.143	2690
502.512	2703.78
502.88	2737.68
503.249	2694.75
503.618	2765.25
503.987	2776.78
504.356	2778.59
504.724	2837.57
505.093	2833.05
505.462	2815.87
505.83	2863.33
506.199	2827.62
506.567	2889.09
506.936	2942.87
507.304	2906.94
507.672	3003.21
508.041	3021.06
508.409	2983.33
508.777	3081.4
509.145	3049.54
509.514	3035.3
509.882	3061.06
510.25	3081.85
510.618	3140.16
510.986	3126.82
511.354	3175.86
511.722	3176.09
512.09	3221.51
512.458	3213.83
512.826	3244.34
513.193	3259.02
513.561	3287.95
513.929	3332.92
514.297	3318.01
514.664	3355.52
515.032	3388.51
515.4	3396.87
515.767	3430.32
516.135	3413.37
516.502	3439.13
516.869	3487.95
517.237	3527.27
517.604	3478
517.972	3547.15
518.339	3577.21
518.706	3586.93
519.073	3583.08
519.44	3666.92
519.808	3718.67
520.175	3666.7
520.542	3752.8
520.909	3765
521.276	3749.63
521.643	3786.24
522.009	3844.55
522.376	3861.49
522.743	3863.75
523.11	3930.42
523.477	3944.2
523.843	4007.93
524.21	4024.43
524.577	4050.42
524.943	4113.24
525.31	4093.58
525.676	4132
526.043	4145.55
526.409	4199.11
526.776	4221.49
527.142	4265.55
527.508	4253.35
527.874	4290.41
528.241	4398.66
528.607	4362.95
528.973	4393.01
529.339	4435.04
529.705	4449.28
530.071	4489.5
530.437	4521.82
530.803	4513.68
531.169	4568.14
531.535	4574.02
531.901	4627.35
532.267	4649.04
532.632	4685.65
532.998	4730.85
533.364	4694.24
533.73	4716.61
534.095	4758.19
534.461	4802.94
534.826	4843.84
535.192	4826.44
535.557	4897.17
535.923	4941.24
536.288	4941.69
536.653	4937.17
537.019	4966.78
537.384	4932.65
537.749	4977.17
538.114	5018.53
538.479	5048.13
538.845	5116.6
539.21	5064.85
539.575	5123.38
539.94	5153.66
540.305	5167.9
540.67	5175.13
541.034	5198.63
541.399	5255.58
541.764	5241.35
542.129	5310.95
542.494	5302.81
542.858	5362.47
543.223	5335.13
543.587	5378.74
543.952	5399.53
544.316	5439.53
544.681	5456.93
545.045	5476.82
545.41	5547.1
545.774	5528.8
546.138	5531.06
546.503	5550.94
546.867	5573.54
547.231	5641.79
547.595	5634.56
547.959	5707.1
548.324	5693.08
548.688	5778.73
549.052	5756.13
549.416	5827.77
549.779	5800.43
550.143	5879.07
550.507	5908.45
550.871	5902.8
551.235	5939.18
551.599	5995
551.962	5991.38
552.326	6072.74
552.689	6093.53
553.053	6119.29
553.417	6107.99
553.78	6216.46
554.143	6242.67
554.507	6237.03
554.87	6319.96
555.234	6375.1
555.597	6372.84
555.96	6396.57
556.323	6476.12
556.686	6505.27
557.05	6533.51
557.413	6602.44
557.776	6669.78
558.139	6664.36
558.502	6710.23
558.865	6762.66
559.228	6825.71
559.59	6885.14
559.953	6866.84
560.316	7036.55
560.679	6970.34
561.041	7087.85
561.404	7105.93
561.767	7176.89
562.129	7208.53
562.492	7330.33
562.854	7337.34
563.217	7401.51
563.579	7475.41
563.941	7518.8
564.304	7668.85
564.666	7702.98
565.028	7690.77
565.39	7804.89
565.753	7896.87
566.115	7940.03
566.477	8091.89
566.839	8081.5
567.201	8182.96
567.563	8277.88
567.925	8327.37
568.287	8359
568.648	8473.8
569.01	8531.43
569.372	8645.55
569.734	8633.12
570.095	8754.7
570.457	8867.92
570.819	8926.9
571.18	8963.51
571.542	9073.33
571.903	9110.17
572.265	9254.35
572.626	9319.43
572.987	9459.99
573.349	9508.13
573.71	9630.61
574.071	9734.79
574.432	9771.62
574.794	9969.36
575.155	10000.54
575.516	10101.78
575.877	10207.77
576.238	10317.37
576.599	10404.6
576.96	10515.33
577.32	10695.44
577.681	10794.65
578.042	10923.68
578.403	11033.96
578.763	11119.38
579.124	11321.86
579.485	11445.93
579.845	11663.78
580.206	11756.88
580.566	11781.74
580.927	11951
581.287	12119.36
581.648	12309.18
582.008	12479.35
582.368	12617.65
582.728	12836.63
583.089	12894.7
583.449	13113.23
583.809	13245.65
584.169	13606.1
584.529	13705.53
584.889	13997.27
585.249	14113.43
585.609	14301.22
585.969	14583.02
586.329	14801.55
586.688	15052.16
587.048	15259.39
587.408	15448.99
587.768	15759.49
588.127	16054.62
588.487	16248.29
588.846	16627.26
589.206	16808.27
589.565	17091.2
589.925	17499.33
590.284	17762.6
590.643	17990.61
591.003	18382.92
591.362	18722.57
591.721	19046.86
592.08	19299.05
592.44	19692.49
592.799	20169.99
593.158	20304.9
593.517	20660.83
593.876	21051.33
594.235	21369.28
594.593	21852.43
594.952	22237.51
595.311	22538.07
595.67	22882.69
596.029	23426.18
596.387	23831.14
596.746	24258.02
597.104	24566.03
597.463	24818.01
597.822	25295.51
598.18	25597.42
598.538	25924.87
598.897	26495.25
599.255	26572.54
599.613	27516.69
599.972	27574.09
600.33	28199.61
600.688	28441.87
601.046	28907.62
601.404	29503.76
601.762	29820.81
602.12	30453.11
602.478	30635.03
602.836	31061.68
603.194	31256.71
603.552	31744.15
603.91	32008.33
604.268	32555.2
604.625	32804.69
604.983	33370.1
605.341	33527.61
605.698	34094.37
606.056	34490.52
606.413	34818.65
606.771	35267.67
607.128	35631.96
607.485	35781.33
607.843	36181.32
608.2	36518.94
608.557	37021.53
608.914	37160.96
609.272	37542.42
609.629	37892.92
609.986	38353.69
610.343	38498.1
610.7	38900.12
611.057	39182.37
611.414	39329.71
611.771	39578.97
612.127	40094.44
612.484	40350.03
612.841	40567.65
613.198	40633.41
613.554	40891.03
613.911	41267.29
614.267	41668.41
614.624	41722.87
614.98	42007.38
615.337	42182.07
615.693	42357.66
616.05	42632
616.406	43024.08
616.762	43060.92
617.118	43293.23
617.475	43476.05
617.831	43688.47
618.187	43905.19
618.543	44103.15
618.899	44388.34
619.255	44423.82
619.611	44496.58
619.967	44847.31
620.323	44984.48
620.678	44947.42
621.034	45150.35
621.39	45210.69
621.746	45273.06
622.101	45885.47
622.457	45545.82
622.812	45768.64
623.168	45983.32
623.523	45961.63
623.879	46242.53
624.234	46157.56
624.589	46388.96
624.945	46412.01
625.3	46585.12
625.655	46681.61
626.01	46746.02
626.365	46900.36
626.72	46664.44
627.075	46879.57
627.43	46892.23
627.785	47014.71
628.14	47085.67
628.495	47244.31
628.85	47293.57
629.205	47212.67
629.559	47404.3
629.914	47402.5
630.269	47442.72
630.623	47424.64
630.978	47409.28
631.332	47703.28
631.687	47692.66
632.041	47561.59
632.396	47802.03
632.75	47634.13
633.104	47708.25
633.459	47539.44
633.813	47668.48
634.167	47670.96
634.521	47785.09
634.875	47635.26
635.229	47709.61
635.583	47552.32
635.937	47623.28
636.291	47657.18
636.645	47688.36
636.999	47673.9
637.352	47842.48
637.706	47593
638.06	47788.7
638.413	47841.13
638.767	47616.5
639.121	47828.25
639.474	47467.81
639.828	47671.64
640.181	47773.56
640.534	47839.55
640.888	47698.99
641.241	47519.33
641.594	47688.36
641.947	47812.43
642.301	47726.1
642.654	47740.57
643.007	47761.81
643.36	47776.5
643.713	47701.7
644.066	47806.78
644.419	47539.67
644.771	47277.98
645.124	47017.65
645.477	46906.46
645.83	46703.08
646.182	46596.87
646.535	46594.61
646.888	46705.57
647.24	46628.96
647.593	46679.58
647.945	46597.32
648.298	46623.31
648.65	46539.24
649.002	46391.9
649.355	46569.98
649.707	46466.7
650.059	46616.98
650.411	47185.1
650.763	47099.45
651.115	47597.29
651.467	47359.33
651.819	47350.52
652.171	47416.28
652.523	47376.28
652.875	47339.45
653.227	47296.96
653.578	47520.23
653.93	47373.8
654.282	47178.1
654.633	47222.61
654.985	47295.61
655.337	47203.41
655.688	47272.33
656.039	47569.27
656.391	47200.92
656.742	47186.01
657.094	47270.3
657.445	47354.59
657.796	47254.93
658.147	47234.14
658.498	47171.77
658.849	47235.95
659.2	47201.82
659.551	47157.53
659.902	47214.93
660.253	47270.52
660.604	47276.85
660.955	46991.43
661.306	47213.57
661.656	47150.07
662.007	47199.34
662.358	47220.35
662.708	47084.99
663.059	47147.81
663.409	46963.86
663.76	47234.37
664.11	47175.61
664.461	47267.58
664.811	47218.55
665.161	47269.39
665.511	47033.24
665.862	47141.94
666.212	47332.89
666.562	47296.51
666.912	47113.24
667.262	47044.54
667.612	47117.31
667.962	47136.97
668.312	46948.95
668.662	47347.81
669.011	47211.99
669.361	47260.58
669.711	47123.86
670.06	47023.52
670.41	46943.07
670.76	46881.15
671.109	47062.17
671.459	46932
671.808	46938.33
672.157	47113.92
672.507	46633.93
672.856	46756.64
673.205	46780.14
673.554	46923.41
673.904	46846.13
674.253	46998.89
674.602	46795.05
674.951	46308.51
675.3	46143.32
675.649	46751.67
675.998	46762.51
676.346	46778.56
676.695	46776.3
677.044	46522.52
677.393	46652.69
677.741	46688.62
678.09	46622.4
678.438	46454.5
678.787	46482.75
679.135	46518
679.484	46249.08
679.832	46468.28
680.181	46322.75
680.529	46384.44
680.877	46251.79
681.225	46220.15
681.573	46501.96
681.922	46131.34
682.27	45974.51
682.618	46024
682.966	46013.38
683.314	46032.36
683.661	46009.54
684.009	45632.6
684.357	45621.3
684.705	45591.7
685.053	45663.33
685.4	45588.98
685.748	45384.24
686.095	45387.18
686.443	45285.94
686.79	45204.81
687.138	45368.2
687.485	45236.9
687.832	45141.99
688.18	45114.2
688.527	44970.24
688.874	44812.96
689.221	44701.78
689.568	44627.88
689.915	44563.7
690.262	44675.79
690.609	44525.96
690.956	44323.48
691.303	44300.88
691.65	44084.17
691.997	44237.38
692.344	43871.74
692.69	43833.55
693.037	43813.44
693.383	43612.54
693.73	43709.26
694.077	43418.87
694.423	43453
694.769	43419.55
695.116	43242.15
695.462	43133.91
695.808	43197.64
696.155	43093.68
696.501	42864.99
696.847	42926.23
697.193	42446.69
697.539	42711.09
697.885	42418.22
698.231	42411.89
698.577	42382.97
698.923	42382.06
699.269	41947.72
699.614	41849.65
699.96	41792.7
700.306	41864.56
700.651	41671.8
700.997	41598.81
701.342	41472.03
701.688	41411.02
702.033	41248.76
702.379	41194.07
702.724	40991.59
703.069	41179.61
703.415	40834.31
703.76	40746.4
704.105	40772.39
704.45	40651.04
704.795	40574.65
705.14	40505.5
705.485	40438.84
705.83	40134.21
706.175	40342.57
706.52	40227.32
706.865	40152.74
707.209	39985.97
707.554	39872.53
707.899	40001.34
708.243	39693.32
708.588	39728.8
708.932	39385.98
709.277	39493.33
709.621	39423.5
709.966	39183.73
710.31	39165.65
710.654	39040
710.998	39156.61
711.342	39137.86
711.687	38874.13
712.031	38858.09
712.375	38753.46
712.719	38800.69
713.063	38673.69
713.407	38874.81
713.75	38533.58
714.094	38461.04
714.438	38463.3
714.782	38427.59
715.125	38212.46
715.469	38370.64
715.812	38074.38
716.156	37821.96
716.499	37908.96
716.843	37971.78
717.186	37784.22
717.53	37982.63
717.873	37854.95
718.216	37741.73
718.559	37630.32
718.902	37425.81
719.246	37433.27
719.589	37277.11
719.932	37193.5
720.275	37271.69
720.617	37153.95
720.96	37074.18
721.303	37174.74
721.646	37235.08
721.989	36909.67
722.331	37050.68
722.674	36937.46
723.016	36810.01
723.359	36831.48
723.701	36836.22
724.044	36587.41
724.386	36384.71
724.729	36567.98
725.071	36631.03
725.413	36538.6
725.755	36434.88
726.097	36312.17
726.439	36214.54
726.782	36087.99
727.124	36202.34
727.465	36069.69
727.807	36154.43
728.149	35931.16
728.491	35726.65
728.833	35970.03
729.175	35765.29
729.516	35752.41
729.858	35739.53
730.199	35781.56
730.541	35589.47
730.882	35550.38
731.224	35731.17
731.565	35301.57
731.906	35382.02
732.248	35470.15
732.589	35255.47
732.93	35333.66
733.271	35100.45
733.612	35205.3
733.953	35261.57
734.294	35001.47
734.635	35012.54
734.976	35039.88
735.317	34842.15
735.658	34957.85
735.999	34871.53
736.339	34812.32
736.68	34849.38
737.021	34762.15
737.361	34594.47
737.702	34773
738.042	34622.72
738.383	34539.56
738.723	34562.16
739.063	34453.01
739.404	34505.21
739.744	34386.34
740.084	34252.79
740.424	34339.56
740.764	34302.95
741.104	34469.28
741.444	34297.76
741.784	34064.32
742.124	34154.48
742.464	34120.59
742.804	34074.49
743.143	33983.87
743.483	33965.56
743.823	33837.43
744.162	33789.07
744.502	33762.4
744.841	33601.96
745.181	33742.06
745.52	33655.97
745.86	33621.62
746.199	33675.4
746.538	33473.37
746.877	33515.63
747.216	33535.97
747.556	33432.92
747.895	33407.38
748.234	33189.08
748.573	33240.84
748.911	33200.84
749.25	33166.71
749.589	33072.48
749.928	33132.36
750.267	33192.7
750.605	32902.99
750.944	32910.45
751.283	32764.24
751.621	32936.66
751.96	32681.08
752.298	32685.37
752.636	32655.09
752.975	32620.06
753.313	32405.38
753.651	32523.34
753.989	32226.17
754.327	32403.57
754.666	32187.53
755.004	32252.61
755.342	32176.23
755.679	32134.65
756.017	31960.42
756.355	31986.63
756.693	31890.59
757.031	31914.99
757.368	31672.74
757.706	31703.93
758.044	31512.52
758.381	31532.41
758.719	31444.72
759.056	31490.15
759.394	31327.89
759.731	31127.22
760.068	31135.13
760.405	31077.28
760.743	30956.38
761.08	31087.9
761.417	30912.99
761.754	30820.56
762.091	30764.97
762.428	30532.43
762.765	30327.47
763.102	30552.09
763.438	30398.2
763.775	30278.88
764.112	30272.78
764.449	30172.67
764.785	30049.28
765.122	29946.46
765.458	29725.67
765.795	29760.93
766.131	29618.11
766.467	29610.42
766.804	29384.89
767.14	29300.37
767.476	29343.31
767.812	29092.02
768.148	29248.17
768.485	29092.02
768.821	28832.59
769.157	28862.87
769.492	28769.31
769.828	28845.02
770.164	28506.04
770.5	28489.77
770.836	28433.73
771.171	28312.83
771.507	28218.14
771.842	28038.26
772.178	28082.1
772.513	27946.51
772.849	27879.62
773.184	27682.11
773.519	27741.09
773.855	27642.79
774.19	27618.38
774.525	27282.57
774.86	27438.05
775.195	27307.88
775.53	27131.39
775.865	26980.66
776.2	26894.79
776.535	26734.57
776.87	26714.9
777.205	26467.45
777.539	26467
777.874	26451.63
778.209	26327.12
778.543	26245.99
778.878	26095.71
779.212	26118.76
779.547	25914.25
779.881	26107.46
780.215	25811.43
780.55	25930.29
780.884	25700.02
781.218	25621.15
781.552	25602.17
781.886	25437.42
782.22	25304.77
782.554	25242.85
782.888	25102.97
783.222	25090.99
783.556	24824.33
783.889	24802.64
784.223	24630.89
784.557	24536.21
784.89	24551.35
785.224	24452.59
785.557	24260.05
785.891	24341.63
786.224	24204.46
786.558	24241.3
786.891	23986.84
787.224	23915.88
787.557	23931.25
787.891	23857.35
788.224	23820.74
788.557	23762.67
788.89	23647.87
789.223	23680.41
789.556	23455.78
789.888	23441.32
790.221	23408.33
790.554	23130.82
790.887	23113.64
791.219	23018.5
791.552	23005.17
791.884	22830.49
792.217	22814.44
792.549	22734.67
792.882	22524.73
793.214	22507.11
793.546	22512.08
793.879	22381.69
794.211	22215.59
794.543	22263.27
794.875	22133.33
795.207	22170.17
795.539	22197.28
795.871	22142.82
796.203	21916.16
796.535	21779.22
796.867	21807.92
797.198	21726.11
797.53	21691.76
797.862	21468.49
798.193	21601.82
798.525	21504.87
798.856	21390.75
799.188	21242.28
799.519	21192.56
799.85	21097.2
800.182	21120.7
800.513	21090.19
800.844	20888.39
801.175	20998.67
801.506	20965.9
801.837	20901.05
802.168	20786.25
802.499	20661.05
802.83	20547.38
803.161	20510.77
803.491	20481.85
803.822	20478.68
804.153	20409.53
804.483	20320.72
804.814	20150.78
805.145	20170.9
805.475	20149.2
805.805	20024.23
806.136	20007.28
806.466	20034.63
806.796	19956.66
807.126	19880.96
807.457	19776.78
807.787	19833.96
808.117	19638.48
808.447	19539.95
808.777	19623.57
809.107	19584.24
809.436	19475.77
809.766	19517.13
810.096	19431.71
810.426	19349.45
810.755	19428.99
811.085	19332.05
811.414	19276.46
811.744	19098.61
812.073	19026.75
812.403	19092.05
812.732	19038.04
813.061	18939.74
813.39	18858.84
813.719	18747.43
814.049	18862.68
814.378	18728
814.707	18635.8
815.036	18609.13
815.365	18546.31
815.693	18424.95
816.022	18431.05
816.351	18331.4
816.68	18294.34
817.008	18355.58
817.337	18153.55
817.665	18147.67
817.994	18243.72
818.322	18155.36
818.651	18070.84
818.979	18020.44
819.307	18085.3
819.636	18112.19
819.964	18008.69
820.292	18004.4
820.62	17890.73
820.948	17902.48
821.276	17954.23
821.604	17890.96
821.932	17842.82
822.259	17921.01
822.587	17770.96
822.915	17883.27
823.243	17928.7
823.57	17796.5
823.898	17928.24
824.225	17765.54
824.553	17679.89
824.88	17833.56
825.207	17901.8
825.535	17715.82
825.862	17805.31
826.189	17788.59
826.516	17845.53
826.843	17852.09
827.17	17852.31
827.497	17841.01
827.824	17805.76
828.151	17799.43
828.478	17682.37
828.805	17868.36
829.131	17715.37
829.458	17661.81
829.785	17623.39
830.111	17751.75
830.438	17824.74
830.764	17758.53
831.09	17722.37
831.417	17659.78
831.743	17652.54
832.069	17718.31
832.395	17642.38
832.722	17757.63
833.048	17608.03
833.374	17656.84
833.7	17582.94
834.026	17636.5
834.351	17557.63
834.677	17597.86
835.003	17631.98
835.329	17643.96
835.654	17567.12
835.98	17412.32
836.306	17498.42
836.631	17442.61
836.956	17422.49
837.282	17413.23
837.607	17277.64
837.932	17324.42
838.258	17408.48
838.583	17279.67
838.908	17248.26
839.233	17213.69
839.558	17243.29
839.883	17173.23
840.208	17117.87
840.533	17128.72
840.858	17089.62
841.182	17093.01
841.507	17009.17
841.832	16926.24
842.156	16938.89
842.481	17008.04
842.805	17013.01
843.13	16841.72
843.454	16832.23
843.778	16761.49
844.103	16686.47
844.427	16700.93
844.751	16757.65
845.075	16616.64
845.399	16594.72
845.723	16383.65
846.047	16469.52
846.371	16276.31
846.695	16268.4
847.019	16255.52
847.343	16080.61
847.666	16081.29
847.99	15998.35
848.313	16052.13
848.637	15857.56
848.96	15840.84
849.284	15805.81
849.607	15732.37
849.931	15667.96
850.254	15470
850.577	15488.99
850.9	15405.15
851.223	15353.17
851.546	15232.49
851.869	15193.17
852.192	15223.91
852.515	15130.12
852.838	15021.88
853.161	15157.92
853.483	14961.77
853.806	14919.51
854.129	14918.83
854.451	14811.49
854.774	14794.31
855.096	14731.04
855.419	14765.39
855.741	14660.53
856.063	14556.81
856.385	14560.2
856.708	14506.86
857.03	14437.04
857.352	14529.46
857.674	14485.4
857.996	14413.08
858.318	14268
858.64	14336.7
858.961	14219.41
859.283	14257.83
859.605	14159.53
859.926	14198.62
860.248	14156.59
860.57	13975.13
860.891	14027.1
861.212	13971.74
861.534	13941.68
861.855	13944.17
862.176	13927.22
862.498	13878.63
862.819	13931.06
863.14	13808.35
863.461	13790.5
863.782	13674.34
864.103	13714.12
864.424	13679.77
864.745	13706.21
865.065	13686.09
865.386	13605.42
865.707	13675.25
866.027	13603.16
866.348	13620.79
866.668	13482.71
866.989	13450.17
867.309	13344.41
867.63	13461.92
867.95	13510.96
868.27	13328.59
868.59	13461.92
868.91	13336.5
869.23	13398.87
869.55	13203.17
869.87	13328.59
870.19	13212.89
870.51	13212.89
870.83	13303.73
871.15	13220.34
871.469	13161.36
871.789	13249.72
872.109	13060.12
872.428	13109.16
872.748	13110.06
873.067	13098.31
873.386	13019.9
873.706	13090.86
874.025	13022.38
874.344	12988.49
874.663	12976.96
874.982	12914.36
875.301	13015.38
875.62	12948.49
875.939	12857.19
876.258	12927.02
876.577	12796.4
876.896	12842.95
877.214	12762.5
877.533	12782.84
877.852	12705.78
878.17	12781.94
878.489	12779.45
878.807	12765.22
879.125	12704.2
879.444	12701.04
879.762	12568.38
880.08	12675.73
880.398	12561.83
880.716	12576.29
881.034	12565.22
881.352	12521.15
881.67	12471.66
881.988	12423.76
882.306	12510.31
882.624	12493.81
882.941	12390.08
883.259	12328.62
883.577	12291.56
883.894	12293.82
884.212	12206.81
884.529	12214.04
884.846	12243.65
885.164	12214.95
885.481	12085.91
885.798	12134.72
886.115	12053.6
886.432	12028.96
886.75	11986.03
887.067	12045.46
887.383	12037.32
887.7	11937.21
888.017	11844.11
888.334	11898.12
888.651	11872.58
888.967	11874.62
889.284	11728.63
889.6	11739.03
889.917	11646.15
890.233	11740.38
890.55	11618.58
890.866	11667.16
891.182	11498.36
891.498	11577.45
891.815	11493.16
892.131	11440.28
892.447	11468.07
892.763	11390.11
893.079	11426.27
893.395	11366.16
893.71	11355.76
894.026	11317.34
894.342	11267.85
894.657	11122.09
894.973	11126.39
895.289	11130.68
895.604	11211.13
895.92	11078.03
896.235	10990.12
896.55	11020.18
896.865	10954.19
897.181	10934.08
897.496	10920.74
897.811	10885.04
898.126	10813.18
898.441	10732.95
898.756	10789.9
899.071	10747.64
899.386	10721.65
899.7	10647.53
900.015	10572.96
900.33	10554.2
900.644	10481.66
900.959	10466.29
901.273	10432.17
901.588	10452.73
901.902	10434.88
902.216	10339.52
902.531	10314.88
902.845	10261.55
903.159	10209.58
903.473	10189.92
903.787	10113.76
904.101	10030.6
904.415	10120.54
904.729	10007.1
905.042	10050.71
905.356	10029.02
905.67	10002.35
905.984	9958.28
906.297	9824.05
906.611	9760.77
906.924	9723.49
907.237	9712.64
907.551	9786.54
907.864	9658.18
908.177	9657.73
908.491	9655.01
908.804	9544.06
909.117	9506.32
909.43	9458.86
909.743	9500.67
910.056	9401.24
910.368	9362.37
910.681	9278.08
910.994	9230.17
911.307	9247.57
911.619	9188.13
911.932	9251.18
912.244	9076.27
912.557	9087.12
912.869	9016.16
913.181	9059.1
913.494	9060.45
913.806	8946.11
914.118	8870.18
914.43	8814.81
914.742	8800.57
915.054	8776.62
915.366	8703.18
915.678	8773.91
915.99	8729.84
916.302	8634.02
916.613	8610.97
916.925	8517.19
917.236	8575.49
917.548	8507.25
917.859	8478.32
918.171	8414.37
918.482	8352
918.794	8393.35
919.105	8350.64
919.416	8231.55
919.727	8220.48
920.038	8173.92
920.349	8139.12
920.66	8155.84
920.971	8106.13
921.282	8144.32
921.593	8004.89
921.903	7997.66
922.214	7913.59
922.525	7920.82
922.835	7914.72
923.146	7862.07
923.456	7818.45
923.767	7845.12
924.077	7827.49
924.387	7691
924.697	7711.56
925.008	7650.32
925.318	7579.81
925.628	7584.56
925.938	7615.75
926.248	7533.26
926.558	7453.72
926.867	7450.78
927.177	7424.34
927.487	7401.06
927.796	7306.6
928.106	7259.37
928.416	7284.46
928.725	7291.69
929.034	7253.04
929.344	7237.9
929.653	7262.99
929.962	7133.5
930.271	7150.45
930.581	7100.51
930.89	7052.82
931.199	6963.56
931.508	6988.19
931.817	6963.56
932.125	6942.32
932.434	6911.58
932.743	6877.01
933.051	6769.21
933.36	6824.13
933.669	6773.28
933.977	6718.14
934.286	6692.61
934.594	6653.06
934.902	6601.54
935.21	6650.35
935.519	6624.13
935.827	6623.68
936.135	6517.47
936.443	6504.14
936.751	6463.01
937.059	6453.52
937.367	6425.95
937.674	6413.74
937.982	6377.13
938.29	6388.89
938.597	6390.69
938.905	6316.35
939.213	6238.38
939.52	6222.11
939.827	6173.98
940.135	6157.03
940.442	6132.62
940.749	6118.38
941.056	6117.93
941.363	6080.87
941.67	6047.88
941.977	6032.74
942.284	5966.52
942.591	5983.25
942.898	5968.33
943.205	5875
943.511	5862.8
943.818	5890.82
944.125	5833.65
944.431	5794.78
944.738	5795.23
945.044	5765.4
945.35	5740.54
945.657	5635.01
945.963	5673.2
946.269	5652.86
946.575	5633.88
946.881	5609.47
947.187	5570.6
947.493	5546.2
947.799	5551.85
948.105	5540.09
948.41	5474.33
948.716	5484.5
949.022	5402.02
949.327	5454
949.633	5436.59
949.938	5379.65
950.244	5409.02
950.549	5313.21
950.854	5235.92
951.16	5214.23
951.465	5239.09
951.77	5245.64
952.075	5214
952.38	5207.45
952.685	5186.88
952.99	5109.6
953.294	5112.08
953.599	5106.89
953.904	5036.38
954.209	5016.04
954.513	5039.32
954.818	5043.84
955.122	5008.36
955.426	4967.68
955.731	4946.21
956.035	4941.47
956.339	4894.91
956.643	4925.42
956.948	4848.14
957.252	4856.5
957.556	4861.92
957.86	4830.28
958.163	4809.04
958.467	4768.14
958.771	4784.41
959.075	4711.87
959.378	4670.74
959.682	4636.84
959.985	4663.96
960.289	4658.08
960.592	4565.43
960.896	4558.43
961.199	4576.5
961.502	4499.22
961.805	4510.74
962.108	4518.65
962.411	4480.91
962.714	4461.03
963.017	4437.98
963.32	4421.71
963.623	4408.82
963.926	4396.4
964.228	4361.82
964.531	4344.65
964.833	4347.13
965.136	4319.34
965.438	4280.47
965.741	4249.96
966.043	4242.95
966.345	4191.88
966.648	4205.21
966.95	4177.64
967.252	4186.68
967.554	4181.03
967.856	4121.83
968.158	4104.65
968.46	4137.65
968.761	4095.39
969.063	4055.39
969.365	4037.08
969.666	4058.55
969.968	3996.41
970.269	4007.93
970.571	4036.18
970.872	3980.81
971.174	3919.12
971.475	3951.66
971.776	3900.59
972.077	3859.01
972.378	3905.11
972.679	3835.05
972.98	3859.01
973.281	3829.18
973.582	3815.39
973.883	3790.99
974.183	3740.37
974.484	3728.62
974.785	3701.5
975.085	3720.71
975.386	3740.82
975.686	3679.58
975.986	3650.88
976.287	3668.05
976.587	3622.86
976.887	3621.05
977.187	3609.75
977.487	3604.78
977.787	3587.15
978.087	3562.97
978.387	3547.38
978.687	3595.51
978.987	3529.53
979.286	3497.44
979.586	3502.86
979.885	3416.53
980.185	3427.61
980.484	3430.32
980.784	3422.64
981.083	3401.62
981.382	3365.91
981.682	3371.11
981.981	3394.84
982.28	3359.81
982.579	3305.12
982.878	3304.9
983.177	3234.17
983.475	3278.23
983.774	3252.92
984.073	3250.21
984.372	3214.05
984.67	3231
984.969	3241.17
985.267	3217.44
985.566	3172.93
985.864	3153.26
986.162	3156.65
986.461	3171.12
986.759	3097.22
987.057	3079.14
987.355	3089.99
987.653	3077.79
987.951	3067.84
988.249	3019.71
988.547	3014.29
988.844	3056.54
989.142	3028.75
989.44	2959.15
989.737	2978.58
990.035	2960.73
990.332	2976.77
990.63	2950.33
990.927	2889.54
991.224	2899.26
991.521	2893.16
991.819	2884.8
992.116	2870.33
992.413	2821.52
992.71	2831.47
993.006	2849.32
993.303	2812.26
993.6	2812.03
993.897	2773.16
994.193	2775.65
994.49	2739.04
994.787	2745.14
995.083	2752.37
995.379	2728.19
995.676	2671.24
995.972	2679.83
996.268	2674.18
996.565	2660.17
996.861	2627.4
997.157	2655.2
997.453	2594.64
997.749	2608.19
998.044	2602.32
998.34	2610.45
998.636	2529.78
998.932	2545.82
999.227	2526.16
999.523	2553.51
999.818	2523.68
1000.114	2513.96
1000.409	2485.71
1000.704	2468.31
1001	2449.55
1001.295	2441.19
1001.59	2433.28
1001.885	2428.54
1002.18	2410.23
1002.475	2404.36
1002.77	2379.05
1003.065	2364.58
1003.359	2381.08
1003.654	2340.4
1003.949	2351.25
1004.243	2302.21
1004.538	2303.8
1004.832	2261.76
1005.127	2273.74
1005.421	2226.51
1005.715	2287.75
1006.009	2241.65
1006.304	2252.27
1006.598	2224.7
1006.892	2188.54
1007.186	2150.35
1007.48	2155.78
1007.773	2133.18
1008.067	2158.04
1008.361	2158.49
1008.655	2139.05
1008.948	2118.04
1009.242	2111.03
1009.535	2081.88
1009.829	2072.16
1010.122	2087.98
1010.415	2020.64
1010.708	2051.82
1011.001	2022.22
1011.295	2033.07
1011.588	2036.68
1011.881	1963.47
1012.173	1979.06
1012.466	2013.63
1012.759	1971.15
1013.052	1950.58
1013.344	1913.98
1013.637	1921.21
1013.93	1869.68
1014.222	1892.73
1014.514	1897.03
1014.807	1900.19
1015.099	1869.91
1015.391	1854.77
1015.683	1854.99
1015.976	1829.91
1016.268	1824.49
1016.56	1845.5
1016.851	1820.87
1017.143	1793.53
1017.435	1755.79
1017.727	1798.72
1018.018	1764.83
1018.31	1737.93
1018.602	1710.14
1018.893	1722.12
1019.185	1720.76
1019.476	1693.19
1019.767	1705.17
1020.058	1678.5
1020.35	1680.99
1020.641	1648.45
1020.932	1613.87
1021.223	1645.51
1021.514	1618.84
1021.804	1610.71
1022.095	1592.85
1022.386	1597.6
1022.677	1569.35
1022.967	1568.45
1023.258	1525.96
1023.548	1553.31
1023.839	1524.83
1024.129	1540.43
1024.419	1527.09
1024.709	1474.21
1025	1482.12
1025.29	1497.26
1025.58	1447.32
1025.87	1448.9
1026.16	1436.7
1026.449	1457.04
1026.739	1423.82
1027.029	1456.13
1027.319	1393.99
1027.608	1414.1
1027.898	1409.13
1028.187	1389.92
1028.477	1394.21
1028.766	1338.4
1029.055	1328.68
1029.344	1325.29
1029.634	1344.5
1029.923	1340.43
1030.212	1319.64
1030.501	1308.57
1030.79	1303.6
1031.078	1257.95
1031.367	1267.89
1031.656	1295.01
1031.945	1246.42
1032.233	1246.87
1032.522	1244.39
1032.81	1238.74
1033.099	1219.76
1033.387	1236.25
1033.675	1224.28
1033.963	1197.16
1034.251	1194.22
1034.54	1196.03
1034.828	1187.89
1035.116	1199.42
1035.403	1198.06
1035.691	1124.39
1035.979	1140.66
1036.267	1161.23
1036.554	1123.04
1036.842	1127.1
1037.129	1093.21
1037.417	1130.72
1037.704	1131.4
1037.992	1090.27
1038.279	1075.13
1038.566	1071.51
1038.853	1071.51
1039.14	1071.51
