Data from red_cardboard_box_FLMS001491_00018.txt Node
Date: Wed Feb 08 11:31:36 GMT 2017
User: dcchb
Spectrometer: FLMS00149
Trigger mode: 0
Integration Time (sec): 2.000000E-2
Scans to average: 10
Electric dark correction enabled: true
Nonlinearity correction enabled: false
Boxcar width: 0
XAxis mode: Wavelengths
Number of Pixels in Spectrum: 2048
>>>>>Begin Spectral Data<<<<<
341.393	-7.03
341.776	-7.03
342.16	-7.03
342.543	-44.77
342.927	-66.47
343.31	-84.09
343.693	-73.7
344.077	-64.43
344.46	-31.21
344.843	-62.17
345.226	-55.85
345.61	-37.99
345.993	-20.14
346.376	-9.75
346.759	16.24
347.142	38.84
347.525	43.13
347.908	65.73
348.291	74.32
348.674	86.75
349.057	114.32
349.44	112.96
349.823	136.47
350.206	140.31
350.588	189.12
350.971	220.08
351.354	228.21
351.737	246.74
352.119	270.93
352.502	257.59
352.884	269.12
353.267	284.26
353.65	303.01
354.032	298.04
354.414	309.34
354.797	291.26
355.179	320.64
355.562	308.21
355.944	312.96
356.326	340.3
356.709	330.36
357.091	323.58
357.473	332.17
357.855	352.5
358.238	365.39
358.62	338.95
359.002	352.5
359.384	332.39
359.766	338.49
360.148	352.05
360.53	328.55
360.912	346.86
361.294	347.53
361.676	335.33
362.057	317.7
362.439	335.56
362.821	329
363.203	320.64
363.584	306.63
363.966	319.06
364.348	313.41
364.729	306.86
365.111	302.11
365.493	327.19
365.874	325.61
366.256	300.75
366.637	320.87
367.019	319.74
367.4	319.74
367.781	309.79
368.163	313.86
368.544	313.41
368.925	313.18
369.306	324.03
369.688	303.47
370.069	321.55
370.45	307.76
370.831	315.44
371.212	322
371.593	285.61
371.974	303.47
372.355	327.42
372.736	335.1
373.117	310.92
373.498	312.28
373.879	298.72
374.26	330.81
374.641	305.73
375.021	301.21
375.402	341.88
375.783	321.09
376.163	311.38
376.544	297.14
376.925	336.46
377.305	314.99
377.686	326.29
378.066	331.94
378.447	337.59
378.827	316.12
379.208	309.57
379.588	312.51
379.968	313.41
380.349	314.99
380.729	319.29
381.109	324.03
381.489	323.58
381.87	339.4
382.25	354.31
382.63	328.32
383.01	323.58
383.39	319.51
383.77	332.17
384.15	325.16
384.53	339.85
384.91	342.79
385.29	339.17
385.67	336.46
386.049	349.34
386.429	323.81
386.809	338.27
387.189	326.29
387.568	344.82
387.948	332.62
388.328	351.37
388.707	351.83
389.087	352.28
389.466	352.5
389.846	326.97
390.225	351.6
390.605	348.21
390.984	342.56
391.363	332.84
391.743	346.4
392.122	354.31
392.501	320.42
392.881	344.14
393.26	346.18
393.639	360.87
394.018	355.67
394.397	347.99
394.776	357.25
395.155	344.14
395.534	354.09
395.913	353.86
396.292	339.4
396.671	365.16
397.05	352.05
397.429	364.26
397.808	358.38
398.186	338.27
398.565	348.44
398.944	352.96
399.323	357.02
399.701	354.76
400.08	361.32
400.458	363.58
400.837	352.05
401.215	356.35
401.594	381.66
401.972	370.58
402.351	386.4
402.729	367.19
403.107	381.2
403.486	384.14
403.864	375.56
404.242	385.95
404.62	372.39
404.999	356.57
405.377	381.66
405.755	376.69
406.133	377.59
406.511	377.81
406.889	375.33
407.267	391.15
407.645	347.99
408.023	413.29
408.401	394.99
408.779	394.54
409.156	397.48
409.534	380.75
409.912	374.43
410.29	405.16
410.667	393.18
411.045	378.04
411.422	398.15
411.8	410.13
412.178	403.12
412.555	409.9
412.933	423.69
413.31	401.54
413.687	408.55
414.065	413.97
414.442	417.14
414.819	416.68
415.197	418.72
415.574	428.21
415.951	416.01
416.328	420.98
416.705	427.98
417.082	414.2
417.46	436.8
417.837	414.42
418.214	411.71
418.591	422.33
418.967	411.26
419.344	424.14
419.721	435.67
420.098	445.16
420.475	424.82
420.852	443.12
421.228	430.92
421.605	442.9
421.982	425.5
422.358	447.87
422.735	454.65
423.111	436.8
423.488	453.75
423.864	455.55
424.241	449.23
424.617	459.39
424.994	474.08
425.37	486.96
425.746	469.34
426.123	475.67
426.499	484.48
426.875	477.93
427.251	479.28
427.627	477.25
428.003	453.29
428.379	472.95
428.756	482.67
429.132	471.37
429.507	489
429.883	477.02
430.259	497.36
430.635	500.75
431.011	491.03
431.387	522.22
431.763	486.06
432.138	509.56
432.514	527.87
432.89	517.92
433.265	513.18
433.641	497.59
434.016	504.59
434.392	524.25
434.767	530.13
435.143	514.53
435.518	523.12
435.894	545.27
436.269	517.47
436.644	543.91
437.02	567.87
437.395	563.35
437.77	554.53
438.145	536.45
438.52	524.25
438.895	548.43
439.271	552.95
439.646	563.35
440.021	550.47
440.395	564.7
440.77	565.38
441.145	542.33
441.52	578.26
441.895	558.83
442.27	586.17
442.645	583.46
443.019	566.06
443.394	558.83
443.769	576.23
444.143	576.68
444.518	582.1
444.892	557.92
445.267	561.09
445.641	607.41
446.016	579.39
446.39	595.21
446.764	583.91
447.139	581.2
447.513	605.61
447.887	586.62
448.262	606.96
448.636	599.05
449.01	606.96
449.384	589.56
449.758	640.18
450.132	620.52
450.506	616.68
450.88	622.78
451.254	633.4
451.628	622.33
452.002	627.07
452.376	634.53
452.75	632.27
453.123	622.78
453.497	649.45
453.871	649.22
454.244	649.45
454.618	664.81
454.992	664.14
455.365	631.14
455.739	662.33
456.112	670.01
456.486	670.46
456.859	669.78
457.232	689.9
457.606	685.15
457.979	702.55
458.352	686.73
458.725	689.45
459.099	692.38
459.472	707.75
459.845	732.16
460.218	698.26
460.591	720.4
460.964	730.12
461.337	735.77
461.71	748.2
462.083	732.61
462.456	761.31
462.829	736
463.201	712.5
463.574	746.17
463.947	731.25
464.32	754.08
464.692	766.28
465.065	772.38
465.438	773.96
465.81	791.82
466.183	778.26
466.555	785.71
466.928	800.4
467.3	815.77
467.672	815.32
468.045	831.59
468.417	847.63
468.789	808.31
469.161	816.67
469.534	832.27
469.906	863.23
470.278	856.45
470.65	879.95
471.022	874.3
471.394	881.76
471.766	898.03
472.138	883.56
472.51	914.98
472.882	927.4
473.253	946.16
473.625	938.48
473.997	950
474.369	944.35
474.74	947.52
475.112	962.43
475.484	965.14
475.855	965.82
476.227	1001.3
476.598	1011.47
476.97	998.82
477.341	1028.42
477.713	1037.01
478.084	1038.59
478.455	1041.98
478.827	1070.68
479.198	1109.55
479.569	1087.63
479.94	1106.61
480.311	1135.76
480.682	1118.59
481.053	1164.01
481.424	1157.46
481.795	1192.93
482.166	1172.14
482.537	1193.39
482.908	1209.21
483.279	1231.58
483.65	1238.58
484.021	1241.07
484.391	1290.56
484.762	1285.81
485.133	1300.05
485.503	1306.38
485.874	1346.38
486.244	1341.63
486.615	1352.03
486.985	1397.45
487.356	1381.4
487.726	1397.68
488.097	1397.45
488.467	1421.18
488.837	1481.06
489.207	1467.28
489.578	1467.73
489.948	1504.11
490.318	1548.63
490.688	1522.19
491.058	1530.55
491.428	1536.2
491.798	1608.29
492.168	1612.13
492.538	1622.53
492.908	1636.54
493.278	1614.84
493.648	1635.41
494.017	1660.72
494.387	1726.71
494.757	1689.19
495.126	1698.23
495.496	1718.57
495.866	1707.27
496.235	1766.93
496.605	1751.11
496.974	1760.38
497.344	1771.68
497.713	1793.6
498.082	1798.57
498.452	1806.7
498.821	1801.51
499.19	1843.54
499.559	1865.23
499.928	1862.97
500.298	1839.47
500.667	1877.21
501.036	1875.63
501.405	1859.58
501.774	1884.22
502.143	1928.51
502.512	1905.01
502.88	1958.11
503.249	1949.53
503.618	1967.15
503.987	2000.15
504.356	1992.91
504.724	1993.82
505.093	1973.71
505.462	2035.17
505.83	2017.77
506.199	2047.83
506.567	2049.64
506.936	2059.58
507.304	2104.32
507.672	2086.7
508.041	2086.02
508.409	2098.22
508.777	2140.48
509.145	2194.94
509.514	2155.4
509.882	2178.45
510.25	2210.31
510.618	2221.83
510.986	2244.43
511.354	2208.28
511.722	2265.67
512.09	2298.89
512.458	2314.26
512.826	2264.54
513.193	2289.18
513.561	2336.63
513.929	2355.84
514.297	2334.6
514.664	2396.52
515.032	2384.09
515.4	2359.46
515.767	2387.03
516.135	2436.07
516.502	2456.4
516.869	2448.49
517.237	2463.86
517.604	2479
517.972	2490.98
518.339	2473.35
518.706	2531.2
519.073	2508.61
519.44	2568.04
519.808	2597.19
520.175	2594.71
520.542	2620.02
520.909	2637.19
521.276	2644.42
521.643	2675.16
522.009	2674.03
522.376	2682.84
522.743	2739.79
523.11	2723.97
523.477	2760.8
523.843	2796.51
524.21	2808.71
524.577	2845.55
524.943	2865.66
525.31	2824.76
525.676	2871.53
526.043	2930.29
526.409	2911.31
526.776	2952.21
527.142	2968.71
527.508	2987.01
527.874	2987.24
528.241	3004.64
528.607	3030.17
528.973	3067.91
529.339	3040.12
529.705	3084.41
530.071	3111.3
530.437	3163.96
530.803	3146.78
531.169	3180.45
531.535	3170.06
531.901	3203.96
532.267	3225.65
532.632	3228.81
532.998	3256.61
533.364	3276.27
533.73	3300.68
534.095	3291.86
534.461	3332.77
534.826	3341.8
535.192	3357.85
535.557	3405.08
535.923	3403.72
536.288	3391.52
536.653	3450.28
537.019	3449.37
537.384	3442.59
537.749	3482.14
538.114	3530.5
538.479	3507.9
538.845	3516.94
539.21	3507.45
539.575	3576.83
539.94	3541.12
540.305	3604.62
540.67	3561.69
541.034	3611.18
541.399	3609.14
541.764	3613.66
542.129	3644.4
542.494	3675.58
542.858	3652.53
543.223	3712.19
543.587	3706.31
543.952	3741.57
544.316	3758.07
544.681	3754.22
545.045	3767.78
545.41	3832.41
545.774	3791.06
546.138	3856.59
546.503	3866.08
546.867	3862.7
547.231	3897.5
547.595	3886.88
547.959	3932.07
548.324	3922.81
548.688	3937.95
549.052	3961.22
549.416	3988.79
549.779	3968.91
550.143	4039.19
550.507	4038.06
550.871	4080.99
551.235	4118.96
551.599	4165.06
551.962	4154.21
552.326	4222.69
552.689	4241.44
553.053	4177.26
553.417	4248.9
553.78	4244.83
554.143	4273.31
554.507	4316.24
554.87	4350.14
555.234	4379.07
555.597	4361.21
555.96	4452.28
556.323	4451.15
556.686	4471.94
557.05	4540.87
557.413	4548.78
557.776	4561.21
558.139	4596.01
558.502	4655.89
558.865	4667.19
559.228	4711.71
559.59	4709.68
559.953	4788.77
560.316	4827.42
560.679	4854.31
561.041	4929.33
561.404	4917.13
561.767	4978.37
562.129	4959.84
562.492	5034.19
562.854	5064.02
563.217	5084.36
563.579	5127.52
563.941	5161.19
564.304	5200.29
564.666	5281.41
565.028	5344.24
565.39	5346.05
565.753	5390.56
566.115	5454.97
566.477	5516.89
566.839	5480.05
567.201	5594.63
567.563	5626.72
567.925	5633.04
568.287	5733.83
568.648	5750.56
569.01	5793.04
569.372	5815.86
569.734	5905.35
570.095	5970.89
570.457	5982.41
570.819	6080.72
571.18	6110.55
571.542	6173.82
571.903	6251.78
572.265	6262.86
572.626	6299.02
572.987	6349.86
573.349	6426.02
573.71	6548.5
574.071	6574.94
574.432	6560.93
574.794	6690.19
575.155	6728.16
575.516	6801.83
575.877	6909.17
576.238	6969.51
576.599	6994.82
576.96	7063.51
577.32	7163.63
577.681	7253.11
578.042	7291.08
578.403	7451.98
578.763	7478.42
579.124	7553.9
579.485	7655.36
579.845	7785.53
580.206	7820.56
580.566	7959.31
580.927	8060.55
581.287	8157.72
581.648	8275.23
582.008	8383.71
582.368	8548.45
582.728	8589.58
583.089	8718.61
583.449	8862.34
583.809	8957.93
584.169	9104.59
584.529	9275.89
584.889	9388.65
585.249	9518.82
585.609	9670.23
585.969	9882.65
586.329	10028.86
586.688	10200.83
587.048	10345.46
587.408	10512.46
587.768	10652.8
588.127	10820.25
588.487	10997.65
588.846	11280.58
589.206	11457.07
589.565	11678.08
589.925	11939.32
590.284	12129.82
590.643	12341.34
591.003	12677.83
591.362	12810.48
591.721	13098.61
592.08	13254.99
592.44	13597.58
592.799	13813.17
593.158	14079.6
593.517	14330.89
593.876	14601.85
594.235	14855.17
594.593	15250.42
594.952	15449.28
595.311	15691.08
595.67	16131.75
596.029	16458.75
596.387	16781.9
596.746	17115.68
597.104	17322.68
597.463	17594.99
597.822	17984.13
598.18	18265.25
598.538	18485.36
598.897	19011.68
599.255	19064.1
599.613	19744.54
599.972	19856.85
600.33	20385.42
600.688	20581.8
601.046	20892.53
601.404	21386.08
601.762	21587.88
602.12	22012.73
602.478	22402.55
602.836	22658.13
603.194	22894.29
603.552	23169.31
603.91	23528.84
604.268	23926.57
604.625	24203.86
604.983	24639.78
605.341	24877.28
605.698	25188.01
606.056	25495.35
606.413	25896.92
606.771	26192.73
607.128	26425.49
607.485	26617.8
607.843	26752.94
608.2	27191.57
608.557	27591.56
608.914	27761.95
609.272	28207.82
609.629	28430.64
609.986	28730.06
610.343	28957.63
610.7	29311.07
611.057	29400.78
611.414	29706.76
611.771	29880.32
612.127	30125.51
612.484	30428.78
612.841	30627.19
613.198	30870.12
613.554	30885.94
613.911	31311.46
614.267	31442.53
614.624	31611.12
614.98	31805.92
615.337	32242.06
615.693	32233.7
616.05	32429.63
616.406	32830.29
616.762	32836.17
617.118	32963.62
617.475	33202.26
617.831	33376.95
618.187	33458.75
618.543	33650.39
618.899	34044.05
619.255	34097.15
619.611	34220.99
619.967	34358.39
620.323	34697.82
620.678	34627.76
621.034	34623.69
621.39	34784.59
621.746	34973.74
622.101	35419.15
622.457	35136.67
622.812	35305.03
623.168	35700.5
623.523	35571.92
623.879	35774.62
624.234	35629.77
624.589	35817.11
624.945	35920.84
625.3	36048.97
625.655	36192.01
626.01	36205.57
626.365	36243.54
626.72	36390.65
627.075	36534.15
627.43	36494.38
627.785	36405.79
628.14	36613.02
628.495	36694.83
628.85	36752.23
629.205	36693.92
629.559	36833.81
629.914	36824.09
630.269	37012.56
630.623	36983.18
630.978	36861.83
631.332	37095.72
631.687	37274.25
632.041	37076.96
632.396	37222.04
632.75	37116.28
633.104	37297.97
633.459	37072.9
633.813	37267.47
634.167	37201.71
634.521	37240.12
634.875	37276.05
635.229	37241.25
635.583	37153.8
635.937	37154.25
636.291	37204.87
636.645	37123.52
636.999	37285.55
637.352	37420.46
637.706	37150.41
638.06	37269.73
638.413	37273.57
638.767	37211.2
639.121	37352.44
639.474	37102.05
639.828	37297.75
640.181	37358.54
640.534	37368.03
640.888	37338.88
641.241	37209.61
641.594	37261.36
641.947	37385.43
642.301	37312.66
642.654	37229.95
643.007	37338.2
643.36	37289.16
643.713	37194.47
644.066	37282.61
644.419	37145.44
644.771	37099.11
645.124	36574.15
645.477	36511.1
645.83	36425
646.182	36260.04
646.535	36238.11
646.888	36470.2
647.24	36275.18
647.593	36502.06
647.945	36337.55
648.298	36192.47
648.65	36145.24
649.002	36262.97
649.355	36249.64
649.707	36233.82
650.059	36412.35
650.411	36886.69
650.763	36862.73
651.115	37281.48
651.467	37053.91
651.819	37234.02
652.171	37094.36
652.523	37162.61
652.875	37073.35
653.227	36979.79
653.578	37227.47
653.93	37147.7
654.282	37086.23
654.633	37006.68
654.985	37112.67
655.337	37048.26
655.688	37093.23
656.039	37255.26
656.391	36940.92
656.742	37045.55
657.094	36946.34
657.445	37083.52
657.796	37039.9
658.147	36901.6
658.498	37018.66
658.849	36922.16
659.2	36941.15
659.551	37015.04
659.902	37046
660.253	37011.43
660.604	36985.21
660.955	36883.07
661.306	36993.8
661.656	36947.7
662.007	36962.16
662.358	37025.89
662.708	36983.86
663.059	37055.04
663.409	36686.01
663.76	37118.54
664.11	36996.51
664.461	37063.4
664.811	37124.87
665.161	36977.08
665.511	36836.97
665.862	36984.08
666.212	36938.21
666.562	36995.16
666.912	36919.23
667.262	36933.01
667.612	37027.47
667.962	36879
668.312	36914.48
668.662	37133.46
669.011	36906.35
669.361	37007.13
669.711	36967.81
670.06	36938.89
670.41	36880.58
670.76	36742.51
671.109	36869.74
671.459	36863.86
671.808	36705.45
672.157	36817.76
672.507	36736.41
672.856	36642.85
673.205	36688.5
673.554	36855.5
673.904	36666.35
674.253	36893.69
674.602	36725.33
674.951	36211
675.3	36001.29
675.649	36594.04
675.998	36609.86
676.346	36464.55
676.695	36705.9
677.044	36398.34
677.393	36605.11
677.741	36641.95
678.09	36499.58
678.438	36488.96
678.787	36401.05
679.135	36490.09
679.484	36321.5
679.832	36396.53
680.181	36283.99
680.529	36335.74
680.877	36215.29
681.225	36136.42
681.573	36321.95
681.922	36148.4
682.27	36047.16
682.618	36057.78
682.966	35938.46
683.314	36036.54
683.661	35867.96
684.009	35738.02
684.357	35726.04
684.705	35394.07
685.053	35564.91
685.4	35681.75
685.748	35425.25
686.095	35485.82
686.443	35386.39
686.79	35251.7
687.138	35486.95
687.485	35289.21
687.832	35224.13
688.18	35252.83
688.527	35084.92
688.874	35037.24
689.221	34916.12
689.568	34869.34
689.915	34700.08
690.262	34705.95
690.609	34665.73
690.956	34538.72
691.303	34429.12
691.65	34576.69
691.997	34362.68
692.344	34229.58
692.69	34198.62
693.037	34177.38
693.383	34032.3
693.73	33993.88
694.077	33805.18
694.423	33816.71
694.769	33775.35
695.116	33714.57
695.462	33494.91
695.808	33441.58
696.155	33441.58
696.501	33358.64
696.847	33382.82
697.193	33034.81
697.539	33150.96
697.885	32931.76
698.231	32892.67
698.577	32863.06
698.923	32902.16
699.269	32685.44
699.614	32556.4
699.96	32420.36
700.306	32507.59
700.651	32406.58
700.997	32398.22
701.342	32275.51
701.688	32146.92
702.033	32010.66
702.379	32125.68
702.724	31967.94
703.069	32049.07
703.415	31616.32
703.76	31639.14
704.105	31663.32
704.45	31547.39
704.795	31494.06
705.14	31450.44
705.485	31414.51
705.83	31108.76
706.175	31268.98
706.52	31278.25
706.865	31077.57
707.209	31137.23
707.554	30895.66
707.899	31056.33
708.243	30729.56
708.588	30807.07
708.932	30493.63
709.277	30565.04
709.621	30613.4
709.966	30316.01
710.31	30463.58
710.654	30076.24
710.998	30247.99
711.342	30257.71
711.687	30231.04
712.031	29954.89
712.375	29862.46
712.719	29873.76
713.063	29986.75
713.407	30072.4
713.75	29780.43
714.094	29774.1
714.438	29691.17
714.782	29784.5
715.125	29523.26
715.469	29621.11
715.812	29448.91
716.156	29325.53
716.499	29357.17
716.843	29372.98
717.186	29182.48
717.53	29340.44
717.873	29291.4
718.216	29345.64
718.559	29087.57
718.902	28878.31
719.246	28932.09
719.589	28811.42
719.932	28683.06
720.275	28868.37
720.617	28720.12
720.96	28665.43
721.303	28729.61
721.646	28802.83
721.989	28583.63
722.331	28774.13
722.674	28589.73
723.016	28565.32
723.359	28439.45
723.701	28560.58
724.044	28203.3
724.386	28183.41
724.729	28388.83
725.071	28106.13
725.413	28287.14
725.755	28175.73
726.097	28057.99
726.439	28005.79
726.782	27949.29
727.124	28163.07
727.465	27880.59
727.807	27862.97
728.149	27754.95
728.491	27750.88
728.833	27879.69
729.175	27566.03
729.516	27712.01
729.858	27638.12
730.199	27709.98
730.541	27587.49
730.882	27602.86
731.224	27576.65
731.565	27452.13
731.906	27381.4
732.248	27513.6
732.589	27339.14
732.93	27213.72
733.271	27291.01
733.612	27245.36
733.953	27307.28
734.294	27223.44
734.635	27159.94
734.976	27208.52
735.317	27051.24
735.658	27096.89
735.999	27096.89
736.339	26942.31
736.68	27106.38
737.021	26880.85
737.361	26913.16
737.702	27014.4
738.042	26819.15
738.383	26728.53
738.723	26785.03
739.063	26751.81
739.404	26781.41
739.744	26582.32
740.084	26560.4
740.424	26653.06
740.764	26545.26
741.104	26580.97
741.444	26485.83
741.784	26299.85
742.124	26438.37
742.464	26383.01
742.804	26462.78
743.143	26380.75
743.483	26284.25
743.823	26158.15
744.162	26199.73
744.502	26219.17
744.841	26084.71
745.181	26241.54
745.52	26195.44
745.86	26049.91
746.199	26043.13
746.538	26130.13
746.877	26018.04
747.216	26122.67
747.556	25945.5
747.895	25915
748.234	25859.4
748.573	25858.73
748.911	25844.04
749.25	25820.08
749.589	25652.63
749.928	25738.96
750.267	25705.96
750.605	25648.11
750.944	25598.39
751.283	25567.44
751.621	25654.44
751.96	25454.9
752.298	25409.47
752.636	25439.3
752.975	25312.3
753.313	25324.73
753.651	25367.21
753.989	25232.3
754.327	25282.47
754.666	25041.8
755.004	25158.18
755.342	25035.47
755.679	25066.43
756.017	24851.52
756.355	24993.44
756.693	24817.62
757.031	25032.31
757.368	24812.43
757.706	24691.75
758.044	24609.72
758.381	24703.28
758.719	24463.51
759.056	24610.17
759.394	24361.37
759.731	24337.86
760.068	24410.4
760.405	24221.26
760.743	24124.54
761.08	24283.63
761.417	24123.41
761.754	23979
762.091	23902.85
762.428	23832.34
762.765	23714.6
763.102	23781.49
763.438	23792.79
763.775	23650.65
764.112	23628.28
764.449	23551.22
764.785	23454.72
765.122	23358.91
765.458	23300.83
765.795	23267.61
766.131	23215.86
766.467	23136.76
766.804	23011.8
767.14	22809.54
767.476	22875.08
767.812	22796.89
768.148	22720.96
768.485	22616.78
768.821	22660.17
769.157	22549.21
769.492	22576.1
769.828	22471.92
770.164	22347.63
770.5	22349.67
770.836	22258.82
771.171	22075.78
771.507	22031.71
771.842	21916.23
772.178	21867.42
772.513	21808.44
772.849	21680.98
773.184	21639.4
773.519	21661.78
773.855	21489.8
774.19	21477.6
774.525	21432.4
774.86	21434.66
775.195	21228.34
775.53	21262.92
775.865	21064.28
776.2	20957.61
776.535	20918.07
776.87	20886.43
777.205	20745.64
777.539	20685.3
777.874	20716.49
778.209	20606.44
778.543	20561.69
778.878	20371.41
779.212	20352.66
779.547	20242.83
779.881	20264.98
780.215	20148.59
780.55	20242.15
780.884	20215.94
781.218	19963.06
781.552	19954.02
781.886	19871.09
782.22	19835.16
782.554	19699.79
782.888	19526.92
783.222	19505.45
783.556	19457.31
783.889	19385
784.223	19253.7
784.557	19157.66
784.89	19279.24
785.224	19142.29
785.557	19079.47
785.891	18996.53
786.224	18946.82
786.558	18883.99
786.891	18789.99
787.224	18772.36
787.557	18641.29
787.891	18639.48
788.224	18651.68
788.557	18569.88
788.89	18467.28
789.223	18438.13
789.556	18274.07
789.888	18259.83
790.221	18235.88
790.554	18154.52
790.887	18066.39
791.219	17975.77
791.552	17977.58
791.884	17796.34
792.217	17784.14
792.549	17665.95
792.882	17687.87
793.214	17557.02
793.546	17606.74
793.879	17508.66
794.211	17352.96
794.543	17403.13
794.875	17315.45
795.207	17291.95
795.539	17339.4
795.871	17418.5
796.203	17114.32
796.535	17097.83
796.867	17070.26
797.198	17057.83
797.53	16988
797.862	16843.82
798.193	16853.99
798.525	16770.15
798.856	16812.19
799.188	16664.39
799.519	16529.48
799.85	16573.1
800.182	16547.11
800.513	16514.79
800.844	16319.77
801.175	16403.61
801.506	16348.47
801.837	16301.92
802.168	16303.72
802.499	16128.59
802.83	16143.05
803.161	16072.09
803.491	16016.95
803.822	16006.33
804.153	15952.09
804.483	15806.34
804.814	15811.76
805.145	15797.3
805.475	15757.52
805.805	15680.24
806.136	15645.89
806.466	15679.11
806.796	15560.24
807.126	15524.76
807.457	15506.46
807.787	15484.31
808.117	15363.18
808.447	15347.82
808.777	15364.31
809.107	15344.2
809.436	15281.15
809.766	15194.15
810.096	15136.75
810.426	15124.55
810.755	15099.01
811.085	15119.57
811.414	15037.32
811.744	14874.83
812.073	14920.26
812.403	14880.94
812.732	14773.14
813.061	14779.92
813.39	14787.15
813.719	14618.34
814.049	14753.48
814.378	14656.08
814.707	14588.74
815.036	14640.26
815.365	14527.05
815.693	14432.36
816.022	14452.47
816.351	14424.23
816.68	14294.29
817.008	14316.43
817.337	14210.9
817.665	14226.04
817.994	14159.15
818.322	14282.31
818.651	14206.38
818.979	14127.74
819.307	14149.43
819.636	14070.79
819.964	14022.88
820.292	13984.24
820.62	14031.24
820.948	13982.43
821.276	14065.14
821.604	13997.12
821.932	14018.59
822.259	14003.67
822.587	14028.53
822.915	13987.63
823.243	14004.12
823.57	13826.5
823.898	13898.82
824.225	13894.07
824.553	13855.2
824.88	13859.72
825.207	13938.81
825.535	13899.49
825.862	13940.85
826.189	13798.48
826.516	13944.24
826.843	13941.98
827.17	13923
827.497	13938.14
827.824	13906.05
828.151	14013.61
828.478	13906.27
828.805	14026.27
829.131	13880.06
829.458	13796.9
829.785	13793.51
830.111	13925.03
830.438	13983.56
830.764	13937.91
831.09	13843.22
831.417	13743.79
831.743	13861.75
832.069	13780.4
832.395	13772.49
832.722	13724.13
833.048	13727.97
833.374	13753.73
833.7	13764.81
834.026	13793.96
834.351	13815.65
834.677	13752.38
835.003	13809.78
835.329	13806.61
835.654	13686.39
835.98	13648.2
836.306	13708.54
836.631	13590.8
836.956	13612.5
837.282	13652.04
837.607	13554.19
837.932	13595.55
838.258	13570.01
838.583	13586.51
838.908	13557.58
839.233	13471.93
839.558	13472.61
839.883	13402.11
840.208	13358.94
840.533	13425.16
840.858	13357.13
841.182	13290.7
841.507	13322.33
841.832	13302.67
842.156	13262.67
842.481	13250.92
842.805	13217.03
843.13	13232.17
843.454	13179.06
843.778	13115.56
844.103	13151.49
844.427	13083.7
844.751	13126.18
845.075	13048.22
845.399	13026.97
845.723	12861.55
846.047	12938.16
846.371	12767.32
846.695	12820.65
847.019	12647.1
847.343	12610.94
847.666	12609.58
847.99	12546.08
848.313	12518.74
848.637	12517.16
848.96	12410.49
849.284	12441.9
849.607	12345.64
849.931	12252.76
850.254	12208.01
850.577	12168.47
850.9	12070.61
851.223	12074.23
851.546	11975.93
851.869	11963.5
852.192	12010.96
852.515	11858.64
852.838	11826.1
853.161	11847.34
853.483	11806.21
853.806	11700.91
854.129	11702.04
854.451	11666.78
854.774	11584.53
855.096	11549.5
855.419	11517.64
855.741	11525.54
856.063	11406.9
856.385	11385.66
856.708	11399.9
857.03	11302.95
857.352	11403.51
857.674	11349.05
857.996	11231.09
858.318	11219.34
858.64	11222.95
858.961	11145.67
859.283	11076.52
859.605	11079
859.926	11142.96
860.248	11088.27
860.57	11037.65
860.891	11070.64
861.212	11038.78
861.534	10955.16
861.855	10967.37
862.176	11002.17
862.498	10896.18
862.819	10940.25
863.14	10863.87
863.461	10818.9
863.782	10756.07
864.103	10818.44
864.424	10758.56
864.745	10766.69
865.065	10753.36
865.386	10753.59
865.707	10752.46
866.027	10740.71
866.348	10560.82
866.668	10610.31
866.989	10547.72
867.309	10525.12
867.63	10503.2
867.95	10559.92
868.27	10533.48
868.59	10515.85
868.91	10501.39
869.23	10436.53
869.55	10401.51
869.87	10420.71
870.19	10361.96
870.51	10365.12
870.83	10401.05
871.15	10354.5
871.469	10416.87
871.789	10346.37
872.109	10413.03
872.428	10250.32
872.748	10301.17
873.067	10340.72
873.386	10341.39
873.706	10225.24
874.025	10209.19
874.344	10133.26
874.663	10246.26
874.982	10106.15
875.301	10165.13
875.62	10079.03
875.939	10094.17
876.258	10085.13
876.577	10083.1
876.896	9962.65
877.214	10037
877.533	10026.37
877.852	9965.81
878.17	10007.39
878.489	9992.93
878.807	9958.81
879.125	9939.15
879.444	10002.42
879.762	9878.81
880.08	9916.77
880.398	9882.2
880.716	9936.21
881.034	9797.91
881.352	9902.54
881.67	9797.23
881.988	9789.77
882.306	9896.21
882.624	9742.77
882.941	9737.12
883.259	9635.65
883.577	9670.9
883.894	9637.91
884.212	9601.53
884.529	9633.16
884.846	9600.4
885.164	9536.44
885.481	9525.37
885.798	9505.71
886.115	9480.17
886.432	9424.58
886.75	9427.29
887.067	9443.79
887.383	9389.33
887.7	9430.46
888.017	9394.75
888.334	9338.26
888.651	9291.48
888.967	9270.91
889.284	9261.42
889.6	9242.67
889.917	9218.26
890.233	9177.13
890.55	9134.87
890.866	9176.68
891.182	9100.75
891.498	9116.57
891.815	9014.2
892.131	9009.68
892.447	8995.89
892.763	8921.32
893.079	8927.19
893.395	8938.72
893.71	8947.08
894.026	8881.55
894.342	8899.4
894.657	8767.88
894.973	8815.11
895.289	8787.76
895.604	8775.33
895.92	8722.68
896.235	8658.05
896.55	8671.61
896.865	8678.16
897.181	8590.93
897.496	8552.06
897.811	8455.57
898.126	8491.73
898.441	8519.52
898.756	8456.25
899.071	8459.41
899.386	8442.46
899.7	8343.71
900.015	8358.17
900.33	8232.52
900.644	8258.96
900.959	8262.13
901.273	8287.89
901.588	8241.11
901.902	8167.21
902.216	8110.27
902.531	8199.98
902.845	8070.72
903.159	8092.64
903.473	7998.86
903.787	7997.5
904.101	7934.23
904.415	7961.8
904.729	7901.68
905.042	7869.14
905.356	7859.88
905.67	7861.01
905.984	7861.46
906.297	7815.36
906.611	7688.13
906.924	7698.07
907.237	7617.4
907.551	7699.66
907.864	7613.78
908.177	7618.75
908.491	7570.39
908.804	7515.48
909.117	7534.46
909.43	7443.62
909.743	7447.01
910.056	7428.7
910.368	7378.99
910.681	7345.99
910.994	7277.52
911.307	7283.62
911.619	7250.63
911.932	7225.32
912.244	7141.48
912.557	7142.61
912.869	7133.57
913.181	7091.31
913.494	7146.45
913.806	7092.21
914.118	6974.93
914.43	6919.56
914.742	6913.24
915.054	6912.56
915.366	6893.12
915.678	6937.19
915.99	6819.23
916.302	6807.48
916.613	6782.17
916.925	6764.31
917.236	6713.24
917.548	6739.23
917.859	6646.58
918.171	6617.42
918.482	6596.18
918.794	6587.37
919.105	6568.84
919.416	6532.46
919.727	6489.52
920.038	6462.4
920.349	6476.64
920.66	6440.48
920.971	6446.81
921.282	6400.48
921.593	6369.75
921.903	6336.3
922.214	6293.14
922.525	6260.37
922.835	6307.6
923.146	6194.61
923.456	6206.14
923.767	6220.83
924.077	6161.17
924.387	6097.66
924.697	6077.55
925.008	6071.45
925.318	6012.47
925.628	6050.21
925.938	6017.89
926.248	5943.09
926.558	5959.14
926.867	5946.93
927.177	5861.06
927.487	5832.13
927.796	5795.98
928.106	5805.47
928.416	5781.06
928.725	5782.87
929.034	5729.54
929.344	5757.33
929.653	5707.84
929.962	5657.9
930.271	5646.6
930.581	5599.15
930.89	5539.94
931.199	5567.51
931.508	5533.61
931.817	5577.23
932.125	5529.32
932.434	5444.8
932.743	5461.07
933.051	5434.86
933.36	5390.56
933.669	5315.31
933.977	5337.23
934.286	5320.28
934.594	5251.59
934.902	5243.45
935.21	5255.65
935.519	5265.14
935.827	5242.09
936.135	5185.37
936.443	5181.98
936.751	5150.57
937.059	5112.38
937.367	5068.77
937.674	5036.45
937.982	5058.6
938.29	5048.2
938.597	5052.04
938.905	4970.24
939.213	4991.93
939.52	4952.38
939.827	4970.46
940.135	4856.12
940.442	4868.54
940.749	4870.13
941.056	4913.74
941.363	4871.93
941.67	4797.59
941.977	4791.03
942.284	4791.03
942.591	4728.21
942.898	4676.46
943.205	4707.42
943.511	4729.79
943.818	4687.31
944.125	4676.01
944.431	4672.84
944.738	4613.41
945.044	4534.99
945.35	4582.45
945.657	4517.82
945.963	4513.3
946.269	4468.55
946.575	4538.61
946.881	4464.49
947.187	4475.33
947.493	4423.13
947.799	4455.9
948.105	4358.73
948.41	4351.5
948.716	4441.44
949.022	4417.71
949.327	4322.12
949.633	4316.24
949.938	4306.98
950.244	4299.52
950.549	4290.25
950.854	4278.28
951.16	4209.8
951.465	4209.58
951.77	4189.01
952.075	4156.92
952.38	4182.46
952.685	4172.74
952.99	4105.85
953.294	4102.69
953.599	4057.49
953.904	4075.12
954.209	4041.9
954.513	4003.71
954.818	4058.4
955.122	3946.08
955.426	3987.89
955.731	3943.82
956.035	3946.76
956.339	3936.82
956.643	3908.34
956.948	3883.49
957.252	3899.08
957.556	3883.71
957.86	3849.36
958.163	3789.7
958.467	3816.82
958.771	3780.89
959.075	3822.47
959.378	3772.75
959.682	3735.24
959.985	3750.83
960.289	3708.57
960.592	3696.82
960.896	3669.48
961.199	3650.27
961.502	3624.06
961.805	3612.76
962.108	3596.94
962.411	3590.39
962.714	3576.83
963.017	3604.17
963.32	3574.12
963.623	3535.92
963.926	3526.21
964.228	3502.25
964.531	3518.52
964.833	3506.09
965.136	3465.42
965.438	3464.74
965.741	3436.27
966.043	3383.84
966.345	3382.71
966.648	3382.93
966.95	3353.33
967.252	3360.56
967.554	3332.54
967.856	3337.96
968.158	3278.76
968.46	3292.99
968.761	3260.68
969.063	3285.76
969.365	3250.96
969.666	3231.3
969.968	3239.43
970.269	3217.06
970.571	3200.79
970.872	3181.58
971.174	3099.1
971.475	3185.88
971.776	3136.61
972.077	3125.99
972.378	3099.55
972.679	3110.4
972.98	3105.43
973.281	3135.93
973.582	3052.55
973.883	3057.74
974.183	3023.62
974.484	3022.04
974.785	2975.94
975.085	2994.7
975.386	3009.84
975.686	2979.33
975.986	2936.62
976.287	2970.97
976.587	2927.35
976.887	2916.28
977.187	2909.27
977.487	2866.11
977.787	2845.77
978.087	2880.12
978.387	2865.43
978.687	2855.49
978.987	2837.64
979.286	2824.08
979.586	2809.84
979.885	2790.41
980.185	2747.24
980.484	2738.43
980.784	2742.05
981.083	2729.84
981.382	2702.95
981.682	2715.61
981.981	2703.4
982.28	2733.01
982.579	2668.83
982.878	2688.49
983.177	2675.83
983.475	2641.48
983.774	2617.3
984.073	2604.2
984.372	2598.55
984.67	2589.28
984.969	2616.4
985.267	2622.28
985.566	2566.91
985.864	2549.51
986.162	2583.63
986.461	2523.75
986.759	2547.93
987.057	2479.23
987.355	2462.96
987.653	2503.41
987.951	2460.92
988.249	2455.5
988.547	2473.13
988.844	2435.16
989.142	2427.03
989.44	2401.94
989.737	2404.88
990.035	2335.28
990.332	2378.21
990.63	2387.71
990.927	2375.73
991.224	2331.44
991.521	2333.24
991.819	2336.63
992.116	2307.71
992.413	2330.98
992.71	2293.24
993.006	2301.38
993.303	2261.16
993.6	2274.94
993.897	2254.83
994.193	2247.6
994.49	2247.14
994.787	2252.12
995.083	2185.9
995.379	2196.75
995.676	2208.95
995.972	2194.26
996.268	2174.6
996.565	2198.11
996.861	2166.24
997.157	2135.73
997.453	2113.36
997.749	2123.31
998.044	2093.93
998.34	2089.41
998.636	2100.26
998.932	2097.77
999.227	2051.67
999.523	2067.49
999.818	2043.31
1000.114	2034.27
1000.409	2028.17
1000.704	2011.9
1001	2022.97
1001.295	2014.16
1001.59	1973.25
1001.885	1992.69
1002.18	1959.69
1002.475	1951.11
1002.77	1994.72
1003.065	1912.92
1003.359	1919.7
1003.654	1934.16
1003.949	1916.31
1004.243	1908.85
1004.538	1894.61
1004.832	1859.58
1005.127	1840.6
1005.421	1881.96
1005.715	1835.86
1006.009	1841.73
1006.304	1798.79
1006.598	1818.23
1006.892	1802.64
1007.186	1805.57
1007.48	1780.04
1007.773	1784.56
1008.067	1763.54
1008.361	1750.66
1008.655	1768.51
1008.948	1719.47
1009.242	1746.82
1009.535	1734.62
1009.829	1693.94
1010.122	1710.44
1010.415	1681.28
1010.708	1718.57
1011.001	1653.71
1011.295	1643.32
1011.588	1677.44
1011.881	1616.43
1012.173	1636.99
1012.466	1649.19
1012.759	1609.19
1013.052	1631.34
1013.344	1604.9
1013.637	1599.25
1013.93	1549.31
1014.222	1546.82
1014.514	1569.42
1014.807	1533.72
1015.099	1515.86
1015.391	1523.1
1015.683	1501.4
1015.976	1498.92
1016.268	1528.52
1016.56	1492.36
1016.851	1506.6
1017.143	1491.91
1017.435	1472.93
1017.727	1469.09
1018.018	1475.87
1018.31	1458.01
1018.602	1438.8
1018.893	1432.25
1019.185	1397.68
1019.476	1397.45
1019.767	1404.91
1020.058	1371.46
1020.35	1404.23
1020.641	1372.14
1020.932	1355.64
1021.223	1343.21
1021.514	1330.56
1021.804	1338.69
1022.095	1340.05
1022.386	1317
1022.677	1305.02
1022.967	1286.94
1023.258	1277
1023.548	1287.85
1023.839	1286.04
1024.129	1265.25
1024.419	1271.35
1024.709	1245.36
1025	1238.13
1025.29	1234.29
1025.58	1232.93
1025.87	1219.37
1026.16	1206.72
1026.449	1214.18
1026.739	1201.52
1027.029	1175.53
1027.319	1175.31
1027.608	1180.28
1027.898	1184.35
1028.187	1185.48
1028.477	1154.07
1028.766	1130.56
1029.055	1110.9
1029.344	1139.83
1029.634	1105.93
1029.923	1098.93
1030.212	1123.78
1030.501	1063.22
1030.79	1073.39
1031.078	1084.46
1031.367	1048.31
1031.656	1041.07
1031.945	1053.96
1032.233	1056.67
1032.522	1053.28
1032.81	1037.68
1033.099	1027.74
1033.387	1050.57
1033.675	1037.46
1033.963	1013.96
1034.251	989.78
1034.54	1011.47
1034.828	1016.67
1035.116	980.51
1035.403	996.78
1035.691	996.1
1035.979	976.22
1036.267	974.41
1036.554	973.05
1036.842	962.21
1037.129	985.71
1037.417	939.38
1037.704	932.6
1037.992	962.21
1038.279	936.44
1038.566	912.94
1038.853	912.94
1039.14	912.94
