Data from red_cardboard_box_FLMS001491_00089.txt Node
Date: Wed Feb 08 11:33:17 GMT 2017
User: dcchb
Spectrometer: FLMS00149
Trigger mode: 0
Integration Time (sec): 2.000000E-2
Scans to average: 10
Electric dark correction enabled: true
Nonlinearity correction enabled: false
Boxcar width: 0
XAxis mode: Wavelengths
Number of Pixels in Spectrum: 2048
>>>>>Begin Spectral Data<<<<<
341.393	-13.87
341.776	-13.87
342.16	-13.87
342.543	-44.15
342.927	-60.2
343.31	-52.06
343.693	-67.65
344.077	-77.6
344.46	-70.59
344.843	-63.81
345.226	-17.49
345.61	-27.65
345.993	-39.18
346.376	3.98
346.759	12.12
347.142	34.26
347.525	55.96
347.908	48.5
348.291	57.09
348.674	77.65
349.057	126.47
349.44	96.41
349.823	119.46
350.206	160.36
350.588	200.81
350.971	209.63
351.354	238.78
351.737	238.55
352.119	267.03
352.502	264.54
352.884	273.35
353.267	282.17
353.65	300.92
354.032	303.64
354.414	309.74
354.797	310.19
355.179	327.59
355.562	334.6
355.944	335.73
356.326	349.06
356.709	342.28
357.091	324.88
357.473	354.03
357.855	345.22
358.238	340.92
358.62	346.57
359.002	346.12
359.384	344.99
359.766	349.96
360.148	338.66
360.53	339.34
360.912	344.31
361.294	339.34
361.676	316.52
362.057	335.95
362.439	323.07
362.821	346.57
363.203	321.49
363.584	318.55
363.966	312.22
364.348	332.79
364.729	330.53
365.111	327.14
365.493	327.59
365.874	324.43
366.256	331.88
366.637	309.29
367.019	323.75
367.4	342.51
367.781	298.21
368.163	298.44
368.544	301.6
368.925	318.78
369.306	340.02
369.688	322.84
370.069	324.2
370.45	319.68
370.831	321.71
371.212	321.49
371.593	315.84
371.974	330.75
372.355	338.44
372.736	320.36
373.117	306.57
373.498	315.84
373.879	320.13
374.26	312.9
374.641	325.1
375.021	316.97
375.402	313.35
375.783	314.26
376.163	330.53
376.544	316.74
376.925	320.58
377.305	334.6
377.686	337.99
378.066	315.39
378.447	323.52
378.827	316.29
379.208	313.35
379.588	337.08
379.968	332.34
380.349	342.51
380.729	320.13
381.109	309.96
381.489	325.1
381.87	352.45
382.25	358.1
382.63	333.47
383.01	345.89
383.39	333.92
383.77	351.54
384.15	327.14
384.53	328.04
384.91	339.57
385.29	357.42
385.67	353.35
386.049	351.09
386.429	366.23
386.809	331.43
387.189	338.89
387.568	357.65
387.948	327.14
388.328	340.02
388.707	340.47
389.087	338.66
389.466	360.81
389.846	363.52
390.225	364.43
390.605	370.75
390.984	355.39
391.363	342.73
391.743	339.12
392.122	352
392.501	341.38
392.881	361.49
393.26	382.96
393.639	356.52
394.018	363.75
394.397	360.81
394.776	353.13
395.155	367.14
395.534	373.69
395.913	353.8
396.292	363.97
396.671	368.95
397.05	384.54
397.429	392.9
397.808	383.18
398.186	377.31
398.565	363.3
398.944	383.63
399.323	391.77
399.701	381.37
400.08	398.1
400.458	387.93
400.837	373.24
401.215	390.64
401.594	357.65
401.972	376.63
402.351	408.49
402.729	387.25
403.107	382.05
403.486	381.15
403.864	398.77
404.242	386.57
404.62	391.77
404.999	398.77
405.377	404.88
405.755	405.78
406.133	404.65
406.511	403.97
406.889	396.97
407.267	417.53
407.645	420.7
408.023	427.02
408.401	403.07
408.779	415.95
409.156	398.1
409.534	424.08
409.912	431.99
410.29	423.63
410.667	427.25
411.045	452.56
411.422	427.93
411.8	422.28
412.178	449.85
412.555	431.99
412.933	423.63
413.31	438.77
413.687	444.42
414.065	443.75
414.442	433.8
414.819	438.32
415.197	458.89
415.574	448.94
415.951	441.94
416.328	471.54
416.705	441.03
417.082	464.31
417.46	475.83
417.837	459.79
418.214	456.63
418.591	476.96
418.967	455.95
419.344	481.94
419.721	479.68
420.098	474.48
420.475	479.9
420.852	489.85
421.228	473.58
421.605	476.96
421.982	482.39
422.358	481.03
422.735	488.49
423.111	490.07
423.488	504.99
423.864	502.73
424.241	511.09
424.617	484.42
424.994	492.33
425.37	510.86
425.746	500.47
426.123	516.29
426.499	492.56
426.875	495.04
427.251	509.96
427.627	534.14
428.003	527.81
428.379	534.59
428.756	523.07
429.132	541.6
429.507	537.3
429.883	537.08
430.259	526.23
430.635	553.8
431.011	537.98
431.387	552.22
431.763	557.64
432.138	562.39
432.514	563.74
432.89	552.9
433.265	582.95
433.641	566.45
434.016	584.08
434.392	583.4
434.767	580.92
435.143	566.68
435.518	573.91
435.894	594.25
436.269	595.83
436.644	596.28
437.02	600.35
437.395	594.48
437.77	619.56
438.145	618.2
438.52	612.78
438.895	631.09
439.271	646.68
439.646	621.59
440.021	655.04
440.395	626.79
440.77	613.01
441.145	638.32
441.52	641.93
441.895	634.47
442.27	662.95
442.645	664.76
443.019	634.93
443.394	674.02
443.769	662.5
444.143	657.3
444.518	669.05
444.892	661.82
445.267	674.02
445.641	674.25
446.016	664.08
446.39	678.54
446.764	665.43
447.139	677.19
447.513	700.91
447.887	670.41
448.262	671.54
448.636	677.86
449.01	686.45
449.384	733.91
449.758	693
450.132	703.4
450.506	712.44
450.88	716.51
451.254	728.94
451.628	713.34
452.002	731.2
452.376	736.39
452.75	737.97
453.123	724.64
453.497	739.33
453.871	740.91
454.244	772.32
454.618	766
454.992	758.54
455.365	735.26
455.739	752.66
456.112	780.91
456.486	762.16
456.859	780.01
457.232	793.79
457.606	761.48
457.979	782.49
458.352	791.08
458.725	815.49
459.099	808.03
459.472	837.63
459.845	823.85
460.218	834.02
460.591	857.07
460.964	840.8
461.337	856.62
461.71	855.26
462.083	883.28
462.456	861.14
462.829	881.25
463.201	873.11
463.574	893
463.947	900
464.32	923.05
464.692	909.04
465.065	898.2
465.438	895.94
465.81	933.45
466.183	953.79
466.555	960.34
466.928	950.62
467.3	956.5
467.672	960.79
468.045	983.62
468.417	984.97
468.789	998.76
469.161	980.45
469.534	1004.18
469.906	1030.85
470.278	1030.4
470.65	1010.51
471.022	1055.03
471.394	1057.74
471.766	1086.21
472.138	1083.5
472.51	1074.92
472.882	1121.92
473.253	1086.44
473.625	1104.52
473.997	1126.67
474.369	1113.11
474.74	1152.2
475.112	1156.5
475.484	1194.46
475.855	1198.53
476.227	1194.01
476.598	1206.21
476.97	1251.86
477.341	1243.72
477.713	1226.78
478.084	1277.17
478.455	1280.11
478.827	1300.67
479.198	1327.11
479.569	1332.08
479.94	1375.92
480.311	1362.59
480.682	1379.77
481.053	1405.53
481.424	1422.02
481.795	1445.53
482.166	1450.05
482.537	1488.24
482.908	1502.93
483.279	1500.89
483.65	1514
484.021	1589.7
484.391	1573.66
484.762	1597.16
485.133	1599.42
485.503	1625.64
485.874	1648.01
486.244	1655.01
486.615	1662.02
486.985	1687.33
487.356	1732.07
487.726	1722.36
488.097	1734.78
488.467	1762.81
488.837	1786.76
489.207	1825.63
489.578	1850.04
489.948	1840.54
490.318	1851.84
490.688	1857.72
491.058	1906.31
491.428	1908.34
491.798	1924.38
492.168	1981.78
492.538	2007.09
492.908	2017.04
493.278	2035.34
493.648	2016.13
494.017	2067.88
494.387	2086.64
494.757	2085.96
495.126	2138.16
495.496	2157.37
495.866	2138.39
496.235	2144.94
496.605	2171.16
496.974	2187.65
497.344	2192.85
497.713	2199.63
498.082	2221.33
498.452	2223.59
498.821	2265.62
499.19	2270.36
499.559	2293.19
499.928	2296.58
500.298	2334.77
500.667	2331.38
501.036	2358.72
501.405	2372.96
501.774	2380.87
502.143	2391.49
502.512	2410.47
502.88	2410.93
503.249	2424.48
503.618	2419.96
503.987	2467.65
504.356	2463.13
504.724	2495.44
505.093	2521.88
505.462	2515.1
505.83	2554.88
506.199	2557.81
506.567	2571.6
506.936	2570.24
507.304	2589.45
507.672	2642.11
508.041	2656.34
508.409	2673.07
508.777	2652.27
509.145	2704.25
509.514	2698.38
509.882	2733.18
510.25	2752.61
510.618	2745.61
510.986	2764.81
511.354	2831.03
511.722	2822.44
512.09	2843
512.458	2903.12
512.826	2891.59
513.193	2874.42
513.561	2876.68
513.929	2921.65
514.297	2955.09
514.664	2984.7
515.032	3009.55
515.4	3015.88
515.767	3066.95
516.135	3019.27
516.502	3047.52
516.869	3092.04
517.237	3092.72
517.604	3152.83
517.972	3125.26
518.339	3202.99
518.706	3191.47
519.073	3226.05
519.44	3202.77
519.808	3263.56
520.175	3254.52
520.542	3313.5
520.909	3294.29
521.276	3321.18
521.643	3376.78
522.009	3393.95
522.376	3436.44
522.743	3417.23
523.11	3438.69
523.477	3468.52
523.843	3522.99
524.21	3586.49
524.577	3590.33
524.943	3620.39
525.31	3636.2
525.676	3688.41
526.043	3642.98
526.409	3695.19
526.776	3731.57
527.142	3758.46
527.508	3742.42
527.874	3839.14
528.241	3832.58
528.607	3832.58
528.973	3894.95
529.339	3890.66
529.705	3972.69
530.071	3986.03
530.437	3995.74
530.803	4016.31
531.169	4055.85
531.535	4067.15
531.901	4030.09
532.267	4077.1
532.632	4153.7
532.998	4169.98
533.364	4186.92
533.73	4196.87
534.095	4226.7
534.461	4236.41
534.826	4248.17
535.192	4318.22
535.557	4282.97
535.923	4349.63
536.288	4335.62
536.653	4344.43
537.019	4334.49
537.384	4411.78
537.749	4419.69
538.114	4468.72
538.479	4527.03
538.845	4472.79
539.21	4531.1
539.575	4537.65
539.94	4517.99
540.305	4569.74
540.67	4590.3
541.034	4613.35
541.399	4630.75
541.764	4643.63
542.129	4630.98
542.494	4656.74
542.858	4735.38
543.223	4713.69
543.587	4730.64
543.952	4768.38
544.316	4858.32
544.681	4760.02
545.045	4852.89
545.41	4861.48
545.774	4867.36
546.138	4899.22
546.503	4918.2
546.867	4945.1
547.231	4968.82
547.595	4958.65
547.959	5038.43
548.324	5025.55
548.688	5050.86
549.052	5114.36
549.416	5085.88
549.779	5141.02
550.143	5157.75
550.507	5151.19
550.871	5228.25
551.235	5240.46
551.599	5271.87
551.962	5309.61
552.326	5347.12
552.689	5392.32
553.053	5374.24
553.417	5421.24
553.78	5491.97
554.143	5460.34
554.507	5518.64
554.87	5544.63
555.234	5618.3
555.597	5578.75
555.96	5664.63
556.323	5718.41
556.686	5707.79
557.05	5797.73
557.413	5776.26
557.776	5862.59
558.139	5922.47
558.502	5901.45
558.865	5987.1
559.228	5998.4
559.59	6046.76
559.953	6110.94
560.316	6175.57
560.679	6213.31
561.041	6272.29
561.404	6322.01
561.767	6390.48
562.129	6342.12
562.492	6495.34
562.854	6524.72
563.217	6501.21
563.579	6553.42
563.941	6653.07
564.304	6718.16
564.666	6715.9
565.028	6842.9
565.39	6844.48
565.753	6969.9
566.115	7011.26
566.477	7108.88
566.839	7137.58
567.201	7205.6
567.563	7217.13
567.925	7361.53
568.287	7352.49
568.648	7389.78
569.01	7520.62
569.372	7627.29
569.734	7634.06
570.095	7681.75
570.457	7845.36
570.819	7855.98
571.18	7936.88
571.542	7992.25
571.903	8040.83
572.265	8176.42
572.626	8263.88
572.987	8350.43
573.349	8442.41
573.71	8448.51
574.071	8581.16
574.432	8657.31
574.794	8782.51
575.155	8874.71
575.516	8861.38
575.877	9024.08
576.238	9036.51
576.599	9182.95
576.96	9283.29
577.32	9405.77
577.681	9504.07
578.042	9598.08
578.403	9664.52
578.763	9853.67
579.124	9990.39
579.485	10081.01
579.845	10210.72
580.206	10340.89
580.566	10453.43
580.927	10620.65
581.287	10712.63
581.648	10745.17
582.008	11050.7
582.368	11156.46
582.728	11296.79
583.089	11434.87
583.449	11521.65
583.809	11813.16
584.169	11928.64
584.529	12111.01
584.889	12369.08
585.249	12424.45
585.609	12600.04
585.969	12901.5
586.329	13110.76
586.688	13339.45
587.048	13497.41
587.408	13744.41
587.768	13928.59
588.127	14145.76
588.487	14356.15
588.846	14767.44
589.206	14839.53
589.565	15106.18
589.925	15462.33
590.284	15665.94
590.643	16031.36
591.003	16344.8
591.362	16591.57
591.721	16814.16
592.08	17159.01
592.44	17494.6
592.799	17796.06
593.158	18159.89
593.517	18370.96
593.876	18775.01
594.235	19113.76
594.593	19501.78
594.952	19733.41
595.311	20122.32
595.67	20491.35
596.029	20981.28
596.387	21327.94
596.746	21691.55
597.104	21911.2
597.463	22266.67
597.822	22765.64
598.18	23030.04
598.538	23348.91
598.897	23856.69
599.255	24026.4
599.613	24677.68
599.972	24820.73
600.33	25380.94
600.688	25511.33
601.046	26014.82
601.404	26558.31
601.762	26838.53
602.12	27344.06
602.478	27673.31
602.836	27941.1
603.194	28238.49
603.552	28638.48
603.91	28789.67
604.268	29386.04
604.625	29731.79
604.983	30109.63
605.341	30375.16
605.698	30790.29
606.056	31101.24
606.413	31336.27
606.771	31790.72
607.128	32186.41
607.485	32401.78
607.843	32672.05
608.2	33136.67
608.557	33523.33
608.914	33595.42
609.272	34103.43
609.629	34383.42
609.986	34719.45
610.343	34656.63
610.7	35308.59
611.057	35572.31
611.414	35730.73
611.771	35990.61
612.127	36376.36
612.484	36564.83
612.841	36771.6
613.198	36866.52
613.554	37126.17
613.911	37523.45
614.267	37753.27
614.624	37862.65
614.98	38064.9
615.337	38429.41
615.693	38588.73
616.05	38760.25
616.406	39022.39
616.762	39020.36
617.118	39324.08
617.475	39355.72
617.831	39661.25
618.187	39902.14
618.543	40007.9
618.899	40420.55
619.255	40480.43
619.611	40590.03
619.967	40888.33
620.323	41092.39
620.678	40997.26
621.034	41058.95
621.39	41337.59
621.746	41281.32
622.101	41933.28
622.457	41660.97
622.812	41882.2
623.168	42068.41
623.523	42193.38
623.879	42177.11
624.234	41964.01
624.589	42383.43
624.945	42422.98
625.3	42463.21
625.655	42561.06
626.01	42611.22
626.365	42741.39
626.72	42816.87
627.075	43050.31
627.43	42861.61
627.785	42937.54
628.14	43101.61
628.495	43191.1
628.85	43258.21
629.205	43109.97
629.559	43427.7
629.914	43291.21
630.269	43479.22
630.623	43355.39
630.978	43366.91
631.332	43591.99
631.687	43654.13
632.041	43551.31
632.396	43612.1
632.75	43665.21
633.104	43812.32
633.459	43540.92
633.813	43602.16
634.167	43692.1
634.521	43757.41
634.875	43673.12
635.229	43706.34
635.583	43570.75
635.937	43628.82
636.291	43805.32
636.645	43710.18
636.999	43543.86
637.352	43697.98
637.706	43579.33
638.06	43789.5
638.413	43708.14
638.767	43747.24
639.121	43746.79
639.474	43462.73
639.828	43625.89
640.181	43686.68
640.534	43680.8
640.888	43687.58
641.241	43508.15
641.594	43733.23
641.947	43815.26
642.301	43664.76
642.654	43673.8
643.007	43717.41
643.36	43777.75
643.713	43624.08
644.066	43724.42
644.419	43520.8
644.771	43149.06
645.124	42801.73
645.477	42799.02
645.83	42716.31
646.182	42577.55
646.535	42578.46
646.888	42721.73
647.24	42417.78
647.593	42688.74
647.945	42624.78
648.298	42451.91
648.65	42453.26
649.002	42375.75
649.355	42475.63
649.707	42400.38
650.059	42510.66
650.411	43043.98
650.763	43082.85
651.115	43494.36
651.467	43393.12
651.819	43396.06
652.171	43336.85
652.523	43289.62
652.875	43276.29
653.227	43005.34
653.578	43350.41
653.93	43267.93
654.282	43247.59
654.633	43137.31
654.985	43104.54
655.337	43272.9
655.688	43250.53
656.039	43356.29
656.391	43009.41
656.742	43120.14
657.094	43143.87
657.445	43356.52
657.796	43142.96
658.147	43225.22
658.498	43253.47
658.849	43269.51
659.2	43057.54
659.551	42964.21
659.902	43156.97
660.253	43077.65
660.604	43144.54
660.955	42948.16
661.306	43174.15
661.656	43033.59
662.007	43056.41
662.358	43136.18
662.708	43120.36
663.059	43214.15
663.409	42858.22
663.76	43220.02
664.11	43219.57
664.461	43251.89
664.811	43159.91
665.161	43162.17
665.511	42929.18
665.862	43002.63
666.212	43335.27
666.562	43134.6
666.912	43187.48
667.262	43117.43
667.612	43206.46
667.962	43060.25
668.312	43098.44
668.662	43271.55
669.011	43169.63
669.361	43053.02
669.711	43086.92
670.06	42935.28
670.41	42858.9
670.76	42912.69
671.109	42995.39
671.459	42886.25
671.808	42881.5
672.157	43096.64
672.507	42647.83
672.856	42704.78
673.205	42815.51
673.554	42865.23
673.904	42707.94
674.253	43053.47
674.602	42892.8
674.951	42239.71
675.3	42109.99
675.649	42747.04
675.998	42678.12
676.346	42799.69
676.695	42924.44
677.044	42608.74
677.393	42710.43
677.741	42710.88
678.09	42502.07
678.438	42463.21
678.787	42539.81
679.135	42534.16
679.484	42304.34
679.832	42449.87
680.181	42277.9
680.529	42373.94
680.877	42244.68
681.225	42260.05
681.573	42340.95
681.922	42157.22
682.27	42021.41
682.618	42052.14
682.966	41950.22
683.314	42039.26
683.661	41860.96
684.009	41794.52
684.357	41712.04
684.705	41621.19
685.053	41727.41
685.4	41626.17
685.748	41473.63
686.095	41401.76
686.443	41207.65
686.79	41275.21
687.138	41214.88
687.485	41152.73
687.832	40924.94
688.18	41070.02
688.527	40950.25
688.874	40931.04
689.221	40909.57
689.568	40657.6
689.915	40570.15
690.262	40609.92
690.609	40519.53
690.956	40255.81
691.303	40430.04
691.65	40294.22
691.997	40296.26
692.344	39997.28
692.69	39929.03
693.037	40044.51
693.383	39656.95
693.73	39844.52
694.077	39426.22
694.423	39530.18
694.769	39451.31
695.116	39386.22
695.462	39461.48
695.808	39293.12
696.155	39222.39
696.501	38943.3
696.847	38973.35
697.193	38731.33
697.539	38874.15
697.885	38548.05
698.231	38479.13
698.577	38446.59
698.923	38324.33
699.269	38175.41
699.614	38125.24
699.96	38021.74
700.306	38012.02
700.651	37723.67
700.997	37746.72
701.342	37672.6
701.688	37617.01
702.033	37566.16
702.379	37502.21
702.724	37377.24
703.069	37492.71
703.415	37105.83
703.76	37055.44
704.105	37102.89
704.45	37014.31
704.795	36860.64
705.14	36702.23
705.485	36680.98
705.83	36582.46
706.175	36610.93
706.52	36486.64
706.865	36399.41
707.209	36403.93
707.554	36164.16
707.899	36267.21
708.243	35966.2
708.588	36042.58
708.932	35696.6
709.277	35755.36
709.621	35842.81
709.966	35458.42
710.31	35526.89
710.654	35232.21
710.998	35453.9
711.342	35351.3
711.687	35223.62
712.031	35163.51
712.375	35007.81
712.719	35153.12
713.063	34916.29
713.407	35102.04
713.75	34905.66
714.094	34953.12
714.438	34606.46
714.782	34913.8
715.125	34679
715.469	34612.11
715.812	34579.12
716.156	34333.02
716.499	34336.41
716.843	34349.52
717.186	34262.52
717.53	34225.91
717.873	34294.83
718.216	34107.94
718.559	34037.44
718.902	33834.28
719.246	34087.15
719.589	33843.77
719.932	33641.97
720.275	33790.21
720.617	33659.14
720.96	33541.41
721.303	33614.17
721.646	33627.73
721.989	33491.24
722.331	33564.23
722.674	33387.74
723.016	33501.18
723.359	33407.62
723.701	33365.59
724.044	33149.78
724.386	33006.51
724.729	33121.76
725.071	33098.48
725.413	33148.42
725.755	33054.41
726.097	32847.87
726.439	32776.45
726.782	32770.58
727.124	32832.72
727.465	32611.26
727.807	32583.47
728.149	32548.44
728.491	32534.88
728.833	32574.65
729.175	32467.54
729.516	32515.67
729.858	32384.83
730.199	32372.4
730.541	32318.61
730.882	32235.68
731.224	32276.58
731.565	32074.78
731.906	32155.23
732.248	32155.68
732.589	31927.44
732.93	32048.34
733.271	31970.6
733.612	31831.17
733.953	31919.98
734.294	31931.28
734.635	31794.11
734.976	31775.12
735.317	31724.73
735.658	31669.59
735.999	31714.79
736.339	31505.3
736.68	31708.91
737.021	31596.6
737.361	31401.12
737.702	31687.9
738.042	31355.93
738.383	31345.08
738.723	31314.8
739.063	31276.16
739.404	31289.49
739.744	31278.41
740.084	31174.69
740.424	31192.54
740.764	31062.38
741.104	31210.85
741.444	30948.25
741.784	30896.73
742.124	30780.57
742.464	31024.86
742.804	30819.44
743.143	30864.41
743.483	30832.32
743.823	30754.13
744.162	30579.45
744.502	30719.33
744.841	30548.94
745.181	30630.75
745.52	30576.51
745.86	30525.21
746.199	30534.93
746.538	30404.31
746.877	30534.71
747.216	30447.7
747.556	30275.05
747.895	30285.45
748.234	30258.1
748.573	30203.41
748.911	30158.9
749.25	30180.14
749.589	29967.94
749.928	29976.3
750.267	30177.2
750.605	29884.1
750.944	29879.81
751.283	29833.93
751.621	29914.38
751.96	29738.79
752.298	29727.95
752.636	29735.86
752.975	29573.37
753.313	29520.27
753.651	29434.62
753.989	29507.84
754.327	29499.7
754.666	29198.24
755.004	29359.6
755.342	29292.03
755.679	29177.23
756.017	29108.53
756.355	29230.79
756.693	28978.36
757.031	29046.84
757.368	28899.49
757.706	28821.53
758.044	28829.67
758.381	28834.64
758.719	28671.48
759.056	28688.88
759.394	28607.52
759.731	28352.39
760.068	28471.48
760.405	28300.19
760.743	28246.63
761.08	28256.12
761.417	28146.97
761.754	28161.21
762.091	28078.27
762.428	27917.37
762.765	27884.61
763.102	27817.71
763.438	27723.25
763.775	27653.65
764.112	27581.56
764.449	27585.86
764.785	27415.24
765.122	27326.65
765.458	27283.49
765.795	27083.72
766.131	27162.59
766.467	26949.49
766.804	27001.92
767.14	26811.87
767.476	26757.18
767.812	26597.63
768.148	26650.97
768.485	26517.41
768.821	26317.87
769.157	26313.8
769.492	26088.04
769.828	26263.18
770.164	26036.74
770.5	26021.6
770.836	26009.85
771.171	25850.99
771.507	25760.37
771.842	25495.29
772.178	25575.51
772.513	25528.28
772.849	25394.95
773.184	25381.62
773.519	25285.13
773.855	25254.39
774.19	25178.46
774.525	25008.07
774.86	25042.65
775.195	24917.45
775.53	24864.35
775.865	24775.99
776.2	24570.12
776.535	24331.48
776.87	24383.45
777.205	24321.08
777.539	24337.35
777.874	24267.75
778.209	24069.11
778.543	24142.11
778.878	23860.53
779.212	23872.51
779.547	23681.78
779.881	23780.76
780.215	23521.1
780.55	23728.56
780.884	23422.12
781.218	23462.8
781.552	23417.38
781.886	23252.64
782.22	23138.06
782.554	23044.96
782.888	22836.38
783.222	22847.22
783.556	22667.57
783.889	22706.21
784.223	22384.64
784.557	22406.56
784.89	22438.65
785.224	22322.49
785.557	22216.96
785.891	22164.76
786.224	22064.87
786.558	22114.14
786.891	22019.9
787.224	21814.71
787.557	21783.52
787.891	21767.25
788.224	21606.35
788.557	21742.62
788.89	21620.82
789.223	21556.41
789.556	21367.26
789.888	21339.47
790.221	21195.29
790.554	21143.09
790.887	21135.63
791.219	21039.81
791.552	21043.2
791.884	20888.63
792.217	20848.63
792.549	20706.04
792.882	20629.2
793.214	20451.35
793.546	20547.17
793.879	20512.6
794.211	20291.59
794.543	20400.51
794.875	20312.83
795.207	20296.78
795.539	20110.12
795.871	20224.24
796.203	19901.76
796.535	19899.73
796.867	19805.27
797.198	19870.35
797.53	19821.31
797.862	19707.87
798.193	19697.48
798.525	19543.81
798.856	19672.62
799.188	19390.82
799.519	19333.64
799.85	19243.7
800.182	19351.72
800.513	19306.07
800.844	19078.51
801.175	19152.41
801.506	19178.85
801.837	19079.41
802.168	18959.87
802.499	18892.3
802.83	18805.07
803.161	18733.43
803.491	18766.43
803.822	18706.54
804.153	18618.18
804.483	18497.28
804.814	18493.67
805.145	18389.26
805.475	18380.22
805.805	18331.64
806.136	18421.13
806.466	18262.26
806.796	18218.19
807.126	18081.7
807.457	18092.77
807.787	18101.13
808.117	18029.5
808.447	17912.66
808.777	17987.46
809.107	17892.78
809.436	17844.87
809.766	17817.75
810.096	17762.16
810.426	17646.46
810.755	17605.55
811.085	17600.81
811.414	17573.69
811.744	17467.25
812.073	17432.23
812.403	17451.89
812.732	17396.07
813.061	17347.03
813.39	17245.79
813.719	17128.5
814.049	17249.18
814.378	17190.42
814.707	17159.24
815.036	17063.87
815.365	17027.04
815.693	16913.59
816.022	16974.16
816.351	16792.47
816.68	16691
817.008	16657.33
817.337	16587.05
817.665	16596.54
817.994	16641.96
818.322	16682.41
818.651	16487.17
818.979	16481.74
819.307	16579.37
819.636	16509.54
819.964	16350.9
820.292	16380.28
820.62	16402.65
820.948	16294.18
821.276	16372.59
821.604	16305.25
821.932	16305.93
822.259	16389.09
822.587	16343.67
822.915	16192.71
823.243	16277.68
823.57	16277.45
823.898	16247.4
824.225	16055.09
824.553	16222.09
824.88	16323.1
825.207	16331.24
825.535	16263.44
825.862	16362.87
826.189	16247.4
826.516	16257.11
826.843	16290.33
827.17	16266.83
827.497	16320.16
827.824	16250.11
828.151	16349.54
828.478	16154.52
828.805	16341.86
829.131	16259.83
829.458	16166.95
829.785	16080.4
830.111	16169.21
830.438	16262.76
830.764	16205.82
831.09	16257.57
831.417	16252.37
831.743	16257.34
832.069	16221.18
832.395	16122.88
832.722	16213.95
833.048	16145.93
833.374	16135.76
833.7	16168.53
834.026	16059.83
834.351	16152.71
834.677	16088.76
835.003	16102.99
835.329	16046.05
835.654	16116.78
835.98	15940.74
836.306	16007.4
836.631	15950.46
836.956	15901.19
837.282	15940.51
837.607	15863.9
837.932	15912.94
838.258	15890.34
838.583	15868.42
838.908	15696.68
839.233	15819.84
839.558	15696
839.883	15729.22
840.208	15671.59
840.533	15654.42
840.858	15665.27
841.182	15693.74
841.507	15559.51
841.832	15573.97
842.156	15552.73
842.481	15519.06
842.805	15403.35
843.13	15402.9
843.454	15411.71
843.778	15397.93
844.103	15305.95
844.427	15204.49
844.751	15302.34
845.075	15351.38
845.399	15146.64
845.723	15050.82
846.047	15060.54
846.371	14945.51
846.695	14942.12
847.019	14759.3
847.343	14821.67
847.666	14734.44
847.99	14588.68
848.313	14681.11
848.637	14578.06
848.96	14422.13
849.284	14497.16
849.607	14395.69
849.931	14379.42
850.254	14330.61
850.577	14164.29
850.9	14144.18
851.223	14152.54
851.546	14003.84
851.869	13922.94
852.192	14019.21
852.515	13871.64
852.838	13824.86
853.161	13800.91
853.483	13793.45
853.806	13722.72
854.129	13676.62
854.451	13612.21
854.774	13584.42
855.096	13489.5
855.419	13528.6
855.741	13486.57
856.063	13294.71
856.385	13368.6
856.708	13329.06
857.03	13310.07
857.352	13315.95
857.674	13218.1
857.996	13174.94
858.318	13125.45
858.64	13116.86
858.961	13136.07
859.283	12937.43
859.605	12984.21
859.926	12966.35
860.248	12997.09
860.57	12881.38
860.891	12877.77
861.212	12828.96
861.534	12751.22
861.855	12765.23
862.176	12789.18
862.498	12740.37
862.819	12789.41
863.14	12730.88
863.461	12646.81
863.782	12654.72
864.103	12593.48
864.424	12600.04
864.745	12551.68
865.065	12636.87
865.386	12491.11
865.707	12504.45
866.027	12518
866.348	12421.74
866.668	12398.46
866.989	12324.34
867.309	12224.68
867.63	12301.74
867.95	12348.52
868.27	12235.98
868.59	12293.83
868.91	12249.54
869.23	12213.83
869.55	12194.85
869.87	12130.44
870.19	12100.84
870.51	12105.81
870.83	12166.83
871.15	12062.42
871.469	12022.42
871.789	12076.89
872.109	12023.55
872.428	11907.85
872.748	12063.1
873.067	11978.36
873.386	12038.24
873.706	11940.17
874.025	11909.43
874.344	11915.53
874.663	11940.39
874.982	11915.76
875.301	11886.61
875.62	11843.45
875.939	11844.12
876.258	11851.81
876.577	11740.62
876.896	11766.61
877.214	11690.91
877.533	11731.13
877.852	11705.6
878.17	11615.43
878.489	11654.07
878.807	11635.32
879.125	11660.63
879.444	11642.77
879.762	11486.84
880.08	11621.3
880.398	11466.96
880.716	11525.94
881.034	11453.85
881.352	11475.09
881.67	11441.65
881.988	11394.87
882.306	11409.78
882.624	11461.99
882.941	11392.84
883.259	11324.82
883.577	11352.16
883.894	11221.99
884.212	11197.81
884.529	11166.18
884.846	11174.31
885.164	11200.52
885.481	11109
885.798	11085.05
886.115	11059.06
886.432	11116.01
886.75	11052.96
887.067	10995.33
887.383	10976.35
887.7	11024.48
888.017	10887.09
888.334	10872.85
888.651	10904.26
888.967	10845.51
889.284	10743.81
889.6	10815.9
889.917	10706.75
890.233	10738.62
890.55	10683.02
890.866	10632.4
891.182	10579.52
891.498	10540.88
891.815	10534.1
892.131	10516.7
892.447	10505.18
892.763	10442.35
893.079	10462.47
893.395	10475.8
893.71	10420.43
894.026	10419.53
894.342	10373.88
894.657	10291.62
894.973	10178.4
895.289	10209.82
895.604	10289.36
895.92	10088.24
896.235	10135.47
896.55	10110.61
896.865	10074.68
897.181	9997.62
897.496	10024.96
897.811	9964.17
898.126	9939.99
898.441	9930.73
898.756	9861.12
899.071	9827.91
899.386	9836.04
899.7	9728.02
900.015	9602.37
900.33	9624.52
900.644	9660
900.959	9636.27
901.273	9652.32
901.588	9532.77
901.902	9485.09
902.216	9495.71
902.531	9457.29
902.845	9404.19
903.159	9344.08
903.473	9345.88
903.787	9288.26
904.101	9245.32
904.415	9228.37
904.729	9254.14
905.042	9151.99
905.356	9139.34
905.67	9128.71
905.984	9142.27
906.297	9020.92
906.611	9034.93
906.924	8951.09
907.237	8928.49
907.551	8923.3
907.864	8904.99
908.177	8798.1
908.491	8801.72
908.804	8763.75
909.117	8714.49
909.43	8690.76
909.743	8654.15
910.056	8616.41
910.368	8571.22
910.681	8546.36
910.994	8453.7
911.307	8488.28
911.619	8380.94
911.932	8438.34
912.244	8338.23
912.557	8331.22
912.869	8285.57
913.181	8259.13
913.494	8298.68
913.806	8208.51
914.118	8173.03
914.43	8156.99
914.742	8094.62
915.054	8022.53
915.366	8105.01
915.678	8013.04
915.99	7965.36
916.302	7881.97
916.613	7947.5
916.925	7921.06
917.236	7853.95
917.548	7785.25
917.859	7797.68
918.171	7726.94
918.482	7693.72
918.794	7631.8
919.105	7634.97
919.416	7615.08
919.727	7551.36
920.038	7535.08
920.349	7535.99
920.66	7440.4
920.971	7420.96
921.282	7373.96
921.593	7370.12
921.903	7325.37
922.214	7284.7
922.525	7236.11
922.835	7236.56
923.146	7141.65
923.456	7192.04
923.767	7152.72
924.077	7144.59
924.387	7130.58
924.697	7037.47
925.008	7035.66
925.318	6978.94
925.628	7005.83
925.938	6954.99
926.248	6885.61
926.558	6900.98
926.867	6831.37
927.177	6863.01
927.487	6783.24
927.796	6725.39
928.106	6729
928.416	6722.22
928.725	6691.49
929.034	6669.8
929.344	6653.53
929.653	6642.23
929.962	6555.9
930.271	6567.2
930.581	6489.91
930.89	6507.54
931.199	6458.5
931.508	6424.15
931.817	6413.31
932.125	6407.66
932.434	6342.35
932.743	6318.17
933.051	6249.47
933.36	6222.58
933.669	6265.29
933.977	6213.99
934.286	6204.27
934.594	6141
934.902	6099.42
935.21	6081.11
935.519	6075.69
935.827	6004.73
936.135	6005.18
936.443	6002.92
936.751	5924.73
937.059	6015.12
937.367	5877.27
937.674	5908.46
937.982	5863.94
938.29	5878.4
938.597	5834.11
938.905	5789.82
939.213	5716.83
939.52	5703.95
939.827	5664.85
940.135	5689.26
940.442	5621.91
940.749	5623.5
941.056	5649.71
941.363	5611.52
941.67	5602.25
941.977	5515.02
942.284	5504.18
942.591	5502.37
942.898	5438.87
943.205	5506.21
943.511	5448.36
943.818	5460.11
944.125	5394.58
944.431	5404.52
944.738	5360.9
945.044	5293.56
945.35	5257.86
945.657	5227.35
945.963	5254.24
946.269	5221.47
946.575	5223.51
946.881	5187.58
947.187	5167.91
947.493	5152.55
947.799	5107.35
948.105	5079.1
948.41	5023.96
948.716	5028.94
949.022	5011.08
949.327	5026.68
949.633	4975.38
949.938	4983.06
950.244	4954.14
950.549	4884.31
950.854	4888.37
951.16	4874.82
951.465	4834.82
951.77	4834.36
952.075	4794.14
952.38	4819.9
952.685	4796.17
952.99	4738.1
953.294	4735.38
953.599	4682.96
953.904	4682.96
954.209	4637.53
954.513	4656.74
954.818	4640.47
955.122	4610.19
955.426	4588.5
955.731	4521.15
956.035	4504.2
956.339	4535.16
956.643	4533.13
956.948	4471.89
957.252	4429.86
957.556	4439.8
957.86	4400.03
958.163	4437.54
958.467	4408.61
958.771	4397.77
959.075	4342.85
959.378	4304.21
959.682	4318.45
959.985	4297.66
960.289	4262.63
960.592	4231.67
960.896	4230.09
961.199	4191.9
961.502	4192.35
961.805	4167.72
962.108	4131.33
962.411	4148.96
962.714	4121.61
963.017	4154.83
963.32	4107.15
963.623	4038
963.926	4045.01
964.228	4048.85
964.531	4054.05
964.833	4002.97
965.136	4000.26
965.438	3993.03
965.741	3982.86
966.043	3934.73
966.345	3909.19
966.648	3875.07
966.95	3899.47
967.252	3832.13
967.554	3828.29
967.856	3786.71
968.158	3794.17
968.46	3738.57
968.761	3738.57
969.063	3772.92
969.365	3710.55
969.666	3745.35
969.968	3722.53
970.269	3693.38
970.571	3728.18
970.872	3656.32
971.174	3647.95
971.475	3613.38
971.776	3599.59
972.077	3603.44
972.378	3548.97
972.679	3573.15
972.98	3569.31
973.281	3535.42
973.582	3569.54
973.883	3525.47
974.183	3480.28
974.484	3469.43
974.785	3471.46
975.085	3494.29
975.386	3442.76
975.686	3403.67
975.986	3377.45
976.287	3437.11
976.587	3346.95
976.887	3332.26
977.187	3325.93
977.487	3321.18
977.787	3297.23
978.087	3297.46
978.387	3265.59
978.687	3263.78
978.987	3247.06
979.286	3226.27
979.586	3223.56
979.885	3204.8
980.185	3179.04
980.484	3167.74
980.784	3178.59
981.083	3129.55
981.382	3115.09
981.682	3149.21
981.981	3128.42
982.28	3090.46
982.579	3050
982.878	3046.84
983.177	3041.87
983.475	3037.12
983.774	3028.08
984.073	3031.25
984.372	3002.1
984.67	2968.88
984.969	2989.67
985.267	2958.93
985.566	2917.58
985.864	2854.08
986.162	2935.88
986.461	2902.21
986.759	2885.94
987.057	2853.85
987.355	2853.17
987.653	2828.09
987.951	2827.64
988.249	2828.77
988.547	2794.64
988.844	2773.85
989.142	2787.41
989.44	2757.13
989.737	2766.62
990.035	2731.37
990.332	2750.8
990.63	2659.51
990.927	2685.27
991.224	2699.05
991.521	2705.83
991.819	2651.37
992.116	2678.94
992.413	2656.12
992.71	2638.49
993.006	2647.08
993.303	2621.54
993.6	2574.99
993.897	2586.74
994.193	2591.49
994.49	2581.99
994.787	2542.22
995.083	2533.63
995.379	2552.16
995.676	2524.37
995.972	2480.3
996.268	2482.56
996.565	2475.78
996.861	2445.5
997.157	2454.99
997.453	2410.7
997.749	2432.62
998.044	2436.69
998.34	2409.34
998.636	2399.63
998.932	2376.35
999.227	2344.03
999.523	2369.8
999.818	2333.19
1000.114	2317.37
1000.409	2295.22
1000.704	2292.96
1001	2302
1001.295	2282.12
1001.59	2264.26
1001.885	2282.34
1002.18	2248.22
1002.475	2230.82
1002.77	2214.55
1003.065	2207.99
1003.359	2187.88
1003.654	2184.72
1003.949	2165.28
1004.243	2158.28
1004.538	2118.96
1004.832	2141.78
1005.127	2123.7
1005.421	2123.02
1005.715	2114.44
1006.009	2092.06
1006.304	2082.8
1006.598	2059.52
1006.892	2028.79
1007.186	2045.06
1007.48	2027.43
1007.773	2027.43
1008.067	2003.7
1008.361	1977.49
1008.655	1984.04
1008.948	1967.77
1009.242	1919.86
1009.535	1958.73
1009.829	1957.83
1010.122	1932.52
1010.415	1929.58
1010.708	1925.97
1011.001	1920.09
1011.295	1896.81
1011.588	1862.69
1011.881	1862.47
1012.173	1848.68
1012.466	1828.12
1012.759	1843.48
1013.052	1856.82
1013.344	1814.1
1013.637	1794.9
1013.93	1779.76
1014.222	1773.43
1014.514	1770.94
1014.807	1742.92
1015.099	1717.38
1015.391	1766.87
1015.683	1720.77
1015.976	1706.54
1016.268	1687.55
1016.56	1688.91
1016.851	1686.88
1017.143	1663.83
1017.435	1662.47
1017.727	1668.35
1018.018	1650.49
1018.31	1633.54
1018.602	1621.34
1018.893	1644.39
1019.185	1579.53
1019.476	1610.72
1019.767	1565.52
1020.058	1603.26
1020.35	1566.2
1020.641	1536.15
1020.932	1539.76
1021.223	1528.69
1021.514	1507.22
1021.804	1473.32
1022.095	1495.92
1022.386	1476.94
1022.677	1485.3
1022.967	1494.79
1023.258	1464.51
1023.548	1415.25
1023.839	1442.82
1024.129	1442.14
1024.419	1433.32
1024.709	1395.13
1025	1390.16
1025.29	1364.63
1025.58	1390.39
1025.87	1370.05
1026.16	1330.28
1026.449	1376.38
1026.739	1313.1
1027.029	1349.94
1027.319	1320.78
1027.608	1327.79
1027.898	1311.97
1028.187	1309.26
1028.477	1295.02
1028.766	1274.46
1029.055	1266.1
1029.344	1259.32
1029.634	1254.8
1029.923	1250.05
1030.212	1261.35
1030.501	1218.19
1030.79	1196.72
1031.078	1207.79
1031.367	1208.02
1031.656	1197.17
1031.945	1196.04
1032.233	1187.45
1032.522	1186.78
1032.81	1174.57
1033.099	1149.26
1033.387	1140.45
1033.675	1132.54
1033.963	1174.8
1034.251	1122.6
1034.54	1091.19
1034.828	1104.74
1035.116	1109.04
1035.403	1106.55
1035.691	1082.37
1035.979	1072.2
1036.267	1071.75
1036.554	1074.92
1036.842	1074.24
1037.129	1052.09
1037.417	1022.04
1037.704	1056.84
1037.992	1019.1
1038.279	1034.46
1038.566	1005.31
1038.853	1005.31
1039.14	1005.31
