Data from red_cardboard_box_FLMS001491_00033.txt Node
Date: Wed Feb 08 11:32:05 GMT 2017
User: dcchb
Spectrometer: FLMS00149
Trigger mode: 0
Integration Time (sec): 2.000000E-2
Scans to average: 10
Electric dark correction enabled: true
Nonlinearity correction enabled: false
Boxcar width: 0
XAxis mode: Wavelengths
Number of Pixels in Spectrum: 2048
>>>>>Begin Spectral Data<<<<<
341.393	-38.19
341.776	-38.19
342.16	-38.19
342.543	-33.67
342.927	-77.51
343.31	-69.83
343.693	-82.71
344.077	-42.94
344.46	-75.93
344.843	-47
345.226	-42.48
345.61	-35.71
345.993	-23.05
346.376	-13.56
346.759	-1.81
347.142	39.32
347.525	45.87
347.908	79.09
348.291	64.86
348.674	100.79
349.057	105.08
349.44	118.19
349.823	142.82
350.206	176.72
350.588	223.27
350.971	225.76
351.354	239.77
351.737	261.24
352.119	248.58
352.502	263.5
352.884	265.76
353.267	296.72
353.65	297.62
354.032	287.22
354.414	302.59
354.797	308.92
355.179	324.74
355.562	323.83
355.944	312.31
356.326	329.71
356.709	348.01
357.091	344.4
357.473	360.67
357.855	354.11
358.238	361.35
358.62	352.99
359.002	341.23
359.384	344.85
359.766	329.93
360.148	346.88
360.53	348.47
360.912	357.05
361.294	336.94
361.676	334
362.057	350.27
362.439	314.12
362.821	338.75
363.203	341.46
363.584	337.84
363.966	357.73
364.348	331.29
364.729	336.49
365.111	308.24
365.493	315.25
365.874	317.28
366.256	321.35
366.637	312.76
367.019	330.16
367.4	310.95
367.781	291.97
368.163	322.03
368.544	301.91
368.925	322.48
369.306	315.25
369.688	316.15
370.069	308.01
370.45	302.59
370.831	311.86
371.212	317.28
371.593	311.86
371.974	296.49
372.355	303.95
372.736	324.51
373.117	303.04
373.498	333.1
373.879	314.12
374.26	326.77
374.641	305.75
375.021	310.5
375.402	337.17
375.783	327.45
376.163	356.83
376.544	316.15
376.925	321.57
377.305	327.67
377.686	333.78
378.066	328.58
378.447	328.35
378.827	300.33
379.208	326.32
379.588	322.25
379.968	325.42
380.349	318.41
380.729	337.62
381.109	341.91
381.489	335.36
381.87	324.51
382.25	326.55
382.63	322.7
383.01	345.75
383.39	329.71
383.77	336.94
384.15	337.39
384.53	332.19
384.91	359.31
385.29	355.47
385.67	365.19
386.049	350.5
386.429	336.26
386.809	348.92
387.189	347.34
387.568	343.27
387.948	352.99
388.328	366.09
388.707	320.9
389.087	356.83
389.466	347.56
389.846	345.75
390.225	340.56
390.605	373.1
390.984	348.69
391.363	348.24
391.743	353.21
392.122	373.32
392.501	363.38
392.881	338.07
393.26	371.52
393.639	341.46
394.018	347.79
394.397	369.26
394.776	357.05
395.155	356.37
395.534	372.65
395.913	368.35
396.292	365.87
396.671	360.67
397.05	362.02
397.429	346.66
397.808	355.02
398.186	350.5
398.565	361.8
398.944	369.71
399.323	367.45
399.701	364.96
400.08	381.23
400.458	381.91
400.837	383.72
401.215	381.91
401.594	371.29
401.972	363.38
402.351	379.65
402.729	392.98
403.107	398.18
403.486	377.62
403.864	386.43
404.242	388.46
404.62	379.88
404.999	399.09
405.377	381.23
405.755	390.95
406.133	409.03
406.511	390.95
406.889	402.25
407.267	408.12
407.645	388.24
408.023	414.23
408.401	396.37
408.779	414.23
409.156	403.61
409.534	406.32
409.912	399.99
410.29	412.87
410.667	414.68
411.045	414.23
411.422	416.03
411.8	413.55
412.178	425.3
412.555	427.56
412.933	409.25
413.31	404.28
413.687	444.51
414.065	440.21
414.442	435.92
414.819	415.81
415.197	417.84
415.574	445.41
415.951	430.05
416.328	427.11
416.705	426.43
417.082	449.25
417.46	450.16
417.837	434.11
418.214	456.49
418.591	445.19
418.967	454.68
419.344	467.33
419.721	450.84
420.098	454.23
420.475	432.08
420.852	460.55
421.228	460.55
421.605	462.81
421.982	459.2
422.358	464.17
422.735	463.49
423.111	456.03
423.488	472.76
423.864	450.84
424.241	477.28
424.617	464.17
424.994	472.98
425.37	473.21
425.746	472.08
426.123	482.47
426.499	488.8
426.875	477.95
427.251	475.92
427.627	487.44
428.003	469.14
428.379	491.06
428.756	473.89
429.132	478.18
429.507	482.02
429.883	510.5
430.259	517.27
430.635	531.74
431.011	509.37
431.387	527.67
431.763	522.25
432.138	497.84
432.514	515.47
432.89	536.71
433.265	504.62
433.641	514.56
434.016	539.19
434.392	523.15
434.767	537.39
435.143	551.17
435.518	541.45
435.894	557.5
436.269	528.35
436.644	565.41
437.02	545.3
437.395	563.38
437.77	571.06
438.145	575.13
438.52	548.69
438.895	583.71
439.271	563.15
439.646	591.85
440.021	572.41
440.395	589.81
440.77	571.06
441.145	596.37
441.52	595.92
441.895	611.28
442.27	578.06
442.645	580.55
443.019	593.43
443.394	592.53
443.769	606.99
444.143	592.53
444.518	598.85
444.892	597.72
445.267	593.66
445.641	601.57
446.016	598.85
446.39	597.72
446.764	625.07
447.139	612.19
447.513	618.29
447.887	619.64
448.262	633.43
448.636	634.79
449.01	629.81
449.384	628.46
449.758	619.64
450.132	640.21
450.506	644.5
450.88	634.33
451.254	623.71
451.628	652.86
452.002	649.47
452.376	655.58
452.75	665.52
453.123	666.65
453.497	682.02
453.871	648.34
454.244	663.03
454.618	672.3
454.992	687.67
455.365	706.87
455.739	682.92
456.112	701.68
456.486	699.42
456.859	717.72
457.232	720.88
457.606	717.04
457.979	705.52
458.352	728.34
458.725	707.78
459.099	701.9
459.472	732.64
459.845	757.95
460.218	734.44
460.591	749.81
460.964	738.74
461.337	763.14
461.71	757.49
462.083	773.09
462.456	779.41
462.829	768.34
463.201	797.49
463.574	796.14
463.947	803.14
464.32	823.26
464.692	799.08
465.065	805.63
465.438	811.28
465.81	846.31
466.183	818.28
466.555	832.07
466.928	823.03
467.3	872.07
467.672	817.61
468.045	884.27
468.417	866.19
468.789	848.57
469.161	874.1
469.534	890.82
469.906	886.53
470.278	893.31
470.65	895.12
471.022	901.9
471.394	934.44
471.766	926.76
472.138	954.33
472.51	955.68
472.882	952.74
473.253	959.97
473.625	964.95
473.997	988.45
474.369	1001.78
474.74	1002.23
475.112	1020.54
475.484	1024.83
475.855	1024.83
476.227	1065.73
476.598	1067.32
476.97	1086.53
477.341	1100.99
477.713	1090.59
478.084	1115.22
478.455	1129.46
478.827	1133.08
479.198	1149.12
479.569	1162.68
479.94	1182.57
480.311	1205.62
480.682	1209.23
481.053	1232.51
481.424	1231.61
481.795	1234.77
482.166	1263.47
482.537	1262.79
482.908	1290.81
483.279	1295.11
483.65	1314.99
484.021	1340.3
484.391	1345.73
484.762	1363.81
485.133	1360.87
485.503	1394.09
485.874	1376.23
486.244	1411.94
486.615	1446.97
486.985	1453.75
487.356	1444.26
487.726	1451.26
488.097	1522.22
488.467	1498.49
488.837	1524.71
489.207	1551.6
489.578	1547.98
489.948	1573.74
490.318	1613.52
490.688	1607.87
491.058	1628.21
491.428	1663.01
491.798	1695.77
492.168	1681.31
492.538	1715.44
492.908	1705.94
493.278	1720.63
493.648	1710.92
494.017	1761.76
494.387	1757.47
494.757	1777.35
495.126	1811.03
495.496	1789.78
495.866	1827.3
496.235	1822.32
496.605	1832.95
496.974	1847.18
497.344	1857.35
497.713	1882.89
498.082	1899.61
498.452	1912.49
498.821	1901.42
499.19	1933.96
499.559	1916.79
499.928	1948.42
500.298	1945.71
500.667	1992.49
501.036	1980.51
501.405	1996.11
501.774	1988.87
502.143	2028.87
502.512	1997.69
502.88	2022.77
503.249	2048.08
503.618	2079.49
503.987	2067.29
504.356	2072.49
504.724	2132.37
505.093	2096.89
505.462	2115.65
505.83	2132.83
506.199	2134.41
506.567	2160.62
506.936	2173.73
507.304	2172.37
507.672	2217.79
508.041	2241.97
508.409	2223.44
508.777	2271.13
509.145	2293.05
509.514	2253.95
509.882	2247.4
510.25	2257.79
510.618	2303.22
510.986	2310.22
511.354	2333.95
511.722	2352.71
512.09	2370.11
512.458	2359.03
512.826	2390.67
513.193	2409.43
513.561	2434.74
513.929	2460.27
514.297	2472.48
514.664	2417.11
515.032	2464.12
515.4	2504.11
515.767	2488.52
516.135	2519.93
516.502	2535.75
516.869	2565.13
517.237	2604
517.604	2553.15
517.972	2617.78
518.339	2630.67
518.706	2576.43
519.073	2678.12
519.44	2676.09
519.808	2698.69
520.175	2685.58
520.542	2738.91
520.909	2739.59
521.276	2752.24
521.643	2799.93
522.009	2801.96
522.376	2823.88
522.743	2819.59
523.11	2826.59
523.477	2868.4
523.843	2934.84
524.21	2959.47
524.577	2960.6
524.943	2963.99
525.31	2966.02
525.676	3000.15
526.043	3039.02
526.409	3056.87
526.776	3065.68
527.142	3088.28
527.508	3108.17
527.874	3142.06
528.241	3180.48
528.607	3171.22
528.973	3175.51
529.339	3197.66
529.705	3205.57
530.071	3253.02
530.437	3267.26
530.803	3248.73
531.169	3265.9
531.535	3316.52
531.901	3335.73
532.267	3335.28
532.632	3360.14
532.998	3380.25
533.364	3392.91
533.73	3390.65
534.095	3413.02
534.461	3469.51
534.826	3434.71
535.192	3494.82
535.557	3497.31
535.923	3548.16
536.288	3535.05
536.653	3547.48
537.019	3562.62
537.384	3542.28
537.749	3598.32
538.114	3586.35
538.479	3606.91
538.845	3648.27
539.21	3623.86
539.575	3660.24
539.94	3685.33
540.305	3706.12
540.67	3701.15
541.034	3732.78
541.399	3762.16
541.764	3767.13
542.129	3773.46
542.494	3821.37
542.858	3780.24
543.223	3819.79
543.587	3820.92
543.952	3851.88
544.316	3863.18
544.681	3873.57
545.045	3887.58
545.41	3936.39
545.774	3964.19
546.138	3942.5
546.503	3958.54
546.867	3973.23
547.231	4009.16
547.595	4064.75
547.959	4076.05
548.324	4087.35
548.688	4085.32
549.052	4057.97
549.416	4078.31
549.779	4086.9
550.143	4170.51
550.507	4204.41
550.871	4250.96
551.235	4187.91
551.599	4272.66
551.962	4290.96
552.326	4265.88
552.689	4293.67
553.053	4331.86
553.417	4310.62
553.78	4384.07
554.143	4407.12
554.507	4391.97
554.87	4411.41
555.234	4510.16
555.597	4485.98
555.96	4502.93
556.323	4542.48
556.686	4583.38
557.05	4629.71
557.413	4654.11
557.776	4700.44
558.139	4716.94
558.502	4735.47
558.865	4703.83
559.228	4777.73
559.59	4829.48
559.953	4817.95
560.316	4876.26
560.679	4855.92
561.041	4958.51
561.404	4958.29
561.767	5023.82
562.129	5038.96
562.492	5127.77
562.854	5127.1
563.217	5139.98
563.579	5179.3
563.941	5221.11
564.304	5282.12
564.666	5344.49
565.028	5449.8
565.39	5427.88
565.753	5442.34
566.115	5517.82
566.477	5534.54
566.839	5543.36
567.201	5618.38
567.563	5623.58
567.925	5730.02
568.287	5724.37
568.648	5783.8
569.01	5847.76
569.372	5879.17
569.734	5915.78
570.095	6047.07
570.457	6062.89
570.819	6162.55
571.18	6150.8
571.542	6269.44
571.903	6221.08
572.265	6347.4
572.626	6360.96
572.987	6376.1
573.349	6483.9
573.71	6550.34
574.071	6594.63
574.432	6674.85
574.794	6733.38
575.155	6848.63
575.516	6839.37
575.877	6917.11
576.238	6983.77
576.599	7090.44
576.96	7157.33
577.32	7153.71
577.681	7312.58
578.042	7388.51
578.403	7443.42
578.763	7524.1
579.124	7569.07
579.485	7708.95
579.845	7807.25
580.206	7880.24
580.566	8006.12
580.927	8058.32
581.287	8216.06
581.648	8213.8
582.008	8374.47
582.368	8524.07
582.728	8559.1
583.089	8736.72
583.449	8820.33
583.809	8940.33
584.169	9080.21
584.529	9166.31
584.889	9366.53
585.249	9493.76
585.609	9554.55
585.969	9744.38
586.329	9855.33
586.688	10066.4
587.048	10169.68
587.408	10284.48
587.768	10503.68
588.127	10688.98
588.487	10847.62
588.846	11112.93
589.206	11212.13
589.565	11415.75
589.925	11628.17
590.284	11747.94
590.643	12041.94
591.003	12211.2
591.362	12440.35
591.721	12629.72
592.08	12925.54
592.44	13123.27
592.799	13360.33
593.158	13654.56
593.517	13881.89
593.876	14104.71
594.235	14284.6
594.593	14658.6
594.952	14816.56
595.311	15001.19
595.67	15367.28
596.029	15706.48
596.387	15948.28
596.746	16175.17
597.104	16405.44
597.463	16686.34
597.822	17033.45
598.18	17286.78
598.538	17521.8
598.897	17923.37
599.255	18134.89
599.613	18567.65
599.972	18845.15
600.33	19239.04
600.688	19349.1
601.046	19644.91
601.404	20079.02
601.762	20274.95
602.12	20725.1
602.478	20984.31
602.836	21216.39
603.194	21370.29
603.552	21786.77
603.91	22031.74
604.268	22328.45
604.625	22524.61
604.983	22962.11
605.341	23093.86
605.698	23462.66
606.056	23832.37
606.413	23994.85
606.771	24399.58
607.128	24671.44
607.485	24762.96
607.843	25042.96
608.2	25359.56
608.557	25864.86
608.914	25800.45
609.272	26142.14
609.629	26384.39
609.986	26776.92
610.343	26817.15
610.7	27274.54
611.057	27328.1
611.414	27614.64
611.771	27928.53
612.127	28138.7
612.484	28228.41
612.841	28615.74
613.198	28621.62
613.554	28782.97
613.911	29083.53
614.267	29298.21
614.624	29333.24
614.98	29511.54
615.337	29891.19
615.693	29966.67
616.05	30073.33
616.406	30417.96
616.762	30462.7
617.118	30616.14
617.475	30837.16
617.831	31094.32
618.187	31101.1
618.543	31375.45
618.899	31657.02
619.255	31738.83
619.611	31779.73
619.967	32081.87
620.323	32275.54
620.678	32112.6
621.034	32137.91
621.39	32376.78
621.746	32346.95
622.101	32815.18
622.457	32697.45
622.812	32885.24
623.168	33009.53
623.523	33011.56
623.879	33330.88
624.234	33196.87
624.589	33379.01
624.945	33370.2
625.3	33518.67
625.655	33656.06
626.01	33613.81
626.365	33899
626.72	33796.85
627.075	33951.42
627.43	34037.07
627.785	34023.74
628.14	34034.36
628.495	34277.06
628.85	34186.45
629.205	34149.38
629.559	34531.97
629.914	34296.95
630.269	34422.15
630.623	34345.54
630.978	34420.11
631.332	34565.19
631.687	34725.64
632.041	34504.4
632.396	34688.58
632.75	34548.02
633.104	34690.39
633.459	34460.79
633.813	34462.6
634.167	34602.93
634.521	34623.27
634.875	34746.43
635.229	34705.98
635.583	34689.48
635.937	34690.16
636.291	34697.17
636.645	34844.51
636.999	34650.39
637.352	34756.37
637.706	34529.26
638.06	34710.5
638.413	34764.74
638.767	34628.24
639.121	34753.44
639.474	34529.04
639.828	34643.61
640.181	34858.97
640.534	34776.26
640.888	34768.8
641.241	34596.83
641.594	34663.27
641.947	34912.53
642.301	34707.79
642.654	34753.66
643.007	34724.74
643.36	34815.81
643.713	34695.13
644.066	34779.2
644.419	34591.86
644.771	34336.05
645.124	33991.2
645.477	33990.97
645.83	33949.62
646.182	33819.68
646.535	33804.99
646.888	33888.6
647.24	33785.33
647.593	34068.93
647.945	33993.23
648.298	33747.14
648.65	33841.14
649.002	33663.07
649.355	33889.5
649.707	33753.01
650.059	33932.67
650.411	34232.55
650.763	34307.35
651.115	34821.46
651.467	34514.8
651.819	34598.86
652.171	34613.33
652.523	34611.97
652.875	34552.76
653.227	34389.15
653.578	34585.53
653.93	34614.23
654.282	34437.96
654.633	34479.32
654.985	34559.77
655.337	34356.84
655.688	34496.27
656.039	34680.67
656.391	34382.15
656.742	34372.88
657.094	34476.16
657.445	34458.98
657.796	34526.1
658.147	34425.08
658.498	34425.31
658.849	34424.41
659.2	34401.81
659.551	34375.37
659.902	34469.15
660.253	34432.77
660.604	34516.38
660.955	34179.21
661.306	34329.49
661.656	34296.73
662.007	34376.27
662.358	34473.9
662.708	34508.47
663.059	34465.08
663.409	34240.91
663.76	34468.25
664.11	34508.25
664.461	34572.88
664.811	34526.55
665.161	34498.3
665.511	34455.37
665.862	34534.01
666.212	34523.84
666.562	34498.75
666.912	34343.5
667.262	34467.34
667.612	34496.04
667.962	34454.69
668.312	34445.87
668.662	34563.16
669.011	34524.74
669.361	34539.88
669.711	34480.68
670.06	34379.66
670.41	34170.4
670.76	34201.13
671.109	34456.95
671.459	34313.45
671.808	34260.79
672.157	34393.22
672.507	34073.45
672.856	34163.4
673.205	34225.77
673.554	34333.56
673.904	34166.79
674.253	34336.5
674.602	34208.82
674.951	33695.16
675.3	33727.7
675.649	34108.26
675.998	34083.62
676.346	34182.15
676.695	34174.24
677.044	33873.69
677.393	34036.62
677.741	34117.75
678.09	33914.14
678.438	33860.8
678.787	34060.35
679.135	33925.44
679.484	33770.19
679.832	33966.34
680.181	33831.2
680.529	33908.71
680.877	33727.93
681.225	33712.11
681.573	33818.32
681.922	33786.91
682.27	33628.27
682.618	33689.51
682.966	33478.67
683.314	33567.48
683.661	33544.88
684.009	33445.9
684.357	33212.46
684.705	33206.81
685.053	33307.37
685.4	33145.57
685.748	33065.35
686.095	33125.68
686.443	32944.9
686.79	32795.75
687.138	32877.78
687.485	32927.27
687.832	32627.39
688.18	32751.23
688.527	32560.95
688.874	32619.71
689.221	32324.35
689.568	32420.39
689.915	32307.85
690.262	32433.27
690.609	32254.75
690.956	32212.49
691.303	32084.81
691.65	31986.96
691.997	32001.42
692.344	31860.63
692.69	31900.63
693.037	31847.98
693.383	31415.45
693.73	31664.93
694.077	31560.53
694.423	31461.77
694.769	31445.95
695.116	31423.13
695.462	31204.6
695.808	31192.17
696.155	31163.02
696.501	30954.89
696.847	31061.78
697.193	30800.77
697.539	30897.04
697.885	30740.66
698.231	30731.85
698.577	30629.48
698.923	30498.41
699.269	30451.63
699.614	30248.02
699.96	30189.26
700.306	30238.07
700.651	30163.27
700.997	30090.28
701.342	30044.86
701.688	29907.24
702.033	29904.75
702.379	29891.19
702.724	29752.66
703.069	29955.6
703.415	29515.61
703.76	29573.01
704.105	29611.42
704.45	29426.57
704.795	29339.79
705.14	29281.72
705.485	29168.95
705.83	29130.08
706.175	29166.46
706.52	29059.8
706.865	28935.96
707.209	28926.02
707.554	28833.82
707.899	28785.23
708.243	28749.07
708.588	28653.48
708.932	28474.73
709.277	28493.71
709.621	28459.36
709.966	28213.27
710.31	28380.04
710.654	28120.39
710.998	28216.43
711.342	28194.06
711.687	28189.99
712.031	27968.3
712.375	27835.43
712.719	27827.52
713.063	27866.61
713.407	28019.38
713.75	27738.71
714.094	27847.86
714.438	27642.21
714.782	27672.72
715.125	27455.78
715.469	27630.91
715.812	27468.2
716.156	27280.41
716.499	27374.42
716.843	27303.91
717.186	27235.89
717.53	27336.23
717.873	27282.45
718.216	27179.62
718.559	27163.35
718.902	26946.18
719.246	27070.25
719.589	26821.67
719.932	26795.23
720.275	26817.6
720.617	26789.13
720.96	26713.65
721.303	26791.16
721.646	26815.11
721.989	26594.55
722.331	26688.79
722.674	26586.42
723.016	26670.71
723.359	26535.8
723.701	26549.13
724.044	26337.39
724.386	26345.52
724.729	26458.06
725.071	26313.88
725.413	26372.19
725.755	26247.9
726.097	26082.03
726.439	26042.93
726.782	26029.37
727.124	26095.81
727.465	25976.49
727.807	26050.16
728.149	26017.17
728.491	25791.86
728.833	25910.73
729.175	25800.45
729.516	25761.58
729.858	25743.05
730.199	25728.82
730.541	25820.79
730.882	25704.63
731.224	25825.76
731.565	25707.8
731.906	25566.56
732.248	25603.85
732.589	25468.48
732.93	25430.97
733.271	25360.46
733.612	25451.31
733.953	25296.51
734.294	25311.42
734.635	25307.36
734.976	25409.28
735.317	25201.82
735.658	25318.88
735.999	25188.49
736.339	25225.55
736.68	25218.32
737.021	25116.4
737.361	24954.15
737.702	25271.65
738.042	25104.65
738.383	24974.03
738.723	25089.51
739.063	24909.85
739.404	24887.93
739.744	24776.07
740.084	24732.91
740.424	24729.07
740.764	24803.87
741.104	24747.15
741.444	24666.02
741.784	24540.37
742.124	24580.6
742.464	24547.6
742.804	24666.92
743.143	24566.59
743.483	24570.65
743.823	24546.25
744.162	24447.27
744.502	24577.88
744.841	24377.21
745.181	24446.14
745.52	24377.44
745.86	24370.21
746.199	24201.62
746.538	24157.78
746.877	24297.67
747.216	24257.44
747.556	24200.95
747.895	24245.69
748.234	24134.05
748.573	24021.06
748.911	24007.96
749.25	23899.26
749.589	23815.87
749.928	23934.51
750.267	23921.86
750.605	23923.21
750.944	23840.96
751.283	23722.09
751.621	23792.14
751.96	23616.33
752.298	23757.79
752.636	23645.48
752.975	23585.37
753.313	23375.66
753.651	23619.04
753.989	23447.75
754.327	23330.01
754.666	23344.92
755.004	23405.49
755.342	23321.19
755.679	23233.51
756.017	23131.37
756.355	23138.6
756.693	23190.8
757.031	23154.87
757.368	22967.98
757.706	22927.98
758.044	22958.94
758.381	22941.09
758.719	22785.16
759.056	22793.3
759.394	22737.71
759.731	22730.48
760.068	22582.91
760.405	22629.01
760.743	22404.38
761.08	22508.33
761.417	22328.9
761.754	22406.42
762.091	22365.97
762.428	22252.07
762.765	22017.05
763.102	22203.71
763.438	22056.37
763.775	21874.91
764.112	21995.35
764.449	21965.3
764.785	21826.77
765.122	21801.91
765.458	21516.72
765.795	21591.3
766.131	21495.71
766.467	21454.8
766.804	21445.54
767.14	21329.38
767.476	21303.85
767.812	21193.12
768.148	21250.97
768.485	20989.5
768.821	20956.96
769.157	20921.03
769.492	20982.73
769.828	20992.22
770.164	20622.73
770.5	20715.16
770.836	20648.27
771.171	20635.39
771.507	20538.44
771.842	20428.84
772.178	20401.27
772.513	20323.76
772.849	20311.78
773.184	20175.06
773.519	20197.89
773.855	20078.34
774.19	20027.04
774.525	19961.74
774.86	19936.42
775.195	19878.35
775.53	19718.35
775.865	19667.73
776.2	19596.32
776.535	19467.28
776.87	19436.55
777.205	19302.32
777.539	19296.89
777.874	19383.67
778.209	19214.64
778.543	19207.86
778.878	19079.05
779.212	18971.25
779.547	18825.49
779.881	18881.09
780.215	18802.9
780.55	18809
780.884	18698.72
781.218	18626.85
781.552	18620.98
781.886	18523.81
782.22	18428.67
782.554	18324.26
782.888	18189.8
783.222	18147.77
783.556	18032.29
783.889	18008.57
784.223	17884.73
784.557	17937.61
784.89	17908.91
785.224	17781.91
785.557	17700.1
785.891	17659.87
786.224	17654
786.558	17571.97
786.891	17471.41
787.224	17377.85
787.557	17320.22
787.891	17408.36
788.224	17357.74
788.557	17181.02
788.89	17119.78
789.223	17082.26
789.556	16980.34
789.888	16993.9
790.221	16932.21
790.554	16719.11
790.887	16826
791.219	16738.32
791.552	16580.58
791.884	16594.82
792.217	16599.79
792.549	16534.25
792.882	16419
793.214	16341.94
793.546	16412
793.879	16220.14
794.211	16105.11
794.543	16091.1
794.875	16155.73
795.207	16177.2
795.539	16069.63
795.871	16165.22
796.203	15955.74
796.535	15759.13
796.867	15874.61
797.198	15806.14
797.53	15838.91
797.862	15630.55
798.193	15683.2
798.525	15565.01
798.856	15648.85
799.188	15372.7
799.519	15434.62
799.85	15365.47
800.182	15351.23
800.513	15293.16
800.844	15114.18
801.175	15336.32
801.506	15141.97
801.837	15103.56
802.168	15111.92
802.499	14996.22
802.83	14969.55
803.161	14965.71
803.491	14920.06
803.822	14889.78
804.153	14866.28
804.483	14665.6
804.814	14726.39
805.145	14675.55
805.475	14624.93
805.805	14585.15
806.136	14570.01
806.466	14512.39
806.796	14554.19
807.126	14421.99
807.457	14343.58
807.787	14423.8
808.117	14356.91
808.447	14413.86
808.777	14315.56
809.107	14277.59
809.436	14115.79
809.766	14105.84
810.096	14137.48
810.426	14071.95
810.755	14073.3
811.085	14065.62
811.414	14055.45
811.744	13850.26
812.073	13979.29
812.403	13948.79
812.732	13791.95
813.061	13868.56
813.39	13713.09
813.719	13634.22
814.049	13671.05
814.378	13667.44
814.707	13563.03
815.036	13581.11
815.365	13592.64
815.693	13402.13
816.022	13390.83
816.351	13309.93
816.68	13395.35
817.008	13382.92
817.337	13270.39
817.665	13215.7
817.994	13311.51
818.322	13268.13
818.651	13231.74
818.979	13162.14
819.307	13232.87
819.636	13113.55
819.964	13019.09
820.292	13053.44
820.62	13012.99
820.948	13037.62
821.276	13104.06
821.604	13064.29
821.932	13004.86
822.259	13097.28
822.587	12939.77
822.915	12974.8
823.243	13023.16
823.57	12941.58
823.898	12973.44
824.225	12953.33
824.553	12940.68
824.88	12918.53
825.207	12998.3
825.535	12965.76
825.862	12992.2
826.189	12926.21
826.516	13002.37
826.843	12977.74
827.17	12993.1
827.497	13029.04
827.824	12947.91
828.151	13034.91
828.478	12963.5
828.805	12958.76
829.131	12957.85
829.458	12882.6
829.785	12807.8
830.111	12965.99
830.438	13054.8
830.764	12892.09
831.09	12910.62
831.417	12838.98
831.743	12892.99
832.069	12927.12
832.395	12862.03
832.722	12877.85
833.048	12830.62
833.374	12908.59
833.7	12876.72
834.026	12875.37
834.351	12898.42
834.677	12899.77
835.003	12879.44
835.329	12878.76
835.654	12820.23
835.98	12766.44
836.306	12746.33
836.631	12681.02
836.956	12746.11
837.282	12695.49
837.607	12613.23
837.932	12687.58
838.258	12631.53
838.583	12673.57
838.908	12580.23
839.233	12595.38
839.558	12524.19
839.883	12484.19
840.208	12499.56
840.533	12511.99
840.858	12500.01
841.182	12507.92
841.507	12467.92
841.832	12339.34
842.156	12431.09
842.481	12320.13
842.805	12352.44
843.13	12300.92
843.454	12231.77
843.778	12257.53
844.103	12268.83
844.427	12191.77
844.751	12251.2
845.075	12171.88
845.399	12057.54
845.723	12055.73
846.047	12000.59
846.371	12011.21
846.695	11956.3
847.019	11852.34
847.343	11748.62
847.666	11674.95
847.99	11717.43
848.313	11743.87
848.637	11685.57
848.96	11606.93
849.284	11576.87
849.607	11513.6
849.931	11452.13
850.254	11415.97
850.577	11330.78
850.9	11200.84
851.223	11289.42
851.546	11195.19
851.869	11118.13
852.192	11206.03
852.515	11050.33
852.838	11004.46
853.161	11012.37
853.483	10989.54
853.806	10899.83
854.129	10866.38
854.451	10933.72
854.774	10834.52
855.096	10817.79
855.419	10787.96
855.741	10734.63
856.063	10693.96
856.385	10677.69
856.708	10602.66
857.03	10583.68
857.352	10525.15
857.674	10595.88
857.996	10500.29
858.318	10499.38
858.64	10483.57
858.961	10465.94
859.283	10401.53
859.605	10407.86
859.926	10367.19
860.248	10331.93
860.57	10265.49
860.891	10238.37
861.212	10180.3
861.534	10175.55
861.855	10221.65
862.176	10145.27
862.498	10136.68
862.819	10144.14
863.14	10150.92
863.461	10107.08
863.782	10068.21
864.103	10061.43
864.424	9997.03
864.745	10018.49
865.065	10006.97
865.386	10006.29
865.707	9993.41
866.027	10016.69
866.348	9973.52
866.668	9818.05
866.989	9891.72
867.309	9819.63
867.63	9908.21
867.95	9914.54
868.27	9864.15
868.59	9853.07
868.91	9830.48
869.23	9813.98
869.55	9708.45
869.87	9720.87
870.19	9666.64
870.51	9709.58
870.83	9666.86
871.15	9672.74
871.469	9675.23
871.789	9713.87
872.109	9686.07
872.428	9595.23
872.748	9586.19
873.067	9545.06
873.386	9594.78
873.706	9535.79
874.025	9580.31
874.344	9515.23
874.663	9554.55
874.982	9431.62
875.301	9486.3
875.62	9392.52
875.939	9565.17
876.258	9374.44
876.577	9351.84
876.896	9440.2
877.214	9475.68
877.533	9411.28
877.852	9390.94
878.17	9329.47
878.489	9358.17
878.807	9295.8
879.125	9244.95
879.444	9311.17
879.762	9260.32
880.08	9365.86
880.398	9276.37
880.716	9261.68
881.034	9148.46
881.352	9204.96
881.67	9150.49
881.988	9200.89
882.306	9141.23
882.624	9157.27
882.941	9102.59
883.259	9087.67
883.577	9045.41
883.894	9028.46
884.212	9015.13
884.529	9014
884.846	8955.47
885.164	8962.48
885.481	8921.35
885.798	8977.39
886.115	8897.17
886.432	8800.9
886.75	8792.54
887.067	8866.21
887.383	8723.16
887.7	8748.92
888.017	8752.09
888.334	8786.44
888.651	8696.04
888.967	8698.75
889.284	8642.26
889.6	8619.66
889.917	8609.94
890.233	8633.9
890.55	8600.45
890.866	8596.61
891.182	8520.91
891.498	8480.23
891.815	8431.42
892.131	8477.52
892.447	8475.48
892.763	8360.46
893.079	8354.58
893.395	8390.29
893.71	8334.02
894.026	8347.35
894.342	8325.88
894.657	8259.67
894.973	8245.21
895.289	8174.93
895.604	8267.13
895.92	8157.3
896.235	8117.53
896.55	8087.7
896.865	8067.13
897.181	8077.98
897.496	8039.56
897.811	7951.43
898.126	7961.6
898.441	7964.31
898.756	7974.93
899.071	7910.53
899.386	7908.04
899.7	7801.6
900.015	7790.3
900.33	7677.54
900.644	7695.16
900.959	7722.96
901.273	7764.32
901.588	7672.57
901.902	7589.63
902.216	7630.76
902.531	7647.26
902.845	7569.07
903.159	7520.03
903.473	7431.44
903.787	7441.61
904.101	7383.31
904.415	7382.86
904.729	7341.5
905.042	7332.24
905.356	7367.49
905.67	7369.52
905.984	7321.16
906.297	7345.34
906.611	7223.31
906.924	7193.26
907.237	7096.99
907.551	7124.78
907.864	7111
908.177	7070.32
908.491	7058.12
908.804	7026.48
909.117	7047.05
909.43	6972.25
909.743	6957.56
910.056	6964.56
910.368	6892.47
910.681	6861.97
910.994	6816.09
911.307	6827.84
911.619	6754.62
911.932	6727.28
912.244	6709.2
912.557	6692.03
912.869	6690.45
913.181	6673.95
913.494	6610.45
913.806	6577.68
914.118	6546.72
914.43	6471.92
914.742	6503.11
915.054	6410.45
915.366	6478.93
915.678	6457.01
915.99	6422.43
916.302	6373.39
916.613	6365.48
916.925	6384.92
917.236	6285.03
917.548	6209.1
917.859	6304.92
918.171	6196.67
918.482	6204.58
918.794	6163
919.105	6156.67
919.416	6131.82
919.727	6134.08
920.038	6082.78
920.349	6019.73
920.66	5973.18
920.971	6027.41
921.282	6026.96
921.593	5957.58
921.903	5938.83
922.214	5894.53
922.525	5856.34
922.835	5838.04
923.146	5830.81
923.456	5828.55
923.767	5780.86
924.077	5733.18
924.387	5724.37
924.697	5702.22
925.008	5664.03
925.318	5648.44
925.628	5629.46
925.938	5644.15
926.248	5552.17
926.558	5536.8
926.867	5526.63
927.177	5554.88
927.487	5467.65
927.796	5433.53
928.106	5453.64
928.416	5423.13
928.725	5474.43
929.034	5392.63
929.344	5358.73
929.653	5382.23
929.962	5348.79
930.271	5274.89
930.581	5260.88
930.89	5258.84
931.199	5199.41
931.508	5223.59
931.817	5165.74
932.125	5175.68
932.434	5163.93
932.743	5078.06
933.051	5100.66
933.36	5083.93
933.669	5043.71
933.977	5008.46
934.286	4990.38
934.594	5028.34
934.902	4944.28
935.21	4978.4
935.519	4968.46
935.827	4920.77
936.135	4885.75
936.443	4843.49
936.751	4862.47
937.059	4868.12
937.367	4793.09
937.674	4788.35
937.982	4790.61
938.29	4741.12
938.597	4785.64
938.905	4718.07
939.213	4643.27
939.52	4590.84
939.827	4638.75
940.135	4567.34
940.442	4576.38
940.749	4538.86
941.056	4583.16
941.363	4549.26
941.67	4549.26
941.977	4498.86
942.284	4494.8
942.591	4482.37
942.898	4451.63
943.205	4392.65
943.511	4401.01
943.818	4372.54
944.125	4343.39
944.431	4364.86
944.738	4328.93
945.044	4277.18
945.35	4273.56
945.657	4252.54
945.963	4254.8
946.269	4237.85
946.575	4235.37
946.881	4215.26
947.187	4173.68
947.493	4144.3
947.799	4145.2
948.105	4103.62
948.41	4095.03
948.716	4104.75
949.022	4082.15
949.327	4126.67
949.633	3994.47
949.938	4062.94
950.244	4048.48
950.549	3962.61
950.854	3952.66
951.16	3956.28
951.465	3892.78
951.77	3895.04
952.075	3875.38
952.38	3885.77
952.685	3862.05
952.99	3907.02
953.294	3829.28
953.599	3806.91
953.904	3783.18
954.209	3778.43
954.513	3740.24
954.818	3742.05
955.122	3727.13
955.426	3726.46
955.731	3684.42
956.035	3675.16
956.339	3659.79
956.643	3640.58
956.948	3615.5
957.252	3626.57
957.556	3627.7
957.86	3591.54
958.163	3576.4
958.467	3596.74
958.771	3554.48
959.075	3562.84
959.378	3496.63
959.682	3518.78
959.985	3465.9
960.289	3484.43
960.592	3450.98
960.896	3470.64
961.199	3422.73
961.502	3450.08
961.805	3409.63
962.108	3343.19
962.411	3360.82
962.714	3330.76
963.017	3390.19
963.32	3364.21
963.623	3327.6
963.926	3313.81
964.228	3274.94
964.531	3286.92
964.833	3286.02
965.136	3236.53
965.438	3258.45
965.741	3220.93
966.043	3203.98
966.345	3182.06
966.648	3169.63
966.95	3168.96
967.252	3145
967.554	3122.18
967.856	3133.02
968.158	3067.26
968.46	3110.2
968.761	3071.33
969.063	3066.59
969.365	3098.68
969.666	3040.6
969.968	3011.9
970.269	3003.08
970.571	3028.85
970.872	3030.88
971.174	2966.48
971.475	2986.59
971.776	2946.59
972.077	2924.44
972.378	2913.6
972.679	2952.92
972.98	2950.2
973.281	2894.84
973.582	2883.54
973.883	2885.57
974.183	2872.01
974.484	2809.87
974.785	2862.52
975.085	2808.97
975.386	2829.76
975.686	2808.06
975.986	2822.98
976.287	2797.44
976.587	2747.72
976.887	2752.02
977.187	2741.85
977.487	2725.13
977.787	2689.87
978.087	2672.47
978.387	2688.74
978.687	2662.75
978.987	2661.17
979.286	2684.9
979.586	2635.64
979.885	2625.02
980.185	2620.04
980.484	2606.71
980.784	2597.45
981.083	2628.86
981.382	2609.42
981.682	2588.86
981.981	2577.33
982.28	2545.02
982.579	2535.3
982.878	2522.87
983.177	2511.57
983.475	2480.16
983.774	2482.87
984.073	2468.86
984.372	2460.95
984.67	2427.96
984.969	2489.88
985.267	2445.36
985.566	2420.95
985.864	2404.46
986.162	2380.28
986.461	2386.6
986.759	2376.89
987.057	2387.96
987.355	2350.9
987.653	2370.56
987.951	2334.18
988.249	2308.41
988.547	2302.99
988.844	2327.17
989.142	2334.85
989.44	2303.22
989.737	2271.8
990.035	2234.29
990.332	2284.69
990.63	2253.95
990.927	2212.37
991.224	2214.18
991.521	2199.26
991.819	2201.98
992.116	2221.86
992.413	2203.11
992.71	2176.89
993.006	2168.76
993.303	2175.54
993.6	2166.5
993.897	2154.29
994.193	2141.19
994.49	2117.68
994.787	2111.36
995.083	2088.53
995.379	2083.56
995.676	2069.1
995.972	2073.62
996.268	2046.95
996.565	2030.23
996.861	2060.28
997.157	2033.84
997.453	2011.7
997.749	1998.37
998.044	1968.54
998.34	2026.39
998.636	1962.66
998.932	1932.6
999.227	1936.67
999.523	1933.06
999.818	1944.13
1000.114	1938.71
1000.409	1933.28
1000.704	1909.78
1001	1924.7
1001.295	1879.95
1001.59	1867.97
1001.885	1896.45
1002.18	1870.23
1002.475	1832.95
1002.77	1849.67
1003.065	1807.64
1003.359	1839.95
1003.654	1793.17
1003.949	1825.71
1004.243	1803.57
1004.538	1774.87
1004.832	1768.54
1005.127	1796.79
1005.421	1773.06
1005.715	1738.71
1006.009	1754.53
1006.304	1726.51
1006.598	1706.62
1006.892	1708.88
1007.186	1690.58
1007.48	1710.46
1007.773	1694.64
1008.067	1634.76
1008.361	1650.58
1008.655	1632.95
1008.948	1660.07
1009.242	1639.28
1009.535	1618.49
1009.829	1607.19
1010.122	1583.46
1010.415	1603.8
1010.708	1575.1
1011.001	1593.18
1011.295	1586.4
1011.588	1560.41
1011.881	1559.06
1012.173	1555.44
1012.466	1531.71
1012.759	1532.84
1013.052	1500.75
1013.344	1537.36
1013.637	1492.84
1013.93	1510.47
1014.222	1474.76
1014.514	1475.67
1014.807	1464.37
1015.099	1460.75
1015.391	1444.71
1015.683	1444.26
1015.976	1423.01
1016.268	1417.14
1016.56	1397.48
1016.851	1404.26
1017.143	1416.69
1017.435	1393.41
1017.727	1369.91
1018.018	1361.32
1018.31	1344.6
1018.602	1358.16
1018.893	1370.81
1019.185	1322.23
1019.476	1364.71
1019.767	1303.02
1020.058	1302.56
1020.35	1316.12
1020.641	1257.82
1020.932	1281.55
1021.223	1290.14
1021.514	1254.43
1021.804	1258.72
1022.095	1248.78
1022.386	1241.1
1022.677	1233.64
1022.967	1238.84
1023.258	1219.85
1023.548	1193.87
1023.839	1223.7
1024.129	1212.4
1024.419	1208.56
1024.709	1189.35
1025	1182.12
1025.29	1165.39
1025.58	1151.61
1025.87	1178.73
1026.16	1155.45
1026.449	1171.04
1026.739	1147.54
1027.029	1126.07
1027.319	1120.87
1027.608	1097.82
1027.898	1115.45
1028.187	1112.29
1028.477	1100.54
1028.766	1075.68
1029.055	1072.06
1029.344	1088.11
1029.634	1092.63
1029.923	1053.31
1030.212	1050.37
1030.501	1047.66
1030.79	1044.94
1031.078	1009.46
1031.367	1030.71
1031.656	1043.14
1031.945	997.04
1032.233	995.68
1032.522	1006.3
1032.81	1000.88
1033.099	996.36
1033.387	982.8
1033.675	984.61
1033.963	969.69
1034.251	981.67
1034.54	962.91
1034.828	953.42
1035.116	956.13
1035.403	958.84
1035.691	930.6
1035.979	947.32
1036.267	938.73
1036.554	942.8
1036.842	925.17
1037.129	906.19
1037.417	909.81
1037.704	921.56
1037.992	920.43
1038.279	870.94
1038.566	896.25
1038.853	896.25
1039.14	896.25
