Data from red_cardboard_box_FLMS001491_00042.txt Node
Date: Wed Feb 08 11:32:27 GMT 2017
User: dcchb
Spectrometer: FLMS00149
Trigger mode: 0
Integration Time (sec): 2.000000E-2
Scans to average: 10
Electric dark correction enabled: true
Nonlinearity correction enabled: false
Boxcar width: 0
XAxis mode: Wavelengths
Number of Pixels in Spectrum: 2048
>>>>>Begin Spectral Data<<<<<
341.393	-17.99
341.776	-17.99
342.16	-17.99
342.543	-62.51
342.927	-69.52
343.31	-62.74
343.693	-72.91
344.077	-59.35
344.46	-64.09
344.843	-56.41
345.226	-49.41
345.61	-44.43
345.993	-28.84
346.376	-15.73
346.759	17.49
347.142	18.84
347.525	49.8
347.908	62.68
348.291	68.33
348.674	112.4
349.057	124.38
349.44	111.27
349.823	129.8
350.206	146.07
350.588	195.33
350.971	214.32
351.354	226.29
351.737	257.25
352.119	238.95
352.502	273.07
352.884	281.89
353.267	293.86
353.65	280.53
354.032	297.03
354.414	323.92
354.797	328.66
355.179	309.91
355.562	324.14
355.944	330.25
356.326	326.18
356.709	335.44
357.091	334.09
357.473	339.06
357.855	338.83
358.238	334.09
358.62	356.91
359.002	325.27
359.384	340.19
359.766	335.9
360.148	343.35
360.53	306.52
360.912	335.9
361.294	335.9
361.676	321.88
362.057	314.2
362.439	344.48
362.821	317.36
363.203	315.56
363.584	324.14
363.966	320.98
364.348	330.92
364.729	332.05
365.111	339.28
365.493	330.92
365.874	316.46
366.256	333.18
366.637	323.01
367.019	324.6
367.4	303.58
367.781	302.9
368.163	299.29
368.544	294.99
368.925	312.39
369.306	300.42
369.688	321.43
370.069	309
370.45	311.26
370.831	328.44
371.212	315.33
371.593	297.7
371.974	329.79
372.355	318.49
372.736	320.3
373.117	303.81
373.498	285.27
373.879	318.95
374.26	314.65
374.641	317.82
375.021	316.46
375.402	312.17
375.783	302
376.163	312.84
376.544	302.68
376.925	324.82
377.305	315.33
377.686	321.43
378.066	331.83
378.447	343.58
378.827	325.73
379.208	331.38
379.588	311.71
379.968	326.18
380.349	335.22
380.729	320.3
381.109	342
381.489	340.41
381.87	332.28
382.25	339.28
382.63	344.26
383.01	338.83
383.39	312.39
383.77	329.12
384.15	357.82
384.53	338.38
384.91	346.52
385.29	350.36
385.67	329.12
386.049	333.64
386.429	340.87
386.809	354.43
387.189	350.36
387.568	358.27
387.948	335.44
388.328	336.12
388.707	351.26
389.087	349.23
389.466	332.51
389.846	345.84
390.225	333.18
390.605	343.8
390.984	341.32
391.363	353.97
391.743	364.37
392.122	351.71
392.501	375.89
392.881	368.44
393.26	351.26
393.639	347.65
394.018	369.34
394.397	377.93
394.776	375.44
395.155	367.76
395.534	379.51
395.913	349.45
396.292	374.54
396.671	377.93
397.05	367.53
397.429	366.63
397.808	371.83
398.186	367.76
398.565	363.92
398.944	370.47
399.323	373.63
399.701	372.28
400.08	388.78
400.458	369.57
400.837	368.89
401.215	351.94
401.594	378.61
401.972	393.29
402.351	400.75
402.729	380.87
403.107	391.94
403.486	382
403.864	401.88
404.242	396.91
404.62	427.42
404.999	406.4
405.377	399.85
405.755	393.75
406.133	401.43
406.511	395.1
406.889	417.93
407.267	414.76
407.645	397.14
408.023	408.21
408.401	417.25
408.779	415.67
409.156	400.98
409.534	388.32
409.912	411.6
410.29	403.01
410.667	422.45
411.045	428.32
411.422	424.25
411.8	414.99
412.178	433.52
412.555	416.12
412.933	427.64
413.31	414.76
413.687	442.11
414.065	429.45
414.442	435.55
414.819	414.99
415.197	446.17
415.574	452.05
415.951	413.18
416.328	445.27
416.705	438.94
417.082	432.39
417.46	461.32
417.837	445.5
418.214	457.25
418.591	458.83
418.967	464.71
419.344	459.96
419.721	463.12
420.098	460.19
420.475	462.9
420.852	477.59
421.228	464.03
421.605	482.33
421.982	482.33
422.358	480.75
422.735	465.84
423.111	472.61
423.488	476.68
423.864	494.54
424.241	488.43
424.617	478.49
424.994	513.29
425.37	480.98
425.746	495.44
426.123	499.96
426.499	492.95
426.875	484.59
427.251	507.19
427.627	511.48
428.003	490.47
428.379	514.65
428.756	523.46
429.132	518.72
429.507	532.05
429.883	532.73
430.259	522.56
430.635	518.26
431.011	529.34
431.387	528.88
431.763	538.6
432.138	572.27
432.514	542.22
432.89	548.54
433.265	558.71
433.641	561.88
434.016	556.45
434.392	587.64
434.767	578.6
435.143	579.28
435.518	584.25
435.894	595.1
436.269	585.61
436.644	588.09
437.02	607.53
437.395	595.78
437.77	607.07
438.145	598.94
438.52	634.19
438.895	606.17
439.271	615.21
439.646	613.63
440.021	631.25
440.395	619.96
440.77	599.84
441.145	623.12
441.52	647.53
441.895	612.95
442.27	628.32
442.645	623.57
443.019	652.95
443.394	660.41
443.769	621.99
444.143	664.02
444.518	631.25
444.892	644.59
445.267	648.66
445.641	652.72
446.016	648.43
446.39	670.12
446.764	663.8
447.139	676.9
447.513	638.49
447.887	666.73
448.262	682.1
448.636	667.64
449.01	664.47
449.384	693.63
449.758	689.56
450.132	687.3
450.506	696.56
450.88	688.65
451.254	690.69
451.628	716.22
452.002	711.48
452.376	706.51
452.75	703.34
453.123	743.34
453.497	742.44
453.871	755.32
454.244	754.42
454.618	734.53
454.992	730.91
455.365	712.61
455.739	738.82
456.112	765.71
456.486	737.69
456.859	775.66
457.232	772.27
457.606	778.37
457.979	779.73
458.352	780.18
458.725	797.35
459.099	798.93
459.472	798.71
459.845	804.13
460.218	828.99
460.591	822.44
460.964	812.72
461.337	842.55
461.71	855.66
462.083	852.72
462.456	838.48
462.829	845.71
463.201	866.73
463.574	881.42
463.947	867.41
464.32	879.84
464.692	894.07
465.065	880.06
465.438	922.55
465.81	910.12
466.183	927.74
466.555	924.81
466.928	948.53
467.3	936.56
467.672	931.81
468.045	941.3
468.417	952.38
468.789	972.26
469.161	979.72
469.534	1005.03
469.906	988.08
470.278	1011.13
470.65	1024.01
471.022	1050.68
471.394	1042.54
471.766	1057.46
472.138	1052.03
472.51	1069.21
472.882	1073.73
473.253	1096.33
473.625	1076.67
473.997	1122.32
474.369	1087.06
474.74	1134.29
475.112	1146.5
475.484	1160.73
475.855	1148.98
476.227	1178.13
476.598	1209.77
476.97	1215.87
477.341	1232.82
477.713	1255.64
478.084	1249.54
478.455	1250.67
478.827	1301.97
479.198	1306.27
479.569	1311.24
479.94	1354.85
480.311	1363.44
480.682	1372.93
481.053	1412.7
481.424	1403.21
481.795	1418.35
482.166	1447.28
482.537	1450.89
482.908	1475.75
483.279	1484.79
483.65	1518.91
484.021	1534.96
484.391	1537.9
484.762	1555.75
485.133	1584
485.503	1622.87
485.874	1623.54
486.244	1662.41
486.615	1693.6
486.985	1691.34
487.356	1697.22
487.726	1732.69
488.097	1739.02
488.467	1784.9
488.837	1769.98
489.207	1805.46
489.578	1843.43
489.948	1837.32
490.318	1858.57
490.688	1858.11
491.058	1899.02
491.428	1893.14
491.798	1930.88
492.168	1932.01
492.538	1967.49
492.908	2003.2
493.278	1998.68
493.648	2015.17
494.017	2070.76
494.387	2052.91
494.757	2081.39
495.126	2098.79
495.496	2113.7
495.866	2103.08
496.235	2136.53
496.605	2146.69
496.974	2154.15
497.344	2189.63
497.713	2225.11
498.082	2220.82
498.452	2250.87
498.821	2259.46
499.19	2249.97
499.559	2294.71
499.928	2306.24
500.298	2312.11
500.667	2332.68
501.036	2317.99
501.405	2380.14
501.774	2371.55
502.143	2356.63
502.512	2374.94
502.88	2405.9
503.249	2410.19
503.618	2439.79
503.987	2484.31
504.356	2457.42
504.724	2503.3
505.093	2506.91
505.462	2536.06
505.83	2527.02
506.199	2516.63
506.567	2561.37
506.936	2548.49
507.304	2608.83
507.672	2640.69
508.041	2649.51
508.409	2646.79
508.777	2644.31
509.145	2694.93
509.514	2723.63
509.882	2774.02
510.25	2756.17
510.618	2788.71
510.986	2758.2
511.354	2779.22
511.722	2809.5
512.09	2823.06
512.458	2825.32
512.826	2873.23
513.193	2911.42
513.561	2911.87
513.929	2898.09
514.297	2944.64
514.664	2963.4
515.032	2941.93
515.4	3012.66
515.767	3022.83
516.135	3027.35
516.502	3014.92
516.869	3104.86
517.237	3061.7
517.604	3084.52
517.972	3113.45
518.339	3173.79
518.706	3145.09
519.073	3187.12
519.44	3201.13
519.808	3257.63
520.175	3271.86
520.542	3275.7
520.909	3282.48
521.276	3304.4
521.643	3346.44
522.009	3378.75
522.376	3394.8
522.743	3434.34
523.11	3502.59
523.477	3507.34
523.843	3476.15
524.21	3539.65
524.577	3530.61
524.943	3605.87
525.31	3579.43
525.676	3617.39
526.043	3660.33
526.409	3658.97
526.776	3703.26
527.142	3724.05
527.508	3773.54
527.874	3833.88
528.241	3815.13
528.607	3843.37
528.973	3859.64
529.339	3870.04
529.705	3883.37
530.071	3926.08
530.437	3964.05
530.803	4010.37
531.169	4032.3
531.535	4057.61
531.901	4037.49
532.267	4034.1
532.632	4042.46
532.998	4114.1
533.364	4115.91
533.73	4121.78
534.095	4225.51
534.461	4169.69
534.826	4235.23
535.192	4233.42
535.557	4237.71
535.923	4287.66
536.288	4352.06
536.653	4360.65
537.019	4374.88
537.384	4405.84
537.749	4395.45
538.114	4417.82
538.479	4420.53
538.845	4432.74
539.21	4464.37
539.575	4506.86
539.94	4483.81
540.305	4535.33
540.67	4537.82
541.034	4527.88
541.399	4557.03
541.764	4638.15
542.129	4573.52
542.494	4651.49
542.858	4657.82
543.223	4686.52
543.587	4762.9
543.952	4758.6
544.316	4746.63
544.681	4774.42
545.045	4796.12
545.41	4844.93
545.774	4833.18
546.138	4890.58
546.503	4864.14
546.867	4880.41
547.231	4929.45
547.595	4941.2
547.959	4960.18
548.324	5008.99
548.688	5015.55
549.052	5047.18
549.416	5080.86
549.779	5084.47
550.143	5117.46
550.507	5168.08
550.871	5198.59
551.235	5188.42
551.599	5211.7
551.962	5303.22
552.326	5295.99
552.689	5357.23
553.053	5346.16
553.417	5381.19
553.78	5437
554.143	5415.31
554.507	5521.75
554.87	5544.35
555.234	5568.07
555.597	5558.81
555.96	5627.51
556.323	5615.98
556.686	5664.12
557.05	5688.52
557.413	5740.72
557.776	5742.76
558.139	5828.63
558.502	5853.72
558.865	5855.75
559.228	5928.29
559.59	5960.15
559.953	5986.37
560.316	6141.17
560.679	6063.88
561.041	6171
561.404	6229.07
561.767	6296.42
562.129	6289.86
562.492	6361.27
562.854	6382.29
563.217	6478.33
563.579	6517.65
563.941	6519.01
564.304	6644.66
564.666	6686.69
565.028	6695.73
565.39	6773.01
565.753	6844.42
566.115	6882.84
566.477	6981.37
566.839	6982.27
567.201	7104.53
567.563	7089.16
567.925	7172.55
568.287	7211.87
568.648	7314.69
569.01	7373.9
569.372	7415.03
569.734	7451.19
570.095	7554.46
570.457	7608.02
570.819	7690.96
571.18	7767.79
571.542	7862.25
571.903	7962.36
572.265	8023.6
572.626	8093.66
572.987	8076.03
573.349	8176.82
573.71	8314.67
574.071	8305.18
574.432	8415.46
574.794	8612.51
575.155	8603.7
575.516	8648.44
575.877	8777.48
576.238	8854.99
576.599	8953.75
576.96	9094.53
577.32	9041.2
577.681	9231.25
578.042	9347.18
578.403	9425.6
578.763	9490.46
579.124	9620.4
579.485	9754.86
579.845	9880.05
580.206	9966.15
580.566	10120.27
580.927	10211.34
581.287	10316.88
581.648	10475.06
582.008	10613.82
582.368	10717.77
582.728	10919.8
583.089	11037.53
583.449	11104.43
583.809	11333.8
584.169	11565.66
584.529	11676.16
584.889	11920.22
585.249	11976.49
585.609	12159.09
585.969	12423.03
586.329	12560.66
586.688	12656.48
587.048	12978.73
587.408	13153.64
587.768	13374.42
588.127	13568.32
588.487	13727.63
588.846	14126.49
589.206	14244.46
589.565	14494.84
589.925	14868.39
590.284	15029.97
590.643	15333.24
591.003	15579.34
591.362	15864.98
591.721	16145.42
592.08	16396.94
592.44	16729.36
592.799	16989.92
593.158	17350.36
593.517	17677.36
593.876	18094.52
594.235	18322.31
594.593	18672.14
594.952	18983.09
595.311	19364.77
595.67	19709.4
596.029	20144.19
596.387	20510.51
596.746	20810.16
597.104	21106.65
597.463	21486.07
597.822	21923.12
598.18	22083.35
598.538	22628.42
598.897	22957.9
599.255	23039.48
599.613	23808.95
599.972	23966.69
600.33	24450.52
600.688	24566.22
601.046	25190.83
601.404	25582.24
601.762	25886.18
602.12	26374.98
602.478	26681.64
602.836	27021.52
603.194	27271.23
603.552	27795.74
603.91	27957.99
604.268	28477.75
604.625	28680.91
604.983	29124.29
605.341	29339.43
605.698	29720.43
606.056	30184.83
606.413	30514.99
606.771	30912.72
607.128	31143.22
607.485	31274.97
607.843	31617.56
608.2	31944.78
608.557	32377.99
608.914	32580.92
609.272	33049.39
609.629	33402.6
609.986	33619.31
610.343	33735.69
610.7	34113.31
611.057	34446.86
611.414	34674.2
611.771	34869.9
612.127	35284.13
612.484	35419.72
612.841	35685.47
613.198	35718.92
613.554	36120.49
613.911	36371.11
614.267	36498.79
614.624	36802.05
614.98	36970.41
615.337	37305.77
615.693	37538.53
616.05	37548.93
616.406	37942.14
616.762	37996.83
617.118	38212.64
617.475	38340.55
617.831	38506.64
618.187	38732.17
618.543	38936.91
618.899	39326.73
619.255	39232.95
619.611	39502.55
619.967	39708.87
620.323	39854.86
620.678	39815.54
621.034	39926.94
621.39	40009.43
621.746	40120.39
622.101	40686.02
622.457	40313.38
622.812	40568.28
623.168	40754.72
623.523	40898.9
623.879	41017.09
624.234	40806.92
624.589	41182.05
624.945	41128.49
625.3	41241.49
625.655	41447.36
626.01	41457.98
626.365	41505.43
626.72	41611.65
627.075	41687.35
627.43	41705.2
627.785	41768.03
628.14	41815.26
628.495	42037.85
628.85	42109.71
629.205	41900.23
629.559	42240.78
629.914	42114.23
630.269	42225.42
630.623	42046.21
630.978	42174.57
631.332	42438.29
631.687	42345.41
632.041	42385.41
632.396	42434.68
632.75	42281.46
633.104	42411.17
633.459	42296.15
633.813	42457.5
634.167	42419.08
634.521	42376.82
634.875	42403.04
635.229	42368.46
635.583	42299.76
635.937	42454.79
636.291	42331.85
636.645	42483.71
636.999	42359.87
637.352	42552.86
637.706	42354
638.06	42396.26
638.413	42352.42
638.767	42282.36
639.121	42570.49
639.474	42279.88
639.828	42409.82
640.181	42483.26
640.534	42577.95
640.888	42363.94
641.241	42370.95
641.594	42330.72
641.947	42472.19
642.301	42367.78
642.654	42489.36
643.007	42496.37
643.36	42380.44
643.713	42351.06
644.066	42508.12
644.419	42322.81
644.771	41889.83
645.124	41521.48
645.477	41543.63
645.83	41445.77
646.182	41167.36
646.535	41283.07
646.888	41256.4
647.24	41173.69
647.593	41511.54
647.945	41337.08
648.298	41251.88
648.65	41075.61
649.002	41164.65
649.355	41283.29
649.707	41104.54
650.059	41290.52
650.411	41793.56
650.763	41882.37
651.115	42401.91
651.467	42363.94
651.819	42223.83
652.171	42178.86
652.523	42132.31
652.875	42128.92
653.227	41894.35
653.578	42290.95
653.93	42121.01
654.282	42064.52
654.633	42005.99
654.985	42053.44
655.337	42086.21
655.688	42045.98
656.039	42123.5
656.391	41784.75
656.742	41923.95
657.094	41882.37
657.445	42132.08
657.796	41961.02
658.147	41860.45
658.498	41862.26
658.849	41994.69
659.2	41876.27
659.551	41848.02
659.902	42012.09
660.253	41867.46
660.604	41917.4
660.955	41676.73
661.306	41957.17
661.656	41632.44
662.007	41831.75
662.358	41874.24
662.708	41821.81
663.059	41704.07
663.409	41560.57
663.76	41912.43
664.11	41926.89
664.461	41919.21
664.811	41805.54
665.161	41824.07
665.511	41917.85
665.862	41811.87
666.212	41888.47
666.562	41978.19
666.912	41911.98
667.262	41796.95
667.612	41778.42
667.962	41807.35
668.312	41722.83
668.662	41987.46
669.011	41907.68
669.361	41843.05
669.711	41777.74
670.06	41779.78
670.41	41657.97
670.76	41638.76
671.109	41691.87
671.459	41749.95
671.808	41657.97
672.157	41710.63
672.507	41334.59
672.856	41451.2
673.205	41721.7
673.554	41588.37
673.904	41604.41
674.253	41626.11
674.602	41566
674.951	40934.6
675.3	40823.64
675.649	41476.96
675.998	41437.87
676.346	41332.78
676.695	41702.27
677.044	41253.46
677.393	41436.51
677.741	41364.19
678.09	41317.42
678.438	41222.5
678.787	41226.57
679.135	41264.54
679.484	41037.65
679.832	41154.26
680.181	40989.97
680.529	41049.4
680.877	40952.23
681.225	41018.67
681.573	41130.98
681.922	40671.56
682.27	40773.7
682.618	40772.12
682.966	40667.04
683.314	40825
683.661	40656.19
684.009	40516.08
684.357	40369.64
684.705	40349.08
685.053	40397.67
685.4	40383.88
685.748	40136.88
686.095	40241.29
686.443	40123.78
686.79	39999.26
687.138	40020.95
687.485	40046.26
687.832	39766.27
688.18	39859.6
688.527	39743.45
688.874	39711.58
689.221	39632.94
689.568	39477.24
689.915	39403.12
690.262	39378.26
690.609	39267.07
690.956	39185.95
691.303	39115.89
691.65	38942.56
691.997	38994.77
692.344	38702.8
692.69	38731.95
693.037	38767.88
693.383	38459.19
693.73	38674.55
694.077	38247.21
694.423	38365.63
694.769	38247.21
695.116	38244.5
695.462	38091.74
695.808	37916.6
696.155	38019.65
696.501	37804.97
696.847	37861.69
697.193	37506.22
697.539	37759.09
697.885	37370.85
698.231	37352.55
698.577	37336.96
698.923	37259.67
699.269	37048.83
699.614	36831.43
699.96	36872.11
700.306	36917.76
700.651	36687.71
700.997	36548.05
701.342	36576.07
701.688	36412.01
702.033	36362.29
702.379	36320.03
702.724	36130.43
703.069	36349.64
703.415	35899.25
703.76	35948.07
704.105	35890.67
704.45	35838.69
704.795	35654.06
705.14	35550.34
705.485	35651.8
705.83	35394.63
706.175	35499.04
706.52	35386.05
706.865	35181.76
707.209	35140.86
707.554	34973.63
707.899	35019.95
708.243	34895.66
708.588	34955.78
708.932	34565.28
709.277	34710.36
709.621	34665.16
709.966	34441.67
710.31	34536.8
710.654	34173.88
710.998	34412.97
711.342	34217.04
711.687	34239.64
712.031	34149.92
712.375	33954.45
712.719	34131.84
713.063	33944.5
713.407	33988.12
713.75	33936.37
714.094	33829.03
714.438	33700.22
714.782	33784.96
715.125	33591.52
715.469	33757.62
715.812	33374.12
716.156	33253.45
716.499	33410.96
716.843	33382.03
717.186	33172.32
717.53	33271.07
717.873	33340
718.216	33262.71
718.559	33005.77
718.902	32783.4
719.246	32879.22
719.589	32746.12
719.932	32647.14
720.275	32589.51
720.617	32646.91
720.96	32547.03
721.303	32640.13
721.646	32544.77
721.989	32412.11
722.331	32636.29
722.674	32447.59
723.016	32409.85
723.359	32356.97
723.701	32432.45
724.044	32093.03
724.386	32012.35
724.729	32222.97
725.071	32100.03
725.413	32001.73
725.755	31973.26
726.097	31938.45
726.439	31753.83
726.782	31790.44
727.124	31810.77
727.465	31670.66
727.807	31695.75
728.149	31623.21
728.491	31549.09
728.833	31561.51
729.175	31463.89
729.516	31427.96
729.858	31479.48
730.199	31444.46
730.541	31469.31
730.882	31333.27
731.224	31508.86
731.565	31142.09
731.906	31277.45
732.248	31202.88
732.589	31069.55
732.93	30930.8
733.271	30960.17
733.612	30946.16
733.953	31002.21
734.294	30830.01
734.635	30806.96
734.976	30975.32
735.317	30729.67
735.658	30856.9
735.999	30714.08
736.339	30680.63
736.68	30713.4
737.021	30484.03
737.361	30669.56
737.702	30660.3
738.042	30467.53
738.383	30468.44
738.723	30449
739.063	30330.36
739.404	30459.4
739.744	30192.96
740.084	30206.3
740.424	30212.85
740.764	30174.88
741.104	30303.24
741.444	29999.07
741.784	30076.81
742.124	30079.07
742.464	30062.12
742.804	29976.92
743.143	29937.38
743.483	29875.68
743.823	29837.49
744.162	29672.52
744.502	29749.59
744.841	29649.47
745.181	29797.72
745.52	29635.01
745.86	29728.79
746.199	29519.31
746.538	29531.51
746.877	29661.9
747.216	29590.27
747.556	29533.32
747.895	29590.27
748.234	29398.41
748.573	29263.95
748.911	29306.21
749.25	29361.8
749.589	29098.3
749.928	29333.1
750.267	29176.94
750.605	29121.13
750.944	29087.23
751.283	28835.94
751.621	29103.73
751.96	28894.92
752.298	28807.24
752.636	28918.87
752.975	28783.96
753.313	28633.46
753.651	28854.24
753.989	28538.77
754.327	28497.64
754.666	28558.2
755.004	28472.78
755.342	28448.15
755.679	28491.54
756.017	28197.54
756.355	28362.28
756.693	28343.07
757.031	28230.3
757.368	28084.77
757.706	28106.69
758.044	28053.58
758.381	28069.18
758.719	27882.74
759.056	27969.97
759.394	27768.85
759.731	27607.04
760.068	27641.17
760.405	27457.89
760.743	27536.08
761.08	27654.27
761.417	27372.47
761.754	27353.04
762.091	27350.1
762.428	27121.86
762.765	27136.09
763.102	27104
763.438	27032.37
763.775	26901.3
764.112	26855.42
764.449	26934.97
764.785	26664.47
765.122	26508.09
765.458	26432.16
765.795	26365.49
766.131	26402.55
766.467	26231.49
766.804	26105.61
767.14	26010.02
767.476	26081.66
767.812	25958.5
768.148	25920.53
768.485	25822
768.821	25649.35
769.157	25609.58
769.492	25640.77
769.828	25618.85
770.164	25338.4
770.5	25330.04
770.836	25241.23
771.171	25089.59
771.507	25179.31
771.842	24889.83
772.178	24935.7
772.513	24812.54
772.849	24819.77
773.184	24755.14
773.519	24712.2
773.855	24622.04
774.19	24443.06
774.525	24359.67
774.86	24317.19
775.195	24227.7
775.53	24263.18
775.865	24093.01
776.2	23941.83
776.535	23817.54
776.87	23795.84
777.205	23674.94
777.539	23595.62
777.874	23652.34
778.209	23551.56
778.543	23416.87
778.878	23273.6
779.212	23220.72
779.547	23122.64
779.881	23199.93
780.215	22968.29
780.55	23039.93
780.884	22902.76
781.218	22847.39
781.552	22882.65
781.886	22685.36
782.22	22579.83
782.554	22591.13
782.888	22213.29
783.222	22221.2
783.556	22112.95
783.889	22063.01
784.223	21931.26
784.557	21963.35
784.89	21912.95
785.224	21741.89
785.557	21689.23
785.891	21580.08
786.224	21610.14
786.558	21535.56
786.891	21409.92
787.224	21372.86
787.557	21298.51
787.891	21212.41
788.224	21213.09
788.557	21104.61
788.89	21004.96
789.223	21114.78
789.556	20790.72
789.888	20859.88
790.221	20773.32
790.554	20690.16
790.887	20653.33
791.219	20446.1
791.552	20465.99
791.884	20367.23
792.217	20257.86
792.549	20268.25
792.882	20020.35
793.214	20078.2
793.546	19967.92
793.879	19899
794.211	19868.94
794.543	19807.25
794.875	19776.74
795.207	19824.87
795.539	19684.09
795.871	19754.82
796.203	19572.23
796.535	19412.46
796.867	19420.14
797.198	19350.76
797.53	19485.22
797.862	19173.37
798.193	19206.59
798.525	19151.45
798.856	19066.02
799.188	18967.04
799.519	18937.44
799.85	18771.12
800.182	18887.27
800.513	18777.9
800.844	18691.57
801.175	18659.03
801.506	18625.81
801.837	18587.62
802.168	18447.51
802.499	18469.66
802.83	18458.36
803.161	18322.31
803.491	18319.83
803.822	18244.8
804.153	18182.21
804.483	18063.56
804.814	17979.05
805.145	17989.44
805.475	17913.51
805.805	17812.05
806.136	17894.3
806.466	17852.95
806.796	17817.02
807.126	17690.92
807.457	17569.34
807.787	17589.9
808.117	17527.99
808.447	17466.97
808.777	17559.85
809.107	17415.9
809.436	17348.1
809.766	17325.28
810.096	17255.45
810.426	17203.47
810.755	17182.01
811.085	17103.36
811.414	17160.99
811.744	17082.8
812.073	17021.78
812.403	17046.87
812.732	16897.49
813.061	16868.79
813.39	16802.81
813.719	16732.98
814.049	16805.29
814.378	16684.17
814.707	16622.47
815.036	16771.17
815.365	16581.8
815.693	16410.5
816.022	16490.5
816.351	16407.56
816.68	16274.23
817.008	16472.65
817.337	16188.81
817.665	16220
817.994	16204.63
818.322	16295.7
818.651	16092.09
818.979	16138.42
819.307	16081.47
819.636	16048.02
819.964	16021.13
820.292	16024.52
820.62	15967.35
820.948	15910.4
821.276	16006.44
821.604	15847.8
821.932	15995.14
822.259	15963.51
822.587	15972.09
822.915	15852.55
823.243	15911.3
823.57	15858.2
823.898	15826.11
824.225	15820.23
824.553	15805.09
824.88	15779.78
825.207	15831.31
825.535	15887.58
825.862	15865.66
826.189	15827.92
826.516	15871.08
826.843	15803.96
827.17	15868.59
827.497	15913.56
827.824	15825.21
828.151	15896.39
828.478	15787.01
828.805	15883.51
829.131	15761.48
829.458	15813.68
829.785	15767.13
830.111	15750.18
830.438	15901.14
830.764	15824.53
831.09	15794.02
831.417	15808.03
831.743	15774.59
832.069	15783.62
832.395	15769.61
832.722	15747.02
833.048	15676.73
833.374	15714.47
833.7	15660.69
834.026	15661.14
834.351	15699.78
834.677	15685.32
835.003	15762.61
835.329	15706.34
835.654	15670.86
835.98	15575.95
836.306	15664.76
836.631	15505.44
836.956	15625.89
837.282	15606.23
837.607	15470.86
837.932	15429.06
838.258	15417.31
838.583	15477.42
838.908	15287.37
839.233	15363.97
839.558	15403.3
839.883	15267.25
840.208	15300.02
840.533	15293.47
840.858	15247.82
841.182	15276.97
841.507	15182.96
841.832	15179.35
842.156	15136.41
842.481	15182.96
842.805	15053.02
843.13	15039.46
843.454	14959.01
843.778	14968.05
844.103	14925.34
844.427	14896.87
844.751	14853.03
845.075	14833.14
845.399	14821.62
845.723	14628.85
846.047	14673.15
846.371	14482.19
846.695	14582.98
847.019	14511.34
847.343	14399.25
847.666	14361.52
847.99	14323.1
848.313	14260.73
848.637	14149.77
848.96	14212.14
849.284	14129.66
849.607	14023.9
849.931	14033.61
850.254	13938.7
850.577	13864.13
850.9	13716.56
851.223	13780.06
851.546	13690.12
851.869	13626.85
852.192	13704.81
852.515	13487.64
852.838	13445.83
853.161	13524.47
853.483	13517.24
853.806	13417.59
854.129	13287.64
854.451	13306.85
854.774	13185.95
855.096	13162.22
855.419	13134.65
855.741	13126.97
856.063	13018.05
856.385	13054.88
856.708	12971.95
857.03	13056.24
857.352	12979.63
857.674	12919.52
857.996	12810.14
858.318	12716.81
858.64	12771.95
858.961	12718.85
859.283	12709.36
859.605	12547.78
859.926	12740.54
860.248	12621
860.57	12458.97
860.891	12530.38
861.212	12437.95
861.534	12398.4
861.855	12382.13
862.176	12442.7
862.498	12398.18
862.819	12398.4
863.14	12350.27
863.461	12331.96
863.782	12207
864.103	12232.98
864.424	12251.97
864.745	12262.14
865.065	12298.52
865.386	12203.15
865.707	12162.93
866.027	12083.16
866.348	12092.87
866.668	12099.88
866.989	11988.7
867.309	12002.93
867.63	11984.4
867.95	11995.48
868.27	12008.58
868.59	11952.99
868.91	11964.74
869.23	11910.28
869.55	11797.29
869.87	11815.59
870.19	11820.79
870.51	11879.09
870.83	11908.47
871.15	11753
871.469	11863.5
871.789	11844.07
872.109	11744.63
872.428	11661.47
872.748	11737.18
873.067	11661.7
873.386	11700.34
873.706	11589.38
874.025	11624.86
874.344	11664.18
874.663	11583.51
874.982	11623.51
875.301	11604.3
875.62	11579.89
875.939	11502.83
876.258	11550.97
876.577	11468.26
876.896	11506.45
877.214	11392.1
877.533	11455.38
877.852	11371.99
878.17	11394.36
878.489	11326.34
878.807	11398.2
879.125	11331.76
879.444	11331.99
879.762	11273.46
880.08	11339.9
880.398	11223.97
880.716	11230.3
881.034	11194.37
881.352	11202.73
881.67	11148.94
881.988	11177.87
882.306	11180.36
882.624	11067.59
882.941	11107.82
883.259	11008.83
883.577	11021.94
883.894	11038.21
884.212	10953.92
884.529	10947.59
884.846	10924.09
885.164	10921.61
885.481	10901.49
885.798	10897.65
886.115	10744.21
886.432	10822.85
886.75	10789.63
887.067	10795.51
887.383	10633.7
887.7	10750.99
888.017	10669.41
888.334	10658.56
888.651	10652.69
888.967	10609.07
889.284	10515.06
889.6	10533.82
889.917	10462.41
890.233	10485.68
890.55	10419.92
890.866	10428.96
891.182	10422.86
891.498	10342.41
891.815	10336.54
892.131	10250.21
892.447	10277.1
892.763	10220.83
893.079	10209.08
893.395	10187.61
893.71	10203.43
894.026	10139.48
894.342	10096.54
894.657	10041.4
894.973	9937.68
895.289	9971.12
895.604	9932.48
895.92	9907.62
896.235	9842.09
896.55	9858.13
896.865	9769.32
897.181	9742.88
897.496	9748.3
897.811	9717.57
898.126	9713.95
898.441	9656.33
898.756	9711.47
899.071	9559.38
899.386	9584.01
899.7	9498.37
900.015	9466.28
900.33	9421.98
900.644	9346.28
900.959	9417.01
901.273	9321.42
901.588	9329.1
901.902	9319.61
902.216	9212.05
902.531	9181.09
902.845	9205.27
903.159	9151.48
903.473	9039.85
903.787	9071.71
904.101	9015.44
904.415	8958.27
904.729	8986.06
905.042	8963.24
905.356	8911.04
905.67	8918.27
905.984	8909.91
906.297	8841.21
906.611	8792.62
906.924	8793.75
907.237	8737.93
907.551	8688.22
907.864	8596.69
908.177	8671.5
908.491	8612.06
908.804	8565.28
909.117	8528
909.43	8463.59
909.743	8452.97
910.056	8356.7
910.368	8372.75
910.681	8347.89
910.994	8311.96
911.307	8243.94
911.619	8204.61
911.932	8221.34
912.244	8132.3
912.557	8101.34
912.869	8165.07
913.181	8093.43
913.494	8100.44
913.806	8012.3
914.118	7950.16
914.43	7975.24
914.742	7928.69
915.054	7836.04
915.366	7801.91
915.678	7834
915.99	7823.61
916.302	7742.71
916.613	7701.13
916.925	7707.68
917.236	7671.97
917.548	7596.72
917.859	7643.05
918.171	7538.19
918.482	7483.05
918.794	7482.37
919.105	7469.94
919.416	7374.81
919.727	7401.92
920.038	7352.43
920.349	7312.21
920.66	7272.44
920.971	7334.81
921.282	7205.55
921.593	7215.94
921.903	7170.52
922.214	7094.14
922.525	7130.29
922.835	7094.14
923.146	7084.87
923.456	7016.62
923.767	6938.66
924.077	6990.64
924.387	6970.07
924.697	6877.42
925.008	6880.13
925.318	6874.93
925.628	6863.63
925.938	6765.33
926.248	6735.73
926.558	6706.12
926.867	6716.52
927.177	6644.43
927.487	6586.13
927.796	6593.58
928.106	6571.44
928.416	6575.05
928.725	6536.86
929.034	6531.44
929.344	6495.28
929.653	6486.92
929.962	6478.11
930.271	6365.12
930.581	6359.01
930.89	6319.92
931.199	6272.24
931.508	6240.37
931.817	6267.94
932.125	6253.03
932.434	6236.76
932.743	6116.31
933.051	6167.83
933.36	6108.4
933.669	6052.58
933.977	6056.2
934.286	6037.44
934.594	6035.41
934.902	5971.91
935.21	5949.76
935.519	5936.65
935.827	5927.16
936.135	5919.93
936.443	5847.61
936.751	5872.7
937.059	5795.41
937.367	5785.92
937.674	5766.49
937.982	5736.88
938.29	5762.19
938.597	5743.89
938.905	5670.44
939.213	5663.44
939.52	5599.49
939.827	5615.76
940.135	5544.57
940.442	5519.71
940.749	5546.38
941.056	5497.57
941.363	5457.79
941.67	5474.29
941.977	5392.26
942.284	5410.56
942.591	5390.45
942.898	5296.89
943.205	5300.06
943.511	5303.45
943.818	5266.39
944.125	5264.13
944.431	5231.81
944.738	5246.95
945.044	5187.74
945.35	5164.92
945.657	5100.74
945.963	5135.32
946.269	5063.45
946.575	5117.01
946.881	5093.06
947.187	5055.32
947.493	5017.35
947.799	5036.11
948.105	4942.55
948.41	4963.57
948.716	4936.23
949.022	4946.4
949.327	4917.02
949.633	4850.8
949.938	4840.18
950.244	4864.59
950.549	4836.12
950.854	4784.59
951.16	4741.2
951.465	4762.67
951.77	4713.86
952.075	4686.74
952.38	4682.45
952.685	4697.14
952.99	4593.41
953.294	4594.54
953.599	4637.7
953.904	4566.07
954.209	4507.99
954.513	4518.16
954.818	4487.2
955.122	4490.14
955.426	4506.86
955.731	4447.88
956.035	4419.63
956.339	4391.61
956.643	4395.68
956.948	4387.09
957.252	4376.92
957.556	4351.83
957.86	4283.59
958.163	4314.55
958.467	4299.18
958.771	4251.27
959.075	4259.41
959.378	4213.99
959.682	4218.28
959.985	4164.95
960.289	4198.39
960.592	4173.08
960.896	4148.22
961.199	4084.05
961.502	4140.54
961.805	4133.76
962.108	4009.24
962.411	4055.35
962.714	4076.59
963.017	3986.19
963.32	3990.94
963.623	3992.52
963.926	3962.01
964.228	3955.01
964.531	3949.13
964.833	3916.59
965.136	3907.33
965.438	3894.22
965.741	3835.69
966.043	3830.49
966.345	3794.11
966.648	3832.07
966.95	3825.52
967.252	3750.72
967.554	3733.09
967.856	3749.82
968.158	3693.32
968.46	3668.01
968.761	3670.95
969.063	3694.45
969.365	3595.02
969.666	3625.53
969.968	3620.78
970.269	3595.24
970.571	3562.93
970.872	3584.62
971.174	3544.62
971.475	3550.27
971.776	3527.68
972.077	3507.34
972.378	3505.3
972.679	3490.84
972.98	3462.14
973.281	3501.69
973.582	3455.59
973.883	3429.83
974.183	3374.23
974.484	3402.93
974.785	3373.78
975.085	3349.83
975.386	3367.23
975.686	3348.7
975.986	3317.06
976.287	3303.05
976.587	3273.45
976.887	3278.19
977.187	3288.59
977.487	3259.89
977.787	3221.92
978.087	3173.56
978.387	3226.44
978.687	3199.55
978.987	3185.54
979.286	3165.2
979.586	3117.06
979.885	3114.81
980.185	3137.86
980.484	3080.23
980.784	3050.63
981.083	3063.06
981.382	3070.96
981.682	3049.27
981.981	3085.88
982.28	3024.64
982.579	3002.49
982.878	2980.57
983.177	2965.88
983.475	2966.56
983.774	2924.98
984.073	2926.79
984.372	2936.96
984.67	2931.99
984.969	2902.83
985.267	2886.34
985.566	2879.11
985.864	2855.6
986.162	2833.46
986.461	2813.57
986.759	2828.03
987.057	2818.54
987.355	2775.83
987.653	2781.48
987.951	2743.97
988.249	2741.93
988.547	2725.89
988.844	2691.99
989.142	2712.78
989.44	2675.95
989.737	2697.19
990.035	2652.67
990.332	2677.75
990.63	2648.15
990.927	2628.72
991.224	2596.63
991.521	2610.41
991.819	2614.48
992.116	2614.93
992.413	2611.99
992.71	2574.71
993.006	2590.98
993.303	2519.11
993.6	2524.99
993.897	2542.39
994.193	2523.18
994.49	2515.95
994.787	2487.03
995.083	2492
995.379	2473.01
995.676	2473.24
995.972	2442.05
996.268	2432.56
996.565	2401.6
996.861	2406.12
997.157	2420.36
997.453	2373.13
997.749	2386.01
998.044	2338.1
998.34	2337.65
998.636	2306.01
998.932	2321.83
999.227	2276.86
999.523	2288.16
999.818	2285.67
1000.114	2254.71
1000.409	2256.75
1000.704	2208.61
1001	2212.68
1001.295	2236.86
1001.59	2229.86
1001.885	2218.11
1002.18	2208.39
1002.475	2195.28
1002.77	2158.67
1003.065	2150.08
1003.359	2130.2
1003.654	2134.04
1003.949	2115.96
1004.243	2124.32
1004.538	2096.98
1004.832	2098.11
1005.127	2072.12
1005.421	2064.89
1005.715	2039.35
1006.009	2036.64
1006.304	2031.44
1006.598	2019.24
1006.892	1981.05
1007.186	1996.42
1007.48	1968.62
1007.773	1969.07
1008.067	1966.36
1008.361	1935.18
1008.655	1932.92
1008.948	1905.12
1009.242	1905.12
1009.535	1920.71
1009.829	1909.41
1010.122	1891.11
1010.415	1862.18
1010.708	1845.69
1011.001	1852.01
1011.295	1807.04
1011.588	1865.35
1011.881	1801.85
1012.173	1785.57
1012.466	1820.6
1012.759	1787.38
1013.052	1759.59
1013.344	1764.78
1013.637	1773.15
1013.93	1742.64
1014.222	1701.73
1014.514	1744.22
1014.807	1711
1015.099	1705.58
1015.391	1679.59
1015.683	1653.83
1015.976	1666.26
1016.268	1699.48
1016.56	1651.34
1016.851	1620.38
1017.143	1619.7
1017.435	1627.61
1017.727	1581.74
1018.018	1583.32
1018.31	1559.59
1018.602	1576.09
1018.893	1564.11
1019.185	1571.34
1019.476	1544.9
1019.767	1527.73
1020.058	1533.15
1020.35	1517.78
1020.641	1497.9
1020.932	1513.04
1021.223	1484.57
1021.514	1472.14
1021.804	1482.76
1022.095	1450.89
1022.386	1443.44
1022.677	1427.17
1022.967	1435.53
1023.258	1416.54
1023.548	1398.01
1023.839	1397.11
1024.129	1379.03
1024.419	1393.04
1024.709	1381.29
1025	1339.71
1025.29	1378.13
1025.58	1346.72
1025.87	1348.07
1026.16	1346.04
1026.449	1336.09
1026.739	1303.78
1027.029	1318.24
1027.319	1285.02
1027.608	1280.96
1027.898	1302.42
1028.187	1254.06
1028.477	1250.22
1028.766	1250.67
1029.055	1231.46
1029.344	1238.24
1029.634	1214.97
1029.923	1210.45
1030.212	1187.62
1030.501	1198.92
1030.79	1197.12
1031.078	1181.75
1031.367	1169.55
1031.656	1164.12
1031.945	1155.76
1032.233	1144.46
1032.522	1147.4
1032.81	1123.22
1033.099	1133.39
1033.387	1139.04
1033.675	1114.86
1033.963	1092.03
1034.251	1111.24
1034.54	1102.43
1034.828	1084.58
1035.116	1089.77
1035.403	1066.05
1035.691	1095.2
1035.979	1056.1
1036.267	1072.15
1036.554	1042.09
1036.842	1046.38
1037.129	1059.04
1037.417	1020.4
1037.704	1023.56
1037.992	994.63
1038.279	1018.36
1038.566	972.26
1038.853	972.26
1039.14	972.26
