Data from red_shiny_book_FLMS001491_00100.txt Node
Date: Wed Feb 08 15:25:38 GMT 2017
User: dcchb
Spectrometer: FLMS00149
Trigger mode: 0
Integration Time (sec): 2.000000E-2
Scans to average: 10
Electric dark correction enabled: true
Nonlinearity correction enabled: false
Boxcar width: 0
XAxis mode: Wavelengths
Number of Pixels in Spectrum: 2048
>>>>>Begin Spectral Data<<<<<
341.393	-36.17
341.776	-36.17
342.16	-36.17
342.543	-61.26
342.927	-61.26
343.31	-64.19
343.693	-61.48
344.077	-67.36
344.46	-60.8
344.843	-49.73
345.226	-28.04
345.61	-49.73
345.993	-8.83
346.376	2.7
346.759	8.57
347.142	21.45
347.525	35.24
347.908	54.9
348.291	58.97
348.674	103.03
349.057	105.29
349.44	137.38
349.823	138.97
350.206	161.11
350.588	183.71
350.971	214.44
351.354	242.01
351.737	238.17
352.119	255.12
352.502	272.3
352.884	276.81
353.267	262.58
353.65	283.82
354.032	284.05
354.414	317.04
354.797	336.25
355.179	334.89
355.562	311.39
355.944	352.52
356.326	332.86
356.709	327.21
357.091	341.22
357.473	348.68
357.855	353.2
358.238	357.72
358.62	338.28
359.002	340.54
359.384	343.48
359.766	360.65
360.148	344.16
360.53	346.64
360.912	345.29
361.294	349.58
361.676	337.83
362.057	348.23
362.439	357.04
362.821	332.86
363.203	320.43
363.584	348.23
363.966	326.53
364.348	327.66
364.729	290.83
365.111	324.95
365.493	329.92
365.874	323.14
366.256	332.86
366.637	330.6
367.019	323.14
367.4	307.77
367.781	328.79
368.163	325.18
368.544	310.94
368.925	309.13
369.306	325.4
369.688	330.82
370.069	341.9
370.45	318.85
370.831	325.63
371.212	310.03
371.593	325.63
371.974	317.04
372.355	322.69
372.736	318.17
373.117	325.85
373.498	331.95
373.879	308.23
374.26	311.16
374.641	314.78
375.021	328.34
375.402	300.09
375.783	326.08
376.163	337.6
376.544	315.23
376.925	329.92
377.305	333.31
377.686	334.67
378.066	316.36
378.447	330.6
378.827	340.54
379.208	324.72
379.588	351.39
379.968	355.23
380.349	347.1
380.729	350.26
381.109	350.49
381.489	359.07
381.87	357.72
382.25	365.17
382.63	339.64
383.01	349.36
383.39	358.17
383.77	349.13
384.15	356.59
384.53	364.5
384.91	357.72
385.29	354.55
385.67	352.29
386.049	349.36
386.429	369.69
386.809	367.43
387.189	361.11
387.568	351.84
387.948	350.71
388.328	400.2
388.707	373.99
389.087	379.41
389.466	355.91
389.846	378.51
390.225	389.81
390.605	378.06
390.984	381.44
391.363	377.6
391.743	363.14
392.122	362.46
392.501	370.6
392.881	388.68
393.26	380.54
393.639	369.47
394.018	399.98
394.397	378.06
394.776	379.41
395.155	392.52
395.534	378.73
395.913	402.91
396.292	395.46
396.671	409.69
397.05	422.57
397.429	410.14
397.808	405.85
398.186	417.6
398.565	408.56
398.944	406.3
399.323	390.71
399.701	418.96
400.08	409.01
400.458	425.74
400.837	434.1
401.215	419.64
401.594	411.73
401.972	415.57
402.351	424.83
402.729	413.31
403.107	430.26
403.486	435
403.864	455.34
404.242	428
404.62	443.14
404.999	428.22
405.377	440.88
405.755	463.93
406.133	437.26
406.511	451.05
406.889	445.4
407.267	442.01
407.645	453.53
408.023	481.33
408.401	458.73
408.779	466.19
409.156	470.26
409.534	469.35
409.912	479.52
410.29	475.91
410.667	495.57
411.045	476.58
411.422	485.17
411.8	477.94
412.178	495.34
412.555	517.03
412.933	517.03
413.31	503.02
413.687	526.75
414.065	533.76
414.442	529.24
414.819	515.45
415.197	526.07
415.574	535.34
415.951	546.64
416.328	531.27
416.705	542.8
417.082	532.4
417.46	566.07
417.837	571.5
418.214	579.18
418.591	553.87
418.967	549.12
419.344	567.88
419.721	567.88
420.098	592.06
420.475	563.36
420.852	582.34
421.228	590.93
421.605	583.47
421.982	617.6
422.358	648.56
422.735	596.13
423.111	610.59
423.488	590.7
423.864	597.71
424.241	609.24
424.617	626.18
424.994	608.56
425.37	630.7
425.746	635.45
426.123	632.51
426.499	649.23
426.875	656.69
427.251	678.61
427.627	632.74
428.003	630.03
428.379	657.6
428.756	667.09
429.132	674.77
429.507	680.42
429.883	692.17
430.259	700.08
430.635	714.32
431.011	707.76
431.387	718.39
431.763	731.72
432.138	688.1
432.514	705.96
432.89	686.3
433.265	721.32
433.641	744.6
434.016	735.11
434.392	776.91
434.767	741.21
435.143	752.96
435.518	775.56
435.894	765.39
436.269	774.2
436.644	782.11
437.02	757.03
437.395	784.15
437.77	806.07
438.145	787.99
438.52	810.36
438.895	798.16
439.271	812.85
439.646	823.69
440.021	858.49
440.395	871.6
440.77	841.32
441.145	861.66
441.52	849.46
441.895	827.76
442.27	828.44
442.645	832.96
443.019	841.32
443.394	850.36
443.769	875.9
444.143	876.12
444.518	885.84
444.892	895.56
445.267	886.52
445.641	909.79
446.016	866.4
446.39	877.93
446.764	891.26
447.139	870.7
447.513	867.76
447.887	881.09
448.262	878.83
448.636	896.69
449.01	916.12
449.384	936.91
449.758	949.11
450.132	940.07
450.506	939.4
450.88	941.2
451.254	930.13
451.628	944.37
452.002	923.35
452.376	912.05
452.75	955.21
453.123	957.47
453.497	1010.58
453.871	1008.32
454.244	1013.07
454.618	1022.78
454.992	1016.46
455.365	1028.43
455.739	1021.65
456.112	1036.12
456.486	1020.98
456.859	987.53
457.232	1021.2
457.606	996.8
457.979	1020.52
458.352	1039.05
458.725	1053.74
459.099	1082.67
459.472	1077.92
459.845	1103.69
460.218	1131.48
460.591	1126.74
460.964	1118.15
461.337	1102.56
461.71	1089.22
462.083	1112.95
462.456	1093.29
462.829	1077.92
463.201	1078.83
463.574	1083.35
463.947	1134.65
464.32	1140.52
464.692	1186.17
465.065	1209.22
465.438	1232.04
465.81	1247.64
466.183	1266.39
466.555	1263.91
466.928	1228.43
467.3	1243.57
467.672	1247.41
468.045	1228.2
468.417	1227.07
468.789	1239.73
469.161	1238.37
469.534	1315.21
469.906	1308.88
470.278	1349.33
470.65	1334.87
471.022	1378.93
471.394	1397.69
471.766	1409.67
472.138	1397.69
472.51	1405.37
472.882	1396.79
473.253	1400.18
473.625	1399.5
473.997	1406.05
474.369	1401.76
474.74	1433.85
475.112	1483.56
475.484	1512.94
475.855	1557.23
476.227	1591.13
476.598	1608.31
476.97	1655.08
477.341	1658.47
477.713	1651.47
478.084	1651.02
478.455	1671.13
478.827	1630.45
479.198	1639.72
479.569	1649.66
479.94	1660.73
480.311	1705.48
480.682	1773.95
481.053	1809.43
481.424	1879.48
481.795	1935.3
482.166	1922.42
482.537	2011.46
482.908	2038.8
483.279	2015.53
483.65	2017.11
484.021	2046.03
484.391	2024.79
484.762	1975.08
485.133	1988.86
485.503	1991.35
485.874	2067.5
486.244	2064.56
486.615	2131
486.985	2194.5
487.356	2275.18
487.726	2321.05
488.097	2423.88
488.467	2383.88
488.837	2445.57
489.207	2432.46
489.578	2472.24
489.948	2443.76
490.318	2452.35
490.688	2391.34
491.058	2444.22
491.428	2417.1
491.798	2429.98
492.168	2499.81
492.538	2559.69
492.908	2645.79
493.278	2695.28
493.648	2729.41
494.017	2795.62
494.387	2867.48
494.757	2834.71
495.126	2907.48
495.496	2867.71
495.866	2888.72
496.235	2848.95
496.605	2817.31
496.974	2782.96
497.344	2823.41
497.713	2793.81
498.082	2811.66
498.452	2824.77
498.821	2919.23
499.19	2973.92
499.559	3056.63
499.928	3100.24
500.298	3157.42
500.667	3165.33
501.036	3225.44
501.405	3205.55
501.774	3173.01
502.143	3148.15
502.512	3100.02
502.88	3098.21
503.249	3051.43
503.618	3022.05
503.987	3032.45
504.356	3025.22
504.724	3034.71
505.093	3104.99
505.462	3175.27
505.83	3222.5
506.199	3318.99
506.567	3383.4
506.936	3415.72
507.304	3447.58
507.672	3438.54
508.041	3435.15
508.409	3397.86
508.777	3371.42
509.145	3343.63
509.514	3300.46
509.882	3235.16
510.25	3166.91
510.618	3222.73
510.986	3224.99
511.354	3258.66
511.722	3363.74
512.09	3360.12
512.458	3438.09
512.826	3555.15
513.193	3596.05
513.561	3629.72
513.929	3690.06
514.297	3677.4
514.664	3654.35
515.032	3620
515.4	3566.22
515.767	3531.19
516.135	3511.76
516.502	3412.33
516.869	3400.35
517.237	3399.44
517.604	3414.81
517.972	3421.14
518.339	3489.61
518.706	3536.16
519.073	3654.35
519.44	3730.06
519.808	3797.4
520.175	3829.94
520.542	3910.84
520.909	3892.54
521.276	3877.85
521.643	3848.02
522.009	3831.98
522.376	3760.79
522.743	3732.54
523.11	3643.28
523.477	3620.68
523.843	3642.15
524.21	3579.33
524.577	3633.56
524.943	3725.76
525.31	3794.91
525.676	3874.01
526.043	3946.1
526.409	4096.83
526.776	4141.12
527.142	4238.07
527.508	4310.38
527.874	4310.38
528.241	4311.06
528.607	4266.99
528.973	4269.93
529.339	4188.35
529.705	4177.05
530.071	4104.74
530.437	4096.6
530.803	4035.36
531.169	4046.66
531.535	4068.13
531.901	4076.71
532.267	4175.47
532.632	4269.48
532.998	4414.79
533.364	4488
533.73	4550.83
534.095	4706.98
534.461	4735.23
534.826	4793.98
535.192	4814.77
535.557	4811.38
535.923	4812.29
536.288	4722.35
536.653	4721.22
537.019	4609.36
537.384	4541.56
537.749	4518.74
538.114	4452.07
538.479	4446.87
538.845	4484.61
539.21	4519.87
539.575	4673.76
539.94	4707.43
540.305	4829.24
540.67	4954.66
541.034	5098.61
541.399	5187.42
541.764	5234.42
542.129	5314.87
542.494	5339.51
542.858	5310.58
543.223	5305.38
543.587	5276.01
543.952	5196.46
544.316	5091.6
544.681	5047.76
545.045	4971.15
545.41	4946.3
545.774	4879.41
546.138	4883.93
546.503	4921.66
546.867	4985.84
547.231	5122.11
547.595	5198.04
547.959	5280.75
548.324	5383.57
548.688	5525.04
549.052	5615.43
549.416	5615.88
549.779	5662.66
550.143	5708.99
550.507	5723.9
550.871	5657.46
551.235	5579.95
551.599	5586.96
551.962	5443.68
552.326	5359.84
552.689	5242.79
553.053	5196.46
553.417	5169.79
553.78	5243.46
554.143	5188.55
554.507	5281.43
554.87	5285.04
555.234	5389.22
555.597	5476.68
555.96	5629.44
556.323	5696.79
556.686	5841.41
557.05	5896.55
557.413	6019.26
557.776	6008.19
558.139	6054.97
558.502	6021.52
558.865	5944.91
559.228	5912.37
559.59	5771.13
559.953	5703.79
560.316	5680.74
560.679	5585.15
561.041	5512.61
561.404	5473.51
561.767	5479.39
562.129	5516
562.492	5598.03
562.854	5579.95
563.217	5659.95
563.579	5789.21
563.941	5920.73
564.304	6071.92
564.666	6267.84
565.028	6359.59
565.39	6348.97
565.753	6476.2
566.115	6470.55
566.477	6454.05
566.839	6380.38
567.201	6314.17
567.563	6290.89
567.925	6211.57
568.287	6077.34
568.648	6054.74
569.01	5940.17
569.372	5918.25
569.734	5886.84
570.095	5903.33
570.457	5925.93
570.819	5968.42
571.18	6068.75
571.542	6188.75
571.903	6400.72
572.265	6499.48
572.626	6654.27
572.987	6751.45
573.349	6934.04
573.71	7010.87
574.071	7089.29
574.432	7125
574.794	7183.07
575.155	7166.8
575.516	7094.04
575.877	7106.92
576.238	7015.39
576.599	7007.03
576.96	6908.5
577.32	6814.27
577.681	6903.99
578.042	6882.29
578.403	6961.16
578.763	7024.21
579.124	7166.8
579.485	7387.14
579.845	7585.55
580.206	7818.99
580.566	8067.12
580.927	8350.95
581.287	8662.13
581.648	8939.86
582.008	9190.48
582.368	9447.65
582.728	9787.3
583.089	9840.86
583.449	10127.86
583.809	10256.21
584.169	10433.61
584.529	10506.6
584.889	10812.81
585.249	10864.33
585.609	10990.43
585.969	11316.75
586.329	11523.3
586.688	11735.72
587.048	12102.94
587.408	12419.77
587.768	12752.19
588.127	13210.49
588.487	13628.78
588.846	14185.6
589.206	14672.82
589.565	15144.9
589.925	15782.85
590.284	16227.81
590.643	16763.39
591.003	17222.58
591.362	17680.88
591.721	18117.25
592.08	18585.49
592.44	18943.67
592.799	19367.39
593.158	19709.75
593.517	19964.43
593.876	20342.95
594.235	20589.73
594.593	20995.59
594.952	21303.15
595.311	21594.22
595.67	22022.91
596.029	22489.56
596.387	22966.61
596.746	23364.12
597.104	23917.32
597.463	24301.04
597.822	24965.21
598.18	25327.91
598.538	25855.58
598.897	26592.06
599.255	26924.02
599.613	27797.9
599.972	28059.14
600.33	28698.44
600.688	28961.03
601.046	29387.46
601.404	29896.37
601.762	30292.75
602.12	30634.66
602.478	30870.36
602.836	31118.49
603.194	31174.53
603.552	31534.98
603.91	31638.48
604.268	31818.58
604.625	32112.36
604.983	32516.19
605.341	32579.69
605.698	33083.64
606.056	33435.49
606.413	33712.77
606.771	34146.66
607.128	34627.55
607.485	34802.01
607.843	35208.1
608.2	35731.48
608.557	36256.89
608.914	36521.96
609.272	36938.9
609.629	37506.12
609.986	37683.74
610.343	37837.18
610.7	38296.38
611.057	38384.74
611.414	38481.01
611.771	38720.55
612.127	38767.33
612.484	38875.57
612.841	38851.39
613.198	38908.79
613.554	38965.29
613.911	39211.16
614.267	39372.96
614.624	39489.57
614.98	39487.99
615.337	39912.16
615.693	40070.12
616.05	40161.87
616.406	40514.63
616.762	40490.22
617.118	40738.12
617.475	41094.95
617.831	41462.62
618.187	41899.68
618.543	41891.09
618.899	42369.95
619.255	42416.27
619.611	42490.39
619.967	42769.26
620.323	42857.62
620.678	42736.72
621.034	42933.09
621.39	43012.41
621.746	42691.29
622.101	43263.03
622.457	42776.26
622.812	42827.11
623.168	42787.11
623.523	42916.15
623.879	42882.93
624.234	42659.66
624.589	42809.48
624.945	42799.76
625.3	42834.57
625.655	43031.85
626.01	43148.68
626.365	43224.39
626.72	43204.5
627.075	43335.34
627.43	43616.47
627.785	43685.39
628.14	43858.49
628.495	44051.71
628.85	44149.56
629.205	44179.84
629.559	44455.09
629.914	44332.83
630.269	44355.66
630.623	44383.68
630.978	44239.27
631.332	44329.44
631.687	44437.91
632.041	44104.14
632.396	44206.28
632.75	43817.59
633.104	43769.23
633.459	43593.42
633.813	43447.43
634.167	43296.25
634.521	43385.96
634.875	43355.23
635.229	43173.31
635.583	43141
635.937	43263.71
636.291	43171.73
636.645	43434.78
636.999	43359.3
637.352	43565.17
637.706	43420.09
638.06	43653.08
638.413	43639.97
638.767	43629.57
639.121	43896.23
639.474	43675.22
639.828	43854.2
640.181	43955.21
640.534	43886.97
640.888	43838.83
641.241	43771.94
641.594	43663.02
641.947	43667.76
642.301	43480.42
642.654	43363.82
643.007	43328.11
643.36	43216.93
643.713	42974.9
644.066	42875.47
644.419	42754.12
644.771	42294.24
645.124	41969.28
645.477	41715.27
645.83	41451.1
646.182	41288.62
646.535	41200.03
646.888	41518.44
647.24	41414.49
647.593	41565.45
647.945	41696.29
648.298	41603.19
648.65	41620.13
649.002	41551.21
649.355	41868.49
649.707	41844.54
650.059	42131.31
650.411	42592.31
650.763	42625.53
651.115	43175.8
651.467	42891.74
651.819	42887.22
652.171	42736.04
652.523	42688.58
652.875	42442.71
653.227	42308.25
653.578	42701.46
653.93	42249.27
654.282	42087.92
654.633	41863.29
654.985	41751.43
655.337	41769.06
655.688	41697.19
656.039	41816.51
656.391	41290.65
656.742	41435.73
657.094	41526.58
657.445	41604.09
657.796	41619.46
658.147	41477.54
658.498	41562.73
658.849	41836.17
659.2	41718.89
659.551	41739.45
659.902	41922.95
660.253	41996.4
660.604	42108.48
660.955	41988.71
661.306	42324.97
661.656	42218.54
662.007	42243.17
662.358	42321.36
662.708	42287.01
663.059	42143.74
663.409	41874.37
663.76	42145.77
664.11	42048.37
664.461	42028.49
664.811	41791.2
665.161	41649.29
665.511	41374.04
665.862	41386.24
666.212	41629.4
666.562	41352.34
666.912	41161.84
667.262	41123.88
667.612	40906.48
667.962	41046.59
668.312	40912.13
668.662	41057.21
669.011	41063.76
669.361	40850.66
669.711	41002.3
670.06	41080.04
670.41	41007.04
670.76	41074.16
671.109	41334.94
671.459	41254.72
671.808	41286.13
672.157	41518.44
672.507	41480.25
672.856	41315.96
673.205	41564.54
673.554	41641.38
673.904	41575.39
674.253	41787.81
674.602	41572
674.951	41030.55
675.3	40785.13
675.649	41335.85
675.998	41132.69
676.346	40897.67
676.695	41008.63
677.044	40722.53
677.393	40765.24
677.741	40666.94
678.09	40436.44
678.438	40285.48
678.787	40273.28
679.135	40267.4
679.484	39920.29
679.832	40041.87
680.181	39938.82
680.529	39907.19
680.877	39883.23
681.225	39986.96
681.573	40126.39
681.922	40087.97
682.27	39858.6
682.618	40053.4
682.966	39935.43
683.314	40217.91
683.661	40188.31
684.009	40104.69
684.357	39965.04
684.705	40107.18
685.053	40133.17
685.4	40210
685.748	40005.26
686.095	39956.22
686.443	39820.41
686.79	39656.34
687.138	39829.45
687.485	39669.9
687.832	39477.82
688.18	39557.36
688.527	39095
688.874	39039.19
689.221	38790.83
689.568	38549.93
689.915	38398.52
690.262	38450.27
690.609	38263.61
690.956	38082.15
691.303	38034.01
691.65	37663.4
691.997	37737.07
692.344	37384.09
692.69	37465.22
693.037	37590.86
693.383	37280.14
693.73	37582.95
694.077	37331.43
694.423	37490.53
694.769	37342.51
695.116	37349.96
695.462	37505.44
695.808	37398.78
696.155	37470.19
696.501	37286.92
696.847	37341.83
697.193	37263.19
697.539	37353.35
697.885	37135.05
698.231	37130.99
698.577	37059.35
698.923	36954.49
699.269	36763.76
699.614	36578.69
699.96	36541.85
700.306	36410.1
700.651	36098.7
700.997	35856.67
701.342	35823
701.688	35800.17
702.033	35470.01
702.379	35355.89
702.724	35176.01
703.069	35298.94
703.415	34680.43
703.76	34771.5
704.105	34686.31
704.45	34558.17
704.795	34424.84
705.14	34256.71
705.485	34326.54
705.83	34232.53
706.175	34332.87
706.52	34262.81
706.865	34142.59
707.209	34237.05
707.554	34057.85
707.899	34293.55
708.243	34176.26
708.588	34193.44
708.932	33980.56
709.277	34136.26
709.621	34193.66
709.966	33895.82
710.31	34203.83
710.654	33767.46
710.998	33867.34
711.342	33957.06
711.687	33768.36
712.031	33525.66
712.375	33518.2
712.719	33502.61
713.063	33402.72
713.407	33418.99
713.75	33138.78
714.094	33077.99
714.438	32872.34
714.782	32801.84
715.125	32529.07
715.469	32545.57
715.812	32223.55
716.156	32108.52
716.499	32071.23
716.843	31960.95
717.186	31787.4
717.53	31956.43
717.873	31871.46
718.216	31807.06
718.559	31630.79
718.902	31500.17
719.246	31698.14
719.589	31435.09
719.932	31530.46
720.275	31533.62
720.617	31571.59
720.96	31557.8
721.303	31653.39
721.646	31738.13
721.989	31623.79
722.331	31775.65
722.674	31755.31
723.016	31745.14
723.359	31611.58
723.701	31768.42
724.044	31486.84
724.386	31459.05
724.729	31554.64
725.071	31424.24
725.413	31337.47
725.755	31370.23
726.097	31202.1
726.439	31028.1
726.782	31033.29
727.124	31180.63
727.465	30728.22
727.807	30679.86
728.149	30619.75
728.491	30234.45
728.833	30419.53
729.175	30207.33
729.516	30104.51
729.858	30012.53
730.199	29939.09
730.541	29822.25
730.882	29811.18
731.224	29896.15
731.565	29671.75
731.906	29753.55
732.248	29694.57
732.589	29641.01
732.93	29442.83
733.271	29592.88
733.612	29608.92
733.953	29720.56
734.294	29609.83
734.635	29579.1
734.976	29700.67
735.317	29627.68
735.658	29663.39
735.999	29683.95
736.339	29698.19
736.68	29816.38
737.021	29731.41
737.361	29682.6
737.702	29767.56
738.042	29782.93
738.383	29746.77
738.723	29755.14
739.063	29546.33
739.404	29514.01
739.744	29401.7
740.084	29358.31
740.424	29429.49
740.764	29294.58
741.104	29250.29
741.444	29060.69
741.784	28834.26
742.124	28816.86
742.464	28778.44
742.804	28620.02
743.143	28491.67
743.483	28413.7
743.823	28058.01
744.162	28189.3
744.502	28234.72
744.841	27932.13
745.181	28171.45
745.52	27900.72
745.86	27916.09
746.199	27884.68
746.538	27850.78
746.877	27898.46
747.216	27945.01
747.556	27906.14
747.895	27922.87
748.234	27899.82
748.573	27841.06
748.911	27840.61
749.25	27942.08
749.589	27808.52
749.928	28036.08
750.267	28012.81
750.605	27960.61
750.944	27881.29
751.283	27918.12
751.621	28032.7
751.96	27855.52
752.298	27755.41
752.636	27957.44
752.975	27710.44
753.313	27499.6
753.651	27731.91
753.989	27565.14
754.327	27408.53
754.666	27148.42
755.004	27295.31
755.342	27230.46
755.679	27077.69
756.017	26911.82
756.355	26826.85
756.693	26642.22
757.031	26624.37
757.368	26371.95
757.706	26350.25
758.044	26164.5
758.381	26275.68
758.719	26071.39
759.056	26055.12
759.394	25826.65
759.731	25638.63
760.068	25643.38
760.405	25624.17
760.743	25401.8
761.08	25447
761.417	25300.79
761.754	25359.09
762.091	25414.46
762.428	25376.04
762.765	25158.19
763.102	25361.35
763.438	25197.74
763.775	25151.87
764.112	25336.49
764.449	25230.51
764.785	25110.51
765.122	25078.65
765.458	25014.7
765.795	25078.2
766.131	25051.53
766.467	25005.88
766.804	24874.13
767.14	24794.59
767.476	24717.08
767.812	24750.52
768.148	24759.56
768.485	24554.59
768.821	24386.01
769.157	24414.94
769.492	24294.49
769.828	24253.13
770.164	23927.72
770.5	23877.55
770.836	23854.95
771.171	23665.8
771.507	23681.62
771.842	23475.3
772.178	23257.91
772.513	23270.11
772.849	23048.19
773.184	22795.09
773.519	22817.01
773.855	22615.66
774.19	22475.1
774.525	22481.88
774.86	22461.77
775.195	22331.38
775.53	22283.47
775.865	22231.94
776.2	21975.23
776.535	21841.9
776.87	21950.37
777.205	21879.18
777.539	21674.44
777.874	21815.68
778.209	21646.87
778.543	21588.34
778.878	21440.55
779.212	21554.67
779.547	21534.56
779.881	21561.23
780.215	21471.96
780.55	21504.96
780.884	21314.91
781.218	21342.7
781.552	21410.04
781.886	21344.74
782.22	21262.03
782.554	21184.06
782.888	21012.31
783.222	20881.02
783.556	20889.83
783.889	20837.4
784.223	20649.39
784.557	20701.59
784.89	20680.35
785.224	20500.24
785.557	20435.15
785.891	20229.28
786.224	20199.23
786.558	20110.19
786.891	19945.22
787.224	19823.19
787.557	19792.46
787.891	19738.45
788.224	19560.15
788.557	19536.65
788.89	19453.94
789.223	19375.75
789.556	19262.08
789.888	19083.33
790.221	19038.81
790.554	18909.32
790.887	18898.02
791.219	18803.56
791.552	18827.74
791.884	18739.15
792.217	18595.43
792.549	18572.15
792.882	18416
793.214	18381.88
793.546	18401.31
793.879	18207.87
794.211	18259.17
794.543	18279.73
794.875	18232.73
795.207	18343.68
795.539	18264.82
795.871	18258.94
796.203	18097.82
796.535	18095.78
796.867	18085.16
797.198	18089.45
797.53	18068.44
797.862	17945.95
798.193	17969.23
798.525	17936.01
798.856	17984.37
799.188	17825.73
799.519	17754.32
799.85	17731.72
800.182	17727.43
800.513	17591.61
800.844	17521.79
801.175	17644.04
801.506	17545.06
801.837	17411.51
802.168	17323.82
802.499	17223.04
802.83	17119.54
803.161	17033.21
803.491	17027.33
803.822	16884.06
804.153	16846.32
804.483	16686.33
804.814	16580.11
805.145	16556.84
805.475	16471.87
805.805	16433.9
806.136	16352.55
806.466	16391.19
806.796	16336.73
807.126	16164.53
807.457	16105.1
807.787	16043.86
808.117	16005.21
808.447	15972.67
808.777	15987.36
809.107	15989.62
809.436	15781.04
809.766	15801.83
810.096	15753.24
810.426	15687.26
810.755	15772.68
811.085	15728.84
811.414	15690.19
811.744	15715.5
812.073	15691.55
812.403	15681.61
812.732	15587.15
813.061	15579.01
813.39	15602.29
813.719	15559.58
814.049	15673.25
814.378	15694.49
814.707	15565.23
815.036	15538.56
815.365	15506.24
815.693	15466.7
816.022	15484.32
816.351	15413.59
816.68	15348.73
817.008	15344.89
817.337	15219.47
817.665	15249.08
817.994	15174.5
818.322	15220.83
818.651	15146.48
818.979	15049.31
819.307	15024.45
819.636	14944.23
819.964	14858.35
820.292	14936.99
820.62	14873.04
820.948	14734.51
821.276	14782.2
821.604	14673.05
821.932	14599.15
822.259	14570
822.587	14607.74
822.915	14540.62
823.243	14592.14
823.57	14436.67
823.898	14508.53
824.225	14444.58
824.553	14417.46
824.88	14502.88
825.207	14470.57
825.535	14430.79
825.862	14412.26
826.189	14375.65
826.516	14465.37
826.843	14511.47
827.17	14448.19
827.497	14501.98
827.824	14529.55
828.151	14546.04
828.478	14478.48
828.805	14557.57
829.131	14481.19
829.458	14508.76
829.785	14468.98
830.111	14535.87
830.438	14641.86
830.764	14593.73
831.09	14725.47
831.417	14669.66
831.743	14684.12
832.069	14713.5
832.395	14624.46
832.722	14760.5
833.048	14648.87
833.374	14771.57
833.7	14615.87
834.026	14732.03
834.351	14810.22
834.677	14664.91
835.003	14720.95
835.329	14722.54
835.654	14615.19
835.98	14607.51
836.306	14552.15
836.631	14476.44
836.956	14438.93
837.282	14453.39
837.607	14396.22
837.932	14351.25
838.258	14277.8
838.583	14298.14
838.908	14102.67
839.233	14117.81
839.558	14127.52
839.883	14019.96
840.208	13942.67
840.533	13874.2
840.858	13922.33
841.182	13897.47
841.507	13855.67
841.832	13812.28
842.156	13753.97
842.481	13629.91
842.805	13636.24
843.13	13579.29
843.454	13610.93
843.778	13485.73
844.103	13471.27
844.427	13457.49
844.751	13432.63
845.075	13462.68
845.399	13385.17
845.723	13360.54
846.047	13295
846.371	13271.05
846.695	13289.35
847.019	13276.92
847.343	13257.72
847.666	13175.01
847.99	13123.71
848.313	13123.71
848.637	13093.43
848.96	13045.29
849.284	13085.52
849.607	12969.81
849.931	12984.28
850.254	12847.78
850.577	12782.47
850.9	12758.97
851.223	12753.55
851.546	12734.34
851.869	12608.69
852.192	12659.99
852.515	12753.1
852.838	12607.34
853.161	12627.45
853.483	12547.23
853.806	12443.27
854.129	12403.73
854.451	12375.03
854.774	12295.26
855.096	12221.59
855.419	12226.78
855.741	12139.1
856.063	12052.32
856.385	12088.93
856.708	12000.8
857.03	11963.06
857.352	11972.55
857.674	11874.7
857.996	11753.12
858.318	11699.79
858.64	11703.41
858.961	11637.42
859.283	11596.07
859.605	11495.5
859.926	11507.93
860.248	11442.4
860.57	11438.1
860.891	11369.63
861.212	11284.66
861.534	11324.43
861.855	11209.41
862.176	11243.98
862.498	11277.88
862.819	11181.84
863.14	11180.93
863.461	11138.22
863.782	11113.37
864.103	11107.26
864.424	10948.17
864.745	11065.46
865.065	10997.89
865.386	11043.54
865.707	11059.58
866.027	11007.15
866.348	10995.63
866.668	11051.9
866.989	11029.98
867.309	10967.83
867.63	11022.07
867.95	11106.59
868.27	11028.85
868.59	11054.38
868.91	10998.79
869.23	11011.67
869.55	10945.23
869.87	11046.48
870.19	11010.09
870.51	11008.51
870.83	11025.91
871.15	10985.01
871.469	10992.92
871.789	11030.2
872.109	10917.21
872.428	10894.61
872.748	10955.63
873.067	10903.43
873.386	10933.48
873.706	10913.15
874.025	10802.19
874.344	10738.01
874.663	10774.39
874.982	10775.07
875.301	10713.38
875.62	10731.68
875.939	10643.1
876.258	10687.61
876.577	10631.8
876.896	10547.28
877.214	10515.64
877.533	10526.26
877.852	10368.3
878.17	10398.58
878.489	10460.05
878.807	10356.55
879.125	10375.31
879.444	10307.29
879.762	10286.72
880.08	10227.74
880.398	10208.08
880.716	10179.61
881.034	10115.88
881.352	10110.68
881.67	10102.32
881.988	10096.44
882.306	10018.93
882.624	10041.98
882.941	9983.9
883.259	9958.59
883.577	9841.08
883.894	9862.33
884.212	9885.15
884.529	9886.96
884.846	9874.08
885.164	9882.21
885.481	9836.79
885.798	9877.69
886.115	9781.2
886.432	9783.23
886.75	9810.58
887.067	9853.96
887.383	9753.18
887.7	9780.52
888.017	9777.13
888.334	9883.34
888.651	9765.15
888.967	9787.75
889.284	9791.37
889.6	9735.55
889.917	9647.19
890.233	9678.15
890.55	9649.22
890.866	9676.12
891.182	9664.59
891.498	9580.98
891.815	9561.32
892.131	9559.73
892.447	9545.05
892.763	9494.88
893.079	9457.59
893.395	9465.73
893.71	9459.85
894.026	9442.45
894.342	9397.48
894.657	9327.88
894.973	9324.03
895.289	9332.17
895.604	9326.75
895.92	9177.82
896.235	9142.12
896.55	9152.97
896.865	9135.56
897.181	9096.92
897.496	9095.79
897.811	8991.84
898.126	8952.52
898.441	8931.28
898.756	8839.08
899.071	8806.08
899.386	8780.55
899.7	8718.4
900.015	8648.35
900.33	8590.27
900.644	8530.16
900.959	8586.2
901.273	8519.99
901.588	8471.63
901.902	8407
902.216	8423.04
902.531	8381.01
902.845	8285.64
903.159	8224.18
903.473	8206.55
903.787	8207
904.101	8077.06
904.415	8121.58
904.729	8059.43
905.042	8122.48
905.356	8058.98
905.67	8084.75
905.984	8045.42
906.297	8010.4
906.611	7983.05
906.924	7916.16
907.237	7945.54
907.551	7944.41
907.864	7908.25
908.177	7912.77
908.491	7882.94
908.804	7864.86
909.117	7794.36
909.43	7826.45
909.743	7758.65
910.056	7755.71
910.368	7698.77
910.681	7793.23
910.994	7706.68
911.307	7638.2
911.619	7647.92
911.932	7571.99
912.244	7602.72
912.557	7564.08
912.869	7539.45
913.181	7516.4
913.494	7499.45
913.806	7413.58
914.118	7418.32
914.43	7364.09
914.742	7398.89
915.054	7332
915.366	7329.51
915.678	7284.77
915.99	7192.57
916.302	7166.35
916.613	7093.58
916.925	7150.31
917.236	7124.09
917.548	7066.69
917.859	7045.9
918.171	6945.34
918.482	6956.41
918.794	6856.75
919.105	6863.76
919.416	6864.66
919.727	6808.85
920.038	6779.47
920.349	6716.19
920.66	6664.44
920.971	6698.11
921.282	6651.79
921.593	6585.35
921.903	6512.36
922.214	6490.44
922.525	6495.86
922.835	6409.53
923.146	6398.01
923.456	6361.85
923.767	6362.98
924.077	6297.45
924.387	6289.31
924.697	6247.96
925.008	6244.57
925.318	6200.05
925.628	6213.83
925.938	6182.65
926.248	6098.36
926.558	6105.14
926.867	6073.72
927.177	6039.38
927.487	6027.62
927.796	5937.91
928.106	5961.19
928.416	5945.14
928.725	5920.28
929.034	5901.3
929.344	5913.05
929.653	5911.92
929.962	5840.96
930.271	5803
930.581	5893.62
930.89	5792.6
931.199	5809.32
931.508	5761.42
931.817	5786.95
932.125	5775.88
932.434	5745.15
932.743	5720.97
933.051	5700.17
933.36	5671.02
933.669	5655.43
933.977	5646.17
934.286	5637.13
934.594	5617.24
934.902	5595.32
935.21	5622.21
935.519	5600.74
935.827	5579.73
936.135	5515.32
936.443	5465.38
936.751	5502.89
937.059	5429.22
937.367	5420.18
937.674	5397.36
937.982	5356.68
938.29	5308.09
938.597	5319.39
938.905	5297.47
939.213	5243.69
939.52	5224.71
939.827	5229
940.135	5157.82
940.442	5147.87
940.749	5161.21
941.056	5129.79
941.363	5034.2
941.67	5054.09
941.977	4982
942.284	4981.32
942.591	4991.27
942.898	4919.4
943.205	4954.66
943.511	4894.32
943.818	4886.41
944.125	4849.58
944.431	4825.4
944.738	4777.94
945.044	4760.54
945.35	4689.35
945.657	4662.01
945.963	4685.29
946.269	4616.14
946.575	4677.15
946.881	4612.29
947.187	4658.85
947.493	4585.63
947.799	4517.38
948.105	4540.66
948.41	4477.61
948.716	4503.82
949.022	4476.25
949.327	4469.02
949.633	4401
949.938	4429.25
950.244	4354.9
950.549	4345.63
950.854	4330.04
951.16	4342.24
951.465	4304.05
951.77	4351.96
952.075	4288.69
952.38	4305.64
952.685	4282.59
952.99	4286.43
953.294	4215.24
953.599	4227.45
953.904	4195.81
954.209	4222.02
954.513	4229.48
954.818	4195.36
955.122	4190.16
955.426	4132.76
955.731	4171.4
956.035	4107.45
956.339	4077.39
956.643	4124.62
956.948	4120.78
957.252	4104.51
957.556	4081.46
957.86	4053.21
958.163	4033.33
958.467	4062.93
958.771	4008.24
959.075	4014.12
959.378	3990.62
959.682	3974.57
959.985	3893.22
960.289	3933.89
960.592	3923.27
960.896	3876.04
961.199	3857.74
961.502	3864.74
961.805	3818.87
962.108	3809.6
962.411	3795.14
962.714	3824.07
963.017	3779.55
963.32	3730.74
963.623	3766.44
963.926	3713.79
964.228	3726.67
964.531	3645.77
964.833	3648.03
965.136	3641.02
965.438	3624.52
965.741	3615.03
966.043	3590.4
966.345	3568.93
966.648	3564.41
966.95	3544.07
967.252	3479.44
967.554	3476.05
967.856	3437.86
968.158	3417.98
968.46	3413.91
968.761	3408.03
969.063	3380.24
969.365	3380.46
969.666	3363.29
969.968	3286
970.269	3322.61
970.571	3292.78
970.872	3301.59
971.174	3269.5
971.475	3220.47
971.776	3227.7
972.077	3203.07
972.378	3195.83
972.679	3180.47
972.98	3196.29
973.281	3153.35
973.582	3160.35
973.883	3113.58
974.183	3100.24
974.484	3100.47
974.785	3064.76
975.085	3081.71
975.386	3054.82
975.686	3054.59
975.986	3040.36
976.287	3064.76
976.587	3018.44
976.887	3032.22
977.187	3018.21
977.487	2982.28
977.787	2994.94
978.087	2977.08
978.387	2941.15
978.687	2942.73
978.987	2954.26
979.286	2934.82
979.586	2947.25
979.885	2905.22
980.185	2921.26
980.484	2912.9
980.784	2898.21
981.083	2884.66
981.382	2850.98
981.682	2863.64
981.981	2874.49
982.28	2834.94
982.579	2840.36
982.878	2822.96
983.177	2790.87
983.475	2803.53
983.774	2787.71
984.073	2778.22
984.372	2731.89
984.67	2767.82
984.969	2752.46
985.267	2757.65
985.566	2694.83
985.864	2680.59
986.162	2685.11
986.461	2670.42
986.759	2695.96
987.057	2658
987.355	2610.31
987.653	2622.29
987.951	2606.47
988.249	2599.47
988.547	2593.14
988.844	2574.16
989.142	2566.47
989.44	2543.65
989.737	2528.51
990.035	2522.63
990.332	2515.17
990.63	2497.1
990.927	2493.71
991.224	2466.36
991.521	2472.24
991.819	2465.91
992.116	2457.1
992.413	2430.66
992.71	2411
993.006	2379.13
993.303	2360.6
993.6	2344.78
993.897	2366.03
994.193	2336.2
994.49	2306.82
994.787	2299.59
995.083	2304.78
995.379	2298
995.676	2271.56
995.972	2259.59
996.268	2240.83
996.565	2219.14
996.861	2182.98
997.157	2208.06
997.453	2216.88
997.749	2202.41
998.044	2131.91
998.34	2185.92
998.636	2148.86
998.932	2141.4
999.227	2112.25
999.523	2130.78
999.818	2132.81
1000.114	2092.36
1000.409	2079.93
1000.704	2096.2
1001	2093.04
1001.295	2041.06
1001.59	2069.76
1001.885	2065.24
1002.18	2026.15
1002.475	2039.71
1002.77	2038.58
1003.065	2031.12
1003.359	1981.63
1003.654	2006.03
1003.949	1994.06
1004.243	1962.87
1004.538	1977.56
1004.832	1959.93
1005.127	1940.05
1005.421	1930.33
1005.715	1953.83
1006.009	1933.04
1006.304	1930.78
1006.598	1938.47
1006.892	1876.77
1007.186	1898.24
1007.48	1902.08
1007.773	1870.22
1008.067	1871.35
1008.361	1839.26
1008.655	1875.19
1008.948	1817.11
1009.242	1811.92
1009.535	1797.45
1009.829	1793.61
1010.122	1794.74
1010.415	1784.35
1010.708	1787.28
1011.001	1751.8
1011.295	1738.47
1011.588	1768.3
1011.881	1741.18
1012.173	1737.57
1012.466	1742.99
1012.759	1708.42
1013.052	1685.82
1013.344	1664.35
1013.637	1677.23
1013.93	1662.99
1014.222	1657.57
1014.514	1613.28
1014.807	1648.3
1015.099	1631.58
1015.391	1591.36
1015.683	1605.14
1015.976	1581.41
1016.268	1616.67
1016.56	1545.26
1016.851	1559.27
1017.143	1527.18
1017.435	1543.9
1017.727	1496.67
1018.018	1510
1018.31	1511.58
1018.602	1495.09
1018.893	1464.81
1019.185	1473.17
1019.476	1499.83
1019.767	1442.66
1020.058	1436.78
1020.35	1432.04
1020.641	1447.18
1020.932	1419.38
1021.223	1406.73
1021.514	1396.79
1021.804	1393.17
1022.095	1376.9
1022.386	1339.61
1022.677	1364.92
1022.967	1326.28
1023.258	1298.48
1023.548	1348.65
1023.839	1292.61
1024.129	1300.52
1024.419	1330.12
1024.709	1287.86
1025	1261.65
1025.29	1269.56
1025.58	1248.77
1025.87	1264.36
1026.16	1228.88
1026.449	1227.75
1026.739	1261.87
1027.029	1201.76
1027.319	1203.8
1027.608	1211.71
1027.898	1194.3
1028.187	1193.17
1028.477	1202.67
1028.766	1194.3
1029.055	1146.4
1029.344	1193.17
1029.634	1162.89
1029.923	1141.2
1030.212	1165.38
1030.501	1137.81
1030.79	1128.54
1031.078	1102.56
1031.367	1115.44
1031.656	1127.19
1031.945	1094.87
1032.233	1088.32
1032.522	1095.55
1032.81	1075.44
1033.099	1070.01
1033.387	1062.1
1033.675	1075.21
1033.963	1061.65
1034.251	1042.9
1034.54	1045.16
1034.828	1047.64
1035.116	1046.29
1035.403	1018.94
1035.691	1020.98
1035.979	1006.74
1036.267	1008.09
1036.554	1009.45
1036.842	995.89
1037.129	963.58
1037.417	998.83
1037.704	989.11
1037.992	963.12
1038.279	956.34
1038.566	964.03
1038.853	964.03
1039.14	964.03
