Data from red_cardboard_box_FLMS001491_00090.txt Node
Date: Wed Feb 08 11:33:17 GMT 2017
User: dcchb
Spectrometer: FLMS00149
Trigger mode: 0
Integration Time (sec): 2.000000E-2
Scans to average: 10
Electric dark correction enabled: true
Nonlinearity correction enabled: false
Boxcar width: 0
XAxis mode: Wavelengths
Number of Pixels in Spectrum: 2048
>>>>>Begin Spectral Data<<<<<
341.393	6.95
341.776	6.95
342.16	6.95
342.543	-61.52
342.927	-58.36
343.31	-75.53
343.693	-65.59
344.077	-48.64
344.46	-56.1
344.843	-56.78
345.226	-46.61
345.61	-32.82
345.993	-27.17
346.376	-11.36
346.759	9.89
347.142	25.03
347.525	24.58
347.908	76.33
348.291	88.75
348.674	98.7
349.057	97.34
349.44	116.32
349.823	141.86
350.206	168.07
350.588	192.48
350.971	204.01
351.354	214.4
351.737	255.08
352.119	253.95
352.502	271.8
352.884	256.66
353.267	293.04
353.65	278.13
354.032	319.71
354.414	322.42
354.797	307.28
355.179	306.15
355.562	326.94
355.944	344.57
356.326	325.36
356.709	349.76
357.091	348.86
357.473	359.48
357.855	327.62
358.238	346.83
358.62	339.14
359.002	329.65
359.384	356.77
359.766	339.6
360.148	328.3
360.53	346.38
360.912	343.89
361.294	340.95
361.676	330.56
362.057	336.66
362.439	330.1
362.821	338.92
363.203	318.81
363.584	319.94
363.966	328.07
364.348	341.4
364.729	321.97
365.111	321.07
365.493	311.12
365.874	331.91
366.256	344.79
366.637	310.22
367.019	311.8
367.4	319.71
367.781	318.58
368.163	322.65
368.544	320.84
368.925	323.1
369.306	330.56
369.688	305.92
370.069	308.18
370.45	303.21
370.831	326.26
371.212	306.15
371.593	314.29
371.974	319.26
372.355	339.37
372.736	339.82
373.117	327.39
373.498	323.32
373.879	330.33
374.26	327.17
374.641	322.87
375.021	319.48
375.402	318.35
375.783	349.99
376.163	338.69
376.544	333.95
376.925	344.57
377.305	329.88
377.686	315.19
378.066	340.73
378.447	342.53
378.827	330.56
379.208	319.03
379.588	331.01
379.968	349.54
380.349	318.35
380.729	332.82
381.109	335.98
381.489	352.93
381.87	362.19
382.25	342.53
382.63	337.79
383.01	339.82
383.39	366.49
383.77	339.6
384.15	347.5
384.53	332.36
384.91	334.62
385.29	350.67
385.67	356.77
386.049	348.18
386.429	340.5
386.809	346.6
387.189	348.86
387.568	346.6
387.948	350.44
388.328	332.59
388.707	356.77
389.087	347.05
389.466	340.73
389.846	341.86
390.225	358.8
390.605	356.77
390.984	365.36
391.363	349.09
391.743	353.83
392.122	365.13
392.501	357
392.881	378.46
393.26	361.06
393.639	360.61
394.018	373.27
394.397	367.39
394.776	370.78
395.155	386.6
395.534	380.27
395.913	362.65
396.292	359.48
396.671	366.49
397.05	361.29
397.429	381.63
397.808	377.79
398.186	357
398.565	381.85
398.944	364
399.323	363.78
399.701	386.6
400.08	385.7
400.458	373.04
400.837	399.26
401.215	376.66
401.594	389.99
401.972	382.31
402.351	375.3
402.729	392.7
403.107	377.56
403.486	372.14
403.864	375.3
404.242	408.07
404.62	371.91
404.999	390.67
405.377	397.67
405.755	402.64
406.133	389.09
406.511	409.65
406.889	414.62
407.267	407.84
407.645	422.53
408.023	415.07
408.401	414.4
408.779	411.01
409.156	444.23
409.534	419.82
409.912	433.15
410.29	400.16
410.667	413.04
411.045	413.94
411.422	429.54
411.8	427.95
412.178	444.45
412.555	420.05
412.933	440.38
413.31	435.19
413.687	415.3
414.065	441.06
414.442	448.52
414.819	454.39
415.197	463.89
415.574	441.29
415.951	446.26
416.328	458.24
416.705	452.59
417.082	458.91
417.46	439.93
417.837	468.63
418.214	476.77
418.591	474.28
418.967	469.08
419.344	486.03
419.721	478.57
420.098	473.15
420.475	472.93
420.852	463.21
421.228	498.24
421.605	495.07
421.982	492.36
422.358	456.65
422.735	474.28
423.111	501.4
423.488	492.36
423.864	484
424.241	504.79
424.617	500.95
424.994	493.49
425.37	500.27
425.746	487.84
426.123	505.01
426.499	511.79
426.875	501.17
427.251	517.44
427.627	514.51
428.003	499.14
428.379	531.91
428.756	522.87
429.132	544.56
429.507	524.45
429.883	549.99
430.259	550.21
430.635	557.67
431.011	549.53
431.387	563.54
431.763	549.08
432.138	562.87
432.514	556.99
432.89	573.04
433.265	567.61
433.641	580.27
434.016	586.59
434.392	592.24
434.767	589.53
435.143	577.33
435.518	589.08
435.894	613.26
436.269	603.54
436.644	607.84
437.02	592.24
437.395	597.67
437.77	587.72
438.145	615.52
438.52	612.58
438.895	613.03
439.271	638.57
439.646	615.29
440.021	632.24
440.395	625.24
440.77	624.79
441.145	633.6
441.52	633.83
441.895	652.36
442.27	637.67
442.645	651.45
443.019	645.58
443.394	660.94
443.769	649.87
444.143	641.96
444.518	666.59
444.892	651.45
445.267	651
445.641	683.77
446.016	664.11
446.39	653.26
446.764	686.48
447.139	692.81
447.513	669.3
447.887	668.4
448.262	684.9
448.636	686.25
449.01	688.29
449.384	703.2
449.758	675.18
450.132	697.33
450.506	700.49
450.88	696.87
451.254	693.71
451.628	719.25
452.002	702.98
452.376	730.32
452.75	742.75
453.123	718.79
453.497	743.43
453.871	744.78
454.244	730.32
454.618	746.14
454.992	769.64
455.365	748.62
455.739	760.83
456.112	768.28
456.486	779.81
456.859	778.91
457.232	780.04
457.606	788.85
457.979	784.33
458.352	792.24
458.725	801.28
459.099	827.04
459.472	818.45
459.845	829.98
460.218	817.78
460.591	845.12
460.964	835.63
461.337	820.71
461.71	882.18
462.083	862.07
462.456	858.45
462.829	848.28
463.201	874.04
463.574	880.6
463.947	890.54
464.32	915.17
464.692	943.2
465.065	911.56
465.438	914.72
465.81	907.49
466.183	943.2
466.555	934.16
466.928	958.79
467.3	942.52
467.672	961.73
468.045	972.35
468.417	983.19
468.789	961.27
469.161	1008.96
469.534	1020.26
469.906	1012.35
470.278	1014.38
470.65	1038.79
471.022	1056.64
471.394	1054.61
471.766	1052.57
472.138	1063.64
472.51	1086.47
472.882	1085.34
473.253	1091.67
473.625	1101.84
473.997	1120.37
474.369	1148.39
474.74	1156.98
475.112	1134.6
475.484	1162.62
475.855	1189.52
476.227	1185.9
476.598	1212.57
476.97	1226.58
477.341	1229.29
477.713	1235.17
478.084	1253.24
478.455	1294.37
478.827	1281.27
479.198	1291.66
479.569	1351.77
479.94	1361.94
480.311	1359.68
480.682	1388.61
481.053	1408.49
481.424	1403.75
481.795	1440.36
482.166	1474.48
482.537	1476.74
482.908	1498.66
483.279	1495.72
483.65	1542.73
484.021	1569.62
484.391	1588.38
484.762	1591.54
485.133	1587.25
485.503	1617.98
485.874	1606.23
486.244	1645.1
486.615	1696.17
486.985	1705.21
487.356	1715.6
487.726	1708.83
488.097	1717.64
488.467	1747.02
488.837	1799.9
489.207	1830.4
489.578	1818.43
489.948	1855.04
490.318	1873.34
490.688	1879.44
491.058	1899.1
491.428	1912.21
491.798	1953.34
492.168	1934.36
492.538	1971.87
492.908	1986.33
493.278	2083.5
493.648	1991.08
494.017	2038.99
494.387	2067.23
494.757	2060.91
495.126	2107.01
495.496	2126.89
495.866	2125.99
496.235	2142.94
496.605	2173.67
496.974	2161.92
497.344	2203.05
497.713	2215.03
498.082	2196.95
498.452	2242.14
498.821	2287.34
499.19	2305.65
499.559	2297.28
499.928	2310.62
500.298	2328.02
500.667	2352.88
501.036	2337.51
501.405	2373.21
501.774	2377.96
502.143	2354.46
502.512	2414.34
502.88	2429.94
503.249	2461.12
503.618	2433.33
503.987	2446.43
504.356	2480.1
504.724	2492.76
505.093	2510.84
505.462	2530.05
505.83	2547
506.199	2542.02
506.567	2544.28
506.936	2566.66
507.304	2598.07
507.672	2595.13
508.041	2632.42
508.409	2645.07
508.777	2682.81
509.145	2700.21
509.514	2717.61
509.882	2740.44
510.25	2740.89
510.618	2759.64
510.986	2757.84
511.354	2802.58
511.722	2834.22
512.09	2849.81
512.458	2863.6
512.826	2862.47
513.193	2854.78
513.561	2937.49
513.929	2954.89
514.297	2993.31
514.664	2963.26
515.032	2974.1
515.4	3007.77
515.767	3007.1
516.135	3025.17
516.502	3039.41
516.869	3072.86
517.237	3079.64
517.604	3096.13
517.972	3130.48
518.339	3134.78
518.706	3158.73
519.073	3217.26
519.44	3251.61
519.808	3269.01
520.175	3268.78
520.542	3293.42
520.909	3355.11
521.276	3307.43
521.643	3354.66
522.009	3351.04
522.376	3386.75
522.743	3469.23
523.11	3470.36
523.477	3480.53
523.843	3511.26
524.21	3604.37
524.577	3569.57
524.943	3603.24
525.31	3634.88
525.676	3657.47
526.043	3690.47
526.409	3708.77
526.776	3713.97
527.142	3745.38
527.508	3759.17
527.874	3781.54
528.241	3871.93
528.607	3848.2
528.973	3895.21
529.339	3907.41
529.705	3940.86
530.071	3974.08
530.437	3960.29
530.803	4009.1
531.169	4096.56
531.535	4023.57
531.901	4067.18
532.267	4096.78
532.632	4138.59
532.998	4138.82
533.364	4137.01
533.73	4132.94
534.095	4243.9
534.461	4264.92
534.826	4219.04
535.192	4289.32
535.557	4359.83
535.923	4342.2
536.288	4343.78
536.653	4412.03
537.019	4375.2
537.384	4381.98
537.749	4464.01
538.114	4447.51
538.479	4455.87
538.845	4454.06
539.21	4487.51
539.575	4527.73
539.94	4547.39
540.305	4584.91
540.67	4584
541.034	4614.29
541.399	4617.68
541.764	4692.93
542.129	4658.13
542.494	4664.23
542.858	4692.93
543.223	4728.63
543.587	4754.17
543.952	4750.78
544.316	4767.95
544.681	4811.79
545.045	4785.81
545.41	4844.79
545.774	4866.26
546.138	4867.16
546.503	4899.93
546.867	4953.94
547.231	4958.68
547.595	4998.68
547.959	5050.43
548.324	5062.64
548.688	5023.77
549.052	5082.75
549.416	5105.12
549.779	5098.11
550.143	5197.09
550.507	5268.96
550.871	5238.68
551.235	5254.95
551.599	5256.3
551.962	5299.69
552.326	5346.24
552.689	5357.77
553.053	5381.72
553.417	5377.88
553.78	5440.48
554.143	5510.31
554.507	5509.86
554.87	5616.07
555.234	5562.51
555.597	5599.12
555.96	5633.92
556.323	5683.86
556.686	5661.04
557.05	5758.66
557.413	5760.7
557.776	5828.26
558.139	5905.78
558.502	5894.25
558.865	5918.88
559.228	5942.39
559.59	6052.67
559.953	6078.88
560.316	6204.98
560.679	6204.75
561.041	6282.94
561.404	6290.85
561.767	6362.71
562.129	6327.69
562.492	6462.15
562.854	6491.3
563.217	6475.93
563.579	6568.13
563.941	6679.32
564.304	6693.78
564.666	6733.78
565.028	6850.38
565.39	6895.13
565.753	6877.5
566.115	7030.49
566.477	7000.66
566.839	7139.42
567.201	7253.54
567.563	7246.98
567.925	7292.41
568.287	7359.3
568.648	7355
569.01	7494.66
569.372	7651.27
569.734	7605.39
570.095	7716.8
570.457	7855.1
570.819	7863.92
571.18	7907.98
571.542	8041.99
571.903	8131.26
572.265	8136.23
572.626	8290.12
572.987	8308.65
573.349	8375.09
573.71	8490.57
574.071	8582.99
574.432	8675.65
574.794	8804.91
575.155	8882.2
575.516	8835.87
575.877	8947.28
576.238	9092.59
576.599	9176.65
576.96	9257.33
577.32	9306.37
577.681	9479.47
578.042	9629.75
578.403	9681.95
578.763	9825.22
579.124	9893.02
579.485	10084.88
579.845	10224.99
580.206	10323.74
580.566	10411.87
580.927	10538.2
581.287	10718.08
581.648	10854.57
582.008	11042.37
582.368	11083.49
582.728	11322.36
583.089	11356.48
583.449	11634.21
583.809	11765.51
584.169	11976.8
584.529	12039.4
584.889	12400.97
585.249	12430.8
585.609	12615.21
585.969	12900.85
586.329	13046.83
586.688	13229.43
587.048	13469.65
587.408	13660.38
587.768	13899.92
588.127	14135.17
588.487	14371.32
588.846	14673.91
589.206	14837.75
589.565	15097.63
589.925	15417.62
590.284	15641.79
590.643	15975.57
591.003	16246.75
591.362	16569.68
591.721	16872.04
592.08	17115.65
592.44	17458.69
592.799	17798.35
593.158	18096.42
593.517	18446.46
593.876	18770.52
594.235	19003.29
594.593	19422.71
594.952	19775.92
595.311	20091.39
595.67	20467.43
596.029	20950.58
596.387	21250.46
596.746	21630.34
597.104	21934.51
597.463	22176.08
597.822	22684.32
598.18	23002.73
598.538	23237.98
598.897	23742.82
599.255	24089.25
599.613	24735.79
599.972	24902.57
600.33	25317.24
600.688	25525.37
601.046	26020.05
601.404	26474.95
601.762	26768.96
602.12	27257.76
602.478	27614.13
602.836	27899.1
603.194	28268.35
603.552	28742.01
603.91	28894.55
604.268	29270.36
604.625	29652.5
604.983	30090
605.341	30267.17
605.698	30762.07
606.056	31033.03
606.413	31462.85
606.771	31795.72
607.128	32117.97
607.485	32200.68
607.843	32578.07
608.2	33073.88
608.557	33470.25
608.914	33572.62
609.272	34011.03
609.629	34306.16
609.986	34659.6
610.343	34747.73
610.7	35368.73
611.057	35386.58
611.414	35637.2
611.771	35902.5
612.127	36243.96
612.484	36485.99
612.841	36819.31
613.198	36909.03
613.554	37018.18
613.911	37621.33
614.267	37612.29
614.624	37691.61
614.98	38055.21
615.337	38317.35
615.693	38394.87
616.05	38722.54
616.406	39018.58
616.762	38958.69
617.118	39263.32
617.475	39306.25
617.831	39704.21
618.187	39852.91
618.543	40060.81
618.899	40447.47
619.255	40432.33
619.611	40606.33
619.967	40885.65
620.323	41026.21
620.678	40949.15
621.034	40898.53
621.39	41199.09
621.746	41257.84
622.101	41869.58
622.457	41542.81
622.812	41805.4
623.168	41837.04
623.523	41954.55
623.879	42175.78
624.234	41951.61
624.589	42310.02
624.945	42389.11
625.3	42497.13
625.655	42472.73
626.01	42657.58
626.365	42737.58
626.72	42779.16
627.075	42832.72
627.43	42898.25
627.785	42986.61
628.14	43011.24
628.495	43085.59
628.85	43231.12
629.205	43156.55
629.559	43260.27
629.914	43359.93
630.269	43440.38
630.623	43337.34
630.978	43293.27
631.332	43476.77
631.687	43623.88
632.041	43446.71
632.396	43609.87
632.75	43526.48
633.104	43663.43
633.459	43591.11
633.813	43478.12
634.167	43596.09
634.521	43531.91
634.875	43779.81
635.229	43622.98
635.583	43535.97
635.937	43652.13
636.291	43593.15
636.645	43662.07
636.999	43569.19
637.352	43746.82
637.706	43532.36
638.06	43723.54
638.413	43641.51
638.767	43713.82
639.121	43770.32
639.474	43557.22
639.828	43538.01
640.181	43679.02
640.534	43688.96
640.888	43662.3
641.241	43578.23
641.594	43584.33
641.947	43725.8
642.301	43569.87
642.654	43657.33
643.007	43749.98
643.36	43687.38
643.713	43575.97
644.066	43751.56
644.419	43515.18
644.771	43292.59
645.124	42924.01
645.477	42635.21
645.83	42669.33
646.182	42434.08
646.535	42518.83
646.888	42681.99
647.24	42419.39
647.593	42660.06
647.945	42637.47
648.298	42280.64
648.65	42425.04
649.002	42286.29
649.355	42461.88
649.707	42314.99
650.059	42580.29
650.411	43023.67
650.763	43054.4
651.115	43538.69
651.467	43328.97
651.819	43291.23
652.171	43334.85
652.523	43280.16
652.875	43242.65
653.227	43030.68
653.578	43374.62
653.93	43403.1
654.282	43131.24
654.633	43152.71
654.985	43208.07
655.337	43172.82
655.688	43189.99
656.039	43304.12
656.391	43065.93
656.742	43151.8
657.094	43012.6
657.445	43105.93
657.796	43189.09
658.147	43162.2
658.498	43196.1
658.849	43266.38
659.2	43132.59
659.551	42986.38
659.902	43108.87
660.253	43082.65
660.604	43180.5
660.955	42890.12
661.306	43168.07
661.656	43029.77
662.007	43130.79
662.358	43197.9
662.708	43058.92
663.059	43175.76
663.409	42888.99
663.76	43245.59
664.11	43139.37
664.461	43272.25
664.811	43192.03
665.161	43146.61
665.511	43018.7
665.862	42996.33
666.212	43059.83
666.562	43177.11
666.912	43141.63
667.262	43022.99
667.612	43156.55
667.962	43031.81
668.312	42966.72
668.662	43202.42
669.011	43182.08
669.361	42973.5
669.711	42962.2
670.06	42909.55
670.41	42782.77
670.76	42910.68
671.109	43081.52
671.459	42790.23
671.808	42738.93
672.157	42994.07
672.507	42676.11
672.856	42780.74
673.205	42801.08
673.554	42819.16
673.904	42621.65
674.253	43032.26
674.602	42828.87
674.951	42231.38
675.3	42131.49
675.649	42777.58
675.998	42646.73
676.346	42674.3
676.695	42642.66
677.044	42553.4
677.393	42517.47
677.741	42591.37
678.09	42434.53
678.438	42336.46
678.787	42501.65
679.135	42493.97
679.484	42270.47
679.832	42405.83
680.181	42286.06
680.529	42377.36
680.877	42373.97
681.225	42122.45
681.573	42361.32
681.922	42132.4
682.27	42157.71
682.618	42052.85
682.966	41812.63
683.314	42001.33
683.661	41819.86
684.009	41743.48
684.357	41766.3
684.705	41465.29
685.053	41562.69
685.4	41606.76
685.748	41407.22
686.095	41348.23
686.443	41227.56
686.79	41204.06
687.138	41286.99
687.485	41173.55
687.832	41065.98
688.18	41089.26
688.527	40923.84
688.874	40996.38
689.221	40834.8
689.568	40757.52
689.915	40648.37
690.262	40534.7
690.609	40414.47
690.956	40330.63
691.303	40296.96
691.65	40193.69
691.997	40106.01
692.344	39898.78
692.69	39919.8
693.037	39991.21
693.383	39527.72
693.73	39821.04
694.077	39542.86
694.423	39695.85
694.769	39484.78
695.116	39193.72
695.462	39298.57
695.808	39167.05
696.155	39219.48
696.501	38853.61
696.847	38999.14
697.193	38657.01
697.539	38801.18
697.885	38543.56
698.231	38468.08
698.577	38465.37
698.923	38434.19
699.269	38076.46
699.614	37924.82
699.96	37860.19
700.306	37971.83
700.651	37822.68
700.997	37739.52
701.342	37674.66
701.688	37607.09
702.033	37449.35
702.379	37410.49
702.724	37433.31
703.069	37408.68
703.415	36850.95
703.76	37180.89
704.105	36997.61
704.45	36918.97
704.795	36827.68
705.14	36769.6
705.485	36679.66
705.83	36581.58
706.175	36710.84
706.52	36581.58
706.865	36360.8
707.209	36271.08
707.554	36133.68
707.899	36222.49
708.243	36103.4
708.588	36008.94
708.932	35725.78
709.277	35582.74
709.621	35886.01
709.966	35532.34
710.31	35644.88
710.654	35322.86
710.998	35394.27
711.342	35389.97
711.687	35403.08
712.031	35100.72
712.375	34870.67
712.719	35144.1
713.063	35116.99
713.407	35083.54
713.75	34827.5
714.094	34924.22
714.438	34792.02
714.782	34697.79
715.125	34600.62
715.469	34762.42
715.812	34593.38
716.156	34275.65
716.499	34340.74
716.843	34294.63
717.186	34091.25
717.53	34340.28
717.873	34274.97
718.216	34191.13
718.559	33986.17
718.902	33825.04
719.246	33997.47
719.589	33899.84
719.932	33786.17
720.275	33702.56
720.617	33606.29
720.96	33648.32
721.303	33639.96
721.646	33665.72
721.989	33349.58
722.331	33606.29
722.674	33458.05
723.016	33432.51
723.359	33355.45
723.701	33289.92
724.044	33057.61
724.386	33056.25
724.729	33214.44
725.071	33093.31
725.413	33148.22
725.755	32947.33
726.097	32751.85
726.439	32686.32
726.782	32691.74
727.124	32885.41
727.465	32600.67
727.807	32627.11
728.149	32589.6
728.491	32547.79
728.833	32508.69
729.175	32439.99
729.516	32360.22
729.858	32221.24
730.199	32314.8
730.541	32350.96
730.882	32197.06
731.224	32447.45
731.565	32075.71
731.906	31982.38
732.248	32126.1
732.589	32033
732.93	31977.63
733.271	31915.04
733.612	31936.5
733.953	31893.34
734.294	31778.32
734.635	31763.85
734.976	31905.77
735.317	31710.3
735.658	31616.06
735.999	31694.93
736.339	31490.19
736.68	31586.01
737.021	31559.34
737.361	31434.6
737.702	31564.31
738.042	31543.29
738.383	31343.98
738.723	31466.01
739.063	31219.01
739.404	31238.44
739.744	31285.9
740.084	31110.76
740.424	31079.13
740.764	31083.42
741.104	31171.78
741.444	30952.58
741.784	30892.01
742.124	30968.62
742.464	30867.61
742.804	30904.22
743.143	30682.98
743.483	30767.27
743.823	30469.65
744.162	30609.99
744.502	30670.78
744.841	30593.49
745.181	30610.21
745.52	30465.36
745.86	30593.72
746.199	30476.66
746.538	30370.44
746.877	30582.42
747.216	30469.42
747.556	30365.47
747.895	30318.92
748.234	30054.75
748.573	30162.31
748.911	30141.52
749.25	30128.64
749.589	29994.86
749.928	30056.55
750.267	29909.21
750.605	29939.04
750.944	29907.41
751.283	29787.41
751.621	29907.18
751.96	29723.23
752.298	29660.18
752.636	29646.4
752.975	29478.72
753.313	29561.43
753.651	29649.11
753.989	29478.04
754.327	29324.82
754.666	29269.23
755.004	29276.91
755.342	29217.25
755.679	29119.4
756.017	29100.87
756.355	29108.1
756.693	29021.33
757.031	29066.98
757.368	28960.54
757.706	28883.03
758.044	28778.17
758.381	28849.81
758.719	28714.89
759.056	28638.06
759.394	28626.76
759.731	28448.69
760.068	28323.27
760.405	28294.79
760.743	28227.22
761.08	28358.52
761.417	28067.68
761.754	28084.4
762.091	27950.62
762.428	27918.31
762.765	27734.81
763.102	27713.79
763.438	27762.15
763.775	27632.44
764.112	27588.37
764.449	27647.58
764.785	27493.68
765.122	27288.72
765.458	27162.17
765.795	27033.36
766.131	27082.17
766.467	26900.03
766.804	26872.68
767.14	26678.56
767.476	26751.56
767.812	26483.09
768.148	26574.16
768.485	26419.14
768.821	26326.71
769.157	26316.99
769.492	26139.14
769.828	26270.67
770.164	25951.13
770.5	25817.12
770.836	26029.77
771.171	25753.16
771.507	25842.2
771.842	25601.76
772.178	25532.38
772.513	25416.22
772.849	25459.61
773.184	25311.59
773.519	25334.87
773.855	25184.82
774.19	25058.04
774.525	25118.83
774.86	25003.81
775.195	24980.53
775.53	24803.36
775.865	24720.42
776.2	24538.96
776.535	24406.53
776.87	24454.22
777.205	24255.58
777.539	24266.65
777.874	24376.48
778.209	24016.49
778.543	24015.58
778.878	23951.63
779.212	23793.22
779.547	23679.55
779.881	23684.52
780.215	23575.59
780.55	23633.9
780.884	23458.31
781.218	23489.5
781.552	23304.64
781.886	23290.18
782.22	23106.45
782.554	22939.68
782.888	22891.54
783.222	22844.99
783.556	22685
783.889	22623.53
784.223	22498.79
784.557	22392.58
784.89	22371.11
785.224	22353.25
785.557	22146.25
785.891	22206.59
786.224	22062.19
786.558	22040.49
786.891	21913.72
787.224	21695.19
787.557	21891.57
787.891	21711.46
788.224	21725.25
788.557	21597.79
788.89	21487.06
789.223	21586.72
789.556	21381.3
789.888	21367.74
790.221	21265.83
790.554	21124.13
790.887	21094.3
791.219	21083.23
791.552	21026.28
791.884	20872.16
792.217	20810.47
792.549	20760.08
792.882	20517.82
793.214	20481.21
793.546	20493.42
793.879	20444.6
794.211	20332.97
794.543	20303.14
794.875	20295.68
795.207	20381.55
795.539	20160.09
795.871	20153.99
796.203	19929.14
796.535	19882.13
796.867	19770.72
797.198	19835.81
797.53	19871.51
797.862	19764.85
798.193	19729.14
798.525	19632.87
798.856	19533.67
799.188	19286.89
799.519	19368.7
799.85	19294.8
800.182	19283.96
800.513	19305.88
800.844	19039.44
801.175	19156.5
801.506	19204.41
801.837	19052.1
802.168	19011.65
802.499	18894.59
802.83	18779.34
803.161	18822.27
803.491	18685.1
803.822	18705.44
804.153	18648.49
804.483	18431.78
804.814	18452.11
805.145	18413.02
805.475	18368.27
805.805	18390.87
806.136	18273.14
806.466	18313.81
806.796	18302.97
807.126	18062.07
807.457	18194.04
807.787	18088.51
808.117	17914.05
808.447	17900.94
808.777	17992.01
809.107	17865.24
809.436	17816.65
809.766	17904.33
810.096	17737.56
810.426	17651.91
810.755	17704.56
811.085	17588.41
811.414	17564.45
811.744	17441.97
812.073	17377.34
812.403	17451.69
812.732	17265.25
813.061	17297.79
813.39	17232.26
813.719	17149.55
814.049	17177.12
814.378	17187.74
814.707	17042.66
815.036	17142.77
815.365	16954.3
815.693	16897.8
816.022	16806.06
816.351	16799.95
816.68	16723.8
817.008	16757.02
817.337	16602.22
817.665	16638.38
817.994	16644.48
818.322	16611.48
818.651	16461.66
818.979	16461.88
819.307	16504.82
819.636	16460.3
819.964	16364.71
820.292	16415.78
820.62	16433.18
820.948	16209.69
821.276	16422.56
821.604	16295.79
821.932	16329.68
822.259	16364.71
822.587	16339.63
822.915	16318.38
823.243	16318.61
823.57	16217.6
823.898	16174.43
824.225	16264.6
824.553	16205.39
824.88	16248.56
825.207	16289.23
825.535	16304.37
825.862	16284.71
826.189	16198.39
826.516	16112.51
826.843	16425.73
827.17	16450.13
827.497	16337.59
827.824	16276.13
828.151	16290.14
828.478	16228.67
828.805	16244.04
829.131	16113.64
829.458	16152.74
829.785	16067.77
830.111	16087.2
830.438	16180.31
830.764	16227.77
831.09	16226.64
831.417	16131.72
831.743	16234.54
832.069	16174.89
832.395	16057.15
832.722	16134.66
833.048	16105.73
833.374	16177.6
833.7	16016.92
834.026	16095.79
834.351	16109.8
834.677	16117.94
835.003	16110.71
835.329	15999.52
835.654	16065.06
835.98	15915.91
836.306	15937.38
836.631	15864.39
836.956	15985.51
837.282	15917.49
837.607	15811.51
837.932	15841.79
838.258	15924.27
838.583	15884.5
838.908	15731.96
839.233	15773.77
839.558	15720.21
839.883	15577.39
840.208	15652.41
840.533	15627.33
840.858	15611.51
841.182	15687.21
841.507	15639.76
841.832	15615.58
842.156	15472.98
842.481	15433.66
842.805	15485.64
843.13	15411.97
843.454	15367.45
843.778	15268.24
844.103	15235.7
844.427	15196.83
844.751	15232.99
845.075	15128.59
845.399	15124.07
845.723	15016.27
846.047	15010.17
846.371	14850.17
846.695	14945.31
847.019	14809.05
847.343	14843.17
847.666	14730.18
847.99	14642.04
848.313	14672.1
848.637	14451.77
848.96	14558.2
849.284	14463.29
849.607	14370.19
849.931	14362.73
850.254	14262.17
850.577	14095.17
850.9	14104.43
851.223	14045.68
851.546	13993.02
851.869	13937.2
852.192	13960.71
852.515	13902.4
852.838	13856.08
853.161	13824.66
853.483	13721.62
853.806	13701.28
854.129	13696.31
854.451	13586.7
854.774	13561.17
855.096	13441.62
855.419	13458.35
855.741	13366.82
856.063	13375.64
856.385	13291.8
856.708	13354.85
857.03	13344.9
857.352	13347.84
857.674	13129.32
857.996	13138.81
858.318	13062.2
858.64	13122.76
858.961	13057.68
859.283	13002.09
859.605	12910.11
859.926	13056.1
860.248	12962.77
860.57	12892.26
860.891	12877.12
861.212	12860.62
861.534	12780.85
861.855	12800.51
862.176	12785.37
862.498	12772.94
862.819	12746.28
863.14	12698.37
863.461	12689.1
863.782	12577.01
864.103	12618.82
864.424	12505.38
864.745	12611.14
865.065	12582.21
865.386	12471.48
865.707	12582.44
866.027	12539.95
866.348	12472.84
866.668	12375.89
866.989	12313.97
867.309	12243.24
867.63	12351.48
867.95	12301.99
868.27	12239.62
868.59	12249.79
868.91	12266.97
869.23	12194.2
869.55	12143.13
869.87	12193.97
870.19	12130.47
870.51	12205.5
870.83	12215.44
871.15	12142.9
871.469	12075.33
871.789	12127.76
872.109	12000.08
872.428	11942.23
872.748	12022.45
873.067	11986.75
873.386	11963.47
873.706	11867.2
874.025	11851.84
874.344	11903.36
874.663	11931.38
874.982	11828.56
875.301	11865.85
875.62	11801.22
875.939	11763.93
876.258	11813.19
876.577	11729.8
876.896	11770.71
877.214	11648.45
877.533	11679.64
877.852	11678.51
878.17	11669.47
878.489	11592.86
878.807	11644.84
879.125	11605.06
879.444	11605.29
879.762	11522.8
880.08	11541.11
880.398	11533.2
880.716	11539.3
881.034	11414.11
881.352	11392.64
881.67	11452.3
881.988	11448
882.306	11469.92
882.624	11391.73
882.941	11371.85
883.259	11256.82
883.577	11250.72
883.894	11259.31
884.212	11266.31
884.529	11278.29
884.846	11236.26
885.164	11157.39
885.481	11106.54
885.798	11054.34
886.115	11025.87
886.432	11026.77
886.75	11029.26
887.067	10994.23
887.383	11019.54
887.7	10958.53
888.017	10922.14
888.334	10865.19
888.651	10841.92
888.967	10894.57
889.284	10807.79
889.6	10811.86
889.917	10629.95
890.233	10742.03
890.55	10654.58
890.866	10710.17
891.182	10621.13
891.498	10587.24
891.815	10562.38
892.131	10494.13
892.447	10491.87
892.763	10421.14
893.079	10434.02
893.395	10429.27
893.71	10408.48
894.026	10307.02
894.342	10300.69
894.657	10212.78
894.973	10211.43
895.289	10157.64
895.604	10228.83
895.92	10119.9
896.235	10083.29
896.55	10098.44
896.865	10067.7
897.181	10016.63
897.496	9989.74
897.811	9917.2
898.126	9944.31
898.441	9907.93
898.756	9877.2
899.071	9813.02
899.386	9846.92
899.7	9669.07
900.015	9608.28
900.33	9625.23
900.644	9604.66
900.959	9623.65
901.273	9535.29
901.588	9523.76
901.902	9486.02
902.216	9436.76
902.531	9486.93
902.845	9436.31
903.159	9346.82
903.473	9344.1
903.787	9305.69
904.101	9194.96
904.415	9232.47
904.729	9224.11
905.042	9141.85
905.356	9155.86
905.67	9101.85
905.984	9152.02
906.297	9030.67
906.611	9024.56
906.924	8981.85
907.237	8893.49
907.551	8898.92
907.864	8874.74
908.177	8821.86
908.491	8794.29
908.804	8819.37
909.117	8673.61
909.43	8650.34
909.743	8626.16
910.056	8651.92
910.368	8632.94
910.681	8515.43
910.994	8561.53
911.307	8431.36
911.619	8374.19
911.932	8474.97
912.244	8340.29
912.557	8336.22
912.869	8277.47
913.181	8272.72
913.494	8312.04
913.806	8213.74
914.118	8121.54
914.43	8123.57
914.742	8111.82
915.054	7989.56
915.366	8041.54
915.678	8022.11
915.99	7939.62
916.302	7905.95
916.613	7860.75
916.925	7825.27
917.236	7822.79
917.548	7766.52
917.859	7780.98
918.171	7789.12
918.482	7656.47
918.794	7660.53
919.105	7624.38
919.416	7585.28
919.727	7595.68
920.038	7575.56
920.349	7403.36
920.66	7457.37
920.971	7462.12
921.282	7408.11
921.593	7336.02
921.903	7305.06
922.214	7336.93
922.525	7327.43
922.835	7261.45
923.146	7173.54
923.456	7205.63
923.767	7163.14
924.077	7215.12
924.387	7099.19
924.697	7051.51
925.008	7003.83
925.318	6991.62
925.628	6976.26
925.938	6971.74
926.248	6936.48
926.558	6847
926.867	6868.46
927.177	6833.44
927.487	6723.83
927.796	6764.96
928.106	6708.24
928.416	6727.68
928.725	6679.32
929.034	6684.74
929.344	6637.06
929.653	6635.93
929.962	6559.09
930.271	6513.9
930.581	6485.42
930.89	6492.88
931.199	6401.36
931.508	6460.34
931.817	6407.68
932.125	6350.96
932.434	6391.41
932.743	6340.57
933.051	6294.02
933.36	6248.37
933.669	6160.01
933.977	6231.64
934.286	6171.76
934.594	6158.88
934.902	6123.62
935.21	6142.38
935.519	6044.76
935.827	6101.93
936.135	6050.63
936.443	5993.46
936.751	5967.7
937.059	6002.27
937.367	5880.92
937.674	5923.18
937.982	5913.01
938.29	5861.26
938.597	5844.99
938.905	5772.22
939.213	5775.38
939.52	5708.04
939.827	5700.13
940.135	5667.37
940.442	5661.04
940.749	5630.08
941.056	5625.78
941.363	5600.93
941.67	5546.92
941.977	5507.6
942.284	5488.39
942.591	5436.64
942.898	5487.26
943.205	5454.49
943.511	5428.95
943.818	5409.97
944.125	5403.19
944.431	5366.36
944.738	5329.29
945.044	5301.73
945.35	5262.18
945.657	5240.71
945.963	5241.39
946.269	5204.33
946.575	5186.93
946.881	5132.46
947.187	5185.34
947.493	5172.24
947.799	5110.77
948.105	5087.27
948.41	5019.47
948.716	5071.67
949.022	5004.11
949.327	4972.47
949.633	4979.7
949.938	4993.71
950.244	4940.83
950.549	4908.29
950.854	4885.46
951.16	4851.57
951.465	4814.96
951.77	4801.4
952.075	4839.82
952.38	4829.2
952.685	4808.18
952.99	4761.4
953.294	4711.68
953.599	4656.54
953.904	4620.84
954.209	4673.49
954.513	4686.37
954.818	4622.65
955.122	4599.14
955.426	4561.86
955.731	4539.94
956.035	4529.09
956.339	4480.05
956.643	4502.88
956.948	4492.93
957.252	4445.48
957.556	4464.23
957.86	4414.06
958.163	4388.75
958.467	4414.74
958.771	4403.9
959.075	4390.56
959.378	4292.71
959.682	4328.19
959.985	4277.35
960.289	4240.06
960.592	4283.67
960.896	4240.51
961.199	4228.08
961.502	4212.71
961.805	4190.34
962.108	4204.8
962.411	4144.47
962.714	4130.91
963.017	4096.56
963.32	4097.46
963.623	4052.27
963.926	4030.35
964.228	4074.19
964.531	3985.6
964.833	4035.32
965.136	3975.66
965.438	3977.01
965.741	3925.26
966.043	3911.71
966.345	3874.42
966.648	3912.83
966.95	3879.39
967.252	3842.78
967.554	3832.39
967.856	3848.2
968.158	3811.82
968.46	3817.24
968.761	3734.31
969.063	3777.92
969.365	3656.12
969.666	3690.92
969.968	3690.24
970.269	3699.28
970.571	3699.96
970.872	3641.66
971.174	3659.73
971.475	3626.51
971.776	3616.12
972.077	3592.62
972.378	3584.71
972.679	3571.6
972.98	3521.21
973.281	3554.43
973.582	3519.62
973.883	3520.3
974.183	3509.46
974.484	3438.95
974.785	3444.6
975.085	3418.38
975.386	3458.84
975.686	3449.34
975.986	3415.22
976.287	3422.68
976.587	3384.26
976.887	3378.16
977.187	3350.36
977.487	3267.43
977.787	3307.2
978.087	3314.43
978.387	3238.05
978.687	3281.89
978.987	3284.15
979.286	3222.68
979.586	3204.38
979.885	3213.42
980.185	3173.65
980.484	3176.36
980.784	3135
981.083	3146.75
981.382	3103.36
981.682	3114.21
981.981	3125.74
982.28	3057.72
982.579	3051.16
982.878	3031.73
983.177	3051.16
983.475	2997.38
983.774	3007.32
984.073	2974.55
984.372	2993.76
984.67	2959.19
984.969	2958.06
985.267	2958.06
985.566	2945.4
985.864	2929.58
986.162	2934.78
986.461	2907.21
986.759	2887.78
987.057	2857.72
987.355	2869.7
987.653	2835.35
987.951	2817.27
988.249	2792.19
988.547	2790.6
988.844	2794.9
989.142	2801
989.44	2751.51
989.737	2748.57
990.035	2760.1
990.332	2725.3
990.63	2700.21
990.927	2694.56
991.224	2665.86
991.521	2648.24
991.819	2695.47
992.116	2657.73
992.413	2657.95
992.71	2627.45
993.006	2599.88
993.303	2602.13
993.6	2594.9
993.897	2565.3
994.193	2598.75
994.49	2518.97
994.787	2526.2
995.083	2530.5
995.379	2507.22
995.676	2504.06
995.972	2479.65
996.268	2469.26
996.565	2448.01
996.861	2470.39
997.157	2488.01
997.453	2426.55
997.749	2411.41
998.044	2388.13
998.34	2386.77
998.636	2366.89
998.932	2351.75
999.227	2379.77
999.523	2378.19
999.818	2339.54
1000.114	2356.94
1000.409	2312.43
1000.704	2311.97
1001	2295.48
1001.295	2286.66
1001.59	2255.7
1001.885	2257.51
1002.18	2242.14
1002.475	2206.67
1002.77	2208.25
1003.065	2207.34
1003.359	2177.29
1003.654	2164.18
1003.949	2170.51
1004.243	2146.1
1004.538	2132.32
1004.832	2147.68
1005.127	2108.59
1005.421	2126.22
1005.715	2104.07
1006.009	2116.95
1006.304	2051.87
1006.598	2071.98
1006.892	2032.66
1007.186	2031.98
1007.48	2027.01
1007.773	2015.26
1008.067	1997.86
1008.361	2000.79
1008.655	1963.96
1008.948	1977.97
1009.242	1938.88
1009.535	1932.55
1009.829	1967.35
1010.122	1921.47
1010.415	1903.4
1010.708	1914.02
1011.001	1901.14
1011.295	1903.85
1011.588	1868.82
1011.881	1827.01
1012.173	1851.42
1012.466	1842.38
1012.759	1819.78
1013.052	1821.82
1013.344	1798.54
1013.637	1795.6
1013.93	1792.21
1014.222	1768.71
1014.514	1757.41
1014.807	1756.28
1015.099	1770.52
1015.391	1736.85
1015.683	1733.68
1015.976	1725.77
1016.268	1711.31
1016.56	1653.46
1016.851	1667.47
1017.143	1633.35
1017.435	1677.64
1017.727	1627.47
1018.018	1628.83
1018.31	1627.92
1018.602	1606.23
1018.893	1638.54
1019.185	1599.9
1019.476	1543.63
1019.767	1572.33
1020.058	1563.07
1020.35	1526.91
1020.641	1535.27
1020.932	1532.78
1021.223	1517.87
1021.514	1481.49
1021.804	1508.38
1022.095	1495.5
1022.386	1480.58
1022.677	1463.18
1022.967	1461.83
1023.258	1482.39
1023.548	1443.3
1023.839	1411.66
1024.129	1437.42
1024.419	1420.92
1024.709	1397.87
1025	1406.01
1025.29	1380.92
1025.58	1383.41
1025.87	1358.33
1026.16	1350.19
1026.449	1336.63
1026.739	1359
1027.029	1345.9
1027.319	1334.6
1027.608	1333.24
1027.898	1303.86
1028.187	1292.11
1028.477	1287.82
1028.766	1277.2
1029.055	1270.42
1029.344	1278.33
1029.634	1233.36
1029.923	1246.92
1030.212	1265.45
1030.501	1234.04
1030.79	1213.7
1031.078	1215.96
1031.367	1208.73
1031.656	1175.28
1031.945	1161.95
1032.233	1173.92
1032.522	1168.73
1032.81	1163.53
1033.099	1148.16
1033.387	1158.11
1033.675	1140.93
1033.963	1119.01
1034.251	1121.72
1034.54	1123.08
1034.828	1102.06
1035.116	1108.16
1035.403	1093.25
1035.691	1092.8
1035.979	1121.27
1036.267	1088.28
1036.554	1062.29
1036.842	1056.41
1037.129	1049.63
1037.417	1015.74
1037.704	1069.75
1037.992	1008.28
1038.279	1012.12
1038.566	1022.29
1038.853	1022.29
1039.14	1022.29
