Data from red_cardboard_box_FLMS001491_00049.txt Node
Date: Wed Feb 08 11:32:28 GMT 2017
User: dcchb
Spectrometer: FLMS00149
Trigger mode: 0
Integration Time (sec): 2.000000E-2
Scans to average: 10
Electric dark correction enabled: true
Nonlinearity correction enabled: false
Boxcar width: 0
XAxis mode: Wavelengths
Number of Pixels in Spectrum: 2048
>>>>>Begin Spectral Data<<<<<
341.393	-16.3
341.776	-16.3
342.16	-16.3
342.543	-57.43
342.927	-79.57
343.31	-74.6
343.693	-68.95
344.077	-71.66
344.46	-54.26
344.843	-53.36
345.226	-13.36
345.61	-36.64
345.993	-21.5
346.376	-6.58
346.759	-14.72
347.142	18.95
347.525	39.07
347.908	57.37
348.291	101.66
348.674	90.36
349.057	108.22
349.44	96.47
349.823	138.05
350.206	161.78
350.588	193.86
350.971	207.88
351.354	215.33
351.737	230.47
352.119	259.17
352.502	280.42
352.884	276.12
353.267	298.04
353.65	290.13
354.032	281.09
354.414	299.85
354.797	319.51
355.179	334.65
355.562	306.63
355.944	317.7
356.326	335.1
356.709	330.81
357.091	357.7
357.473	341.88
357.855	350.92
358.238	349.57
358.62	338.72
359.002	335.56
359.384	334.65
359.766	341.43
360.148	333.97
360.53	333.75
360.912	327.19
361.294	319.96
361.676	350.7
362.057	323.35
362.439	334.88
362.821	332.62
363.203	326.74
363.584	345.95
363.966	322.68
364.348	318.16
364.729	339.85
365.111	323.35
365.493	322.9
365.874	324.03
366.256	309.34
366.637	318.16
367.019	307.76
367.4	309.12
367.781	327.65
368.163	317.25
368.544	312.05
368.925	302.79
369.306	328.78
369.688	327.19
370.069	322.9
370.45	286.74
370.831	299.17
371.212	303.69
371.593	316.12
371.974	298.95
372.355	315.9
372.736	310.92
373.117	319.29
373.498	310.7
373.879	317.03
374.26	320.87
374.641	315.9
375.021	309.34
375.402	339.85
375.783	322.9
376.163	334.43
376.544	316.35
376.925	327.42
377.305	314.09
377.686	333.75
378.066	337.82
378.447	326.06
378.827	321.77
379.208	331.71
379.588	318.83
379.968	334.43
380.349	320.19
380.729	338.95
381.109	332.84
381.489	316.8
381.87	341.43
382.25	351.83
382.63	335.56
383.01	332.39
383.39	338.04
383.77	362.45
384.15	340.53
384.53	350.47
384.91	368.32
385.29	341.21
385.67	329.91
386.049	359.51
386.429	358.83
386.809	358.61
387.189	359.96
387.568	334.65
387.948	339.4
388.328	347.08
388.707	351.83
389.087	364.03
389.466	342.79
389.846	322
390.225	342.34
390.605	351.15
390.984	345.05
391.363	340.75
391.743	341.43
392.122	345.95
392.501	360.64
392.881	350.47
393.26	364.26
393.639	361.32
394.018	368.1
394.397	337.36
394.776	371.04
395.155	379.85
395.534	377.36
395.913	354.99
396.292	372.62
396.671	365.39
397.05	366.06
397.429	340.53
397.808	354.09
398.186	377.81
398.565	393.18
398.944	368.55
399.323	372.39
399.701	371.26
400.08	375.78
400.458	403.58
400.837	386.85
401.215	374.65
401.594	378.94
401.972	369
402.351	386.4
402.729	394.31
403.107	394.76
403.486	391.83
403.864	402
404.242	392.05
404.62	404.93
404.999	392.96
405.377	377.14
405.755	394.54
406.133	392.28
406.511	401.77
406.889	378.04
407.267	404.03
407.645	409.9
408.023	406.06
408.401	408.55
408.779	397.7
409.156	405.16
409.534	419.17
409.912	429.11
410.29	420.98
410.667	424.82
411.045	416.68
411.422	432.95
411.8	426.18
412.178	415.78
412.555	413.52
412.933	415.33
413.31	444.71
413.687	460.52
414.065	429.79
414.442	439.06
414.819	444.93
415.197	471.6
415.574	456.46
415.951	436.57
416.328	456
416.705	462.33
417.082	469.56
417.46	467.76
417.837	463.46
418.214	451.71
418.591	465.5
418.967	479.73
419.344	457.59
419.721	475.21
420.098	463.24
420.475	484.48
420.852	484.48
421.228	479.51
421.605	484.93
421.982	466.4
422.358	477.25
422.735	509.11
423.111	489.68
423.488	491.94
423.864	512.27
424.241	482.9
424.617	510.47
424.994	498.49
425.37	504.37
425.746	505.72
426.123	501.88
426.499	506.85
426.875	512.05
427.251	498.94
427.627	525.61
428.003	537.58
428.379	514.99
428.756	525.38
429.132	532.61
429.507	538.26
429.883	528.77
430.259	554.08
430.635	541.88
431.011	560.63
431.387	549.79
431.763	553.4
432.138	565.83
432.514	551.37
432.89	565.83
433.265	568.32
433.641	576
434.016	567.87
434.392	571.93
434.767	573.74
435.143	591.59
435.518	587.3
435.894	565.15
436.269	558.83
436.644	574.19
437.02	612.61
437.395	593.85
437.77	594.53
438.145	614.87
438.52	598.15
438.895	604.25
439.271	589.56
439.646	610.35
440.021	616.23
440.395	623.91
440.77	599.05
441.145	618.94
441.52	649.67
441.895	635.21
442.27	633.85
442.645	623.23
443.019	647.19
443.394	628.43
443.769	659.39
444.143	633.18
444.518	655.1
444.892	639.05
445.267	661.65
445.641	637.02
446.016	637.7
446.39	673.85
446.764	669.56
447.139	666.39
447.513	680.63
447.887	679.73
448.262	675.43
448.636	669.78
449.01	667.07
449.384	671.14
449.758	686.96
450.132	709.11
450.506	710.91
450.88	683.12
451.254	711.14
451.628	686.06
452.002	730.35
452.376	703.23
452.75	714.08
453.123	695.55
453.497	714.08
453.871	715.89
454.244	704.13
454.618	743.91
454.992	732.61
455.365	744.13
455.739	738.03
456.112	756.79
456.486	733.51
456.859	769.67
457.232	767.86
457.606	783.91
457.979	782.32
458.352	799.95
458.725	800.4
459.099	817.35
459.472	804.7
459.845	837.46
460.218	817.8
460.591	826.84
460.964	834.75
461.337	842.44
461.71	858.25
462.083	856.45
462.456	856.9
462.829	838.37
463.201	875.43
463.574	894.19
463.947	878.14
464.32	890.57
464.692	900.97
465.065	881.76
465.438	916.78
465.81	896.9
466.183	898.03
466.555	936.9
466.928	925.37
467.3	937.12
467.672	951.59
468.045	977.57
468.417	976.22
468.789	957.23
469.161	945.48
469.534	1018.48
469.906	1005.37
470.278	995.2
470.65	1030
471.022	1020.96
471.394	1035.42
471.766	1055.54
472.138	1044.92
472.51	1086.27
472.882	1087.4
473.253	1079.27
473.625	1094.63
473.997	1098.25
474.369	1134.41
474.74	1112.48
475.112	1133.95
475.484	1139.6
475.855	1181.18
476.227	1204.69
476.598	1200.17
476.97	1200.62
477.341	1218.92
477.713	1239.49
478.084	1255.31
478.455	1301.18
478.827	1288.3
479.198	1308.64
479.569	1300.28
479.94	1354.29
480.311	1349.09
480.682	1369.2
481.053	1391.8
481.424	1406.49
481.795	1431.57
482.166	1443.1
482.537	1443.1
482.908	1479.48
483.279	1485.13
483.65	1481.74
484.021	1543.43
484.391	1558.57
484.762	1582.75
485.133	1574.17
485.503	1596.09
485.874	1625.69
486.244	1626.14
486.615	1649.19
486.985	1664.11
487.356	1696.65
487.726	1713.37
488.097	1712.02
488.467	1739.36
488.837	1785.46
489.207	1788.4
489.578	1821.84
489.948	1801.51
490.318	1851.45
490.688	1848.51
491.058	1867.49
491.428	1909.98
491.798	1912.46
492.168	1962.63
492.538	1945.46
492.908	1983.42
493.278	2007.15
493.648	2020.71
494.017	2029.75
494.387	2041.95
494.757	2052.12
495.126	2062.29
495.496	2074.95
495.866	2099.8
496.235	2154.94
496.605	2128.5
496.974	2174.15
497.344	2131.89
497.713	2201.27
498.082	2185
498.452	2231.1
498.821	2213.25
499.19	2249.86
499.559	2270.87
499.928	2269.97
500.298	2323.3
500.667	2328.27
501.036	2345.67
501.405	2337.76
501.774	2351.77
502.143	2372.56
502.512	2369.17
502.88	2410.53
503.249	2416.63
503.618	2416.18
503.987	2455.27
504.356	2440.13
504.724	2477.42
505.093	2505.89
505.462	2504.31
505.83	2510.19
506.199	2505.22
506.567	2546.12
506.936	2579.56
507.304	2605.78
507.672	2615.5
508.041	2623.41
508.409	2650.07
508.777	2656.17
509.145	2680.81
509.514	2681.48
509.882	2665.21
510.25	2678.09
510.618	2734.59
510.986	2745.21
511.354	2798.77
511.722	2799.45
512.09	2849.61
512.458	2805.32
512.826	2856.17
513.193	2886.22
513.561	2878.54
513.929	2881.48
514.297	2942.04
514.664	2956.5
515.032	2958.31
515.4	2973.23
515.767	2954.24
516.135	3038.99
516.502	3023.17
516.869	3071.98
517.237	3059.78
517.604	3094.35
517.972	3078.31
518.339	3152.43
518.706	3149.49
519.073	3133.9
519.44	3189.94
519.808	3241.24
520.175	3243.28
520.542	3261.13
520.909	3278.3
521.276	3268.13
521.643	3351.75
522.009	3349.04
522.376	3404.4
522.743	3419.77
523.11	3418.64
523.477	3462.93
523.843	3481.91
524.21	3505.64
524.577	3535.47
524.943	3542.25
525.31	3588.13
525.676	3620.89
526.043	3636.94
526.409	3661.8
526.776	3642.36
527.142	3715.13
527.508	3716.94
527.874	3730.04
528.241	3777.95
528.607	3784.05
528.973	3844.39
529.339	3851.17
529.705	3903.37
530.071	3949.02
530.437	3929.59
530.803	3960.32
531.169	3992.64
531.535	3973.43
531.901	4035.35
532.267	4020.43
532.632	4049.81
532.998	4091.39
533.364	4100.43
533.73	4149.47
534.095	4173.2
534.461	4190.6
534.826	4257.26
535.192	4211.84
535.557	4285.96
535.923	4257.03
536.288	4298.16
536.653	4300.2
537.019	4286.41
537.384	4311.27
537.749	4349.24
538.114	4372.96
538.479	4383.36
538.845	4399.4
539.21	4404.15
539.575	4441.44
539.94	4474.88
540.305	4497.25
540.67	4469.01
541.034	4514.2
541.399	4563.47
541.764	4622.45
542.129	4620.42
542.494	4622
542.858	4673.97
543.223	4640.98
543.587	4704.03
543.952	4720.53
544.316	4724.37
544.681	4743.12
545.045	4784.03
545.41	4783.57
545.774	4831.26
546.138	4866.51
546.503	4878.71
546.867	4840.97
547.231	4946.73
547.595	4945.6
547.959	4957.13
548.324	5013.17
548.688	4986.96
549.052	5025.83
549.416	5051.82
549.779	5071.7
550.143	5093.62
550.507	5148.99
550.871	5196.67
551.235	5158.03
551.599	5212.26
551.962	5220.17
552.326	5265.14
552.689	5312.15
553.053	5316.67
553.417	5336.33
553.78	5371.13
554.143	5384.46
554.507	5471.69
554.87	5450.9
555.234	5545.81
555.597	5546.04
555.96	5551.01
556.323	5577.68
556.686	5663.33
557.05	5690.67
557.413	5727.05
557.776	5739.71
558.139	5801.4
558.502	5781.97
558.865	5873.04
559.228	5892.47
559.59	5991.68
559.953	5970.44
560.316	6036.42
560.679	6085.69
561.041	6163.2
561.404	6213.37
561.767	6236.87
562.129	6227.15
562.492	6327.71
562.854	6351.67
563.217	6394.83
563.579	6466.47
563.941	6521.61
564.304	6571.32
564.666	6637.76
565.028	6678.67
565.39	6734.94
565.753	6769.96
566.115	6829.62
566.477	6851.54
566.839	6962.95
567.201	7044.98
567.563	7104.87
567.925	7153
568.287	7184.19
568.648	7211.08
569.01	7286.33
569.372	7466.67
569.734	7470.74
570.095	7534.01
570.457	7621.92
570.819	7666.21
571.18	7729.49
571.542	7841.12
571.903	7885.41
572.265	7934.9
572.626	8016.03
572.987	8084.05
573.349	8149.36
573.71	8231.39
574.071	8324.27
574.432	8442.69
574.794	8496.92
575.155	8510.71
575.516	8611.04
575.877	8704.15
576.238	8755.45
576.599	8868.44
576.96	8965.61
577.32	9056
577.681	9161.99
578.042	9311.37
578.403	9372.61
578.763	9552.04
579.124	9586.39
579.485	9730.34
579.845	9767.4
580.206	9904.57
580.566	10064.34
580.927	10164
581.287	10291.45
581.648	10430.21
582.008	10592.46
582.368	10636.08
582.728	10814.83
583.089	10924.2
583.449	11159.23
583.809	11289.39
584.169	11413.23
584.529	11589.05
584.889	11839.43
585.249	11925.99
585.609	12071.74
585.969	12296.6
586.329	12524.16
586.688	12699.75
587.048	12927.32
587.408	13019.52
587.768	13231.04
588.127	13475.78
588.487	13755.99
588.846	14075.31
589.206	14214.74
589.565	14414.73
589.925	14782.41
590.284	14922.29
590.643	15213.58
591.003	15468.94
591.362	15814.92
591.721	16041.58
592.08	16251.75
592.44	16672.53
592.799	17012.86
593.158	17182.12
593.517	17568.78
593.876	17894.42
594.235	18229.32
594.593	18486.04
594.952	18932.13
595.311	19205.79
595.67	19564.88
596.029	19982.05
596.387	20413.67
596.746	20741.57
597.104	21028.57
597.463	21320.77
597.822	21771.38
598.18	22051.14
598.538	22419.95
598.897	22866.26
599.255	22960.27
599.613	23686.58
599.972	23921.15
600.33	24275.72
600.688	24595.48
601.046	25162.47
601.404	25583.48
601.762	25799.75
602.12	26357.7
602.478	26621.87
602.836	27015.31
603.194	27182.76
603.552	27501.62
603.91	27850.09
604.268	28357.42
604.625	28638.99
604.983	29142.03
605.341	29295.92
605.698	29735.91
606.056	30118.28
606.413	30355.78
606.771	30831.48
607.128	31112.6
607.485	31195.31
607.843	31588.29
608.2	31919.36
608.557	32326.35
608.914	32468.95
609.272	32934.92
609.629	33296.05
609.986	33654
610.343	33681.12
610.7	34229.35
611.057	34406.98
611.414	34566.07
611.771	34841.09
612.127	35189.1
612.484	35375.54
612.841	35628.64
613.198	35834.74
613.554	35996.77
613.911	36424.78
614.267	36614.6
614.624	36743.41
614.98	36961.26
615.337	37231.76
615.693	37342.94
616.05	37490.06
616.406	37961.69
616.762	37871.74
617.118	38017.05
617.475	38276.71
617.831	38658.39
618.187	38721.67
618.543	38877.59
618.899	39276.23
619.255	39363.46
619.611	39382.21
619.967	39547.18
620.323	39829.43
620.678	39877.12
621.034	39784.46
621.39	39915.08
621.746	40050.22
622.101	40634.16
622.457	40445.91
622.812	40606.36
623.168	40654.95
623.523	40930.65
623.879	41107.59
624.234	40894.72
624.589	41063.75
624.945	41287.93
625.3	41257.19
625.655	41401.14
626.01	41542.38
626.365	41652.89
626.72	41637.75
627.075	41728.14
627.43	41680.46
627.785	41772.66
628.14	41993.9
628.495	41959.09
628.85	41875.03
629.205	41986.44
629.559	42271.4
629.914	42156.15
630.269	42157.28
630.623	42159.09
630.978	42056.72
631.332	42358.41
631.687	42466.65
632.041	42431.62
632.396	42457.84
632.75	42404.73
633.104	42416.03
633.459	42354.79
633.813	42394.79
634.167	42388.24
634.521	42469.59
634.875	42473.88
635.229	42450.38
635.583	42316.37
635.937	42214.91
636.291	42434.79
636.645	42423.04
636.999	42261.23
637.352	42527.67
637.706	42197.28
638.06	42522.7
638.413	42442.02
638.767	42308.92
639.121	42468.01
639.474	42354.79
639.828	42412.19
640.181	42388.01
640.534	42426.88
640.888	42455.13
641.241	42223.04
641.594	42349.59
641.947	42564.95
642.301	42300.33
642.654	42529.47
643.007	42438.86
643.36	42399.31
643.713	42365.86
644.066	42572.19
644.419	42183.72
644.771	42023.05
645.124	41633.91
645.477	41572.44
645.83	41371.77
646.182	41254.25
646.535	41205.22
646.888	41506.23
647.24	41210.19
647.593	41494.7
647.945	41345.33
648.298	41148.04
648.65	41192.11
649.002	41261.26
649.355	41156.86
649.707	41304.65
650.059	41351.65
650.411	41707.8
650.763	41943.28
651.115	42163.83
651.467	42113.67
651.819	42211.29
652.171	42011.97
652.523	42082.26
652.875	42124.51
653.227	41961.13
653.578	42299.88
653.93	42098.3
654.282	42027.12
654.633	41953.9
654.985	42086.32
655.337	42085.87
655.688	42115.93
656.039	42227.34
656.391	41840.45
656.742	41950.51
657.094	41905.99
657.445	42122.25
657.796	41960
658.147	41837.52
658.498	41987.57
658.849	41969.49
659.2	41836.16
659.551	41800
659.902	41947.8
660.253	41996.83
660.604	41956.83
660.955	41733.79
661.306	41960.22
661.656	41826.22
662.007	41887.68
662.358	41915.48
662.708	41839.1
663.059	41840.68
663.409	41545.77
663.76	41854.24
664.11	41912.54
664.461	41864.18
664.811	41913.9
665.161	41841.36
665.511	41684.75
665.862	41829.15
666.212	41944.18
666.562	41991.64
666.912	41816.27
667.262	41839.32
667.612	41729.5
667.962	41910.06
668.312	41765.2
668.662	41965.2
669.011	41866.44
669.361	41730.4
669.711	41941.69
670.06	41814.01
670.41	41696.28
670.76	41579.9
671.109	41792.32
671.459	41726.56
671.808	41616.96
672.157	41696.73
672.507	41550.97
672.856	41652.44
673.205	41506.68
673.554	41689.95
673.904	41500.12
674.253	41759.33
674.602	41504.19
674.951	40983.3
675.3	40727.49
675.649	41460.8
675.998	41360.24
676.346	41512.78
676.695	41594.58
677.044	41334.03
677.393	41385.55
677.741	41438.88
678.09	41403.4
678.438	41209.06
678.787	41311.43
679.135	41332.67
679.484	41057.42
679.832	41118.66
680.181	41073.92
680.529	41130.42
680.877	41116.86
681.225	41092
681.573	41129.29
681.922	40852.68
682.27	40868.95
682.618	40825.79
682.966	40771.33
683.314	40812.46
683.661	40613.14
684.009	40496.76
684.357	40554.39
684.705	40439.59
685.053	40419.47
685.4	40381.51
685.748	40206.6
686.095	40132.93
686.443	40015.64
686.79	40050.22
687.138	40080.05
687.485	39989.65
687.832	39891.58
688.18	39926.83
688.527	39712.37
688.874	39701.53
689.221	39634.41
689.568	39415.21
689.915	39460.86
690.262	39443.68
690.609	39195.33
690.956	39197.59
691.303	39134.99
691.65	38899.06
691.997	38863.58
692.344	38786.75
692.69	38731.61
693.037	38919.4
693.383	38424.05
693.73	38619.52
694.077	38397.83
694.423	38400.77
694.769	38214.11
695.116	38247.78
695.462	38157.61
695.808	37951.06
696.155	37967.11
696.501	37701.35
696.847	37902.7
697.193	37411.19
697.539	37708.58
697.885	37397.41
698.231	37259.78
698.577	37334.81
698.923	37252.33
699.269	36991.77
699.614	36880.36
699.96	36954.25
700.306	36964.65
700.651	36702.51
700.997	36609.4
701.342	36637.2
701.688	36505.23
702.033	36360.37
702.379	36436.08
702.724	36219.13
703.069	36277.89
703.415	35827.28
703.76	35865.24
704.105	35860.95
704.45	35849.88
704.795	35638.81
705.14	35542.09
705.485	35579.15
705.83	35438.14
706.175	35470.23
706.52	35407.4
706.865	35218.93
707.209	35217.35
707.554	35052.84
707.899	35114.98
708.243	34828.21
708.588	34821.2
708.932	34738.27
709.277	34679.96
709.621	34845.16
709.966	34426.19
710.31	34500.31
710.654	34253.76
710.998	34249.01
711.342	34427.99
711.687	34227.55
712.031	34098.06
712.375	33945.75
712.719	34036.82
713.063	33977.84
713.407	34118.4
713.75	33814.68
714.094	33887.44
714.438	33771.74
714.782	33702.81
715.125	33621.46
715.469	33689.48
715.812	33526.77
716.156	33320
716.499	33350.73
716.843	33361.81
717.186	33179.66
717.53	33240.91
717.873	33306.44
718.216	33197.52
718.559	33087.92
718.902	32903.06
719.246	32874.59
719.589	32903.51
719.932	32715.95
720.275	32649.51
720.617	32673.46
720.96	32618.32
721.303	32657.42
721.646	32670.3
721.989	32375.17
722.331	32629.85
722.674	32542.17
723.016	32440.25
723.359	32350.53
723.701	32347.6
724.044	32212.68
724.386	31995.51
724.729	32222.63
725.071	32162.74
725.413	32047.26
725.755	32037.77
726.097	31913.48
726.439	31786.48
726.782	31661.74
727.124	31886.59
727.465	31756.88
727.807	31718.46
728.149	31645.69
728.491	31603.66
728.833	31628.74
729.175	31517.34
729.516	31466.71
729.858	31438.69
730.199	31472.36
730.541	31442.31
730.882	31349.66
731.224	31450.67
731.565	31168.19
731.906	31155.08
732.248	31257.23
732.589	30998.25
732.93	31011.36
733.271	30907.63
733.612	30967.97
733.953	30925.26
734.294	30796.9
734.635	30858.14
734.976	30835.55
735.317	30783.12
735.658	30593.97
735.999	30678.94
736.339	30586.51
736.68	30685.72
737.021	30633.29
737.361	30474.42
737.702	30666.51
738.042	30463.35
738.383	30361.66
738.723	30462
739.063	30360.98
739.404	30516.01
739.744	30321.89
740.084	30133.42
740.424	30284.37
740.764	30192.4
741.104	30267.2
741.444	29989.01
741.784	29925.06
742.124	30157.82
742.464	30075.34
742.804	29986.3
743.143	29965.96
743.483	29904.04
743.823	29732.98
744.162	29756.93
744.502	29856.36
744.841	29665.63
745.181	29791.05
745.52	29643.49
745.86	29710.15
746.199	29669.93
746.538	29630.61
746.877	29640.55
747.216	29628.57
747.556	29464.28
747.895	29475.58
748.234	29322.36
748.573	29394.45
748.911	29354.45
749.25	29329.6
749.589	29237.62
749.928	29182.48
750.267	29173.22
750.605	29140.67
750.944	29064.07
751.283	29016.84
751.621	28990.17
751.96	28820.68
752.298	28912.66
752.636	28812.1
752.975	28743.62
753.313	28661.14
753.651	28753.11
753.989	28627.24
754.327	28550.63
754.666	28429.73
755.004	28509.05
755.342	28445.78
755.679	28576.62
756.017	28170.3
756.355	28384.31
756.693	28189.96
757.031	28313.8
757.368	28090.31
757.706	28083.75
758.044	27992.23
758.381	27973.47
758.719	27833.36
759.056	27879.46
759.394	27772.57
759.731	27761.28
760.068	27683.31
760.405	27649.64
760.743	27507.72
761.08	27490.1
761.417	27288.07
761.754	27293.49
762.091	27347.28
762.428	27265.47
762.765	27065.47
763.102	27048.75
763.438	27058.02
763.775	26817.8
764.112	26845.59
764.449	26817.12
764.785	26650.8
765.122	26601.31
765.458	26417.13
765.795	26402.67
766.131	26398.37
766.467	26283.35
766.804	26191.15
767.14	25928.1
767.476	26081.55
767.812	25874.09
768.148	26041.77
768.485	25801.55
768.821	25575.8
769.157	25637.26
769.492	25499.87
769.828	25656.25
770.164	25400.66
770.5	25282.7
770.836	25316.82
771.171	25183.94
771.507	25102.81
771.842	24910.5
772.178	24863.27
772.513	24823.5
772.849	24747.8
773.184	24724.75
773.519	24720.68
773.855	24537.18
774.19	24402.95
774.525	24360.24
774.86	24315.94
775.195	24278.88
775.53	24192.56
775.865	24136.51
776.2	23922.05
776.535	23706.02
776.87	23748.27
777.205	23595.74
777.539	23645.68
777.874	23612.68
778.209	23520.26
778.543	23418.79
778.878	23260.83
779.212	23211.56
779.547	23152.13
779.881	23142.87
780.215	22981.06
780.55	23062.19
780.884	22853.38
781.218	22813.84
781.552	22822.87
781.886	22627.85
782.22	22521.64
782.554	22471.02
782.888	22263.34
783.222	22280.06
783.556	22146.96
783.889	21987.87
784.223	21977.25
784.557	21957.36
784.89	21923.24
785.224	21823.58
785.557	21730.93
785.891	21621.55
786.224	21563.47
786.558	21580.87
786.891	21366.64
787.224	21398.73
787.557	21378.84
787.891	21195.35
788.224	21193.31
788.557	21177.27
788.89	21038.74
789.223	21115.8
789.556	20930.27
789.888	20677.62
790.221	20729.6
790.554	20576.83
790.887	20628.58
791.219	20511.3
791.552	20401.7
791.884	20344.97
792.217	20311.3
792.549	20317.18
792.882	20199.67
793.214	20035.38
793.546	20051.2
793.879	19890.52
794.211	19879.22
794.543	19877.64
794.875	19787.47
795.207	19806.46
795.539	19668.38
795.871	19780.69
796.203	19578.89
796.535	19348.84
796.867	19418.9
797.198	19385.68
797.53	19370.08
797.862	19301.61
798.193	19220.03
798.525	18983.88
798.856	19104.33
799.188	18891.9
799.519	18905.92
799.85	18797.22
800.182	18839.02
800.513	18793.83
800.844	18622.08
801.175	18685.13
801.506	18642.87
801.837	18529.2
802.168	18496.21
802.499	18441.07
802.83	18310
803.161	18270.68
803.491	18359.94
803.822	18282.43
804.153	18161.98
804.483	18034.53
804.814	18026.16
805.145	17942.32
805.475	17927.86
805.805	17803.12
806.136	17865.04
806.466	17854.42
806.796	17793.63
807.126	17696.91
807.457	17659.62
807.787	17578.27
808.117	17516.12
808.447	17434.32
808.777	17430.02
809.107	17442
809.436	17279.97
809.766	17319.52
810.096	17368.1
810.426	17145.28
810.755	17163.59
811.085	17149.8
811.414	17094.89
811.744	16984.84
812.073	16978.51
812.403	16952.29
812.732	16895.8
813.061	16919.07
813.39	16698.74
813.719	16762.69
814.049	16779.64
814.378	16642.25
814.707	16647.22
815.036	16646.54
815.365	16505.75
815.693	16425.53
816.022	16444.74
816.351	16401.35
816.68	16218.98
817.008	16432.31
817.337	16282.71
817.665	16161.81
817.994	16271.63
818.322	16187.12
818.651	16169.26
818.979	16033.67
819.307	16046.1
819.636	16017.86
819.964	15966.11
820.292	15960.91
820.62	15997.29
820.948	15956.84
821.276	15981.25
821.604	15953
821.932	15997.52
822.259	15952.77
822.587	15923.62
822.915	15921.59
823.243	15896.28
823.57	15822.83
823.898	15807.01
824.225	15850.63
824.553	15780.12
824.88	15864.19
825.207	15786
825.535	15815.38
825.862	15868.26
826.189	15777.86
826.516	15838.2
826.843	15837.3
827.17	15864.19
827.497	15896.28
827.824	15843.85
828.151	15841.14
828.478	15846.33
828.805	15857.63
829.131	15773.57
829.458	15820.57
829.785	15783.06
830.111	15727.02
830.438	15859.89
830.764	15722.95
831.09	15817.18
831.417	15814.25
831.743	15750.74
832.069	15800.46
832.395	15736.06
832.722	15847.69
833.048	15680.46
833.374	15808.37
833.7	15675.27
834.026	15588.94
834.351	15735.15
834.677	15742.16
835.003	15725.89
835.329	15760.01
835.654	15571.77
835.98	15538.32
836.306	15586.23
836.631	15492.45
836.956	15503.29
837.282	15542.61
837.607	15590.07
837.932	15355.05
838.258	15526.57
838.583	15483.41
838.908	15347.59
839.233	15322.05
839.558	15292.68
839.883	15202.06
840.208	15268.5
840.533	15219.91
840.858	15320.47
841.182	15245.9
841.507	15206.35
841.832	15139.91
842.156	15128.61
842.481	15112.34
842.805	15107.37
843.13	15047.71
843.454	14990.09
843.778	15042.51
844.103	14942.63
844.427	14875.29
844.751	14875.06
845.075	14885
845.399	14752.35
845.723	14623.32
846.047	14657.89
846.371	14598.68
846.695	14554.17
847.019	14412.25
847.343	14426.49
847.666	14268.07
847.99	14272.14
848.313	14290.22
848.637	14208.41
848.96	14223.1
849.284	14116.89
849.607	14018.13
849.931	13890.23
850.254	13933.62
850.577	13839.38
850.9	13701.08
851.223	13725.03
851.546	13585.15
851.869	13558.26
852.192	13681.65
852.515	13534.08
852.838	13526.85
853.161	13473.29
853.483	13386.29
853.806	13335.21
854.129	13282.56
854.451	13212.28
854.774	13222.22
855.096	13198.72
855.419	13107.65
855.741	13092.06
856.063	12996.47
856.385	13076.46
856.708	12966.86
857.03	12998.73
857.352	12988.33
857.674	12991.04
857.996	12851.39
858.318	12683.25
858.64	12750.6
858.961	12651.84
859.283	12692.07
859.605	12665.4
859.926	12674.21
860.248	12642.35
860.57	12536.14
860.891	12538.85
861.212	12460.66
861.534	12478.29
861.855	12383.83
862.176	12418.85
862.498	12431.06
862.819	12376.6
863.14	12347.44
863.461	12330.04
863.782	12247.33
864.103	12242.81
864.424	12208.01
864.745	12304.51
865.065	12165.08
865.386	12224.28
865.707	12212.08
866.027	12193.32
866.348	12161.69
866.668	11997.17
866.989	12107
867.309	11965.76
867.63	12030.39
867.95	12003.5
868.27	11936.83
868.59	11931.86
868.91	11980.22
869.23	11855.25
869.55	11735.93
869.87	11846.89
870.19	11795.37
870.51	11944.74
870.83	11877.17
871.15	11817.74
871.469	11840.11
871.789	11833.11
872.109	11783.62
872.428	11662.94
872.748	11695.26
873.067	11702.04
873.386	11666.33
873.706	11695.71
874.025	11656.16
874.344	11554.7
874.663	11593.57
874.982	11558.09
875.301	11576.16
875.62	11568.48
875.939	11443.96
876.258	11584.53
876.577	11429.95
876.896	11472.66
877.214	11409.62
877.533	11442.83
877.852	11403.51
878.17	11389.28
878.489	11411.88
878.807	11368.03
879.125	11350.86
879.444	11405.77
879.762	11335.72
880.08	11348.15
880.398	11293.46
880.716	11281.93
881.034	11199.9
881.352	11166.23
881.67	11134.14
881.988	11252.56
882.306	11210.75
882.624	11172.79
882.941	11117.19
883.259	10991.55
883.577	10956.29
883.894	10924.2
884.212	10953.81
884.529	10964.43
884.846	11008.95
885.164	10911.32
885.481	10923.3
885.798	10857.31
886.115	10813.7
886.432	10796.3
886.75	10787.26
887.067	10750.88
887.383	10695.96
887.7	10781.16
888.017	10691.67
888.334	10640.37
888.651	10656.87
888.967	10563.08
889.284	10521.5
889.6	10516.53
889.917	10452.35
890.233	10448.96
890.55	10364.44
890.866	10406.48
891.182	10314.95
891.498	10265.46
891.815	10328.06
892.131	10255.52
892.447	10255.07
892.763	10212.36
893.079	10174.17
893.395	10156.99
893.71	10152.47
894.026	10127.16
894.342	10128.52
894.657	10065.47
894.973	9971.69
895.289	9979.37
895.604	9968.52
895.92	9881.07
896.235	9863.67
896.55	9866.6
896.865	9827.96
897.181	9762.65
897.496	9722.43
897.811	9729.66
898.126	9657.8
898.441	9670.23
898.756	9644.69
899.071	9601.3
899.386	9599.27
899.7	9468.2
900.015	9461.87
900.33	9404.47
900.644	9401.53
900.959	9432.04
901.273	9340.74
901.588	9342.32
901.902	9230.46
902.216	9251.25
902.531	9246.51
902.845	9155.66
903.159	9120.18
903.473	9040.86
903.787	9067.08
904.101	8997.93
904.415	9061.43
904.729	9016.46
905.042	9005.84
905.356	8947.31
905.67	8872.51
905.984	8899.62
906.297	8853.52
906.611	8843.36
906.924	8769.68
907.237	8695.34
907.551	8724.04
907.864	8671.38
908.177	8677.71
908.491	8603.59
908.804	8575.11
909.117	8521.78
909.43	8534.44
909.743	8457.38
910.056	8432.29
910.368	8365.85
910.681	8393.42
910.994	8294.22
911.307	8310.49
911.619	8225.74
911.932	8278.85
912.244	8151.85
912.557	8164.5
912.869	8112.75
913.181	8121.11
913.494	8101.23
913.806	8010.83
914.118	8040.89
914.43	7940.55
914.742	7938.97
915.054	7847
915.366	7803.83
915.678	7843.38
915.99	7748.02
916.302	7723.16
916.613	7754.12
916.925	7659.43
917.236	7641.8
917.548	7642.48
917.859	7626.21
918.171	7520
918.482	7503.96
918.794	7453.34
919.105	7445.2
919.416	7388.48
919.727	7435.93
920.038	7325.43
920.349	7291.98
920.66	7285.88
920.971	7277.29
921.282	7248.37
921.593	7160.91
921.903	7164.98
922.214	7153
922.525	7056.74
922.835	7082.27
923.146	7059
923.456	7025.55
923.767	6945.33
924.077	6982.39
924.387	6936.74
924.697	6933.8
925.008	6887.7
925.318	6860.58
925.628	6841.6
925.938	6766.57
926.248	6767.03
926.558	6702.39
926.867	6685.9
927.177	6679.8
927.487	6622.62
927.796	6603.87
928.106	6509.86
928.416	6574.49
928.725	6573.13
929.034	6505.11
929.344	6494.04
929.653	6518.67
929.962	6407.49
930.271	6356.87
930.581	6418.33
930.89	6365.23
931.199	6295.63
931.508	6266.25
931.817	6256.3
932.125	6257.21
932.434	6234.84
932.743	6168.85
933.051	6137.66
933.36	6129.98
933.669	6091.79
933.977	6083.43
934.286	6050.66
934.594	6009.53
934.902	5961.85
935.21	5990.1
935.519	5959.14
935.827	5920.04
936.135	5922.53
936.443	5843.21
936.751	5814.96
937.059	5818.8
937.367	5778.8
937.674	5782.64
937.982	5724.79
938.29	5746.04
938.597	5731.35
938.905	5676.66
939.213	5660.16
939.52	5621.29
939.827	5608.19
940.135	5529.77
940.442	5502.43
940.749	5510.34
941.056	5529.54
941.363	5514.85
941.67	5494.06
941.977	5427.63
942.284	5406.61
942.591	5374.97
942.898	5368.19
943.205	5378.59
943.511	5298.14
943.818	5312.6
944.125	5285.03
944.431	5236.67
944.738	5224.24
945.044	5183.34
945.35	5146.73
945.657	5129.1
945.963	5127.97
946.269	5089.33
946.575	5096.11
946.881	5054.98
947.187	5021.31
947.493	5027.86
947.799	5011.59
948.105	4951.03
948.41	4889.33
948.716	4932.5
949.022	4931.59
949.327	4912.61
949.633	4859.73
949.938	4812.95
950.244	4803.91
950.549	4774.08
950.854	4773.18
951.16	4725.72
951.465	4698.83
951.77	4741.54
952.075	4711.71
952.38	4685.27
952.685	4703.8
952.99	4636.69
953.294	4648.89
953.599	4584.48
953.904	4560.08
954.209	4557.59
954.513	4530.02
954.818	4504.49
955.122	4490.93
955.426	4456.8
955.731	4511.04
956.035	4429.01
956.339	4417.48
956.643	4376.58
956.948	4405.51
957.252	4372.51
957.556	4334.32
957.86	4293.64
958.163	4309.69
958.467	4309.01
958.771	4278.73
959.075	4243.02
959.378	4218.84
959.682	4207.32
959.985	4190.82
960.289	4174.78
960.592	4151.05
960.896	4131.84
961.199	4105.85
961.502	4082.58
961.805	4038.06
962.108	4031.05
962.411	4007.32
962.714	4051.39
963.017	4004.84
963.32	4043.48
963.623	3976.36
963.926	3928.68
964.228	3930.04
964.531	3932.75
964.833	3949.7
965.136	3907.21
965.438	3894.11
965.741	3894.78
966.043	3840.55
966.345	3800.55
966.648	3793.09
966.95	3804.39
967.252	3748.35
967.554	3817.95
967.856	3748.8
968.158	3696.37
968.46	3702.25
968.761	3663.83
969.063	3681.91
969.365	3633.1
969.666	3638.29
969.968	3612.98
970.269	3614.34
970.571	3578.86
970.872	3603.04
971.174	3530.95
971.475	3518.75
971.776	3527.34
972.077	3507.45
972.378	3472.65
972.679	3507.9
972.98	3475.59
973.281	3432.2
973.582	3472.42
973.883	3416.15
974.183	3405.08
974.484	3399.66
974.785	3361.69
975.085	3375.25
975.386	3369.83
975.686	3318.3
975.986	3334.12
976.287	3290.51
976.587	3281.92
976.887	3233.56
977.187	3276.04
977.487	3274.01
977.787	3257.06
978.087	3236.04
978.387	3188.81
978.687	3225.65
978.987	3189.04
979.286	3124.41
979.586	3119.21
979.885	3135.93
980.185	3118.76
980.484	3080.79
980.784	3081.02
981.083	3091.87
981.382	3051.87
981.682	3083.73
981.981	3062.94
982.28	3012.77
982.579	2984.75
982.878	3015.71
983.177	3003.96
983.475	2972.32
983.774	2970.29
984.073	2937.97
984.372	2974.81
984.67	2946.11
984.969	2945.21
985.267	2859.78
985.566	2846
985.864	2865.66
986.162	2853
986.461	2801.48
986.759	2825.43
987.057	2817.98
987.355	2781.59
987.653	2742.72
987.951	2772.33
988.249	2764.64
988.547	2757.87
988.844	2697.08
989.142	2726.68
989.44	2701.14
989.737	2705.21
990.035	2683.97
990.332	2650.98
990.63	2675.61
990.927	2660.47
991.224	2639.68
991.521	2622.28
991.819	2595.84
992.116	2592.67
992.413	2588.38
992.71	2595.61
993.006	2593.58
993.303	2555.38
993.6	2554.25
993.897	2521.49
994.193	2489.4
994.49	2521.04
994.787	2515.39
995.083	2497.76
995.379	2480.13
995.676	2474.03
995.972	2435.84
996.268	2396.74
996.565	2404.65
996.861	2397.2
997.157	2385.67
997.453	2392.23
997.749	2362.4
998.044	2326.69
998.34	2355.16
998.636	2329.4
998.932	2312.68
999.227	2310.65
999.523	2331.21
999.818	2290.98
1000.114	2292.57
1000.409	2283.08
1000.704	2259.8
1001	2244.21
1001.295	2228.39
1001.59	2236.07
1001.885	2209.86
1002.18	2185.45
1002.475	2182.06
1002.77	2167.37
1003.065	2162.85
1003.359	2112.23
1003.654	2116.75
1003.949	2108.62
1004.243	2112.01
1004.538	2072.01
1004.832	2112.01
1005.127	2070.88
1005.421	2060.48
1005.715	2042.18
1006.009	2051.44
1006.304	2012.12
1006.598	2005.79
1006.892	2006.02
1007.186	1969.64
1007.48	1982.29
1007.773	1975.96
1008.067	1962.18
1008.361	1933.48
1008.655	1939.81
1008.948	1954.04
1009.242	1947.49
1009.535	1879.24
1009.829	1883.99
1010.122	1881.96
1010.415	1843.09
1010.708	1863.2
1011.001	1842.64
1011.295	1823.88
1011.588	1815.52
1011.881	1822.97
1012.173	1803.99
1012.466	1806.48
1012.759	1757.67
1013.052	1799.92
1013.344	1763.77
1013.637	1764.9
1013.93	1735.97
1014.222	1762.86
1014.514	1750.66
1014.807	1740.94
1015.099	1693.03
1015.391	1690.77
1015.683	1698.91
1015.976	1674.5
1016.268	1658.69
1016.56	1645.58
1016.851	1636.99
1017.143	1602.64
1017.435	1622.53
1017.727	1591.12
1018.018	1599.25
1018.31	1592.02
1018.602	1586.37
1018.893	1556.09
1019.185	1554.06
1019.476	1569.2
1019.767	1554.96
1020.058	1527.16
1020.35	1541.4
1020.641	1509.99
1020.932	1465.02
1021.223	1487.39
1021.514	1482.19
1021.804	1474.06
1022.095	1462.98
1022.386	1424.57
1022.677	1436.32
1022.967	1444.45
1023.258	1430.44
1023.548	1442.19
1023.839	1392.93
1024.129	1432.93
1024.419	1408.07
1024.709	1374.17
1025	1351.57
1025.29	1353.38
1025.58	1334.63
1025.87	1337.34
1026.16	1320.39
1026.449	1322.2
1026.739	1320.84
1027.029	1268.41
1027.319	1262.54
1027.608	1309.09
1027.898	1294.18
1028.187	1284.01
1028.477	1266.83
1028.766	1260.28
1029.055	1258.47
1029.344	1237
1029.634	1207.17
1029.923	1194.97
1030.212	1211.69
1030.501	1196.55
1030.79	1163.11
1031.078	1205.59
1031.367	1177.79
1031.656	1168.3
1031.945	1170.34
1032.233	1185.25
1032.522	1145.25
1032.81	1145.48
1033.099	1135.54
1033.387	1138.92
1033.675	1118.13
1033.963	1142.99
1034.251	1106.38
1034.54	1119.26
1034.828	1076.33
1035.116	1080.17
1035.403	1078.59
1035.691	1062.09
1035.979	1063.67
1036.267	1036.1
1036.554	1041.3
1036.842	1023.45
1037.129	1047.4
1037.417	1009.44
1037.704	992.26
1037.992	1015.31
1038.279	1004.24
1038.566	1003.11
1038.853	1003.11
1039.14	1003.11
