Data from red_shiny_book_FLMS001491_00051.txt Node
Date: Wed Feb 08 15:25:02 GMT 2017
User: dcchb
Spectrometer: FLMS00149
Trigger mode: 0
Integration Time (sec): 2.000000E-2
Scans to average: 10
Electric dark correction enabled: true
Nonlinearity correction enabled: false
Boxcar width: 0
XAxis mode: Wavelengths
Number of Pixels in Spectrum: 2048
>>>>>Begin Spectral Data<<<<<
341.393	9.43
341.776	9.43
342.16	9.43
342.543	-51.13
342.927	-57.23
343.31	-55.65
343.693	-75.76
344.077	-66.95
344.46	-64.01
344.843	-43.45
345.226	-43.45
345.61	-36.89
345.993	-36.44
346.376	-19.49
346.759	9.66
347.142	39.26
347.525	46.95
347.908	65.93
348.291	54.18
348.674	95.99
349.057	130.11
349.44	127.62
349.823	121.07
350.206	182.76
350.588	199.71
350.971	230.22
351.354	242.2
351.737	240.84
352.119	264.34
352.502	289.2
352.884	298.24
353.267	305.02
353.65	312.48
354.032	307.51
354.414	332.14
354.797	326.04
355.179	320.16
355.562	341.18
355.944	335.98
356.326	354.74
356.709	349.54
357.091	357
357.473	356.77
357.855	358.35
358.238	356.09
358.62	342.99
359.002	368.75
359.384	369.2
359.766	366.49
360.148	359.93
360.53	356.54
360.912	354.96
361.294	342.76
361.676	329.65
362.057	333.95
362.439	355.64
362.821	340.95
363.203	340.5
363.584	340.95
363.966	349.99
364.348	339.6
364.729	332.14
365.111	330.33
365.493	342.08
365.874	335.75
366.256	341.18
366.637	342.31
367.019	327.17
367.4	338.24
367.781	335.08
368.163	342.31
368.544	330.33
368.925	333.27
369.306	342.99
369.688	342.31
370.069	338.92
370.45	336.66
370.831	325.81
371.212	343.66
371.593	327.17
371.974	335.3
372.355	329.2
372.736	356.32
373.117	338.47
373.498	351.12
373.879	350.22
374.26	357.22
374.641	330.56
375.021	343.44
375.402	334.62
375.783	367.84
376.163	343.21
376.544	344.79
376.925	348.86
377.305	358.13
377.686	356.54
378.066	351.57
378.447	365.13
378.827	354.51
379.208	369.2
379.588	352.93
379.968	358.13
380.349	360.39
380.729	359.93
381.109	353.83
381.489	364.45
381.87	376.88
382.25	356.54
382.63	371.46
383.01	372.82
383.39	378.92
383.77	387.96
384.15	371.91
384.53	370.1
384.91	389.09
385.29	375.3
385.67	371.23
386.049	388.41
386.429	377.56
386.809	384.11
387.189	393.61
387.568	380.72
387.948	390.22
388.328	403.77
388.707	394.96
389.087	412.59
389.466	408.52
389.846	401.51
390.225	413.94
390.605	392.93
390.984	415.3
391.363	419.14
391.743	384.57
392.122	404
392.501	413.27
392.881	408.97
393.26	440.16
393.639	432.93
394.018	421.63
394.397	425.7
394.776	424.11
395.155	412.59
395.534	425.24
395.913	428.18
396.292	450.1
396.671	442.42
397.05	439.71
397.429	445.13
397.808	453.72
398.186	428.86
398.565	463.43
398.944	442.42
399.323	441.97
399.701	441.06
400.08	435.64
400.458	492.36
400.837	476.99
401.215	512.25
401.594	466.15
401.972	461.85
402.351	464.79
402.729	471.12
403.107	488.52
403.486	475.19
403.864	494.17
404.242	496.43
404.62	502.76
404.999	490.1
405.377	469.08
405.755	498.69
406.133	495.52
406.511	493.26
406.889	514.28
407.267	501.4
407.645	530.33
408.023	511.12
408.401	538.46
408.779	545.92
409.156	532.81
409.534	530.55
409.912	525.81
410.29	552.25
410.667	543.43
411.045	547.95
411.422	557.89
411.8	573.26
412.178	561.96
412.555	580.27
412.933	587.27
413.31	591.34
413.687	578.91
414.065	609.87
414.442	613.49
414.819	600.61
415.197	600.61
415.574	618.01
415.951	633.37
416.328	636.54
416.705	643.77
417.082	650.77
417.46	649.19
417.837	656.2
418.214	628.18
418.591	659.14
418.967	647.16
419.344	660.49
419.721	678.34
420.098	701.17
420.475	723.77
420.852	727.61
421.228	671.34
421.605	691.68
421.982	702.07
422.358	711.11
422.735	676.76
423.111	703.43
423.488	747.95
423.864	726.48
424.241	748.85
424.617	757.89
424.994	755.86
425.37	764.67
425.746	751.79
426.123	775.06
426.499	755.4
426.875	745.46
427.251	777.55
427.627	769.64
428.003	780.94
428.379	814.84
428.756	817.78
429.132	853.48
429.507	842.18
429.883	850.32
430.259	832.01
430.635	847.6
431.011	837.21
431.387	804.67
431.763	845.57
432.138	884.21
432.514	879.92
432.89	880.6
433.265	938.9
433.641	940.26
434.016	961.27
434.392	921.5
434.767	923.31
435.143	941.61
435.518	915.63
435.894	925.12
436.269	930.99
436.644	980.26
437.02	991.56
437.395	1002.4
437.77	1021.84
438.145	1050.09
438.52	1011.89
438.895	1013.48
439.271	998.11
439.646	1016.87
440.021	1027.71
440.395	992.23
440.77	1011.44
441.145	1044.89
441.52	1099.35
441.895	1091.89
442.27	1113.13
442.645	1123.53
443.019	1093.7
443.394	1097.32
443.769	1074.49
444.143	1083.98
444.518	1097.32
444.892	1064.55
445.267	1079.01
445.641	1089.86
446.016	1117.43
446.39	1141.16
446.764	1168.05
447.139	1177.77
447.513	1201.04
447.887	1181.61
448.262	1179.57
448.636	1160.36
449.01	1151.33
449.384	1134.15
449.758	1147.26
450.132	1144.55
450.506	1169.4
450.88	1181.83
451.254	1196.97
451.628	1273.81
452.002	1274.03
452.376	1264.99
452.75	1278.78
453.123	1266.12
453.497	1258.44
453.871	1236.52
454.244	1236.3
454.618	1228.84
454.992	1252.57
455.365	1264.54
455.739	1249.18
456.112	1366.91
456.486	1370.98
456.859	1388.61
457.232	1408.95
457.606	1376.63
457.979	1381.83
458.352	1371.88
458.725	1358.78
459.099	1359
459.472	1366.01
459.845	1349.29
460.218	1364.65
460.591	1425.44
460.964	1451.88
461.337	1517.19
461.71	1533.91
462.083	1555.16
462.456	1551.32
462.829	1513.58
463.201	1531.65
463.574	1511.32
463.947	1490.75
464.32	1519.23
464.692	1469.74
465.065	1483.75
465.438	1528.72
465.81	1575.95
466.183	1634.02
466.555	1713.12
466.928	1724.19
467.3	1720.58
467.672	1742.95
468.045	1751.08
468.417	1742.72
468.789	1702.5
469.161	1672.44
469.534	1672.67
469.906	1694.14
470.278	1702.95
470.65	1761.71
471.022	1789.95
471.394	1869.05
471.766	1898.65
472.138	1941.59
472.51	1990.4
472.882	2055.26
473.253	2025.2
473.625	2033.11
473.997	2017.74
474.369	1996.28
474.74	1981.59
475.112	1963.51
475.484	2003.51
475.855	2045.77
476.227	2074.01
476.598	2141.13
476.97	2239.43
477.341	2311.52
477.713	2380.22
478.084	2393.55
478.455	2461.35
478.827	2461.12
479.198	2449.37
479.569	2399.43
479.94	2411.86
480.311	2430.16
480.682	2400.78
481.053	2418.86
481.424	2486.43
481.795	2531.85
482.166	2655.92
482.537	2748.57
482.908	2866.53
483.279	2951.05
483.65	3003.48
484.021	3027.89
484.391	3048
484.762	3030.82
485.133	2957.61
485.503	2958.96
485.874	2970.03
486.244	2932.07
486.615	2973.88
486.985	2994.89
487.356	3101.33
487.726	3164.38
488.097	3313.98
488.467	3373.87
488.837	3607.76
489.207	3596.23
489.578	3711.48
489.948	3713.97
490.318	3699.73
490.688	3634.88
491.058	3609.34
491.428	3572.96
491.798	3563.01
492.168	3561.66
492.538	3586.29
492.908	3654.99
493.278	3760.3
493.648	3887.07
494.017	4006.17
494.387	4117.35
494.757	4212.04
495.126	4264.92
495.496	4274.63
495.866	4299.94
496.235	4308.3
496.605	4214.3
496.974	4226.95
497.344	4101.53
497.713	4016.34
498.082	4054.3
498.452	4070.12
498.821	4083.9
499.19	4196.9
499.559	4337
499.928	4449.32
500.298	4556.66
500.667	4730.67
501.036	4739.71
501.405	4748.75
501.774	4788.97
502.143	4776.09
502.512	4673.49
502.88	4619.26
503.249	4518.69
503.618	4457.45
503.987	4454.97
504.356	4378.36
504.724	4468.98
505.093	4507.85
505.462	4600.95
505.83	4703.77
506.199	4880.04
506.567	5019.47
506.936	5098.57
507.304	5216.53
507.672	5214.72
508.041	5228.73
508.409	5168.85
508.777	5072.13
509.145	4972.02
509.514	4840.27
509.882	4823.55
510.25	4739.25
510.618	4726.15
510.986	4798.01
511.354	4863.09
511.722	4967.27
512.09	5068.28
512.458	5198.45
512.826	5362.06
513.193	5437.31
513.561	5553.24
513.929	5568.16
514.297	5653.13
514.664	5590.98
515.032	5475.51
515.4	5420.37
515.767	5287.26
516.135	5152.58
516.502	5093.14
516.869	5096.31
517.237	5062.18
517.604	5145.34
517.972	5216.76
518.339	5305.79
518.706	5494.94
519.073	5592.11
519.44	5786.23
519.808	5933.35
520.175	6008.15
520.542	6084.08
520.909	6060.8
521.276	5964.53
521.643	5894.25
522.009	5794.82
522.376	5672.11
522.743	5558.67
523.11	5490.65
523.477	5456.3
523.843	5517.31
524.21	5524.77
524.577	5733.8
524.943	5881.37
525.31	6051.08
525.676	6251.98
526.043	6458.08
526.409	6561.8
526.776	6699.43
527.142	6758.18
527.508	6700.56
527.874	6741.69
528.241	6634.35
528.607	6530.62
528.973	6403.62
529.339	6245.65
529.705	6167.24
530.071	6136.73
530.437	6147.35
530.803	6123.62
531.169	6235.94
531.535	6361.36
531.901	6587.34
532.267	6791.63
532.632	6999.76
532.998	7184.84
533.364	7349.35
533.73	7485.4
534.095	7576.47
534.461	7596.35
534.826	7501.44
535.192	7435.45
535.557	7290.83
535.923	7129.25
536.288	7017.84
536.653	6880.89
537.019	6777.84
537.384	6767
537.749	6818.07
538.114	6901
538.479	7031.62
538.845	7289.24
539.21	7408.11
539.575	7620.99
539.94	7923.13
540.305	8071.6
540.67	8219.84
541.034	8241.31
541.399	8283.79
541.764	8334.19
542.129	8301.65
542.494	8153.85
542.858	7954.54
543.223	7773.07
543.587	7554.77
543.952	7494.44
544.316	7406.53
544.681	7345.97
545.045	7526.07
545.41	7626.18
545.774	7752.28
546.138	7928.32
546.503	8213.51
546.867	8396.56
547.231	8632.26
547.595	8738.92
547.959	8970.56
548.324	8987.05
548.688	8974.4
549.052	8907.05
549.416	8901.86
549.779	8685.59
550.143	8540.74
550.507	8359.5
550.871	8219.16
551.235	8060.75
551.599	7931.03
551.962	7903.24
552.326	7831.38
552.689	8003.57
553.053	8083.12
553.417	8253.96
553.78	8519.72
554.143	8793.16
554.507	9019.82
554.87	9137.78
555.234	9361.05
555.597	9375.52
555.96	9476.98
556.323	9473.37
556.686	9410.54
557.05	9274.28
557.413	9132.36
557.776	8941.86
558.139	8849.88
558.502	8588.87
558.865	8485.82
559.228	8405.82
559.59	8352.94
559.953	8365.6
560.316	8538.48
560.679	8567.4
561.041	8864.12
561.404	9110.89
561.767	9341.84
562.129	9482.86
562.492	9816.18
562.854	9927.37
563.217	9957.2
563.579	10076.74
563.941	10109.96
564.304	10133.91
564.666	10045.33
565.028	9909.74
565.39	9724.43
565.753	9581.39
566.115	9300.26
566.477	9214.62
566.839	9070.21
567.201	8964.68
567.563	9061.17
567.925	9054.85
568.287	9187.05
568.648	9330.77
569.01	9634.72
569.372	9864.09
569.734	10037.65
570.095	10297.75
570.457	10550.17
570.819	10805.54
571.18	10913.55
571.542	11008.02
571.903	10987.9
572.265	11018.18
572.626	10854.35
572.987	10787.23
573.349	10600.12
573.71	10362.16
574.071	10239.22
574.432	10000.81
574.794	10078.55
575.155	9880.36
575.516	9872.23
575.877	10036.97
576.238	10199.22
576.599	10405.09
576.96	10624.97
577.32	10989.26
577.681	11277.16
578.042	11666.76
578.403	11975
578.763	12287.3
579.124	12633.74
579.485	12901.98
579.845	13039.6
580.206	13054.52
580.566	13180.39
580.927	13130.67
581.287	13157.79
581.648	13167.28
582.008	13191.01
582.368	13117.56
582.728	13222.19
583.089	13346.71
583.449	13502.41
583.809	13717.32
584.169	14065.56
584.529	14355.95
584.889	14976.05
585.249	15431.63
585.609	15932.18
585.969	16753.18
586.329	17473.16
586.688	18092.35
587.048	18728.49
587.408	19260.23
587.768	19744.96
588.127	20311.95
588.487	20710.59
588.846	21297.91
589.206	21424.92
589.565	21824.23
589.925	22115.97
590.284	22287.95
590.643	22651.55
591.003	22849.51
591.362	23358.43
591.721	23577.63
592.08	23953.66
592.44	24544.38
592.799	25190.02
593.158	25802.65
593.517	26567.83
593.876	27241.04
594.235	27997.17
594.593	28739.07
594.952	29645.27
595.311	30250.67
595.67	31078.9
596.029	31895.6
596.387	32596.83
596.746	33112.97
597.104	33594.09
597.463	34009.67
597.822	34657.79
598.18	34709.09
598.538	35098.23
598.897	35571.21
599.255	35544.77
599.613	36276.73
599.972	36301.14
600.33	36674.91
600.688	36909.26
601.046	37537.71
601.404	38080.52
601.762	38493.17
602.12	39207.95
602.478	39893.36
602.836	40401.14
603.194	40884.07
603.552	41468.46
603.91	41973.76
604.268	42753.85
604.625	43371.91
604.983	43949.3
605.341	44187.93
605.698	44745.21
606.056	45150.62
606.413	45285.53
606.771	45636.48
607.128	45902.24
607.485	45862.69
607.843	45871.96
608.2	46116.25
608.557	46405.5
608.914	46374.09
609.272	46571.15
609.629	46778.83
609.986	47094.3
610.343	47080.06
610.7	47580.16
611.057	47868.97
611.414	48124.55
611.771	48520.25
612.127	48821.03
612.484	49278.2
612.841	49580.33
613.198	49835.7
613.554	50143.26
613.911	50592.29
614.267	50751.6
614.624	50896.01
614.98	51091.26
615.337	51341.19
615.693	51432.04
616.05	51350.01
616.406	51544.12
616.762	51399.95
617.118	51430.91
617.475	51426.61
617.831	51393.85
618.187	51406.28
618.543	51358.82
618.899	51542.32
619.255	51511.58
619.611	51489.44
619.967	51675.42
620.323	51891.91
620.678	51805.14
621.034	51931.46
621.39	52159.25
621.746	52317.44
622.101	52845.56
622.457	52751.55
622.812	52992.22
623.168	53166
623.523	53271.09
623.879	53501.36
624.234	53333.91
624.589	53595.6
624.945	53478.99
625.3	53490.29
625.655	53669.04
626.01	53446.67
626.365	53405.77
626.72	53304.76
627.075	53288.71
627.43	53165.33
627.785	52969.4
628.14	52929.63
628.495	52909.29
628.85	52809.85
629.205	52842.4
629.559	52990.64
629.914	52928.27
630.269	53050.3
630.623	53087.59
630.978	53141.82
631.332	53319.67
631.687	53438.09
632.041	53471.98
632.396	53667.01
632.75	53676.27
633.104	53886.66
633.459	53778.42
633.813	53916.72
634.167	53896.61
634.521	53868.13
634.875	53970.5
635.229	53811.18
635.583	53656.16
635.937	53537.07
636.291	53360.35
636.645	53352.44
636.999	53099.79
637.352	53136.4
637.706	52730.08
638.06	52880.14
638.413	52716.3
638.767	52584.32
639.121	52556.08
639.474	52559.92
639.828	52510.2
640.181	52643.98
640.534	52739.57
640.888	52666.13
641.241	52716.3
641.594	52893.69
641.947	53164.42
642.301	53116.29
642.654	53229.96
643.007	53371.87
643.36	53271.99
643.713	53385.43
644.066	53542.94
644.419	53361.93
644.771	53193.57
645.124	52835.62
645.477	52594.94
645.83	52512.69
646.182	52235.86
646.535	52027.05
646.888	52039.03
647.24	51633.61
647.593	51835.19
647.945	51591.36
648.298	51350.01
648.65	51262.55
649.002	50941.65
649.355	51190.69
649.707	51014.2
650.059	51066.4
650.411	51659.38
650.763	51655.31
651.115	52003.55
651.467	52053.04
651.819	52162.64
652.171	52233.82
652.523	52137.78
652.875	52300.72
653.227	52273.6
653.578	52583.87
653.93	52653.7
654.282	52559.92
654.633	52437.21
654.985	52524.66
655.337	52528.73
655.688	52474.5
656.039	52579.8
656.391	52256.87
656.742	52110.66
657.094	52046.94
657.445	52049.65
657.796	51784.12
658.147	51610.56
658.498	51568.31
658.849	51586.38
659.2	51376.9
659.551	51322.44
659.902	51373.06
660.253	51360.4
660.604	51314.3
660.955	51086.28
661.306	51356.11
661.656	51448.76
662.007	51355.43
662.358	51528.98
662.708	51643.33
663.059	51744.8
663.409	51678.58
663.76	52000.16
664.11	52069.08
664.461	52142.53
664.811	52265.01
665.161	52274.73
665.511	52255.29
665.862	52186.14
666.212	52227.95
666.562	52123.32
666.912	52044
667.262	51902.53
667.612	51733.5
667.962	51725.14
668.312	51598.36
668.662	51567.4
669.011	51354.53
669.361	51192.27
669.711	51138.49
670.06	50974.87
670.41	50752.06
670.76	50650.82
671.109	50777.59
671.459	50717.71
671.808	50615.56
672.157	50818.04
672.507	50665.5
672.856	50728.78
673.205	50884.48
673.554	51051.71
673.904	51063.01
674.253	51317.24
674.602	51331.02
674.951	50950.24
675.3	51031.37
675.649	51397.91
675.998	51533.73
676.346	51521.3
676.695	51652.6
677.044	51441.3
677.393	51484.92
677.741	51454.64
678.09	51230.91
678.438	51221.42
678.787	51087.87
679.135	50915.89
679.484	50676.35
679.832	50705.5
680.181	50313.65
680.529	50270.71
680.877	50159.3
681.225	49978.74
681.573	50203.37
681.922	49727.9
682.27	49670.73
682.618	49720.22
682.966	49589.6
683.314	49662.14
683.661	49675.25
684.009	49481.81
684.357	49662.82
684.705	49562.03
685.053	49779.43
685.4	49822.14
685.748	49766.32
686.095	49922.47
686.443	49709.37
686.79	49923.38
687.138	50074.79
687.485	50199.08
687.832	50051.51
688.18	50205.18
688.527	49901.46
688.874	49857.84
689.221	49749.37
689.568	49606.77
689.915	49516.38
690.262	49456.5
690.609	49098.09
690.956	48964.76
691.303	48823.07
691.65	48451.55
691.997	48466.01
692.344	47977.44
692.69	47891.11
693.037	47766.82
693.383	47414.06
693.73	47439.6
694.077	47116.44
694.423	47223.11
694.769	47024.02
695.116	46996.22
695.462	46984.92
695.808	46990.35
696.155	47091.59
696.501	46846.17
696.847	47045.03
697.193	46886.62
697.539	46970.01
697.885	46915.09
698.231	46946.51
698.577	47136.78
698.923	47029.67
699.269	46960.97
699.614	46887.75
699.96	46854.08
700.306	46862.21
700.651	46649.79
700.997	46504.94
701.342	46414.77
701.688	46359.63
702.033	46105.4
702.379	45980.2
702.724	45631.06
703.069	45734.56
703.415	45191.52
703.76	45027.69
704.105	45100
704.45	44559.9
704.795	44355.84
705.14	44156.3
705.485	44076.07
705.83	43836.53
706.175	43812.35
706.52	43578.91
706.865	43481.96
707.209	43584.56
707.554	43374.17
707.899	43542.3
708.243	43277.9
708.588	43414.4
708.932	43230.22
709.277	43416.43
709.621	43387.96
709.966	43445.13
710.31	43627.95
710.654	43291.91
710.998	43575.52
711.342	43606.71
711.687	43651.9
712.031	43379.14
712.375	43327.62
712.719	43449.87
713.063	43451.46
713.407	43379.82
713.75	43081.52
714.094	43087.4
714.438	42873.84
714.782	42901.64
715.125	42558.15
715.469	42399.73
715.812	42157.03
716.156	41881.55
716.499	41711.39
716.843	41680.66
717.186	41291.97
717.53	41372.87
717.873	41324.28
718.216	40948.92
718.559	40783.96
718.902	40456.96
719.246	40528.14
719.589	40382.61
719.932	40331.54
720.275	40450.18
720.617	40407.69
720.96	40366.34
721.303	40519.78
721.646	40608.59
721.989	40341.93
722.331	40648.14
722.674	40636.84
723.016	40729.04
723.359	40741.47
723.701	40866.89
724.044	40810.85
724.386	40571.31
724.729	40819.21
725.071	40768.82
725.413	40637.97
725.755	40716.84
726.097	40508.03
726.439	40377.41
726.782	40357.53
727.124	40371.99
727.465	40071.66
727.807	39955.96
728.149	39807.26
728.491	39567.04
728.833	39448.62
729.175	39138.35
729.516	39181.51
729.858	38884.57
730.199	38888.86
730.541	38557.57
730.882	38527.29
731.224	38609.78
731.565	38148.77
731.906	38314.42
732.248	38221.31
732.589	38024.03
732.93	37866.07
733.271	37899.06
733.612	37969.34
733.953	38076.23
734.294	38047.08
734.635	37976.12
734.976	38138.6
735.317	38060.86
735.658	38227.19
735.999	38190.58
736.339	38219.05
736.68	38437.12
737.021	38292.04
737.361	38271.25
737.702	38559.61
738.042	38463.56
738.383	38433.28
738.723	38539.95
739.063	38501.53
739.404	38552.83
739.744	38312.61
740.084	38183.57
740.424	38114.87
740.764	38080.52
741.104	38144.7
741.444	37695
741.784	37480.54
742.124	37572.97
742.464	37366.42
742.804	37008.69
743.143	36895.7
743.483	36791.52
743.823	36543.84
744.162	36416.16
744.502	36475.82
744.841	36269.27
745.181	36217.52
745.52	35920.81
745.86	36120.12
746.199	35956.51
746.538	35951.31
746.877	36015.27
747.216	36120.8
747.556	35900.92
747.895	36024.08
748.234	35968.26
748.573	35973.46
748.911	35922.84
749.25	36063.63
749.589	35952.67
749.928	36144.76
750.267	36286.67
750.605	36171.2
750.944	36136.62
751.283	36095.72
751.621	36249.16
751.96	36103.85
752.298	35970.52
752.636	36070.86
752.975	35997.42
753.313	35780.02
753.651	36091.2
753.989	35659.57
754.327	35712.68
754.666	35427.26
755.004	35426.36
755.342	35351.33
755.679	35105.91
756.017	34799.93
756.355	34724.23
756.693	34486.95
757.031	34446.27
757.368	34217.12
757.706	34056
758.044	33805.61
758.381	33717.7
758.719	33486.52
759.056	33422.34
759.394	33339.63
759.731	33130.15
760.068	33081.11
760.405	32939.64
760.743	32806.31
761.08	32881.56
761.417	32722.25
761.754	32719.31
762.091	32814.67
762.428	32739.65
762.765	32641.8
763.102	32797.05
763.438	32576.04
763.775	32598.41
764.112	32729.03
764.449	32782.36
764.785	32665.07
765.122	32613.78
765.458	32532.42
765.795	32579.65
766.131	32692.64
766.467	32508.24
766.804	32549.6
767.14	32289.26
767.476	32253.78
767.812	32122.26
768.148	32172.66
768.485	32001.81
768.821	31715.95
769.157	31618.1
769.492	31383.3
769.828	31388.95
770.164	31173.36
770.5	30973.37
770.836	30863.09
771.171	30485.7
771.507	30403.21
771.842	30119.83
772.178	30154.63
772.513	29885.49
772.849	29750.8
773.184	29523.91
773.519	29454.08
773.855	29198.27
774.19	29036.02
774.525	28950.59
774.86	28963.93
775.195	28851.16
775.53	28723.03
775.865	28522.13
776.2	28332.08
776.535	28356.03
776.87	28428.12
777.205	28241.91
777.539	28132.31
777.874	28205.08
778.209	28119.43
778.543	28139.32
778.878	27960.34
779.212	28063.84
779.547	27991.98
779.881	28138.41
780.215	28094.12
780.55	28114.91
780.884	27890.74
781.218	27802.15
781.552	27982.03
781.886	27875.59
782.22	27786.78
782.554	27537.07
782.888	27272.45
783.222	27274.71
783.556	27257.08
783.889	26996.52
784.223	26722.18
784.557	26795.62
784.89	26797.66
785.224	26540.71
785.557	26351.57
785.891	26200.84
786.224	26111.35
786.558	25901.86
786.891	25702.09
787.224	25578.71
787.557	25336.45
787.891	25458.94
788.224	25163.8
788.557	25196.8
788.89	25008.78
789.223	24922.23
789.556	24673.87
789.888	24618.96
790.221	24428.68
790.554	24333.54
790.887	24462.13
791.219	24393.43
791.552	24263.71
791.884	24095.36
792.217	24096.26
792.549	24054.9
792.882	24050.38
793.214	23920.22
793.546	23941.23
793.879	23835.93
794.211	23801.35
794.543	23904.85
794.875	23856.27
795.207	23967
795.539	23971.06
795.871	23930.84
796.203	23764.52
796.535	23630.96
796.867	23700.34
797.198	23572.66
797.53	23713.44
797.862	23585.99
798.193	23628.02
798.525	23370.4
798.856	23401.81
799.188	23104.42
799.519	23100.81
799.85	22910.3
800.182	22879.34
800.513	22866.23
800.844	22496.53
801.175	22607.71
801.506	22470.99
801.837	22374.5
802.168	22230.09
802.499	22097.89
802.83	21855.64
803.161	21773.61
803.491	21712.14
803.822	21798.24
804.153	21553.05
804.483	21354.86
804.814	21217.46
805.145	21198.71
805.475	21193.51
805.805	21090.24
806.136	21010.46
806.466	20967.53
806.796	20952.61
807.126	20787.19
807.457	20810.92
807.787	20823.58
808.117	20693.18
808.447	20660.87
808.777	20863.58
809.107	20729.12
809.436	20721.21
809.766	20705.84
810.096	20685.73
810.426	20753.97
810.755	20763.69
811.085	20663.13
811.414	20764.37
811.744	20565.73
812.073	20541.1
812.403	20600.76
812.732	20539.74
813.061	20581.1
813.39	20482.12
813.719	20462.46
814.049	20634.43
814.378	20561.44
814.707	20459.07
815.036	20360.99
815.365	20312.86
815.693	20000.55
816.022	20040.09
816.351	19991.73
816.68	19831.29
817.008	19948.12
817.337	19588.81
817.665	19515.36
817.994	19581.12
818.322	19452.31
818.651	19331.64
818.979	19229.49
819.307	19150.4
819.636	19056.84
819.964	18978.43
820.292	19019.1
820.62	18937.75
820.948	18857.07
821.276	18816.4
821.604	18738.43
821.932	18820.69
822.259	18702.95
822.587	18638.32
822.915	18617.76
823.243	18722.39
823.57	18627.7
823.898	18688.72
824.225	18557.2
824.553	18704.54
824.88	18641.94
825.207	18797.87
825.535	18771.2
825.862	18846
826.189	18855.27
826.516	18972.78
826.843	19104.3
827.17	18970.29
827.497	19058.43
827.824	19040.8
828.151	19174.58
828.478	19132.1
828.805	19238.99
829.131	19147.46
829.458	19137.29
829.785	19146.56
830.111	19220.91
830.438	19274.69
830.764	19345.88
831.09	19330.28
831.417	19233.79
831.743	19336.16
832.069	19209.38
832.395	19056.62
832.722	19180
833.048	19063.4
833.374	19101.59
833.7	19022.95
834.026	19030.86
834.351	18902.5
834.677	18982.04
835.003	18793.12
835.329	18809.62
835.654	18729.17
835.98	18606.91
836.306	18652.79
836.631	18503.86
836.956	18521.94
837.282	18446.01
837.607	18299.8
837.932	18139.81
838.258	18176.87
838.583	18124.21
838.908	17936.2
839.233	18055.51
839.558	17943.65
839.883	17885.12
840.208	17811.23
840.533	17834.5
840.858	17758.12
841.182	17813.94
841.507	17729.19
841.832	17747.73
842.156	17669.31
842.481	17759.93
842.805	17734.62
843.13	17793.15
843.454	17681.96
843.778	17646.49
844.103	17686.48
844.427	17759.93
844.751	17822.3
845.075	17770.32
845.399	17754.05
845.723	17614.4
846.047	17772.13
846.371	17630.67
846.695	17759.48
847.019	17627.73
847.343	17560.16
847.666	17495.98
847.99	17435.19
848.313	17472.7
848.637	17197.91
848.96	17324.01
849.284	17173.5
849.607	17008.54
849.931	16972.38
850.254	16950.68
850.577	16921.53
850.9	16737.36
851.223	16601.31
851.546	16536.46
851.869	16360.42
852.192	16418.04
852.515	16258.73
852.838	16082.01
853.161	16056.24
853.483	16006.08
853.806	15855.57
854.129	15884.72
854.451	15784.61
854.774	15599.76
855.096	15632.3
855.419	15427.33
855.741	15406.54
856.063	15297.39
856.385	15156.38
856.708	15139.21
857.03	15011.75
857.352	15075.48
857.674	15000.23
857.996	14956.61
858.318	14848.14
858.64	14902.38
858.961	14690.86
859.283	14786.45
859.605	14721.82
859.926	14740.12
860.248	14612.89
860.57	14680.91
860.891	14754.13
861.212	14667.58
861.534	14660.12
861.855	14660.57
862.176	14730.86
862.498	14667.13
862.819	14767.46
863.14	14612.67
863.461	14753.45
863.782	14712.78
864.103	14787.58
864.424	14651.54
864.745	14779.22
865.065	14631.65
865.386	14570.18
865.707	14637.75
866.027	14689.05
866.348	14561.37
866.668	14660.35
866.989	14593.68
867.309	14565.66
867.63	14593.91
867.95	14529.05
868.27	14478.43
868.59	14531.76
868.91	14391.2
869.23	14331.54
869.55	14290.19
869.87	14351.2
870.19	14275.27
870.51	14228.95
870.83	14270.53
871.15	14046.35
871.469	14127.93
871.789	14045.45
872.109	14083.87
872.428	13908.5
872.748	13947.83
873.067	13932.46
873.386	13784.89
873.706	13739.02
874.025	13640.94
874.344	13466.71
874.663	13589.87
874.982	13557.33
875.301	13588.06
875.62	13440.04
875.939	13366.15
876.258	13431.23
876.577	13320.72
876.896	13264.23
877.214	13245.7
877.533	13170.67
877.852	13211.35
878.17	13240.73
878.489	13238.01
878.807	13286.6
879.125	13208.86
879.444	13185.13
879.762	13264
880.08	13241.86
880.398	13124.12
880.716	13136.1
881.034	13117.56
881.352	13173.61
881.67	13113.05
881.988	13239.14
882.306	13247.05
882.624	13124.12
882.941	13094.06
883.259	13132.03
883.577	13172.25
883.894	13129.99
884.212	13090.67
884.529	13122.99
884.846	13080.05
885.164	13156.43
885.481	13109.43
885.798	13062.65
886.115	13079.83
886.432	13050.67
886.75	12940.85
887.067	13047.96
887.383	13022.2
887.7	12968.87
888.017	12826.05
888.334	12956.44
888.651	12833.73
888.967	12792.15
889.284	12634.64
889.6	12607.97
889.917	12547.64
890.233	12469.67
890.55	12485.94
890.866	12417.24
891.182	12334.99
891.498	12291.82
891.815	12248.66
892.131	12155.56
892.447	12070.81
892.763	12001.44
893.079	11932.74
893.395	11853.42
893.71	11902.91
894.026	11804.38
894.342	11711.5
894.657	11657.26
894.973	11629.24
895.289	11674.66
895.604	11524.39
895.92	11449.81
896.235	11456.59
896.55	11422.47
896.865	11428.57
897.181	11293.88
897.496	11333.66
897.811	11290.95
898.126	11272.19
898.441	11248.01
898.756	11227.9
899.071	11134.79
899.386	11161.01
899.7	11057.05
900.015	11062.48
900.33	11041.69
900.644	11077.39
900.959	11072.87
901.273	11049.82
901.588	10964.17
901.902	10992.65
902.216	10847.57
902.531	10935.48
902.845	10869.04
903.159	10821.81
903.473	10792.43
903.787	10831.52
904.101	10751.53
904.415	10755.82
904.729	10750.4
905.042	10733.45
905.356	10637.4
905.67	10626.1
905.984	10699.55
906.297	10693
906.611	10525.99
906.924	10570.74
907.237	10493.45
907.551	10476.73
907.864	10371.87
908.177	10356.06
908.491	10373.46
908.804	10318.32
909.117	10291.65
909.43	10187.7
909.743	10092.33
910.056	10031.54
910.368	9980.25
910.681	10006.69
910.994	9890.76
911.307	9931.66
911.619	9781.83
911.932	9732.79
912.244	9693.02
912.557	9674.04
912.869	9565.12
913.181	9497.77
913.494	9417.1
913.806	9381.17
914.118	9339.36
914.43	9243.77
914.742	9185.46
915.054	9102.76
915.366	9102.53
915.678	9096.2
915.99	9038.35
916.302	8926.49
916.613	8866.83
916.925	8867.51
917.236	8776.44
917.548	8762.65
917.859	8817.34
918.171	8741.86
918.482	8739.15
918.794	8707.51
919.105	8674.74
919.416	8587.29
919.727	8615.99
920.038	8579.83
920.349	8533.5
920.66	8505.71
920.971	8532.6
921.282	8486.05
921.593	8440.63
921.903	8384.36
922.214	8338.71
922.525	8360.4
922.835	8395.2
923.146	8309.33
923.456	8317.01
923.767	8306.39
924.077	8252.16
924.387	8231.14
924.697	8225.94
925.008	8233.4
925.318	8173.06
925.628	8189.78
925.938	8138.94
926.248	8056.45
926.558	8081.09
926.867	8050.58
927.177	7995.89
927.487	8002.67
927.796	7900.3
928.106	7953.41
928.416	7878.83
928.725	7875.67
929.034	7785.28
929.344	7851.49
929.653	7766.29
929.962	7755.9
930.271	7621.66
930.581	7616.47
930.89	7614.21
931.199	7529.01
931.508	7500.54
931.817	7496.7
932.125	7449.24
932.434	7430.93
932.743	7309.81
933.051	7312.97
933.36	7196.14
933.669	7185.74
933.977	7152.52
934.286	7134.67
934.594	7093.54
934.902	6995.69
935.21	6931.96
935.519	6960.21
935.827	6908.91
936.135	6836.83
936.443	6805.41
936.751	6750.73
937.059	6736.04
937.367	6638.41
937.674	6643.84
937.982	6541.01
938.29	6502.37
938.597	6544.63
938.905	6477.51
939.213	6453.33
939.52	6433.22
939.827	6428.25
940.135	6395.71
940.442	6404.75
940.749	6357.06
941.056	6326.33
941.363	6324.52
941.67	6301.47
941.977	6264.64
942.284	6246.33
942.591	6258.99
942.898	6200.01
943.205	6229.84
943.511	6203.85
943.818	6140.57
944.125	6160.69
944.431	6115.94
944.738	6171.98
945.044	6131.53
945.35	6098.77
945.657	6073.46
945.963	6029.16
946.269	6031.42
946.575	6035.27
946.881	6044.53
947.187	6020.35
947.493	5997.53
947.799	5950.07
948.105	5934.7
948.41	5917.75
948.716	5874.14
949.022	5866.23
949.327	5821.03
949.633	5783.97
949.938	5768.83
950.244	5797.98
950.549	5733.58
950.854	5659.23
951.16	5687.93
951.465	5658.1
951.77	5643.18
952.075	5574.71
952.38	5604.54
952.685	5597.99
952.99	5536.75
953.294	5509.86
953.599	5462.17
953.904	5442.96
954.209	5473.25
954.513	5368.16
954.818	5367.49
955.122	5304.21
955.426	5317.09
955.731	5273.48
956.035	5180.15
956.339	5128.85
956.643	5180.37
956.948	5112.8
957.252	5160.94
957.556	5093.14
957.86	5049.75
958.163	4997.55
958.467	5012.24
958.771	4943.99
959.075	4924.56
959.378	4892.24
959.682	4861.06
959.985	4909.19
960.289	4796.65
960.592	4810.66
960.896	4746.71
961.199	4748.07
961.502	4703.77
961.805	4702.87
962.108	4657.67
962.411	4702.42
962.714	4607.28
963.017	4651.57
963.32	4626.49
963.623	4596.66
963.926	4578.13
964.228	4535.64
964.531	4543.55
964.833	4524.12
965.136	4494.06
965.438	4495.87
965.741	4501.97
966.043	4432.37
966.345	4424.69
966.648	4439.83
966.95	4454.06
967.252	4396.21
967.554	4386.27
967.856	4356.89
968.158	4301.75
968.46	4383.33
968.761	4312.37
969.063	4320.06
969.365	4298.59
969.666	4289.55
969.968	4260.85
970.269	4259.72
970.571	4320.73
970.872	4257.23
971.174	4217.23
971.475	4261.98
971.776	4208.42
972.077	4203.22
972.378	4206.16
972.679	4163
972.98	4160.29
973.281	4078.93
973.582	4124.81
973.883	4090.91
974.183	4091.59
974.484	4007.3
974.785	3978.82
975.085	4023.34
975.386	4037.8
975.686	3939.27
975.986	3944.25
976.287	3927.52
976.587	3878.03
976.887	3873.06
977.187	3883.91
977.487	3827.41
977.787	3829.22
978.087	3774.08
978.387	3816.57
978.687	3782.67
978.987	3738.6
979.286	3680.3
979.586	3694.08
979.885	3687.98
980.185	3593.97
980.484	3611.15
980.784	3561.21
981.083	3583.35
981.382	3576.12
981.682	3516.91
981.981	3533.41
982.28	3499.96
982.579	3444.15
982.878	3450.93
983.177	3435.33
983.475	3461.1
983.774	3392.4
984.073	3374.09
984.372	3316.24
984.67	3377.71
984.969	3360.99
985.267	3319.86
985.566	3318.27
985.864	3283.92
986.162	3247.09
986.461	3236.24
986.759	3220.42
987.057	3228.33
987.355	3217.49
987.653	3230.14
987.951	3184.04
988.249	3174.32
988.547	3170.93
988.844	3184.04
989.142	3113.31
989.44	3124.83
989.737	3105.62
990.035	3062.46
990.332	3076.92
990.63	3072.86
990.927	3092.29
991.224	3050.71
991.521	3076.25
991.819	3083.93
992.116	3048.9
992.413	3012.75
992.71	3003.93
993.006	3037.15
993.303	3053.42
993.6	3001.45
993.897	2976.59
994.193	2977.94
994.49	2973.2
994.787	2951.28
995.083	2928
995.379	2917.15
995.676	2920.32
995.972	2881.9
996.268	2869.92
996.565	2863.15
996.861	2807.78
997.157	2838.74
997.453	2782.02
997.749	2795.12
998.044	2831.06
998.34	2783.15
998.636	2777.5
998.932	2742.47
999.227	2776.59
999.523	2749.48
999.818	2711.51
1000.114	2693.66
1000.409	2655.92
1000.704	2648.69
1001	2684.62
1001.295	2637.39
1001.59	2630.38
1001.885	2601.68
1002.18	2599.65
1002.475	2574.57
1002.77	2518.75
1003.065	2546.77
1003.359	2513.55
1003.654	2534.79
1003.949	2479.88
1004.243	2439.88
1004.538	2479.2
1004.832	2424.29
1005.127	2421.35
1005.421	2407.34
1005.715	2346.1
1006.009	2366.66
1006.304	2355.59
1006.598	2342.93
1006.892	2292.09
1007.186	2311.97
1007.48	2288.47
1007.773	2242.82
1008.067	2230.85
1008.361	2194.24
1008.655	2213.22
1008.948	2188.81
1009.242	2192.88
1009.535	2192.65
1009.829	2167.34
1010.122	2121.02
1010.415	2133.45
1010.708	2102.26
1011.001	2120.34
1011.295	2098.65
1011.588	2090.06
1011.881	2087.35
1012.173	2057.06
1012.466	2043.05
1012.759	2033.79
1013.052	2016.39
1013.344	2037.18
1013.637	2013.45
1013.93	1992.21
1014.222	2017.29
1014.514	1970.06
1014.807	1951.98
1015.099	1946.56
1015.391	1949.5
1015.683	1932.77
1015.976	1919.44
1016.268	1909.95
1016.56	1919.22
1016.851	1887.13
1017.143	1917.86
1017.435	1860.69
1017.727	1878.99
1018.018	1838.77
1018.31	1877.63
1018.602	1864.08
1018.893	1849.16
1019.185	1809.61
1019.476	1814.81
1019.767	1798.99
1020.058	1807.13
1020.35	1758.99
1020.641	1764.19
1020.932	1734.36
1021.223	1760.58
1021.514	1735.04
1021.804	1705.21
1022.095	1693.46
1022.386	1691.88
1022.677	1695.27
1022.967	1655.27
1023.258	1640.13
1023.548	1643.74
1023.839	1640.58
1024.129	1631.77
1024.419	1657.08
1024.709	1623.86
1025	1597.87
1025.29	1582.5
1025.58	1561.48
1025.87	1554.93
1026.16	1561.26
1026.449	1528.94
1026.739	1489.17
1027.029	1518.32
1027.319	1531.43
1027.608	1502.73
1027.898	1498.21
1028.187	1492.33
1028.477	1443.07
1028.766	1444.88
1029.055	1430.19
1029.344	1459.79
1029.634	1424.54
1029.923	1407.59
1030.212	1401.49
1030.501	1392.9
1030.79	1348.61
1031.078	1363.75
1031.367	1336.18
1031.656	1349.74
1031.945	1317.65
1032.233	1297.31
1032.522	1315.84
1032.81	1283.3
1033.099	1287.59
1033.387	1309.51
1033.675	1278.55
1033.963	1253.47
1034.251	1260.02
1034.54	1189.06
1034.828	1221.83
1035.116	1207.37
1035.403	1195.39
1035.691	1176.18
1035.979	1203.3
1036.267	1212.79
1036.554	1167.14
1036.842	1155.85
1037.129	1180.48
1037.417	1131.67
1037.704	1143.87
1037.992	1145.68
1038.279	1115.17
1038.566	1133.25
1038.853	1133.25
1039.14	1133.25
