Data from red_shiny_book_FLMS001491_00023.txt Node
Date: Wed Feb 08 15:24:37 GMT 2017
User: dcchb
Spectrometer: FLMS00149
Trigger mode: 0
Integration Time (sec): 2.000000E-2
Scans to average: 10
Electric dark correction enabled: true
Nonlinearity correction enabled: false
Boxcar width: 0
XAxis mode: Wavelengths
Number of Pixels in Spectrum: 2048
>>>>>Begin Spectral Data<<<<<
341.393	-3.22
341.776	-3.22
342.16	-3.22
342.543	-57.23
342.927	-74.86
343.31	-81.41
343.693	-79.15
344.077	-74.18
344.46	-36.67
344.843	-44.35
345.226	-45.48
345.61	-32.82
345.993	-8.87
346.376	7.4
346.759	15.54
347.142	7.63
347.525	20.96
347.908	65.03
348.291	82.2
348.674	100.05
349.057	104.12
349.44	131.01
349.823	152.48
350.206	197.68
350.588	198.13
350.971	206.27
351.354	230.45
351.737	240.84
352.119	249.65
352.502	265.47
352.884	281.52
353.267	294.17
353.65	284.46
354.032	321.97
354.414	328.75
354.797	325.36
355.179	324
355.562	340.95
355.944	356.09
356.326	345.47
356.709	347.05
357.091	356.54
357.473	365.81
357.855	362.87
358.238	325.81
358.62	361.97
359.002	353.61
359.384	340.27
359.766	350.89
360.148	350.89
360.53	360.61
360.912	352.7
361.294	346.6
361.676	350.44
362.057	344.34
362.439	351.35
362.821	322.87
363.203	347.28
363.584	331.91
363.966	356.54
364.348	346.6
364.729	326.94
365.111	322.87
365.493	329.43
365.874	344.34
366.256	320.39
366.637	339.37
367.019	320.61
367.4	318.81
367.781	333.49
368.163	342.76
368.544	344.34
368.925	344.79
369.306	343.44
369.688	344.57
370.069	323.78
370.45	335.98
370.831	313.83
371.212	315.87
371.593	334.62
371.974	321.29
372.355	319.26
372.736	324.23
373.117	336.66
373.498	335.08
373.879	321.74
374.26	332.36
374.641	325.58
375.021	335.3
375.402	345.02
375.783	317.9
376.163	342.53
376.544	350.67
376.925	353.61
377.305	330.33
377.686	337.79
378.066	372.14
378.447	351.35
378.827	340.05
379.208	338.92
379.588	345.47
379.968	344.34
380.349	342.76
380.729	335.98
381.109	345.25
381.489	342.53
381.87	352.93
382.25	359.93
382.63	357.67
383.01	357.45
383.39	368.3
383.77	367.84
384.15	370.1
384.53	366.94
384.91	367.62
385.29	359.71
385.67	372.82
386.049	374.4
386.429	375.98
386.809	373.04
387.189	372.36
387.568	369.43
387.948	361.52
388.328	383.89
388.707	390.22
389.087	373.72
389.466	374.17
389.846	397.45
390.225	389.76
390.605	374.85
390.984	401.06
391.363	390.44
391.743	403.32
392.122	408.29
392.501	411.23
392.881	410.33
393.26	411.91
393.639	409.42
394.018	396.77
394.397	394.06
394.776	411.68
395.155	395.19
395.534	428.18
395.913	428.63
396.292	423.21
396.671	419.59
397.05	414.4
397.429	436.54
397.808	419.14
398.186	419.37
398.565	428.18
398.944	429.54
399.323	427.05
399.701	435.41
400.08	449.65
400.458	447.39
400.837	433.38
401.215	449.42
401.594	451.01
401.972	471.8
402.351	433.83
402.729	446.71
403.107	449.2
403.486	487.39
403.864	450.33
404.242	465.69
404.62	473.6
404.999	458.69
405.377	465.69
405.755	470.67
406.133	461.4
406.511	479.03
406.889	472.02
407.267	491.68
407.645	486.26
408.023	514.28
408.401	509.08
408.779	507.95
409.156	522.64
409.534	526.26
409.912	489.42
410.29	497.11
410.667	520.38
411.045	528.52
411.422	540.95
411.8	530.33
412.178	565.35
412.555	562.87
412.933	549.31
413.31	557.89
413.687	549.99
414.065	591.34
414.442	572.58
414.819	569.19
415.197	578.01
415.574	576.2
415.951	613.71
416.328	637.44
416.705	618.46
417.082	587.5
417.46	613.94
417.837	608.29
418.214	594.73
418.591	599.02
418.967	600.15
419.344	624.33
419.721	660.72
420.098	647.16
420.475	669.98
420.852	647.84
421.228	647.61
421.605	640.15
421.982	663.65
422.358	684.67
422.735	673.6
423.111	678.12
423.488	677.21
423.864	695.07
424.241	709.3
424.617	718.34
424.994	728.74
425.37	710.43
425.746	728.96
426.123	708.85
426.499	719.92
426.875	733.03
427.251	724.9
427.627	749.98
428.003	760.38
428.379	770.54
428.756	779.58
429.132	778.91
429.507	789.98
429.883	786.82
430.259	819.36
430.635	782.3
431.011	785.46
431.387	796.31
431.763	828.62
432.138	828.62
432.514	847.38
432.89	872.24
433.265	917.21
433.641	895.51
434.016	885.57
434.392	905.68
434.767	888.51
435.143	870.43
435.518	893.25
435.894	892.35
436.269	915.4
436.644	925.12
437.02	934.38
437.395	958.56
437.77	971.22
438.145	997.43
438.52	975.06
438.895	965.79
439.271	957.66
439.646	977.09
440.021	971.44
440.395	961.05
440.77	984.78
441.145	1017.09
441.52	1018.22
441.895	1050.99
442.27	1070.88
442.645	1047.83
443.019	1083.08
443.394	1046.02
443.769	1045.11
444.143	1018
444.518	1024.32
444.892	1032.01
445.267	1046.24
445.641	1066.36
446.016	1077.88
446.39	1101.16
446.764	1117.43
447.139	1120.37
447.513	1161.04
447.887	1139.57
448.262	1126.92
448.636	1102.06
449.01	1121.27
449.384	1105.45
449.758	1100.25
450.132	1114.72
450.506	1142.96
450.88	1185.22
451.254	1197.2
451.628	1199.91
452.002	1218.89
452.376	1215.73
452.75	1220.25
453.123	1206.24
453.497	1205.56
453.871	1193.58
454.244	1193.81
454.618	1199.23
454.992	1209.86
455.365	1266.8
455.739	1286.92
456.112	1314.71
456.486	1351.55
456.859	1361.94
457.232	1353.35
457.606	1355.61
457.979	1354.48
458.352	1331.66
458.725	1326.01
459.099	1309.74
459.472	1361.49
459.845	1365.78
460.218	1388.61
460.591	1399.23
460.964	1460.24
461.337	1469.28
461.71	1514.71
462.083	1549.73
462.456	1490.75
462.829	1475.16
463.201	1509.96
463.574	1487.59
463.947	1450.3
464.32	1497.76
464.692	1477.19
465.065	1514.03
465.438	1561.26
465.81	1628.38
466.183	1648.49
466.555	1697.53
466.928	1701.82
467.3	1689.39
467.672	1711.54
468.045	1744.08
468.417	1682.39
468.789	1675.61
469.161	1668.6
469.534	1665.21
469.906	1696.4
470.278	1740.91
470.65	1775.94
471.022	1854.13
471.394	1899.1
471.766	1968.71
472.138	1963.28
472.51	2027.91
472.882	2034.24
473.253	2000.79
473.625	1978.87
473.997	1973
474.369	1968.48
474.74	1960.34
475.112	1986.56
475.484	2038.08
475.855	2111.98
476.227	2160.56
476.598	2250.96
476.97	2277.62
477.341	2392.2
477.713	2389.49
478.084	2419.31
478.455	2437.39
478.827	2404.4
479.198	2417.51
479.569	2376.83
479.94	2380.67
480.311	2383.38
480.682	2455.47
481.053	2515.58
481.424	2598.75
481.795	2687.1
482.166	2754.9
482.537	2848
482.908	2944.05
483.279	2984.72
483.65	2999.19
484.021	3037.38
484.391	3017.27
484.762	2947.66
485.133	2958.74
485.503	2903.6
485.874	2942.01
486.244	3020.2
486.615	3087.32
486.985	3202.12
487.356	3316.01
487.726	3409.12
488.097	3567.99
488.467	3593.3
488.837	3640.98
489.207	3703.12
489.578	3677.81
489.948	3667.42
490.318	3589.68
490.688	3575.67
491.058	3543.58
491.428	3601.88
491.798	3588.32
492.168	3698.6
492.538	3788.32
492.908	3941.08
493.278	4002.55
493.648	4137.46
494.017	4218.82
494.387	4290.45
494.757	4344.46
495.126	4393.27
495.496	4320.06
495.866	4301.75
496.235	4245.93
496.605	4161.42
496.974	4143.56
497.344	4102.89
497.713	4172.04
498.082	4166.39
498.452	4332.48
498.821	4457.23
499.19	4563.44
499.559	4743.32
499.928	4798.01
500.298	4898.8
500.667	4933.83
501.036	4909.87
501.405	4851.12
501.774	4737.67
502.143	4710.1
502.512	4660.16
502.88	4599.14
503.249	4521.86
503.618	4547.39
503.987	4634.17
504.356	4696.32
504.724	4784.45
505.093	4901.06
505.462	5050.88
505.83	5158.9
506.199	5274.16
506.567	5339.01
506.936	5314.61
507.304	5369.97
507.672	5282.52
508.041	5199.81
508.409	5113.03
508.777	5016.53
509.145	4938.34
509.514	4884.11
509.882	4906.93
510.25	4981.96
510.618	5058.12
510.986	5205
511.354	5380.82
511.722	5494.71
512.09	5663.75
512.458	5734.93
512.826	5809.73
513.193	5780.81
513.561	5722.5
513.929	5679.57
514.297	5630.3
514.664	5472.12
515.032	5364.1
515.4	5321.84
515.767	5290.65
516.135	5301.5
516.502	5313.93
516.869	5429.18
517.237	5591.89
517.604	5717.08
517.972	5930.86
518.339	6063.29
518.706	6158.88
519.073	6254.92
519.44	6268.93
519.808	6294.92
520.175	6220.34
520.542	6170.4
520.909	6050.86
521.276	5853.8
521.643	5732
522.009	5704.2
522.376	5757.53
522.743	5743.97
523.11	5812.22
523.477	5981.48
523.843	6135.15
524.21	6282.04
524.577	6529.72
524.943	6637.28
525.31	6816.26
525.676	6994.56
526.043	7090.83
526.409	6977.84
526.776	6940.55
527.142	6820.1
527.508	6707.56
527.874	6589.15
528.241	6463.73
528.607	6390.74
528.973	6334.69
529.339	6405.2
529.705	6488.36
530.071	6666.43
530.437	6791.18
530.803	6978.97
531.169	7168.57
531.535	7395.68
531.901	7550.71
532.267	7695.79
532.632	7797.25
532.998	7810.36
533.364	7761.1
533.73	7746.86
534.095	7636.58
534.461	7422.35
534.826	7279.53
535.192	7169.92
535.557	7141.45
535.923	7102.36
536.288	7146.65
536.653	7180.77
537.019	7313.65
537.384	7438.17
537.749	7718.61
538.114	7967.64
538.479	8159.28
538.845	8339.84
539.21	8401.98
539.575	8537.35
539.94	8608.98
540.305	8555.42
540.67	8389.55
541.034	8267.52
541.399	8152.27
541.764	7899.62
542.129	7812.39
542.494	7799.29
542.858	7745.73
543.223	7677.26
543.587	7698.95
543.952	7881.77
544.316	7990.47
544.681	8295.77
545.045	8483.11
545.41	8707.96
545.774	8895.53
546.138	9008.52
546.503	9196.31
546.867	9190.44
547.231	9265.24
547.595	9107.73
547.959	9060.27
548.324	8845.13
548.688	8658.7
549.052	8504.8
549.416	8325.15
549.779	8199.95
550.143	8167.41
550.507	8193.17
550.871	8211.93
551.235	8259.61
551.599	8504.13
551.962	8623.45
552.326	8895.98
552.689	9110.89
553.053	9236.99
553.417	9422.29
553.78	9669.29
554.143	9697.09
554.507	9670.88
554.87	9541.16
555.234	9556.75
555.597	9416.19
555.96	9144.11
556.323	9070.21
556.686	8820.73
557.05	8702.09
557.413	8586.61
557.776	8525.37
558.139	8683.33
558.502	8749.54
558.865	8798.58
559.228	8998.12
559.59	9225.01
559.953	9464.78
560.316	9813.47
560.679	9941.15
561.041	10094.82
561.404	10248.94
561.767	10284.64
562.129	10202.61
562.492	10184.99
562.854	10076.29
563.217	9919
563.579	9717.43
563.941	9535.29
564.304	9363.99
564.666	9183.66
565.028	9104.79
565.39	9158.12
565.753	9141.17
566.115	9253.26
566.477	9392.01
566.839	9602.18
567.201	9849.85
567.563	10039.91
567.925	10333.23
568.287	10567.8
568.648	10665.65
569.01	10872.88
569.372	11001.91
569.734	10968.69
570.095	10934.57
570.457	10845.08
570.819	10719.21
571.18	10517.41
571.542	10400.35
571.903	10206.23
572.265	10149.28
572.626	9919.23
572.987	9804.21
573.349	9843.07
573.71	9869.97
574.071	10039.68
574.432	10225.44
574.794	10517.18
575.155	10700.23
575.516	10900.22
575.877	11439.87
576.238	11602.12
576.599	11907.2
576.96	12041.21
577.32	12241.66
577.681	12269.68
578.042	12341.99
578.403	12282.11
578.763	12319.62
579.124	12142.9
579.485	12123.01
579.845	12028.1
580.206	11816.81
580.566	11870.59
580.927	11896.81
581.287	11954.21
581.648	12028.55
582.008	12461.99
582.368	12814.07
582.728	13124.57
583.089	13517.55
583.449	14023.53
583.809	14633.01
584.169	15141.92
584.529	15578.29
584.889	16166.07
585.249	16536.91
585.609	16888.54
585.969	17415.76
586.329	17606.49
586.688	18005.57
587.048	18185
587.408	18382.29
587.768	18605.1
588.127	18842.16
588.487	18987.24
588.846	19349.27
589.206	19518.53
589.565	19933.2
589.925	20378.84
590.284	20855.67
590.643	21374.3
591.003	22110.77
591.362	22840.92
591.721	23503.28
592.08	24221.23
592.44	24912.28
592.799	25858.25
593.158	26433.37
593.517	27057.76
593.876	27634.02
594.235	28302.25
594.593	28839.64
594.952	29192.4
595.311	29619.73
595.67	30008.87
596.029	30388.3
596.387	30609.08
596.746	30875.74
597.104	31085.91
597.463	31501.04
597.822	31840.91
598.18	32065.77
598.538	32623.49
598.897	33270.48
599.255	33662.11
599.613	34677.68
599.972	35074.05
600.33	35836.74
600.688	36344.52
601.046	37247.55
601.404	37886.86
601.762	38439.16
602.12	39165.02
602.478	39731.1
602.836	40358.2
603.194	40547.13
603.552	40983.27
603.91	41063.27
604.268	41445.18
604.625	41493.99
604.983	41944.83
605.341	41849.92
605.698	42226.86
606.056	42280.87
606.413	42343.01
606.771	42764.02
607.128	43005.82
607.485	43179.83
607.843	43540.72
608.2	44054.6
608.557	44567.81
608.914	44868.82
609.272	45520.55
609.629	45887.78
609.986	46576.57
610.343	46614.54
610.7	47393.05
611.057	47514.63
611.414	47898.12
611.771	48224.21
612.127	48595.28
612.484	48601.15
612.841	48854.93
613.198	48712.11
613.554	48720.7
613.911	49039.78
614.267	48843.4
614.624	48760.02
614.98	48957.3
615.337	49056.96
615.693	49025.77
616.05	48989.62
616.406	49237.07
616.762	49160.01
617.118	49437.51
617.475	49575.36
617.831	49890.84
618.187	49974
618.543	50288.56
618.899	50712.06
619.255	50837.93
619.611	51000.64
619.967	51335.99
620.323	51598.81
620.678	51652.6
621.034	51630.9
621.39	51676.55
621.746	51810.56
622.101	52191.79
622.457	51881.07
622.812	51863.66
623.168	51954.96
623.523	51906.83
623.879	51781.41
624.234	51539.61
624.589	51554.75
624.945	51568.76
625.3	51557.23
625.655	51645.14
626.01	51487.86
626.365	51598.13
626.72	51522.2
627.075	51622.77
627.43	51746.61
627.785	51770.56
628.14	52115.86
628.495	52162.87
628.85	52301.62
629.205	52409.41
629.559	52735.96
629.914	52669.29
630.269	52824.09
630.623	52810.08
630.978	52802.17
631.332	52940.47
631.687	52908.38
632.041	52761.95
632.396	52670.65
632.75	52484.21
633.104	52376.42
633.459	52090.78
633.813	52073.15
634.167	51989.31
634.521	51909.09
634.875	51921.97
635.229	51712.26
635.583	51521.53
635.937	51592.71
636.291	51576.89
636.645	51656.44
636.999	51675.65
637.352	51852.14
637.706	51852.37
638.06	52050.33
638.413	52050.55
638.767	52188.85
639.121	52333.26
639.474	52225.69
639.828	52311.79
640.181	52502.07
640.534	52529.41
640.888	52488.96
641.241	52289.19
641.594	52359.92
641.947	52327.83
642.301	52138.23
642.654	51969.42
643.007	51977.79
643.36	51696.89
643.713	51614.63
644.066	51514.75
644.419	51165.83
644.771	50956.12
645.124	50509.35
645.477	50364.49
645.83	50170.38
646.182	49970.16
646.535	49895.35
646.888	50100.32
647.24	50030.04
647.593	50268
647.945	50412.4
648.298	50224.61
648.65	50355.23
649.002	50362.01
649.355	50666.63
649.707	50734.2
650.059	50923.8
650.411	51411.02
650.763	51450.12
651.115	51786.38
651.467	51625.7
651.819	51511.58
652.171	51378.93
652.523	51317.92
652.875	51198.82
653.227	50992.5
653.578	51127.41
653.93	50854.2
654.282	50600.19
654.633	50399.97
654.985	50369.47
655.337	50256.48
655.688	50231.17
656.039	50348.22
656.391	49948.01
656.742	50113.65
657.094	50158.62
657.445	50203.6
657.796	50301.45
658.147	50306.87
658.498	50333.08
658.849	50546.64
659.2	50538.28
659.551	50553.64
659.902	50913.18
660.253	50985.27
660.604	51086.96
660.955	50963.12
661.306	51066.85
661.656	51002.67
662.007	51083.35
662.358	51004.48
662.708	50969.68
663.059	50732.85
663.409	50549.8
663.76	50650.82
664.11	50504.15
664.461	50423.48
664.811	50181.45
665.161	49982.13
665.511	49809.03
665.862	49762.25
666.212	49722.7
666.562	49784.62
666.912	49660.56
667.262	49571.97
667.612	49655.59
667.962	49699.43
668.312	49696.26
668.662	49884.06
669.011	49985.75
669.361	50108.68
669.711	50101.68
670.06	50112.98
670.41	50165.4
670.76	50351.39
671.109	50589.8
671.459	50596.35
671.808	50529.69
672.157	50644.71
672.507	50495.11
672.856	50419.86
673.205	50464.83
673.554	50465.28
673.904	50297.83
674.253	50411.27
674.602	50238.62
674.951	49586.66
675.3	49178.09
675.649	49671.86
675.998	49541.69
676.346	49403.16
676.695	49393.67
677.044	49057.41
677.393	49069.61
677.741	49033.46
678.09	48875.27
678.438	48802.05
678.787	48897.19
679.135	48932.67
679.484	48806.57
679.832	49010.41
680.181	48829.39
680.529	48984.87
680.877	49025.55
681.225	49101.48
681.573	49482.94
681.922	49291.08
682.27	49341.25
682.618	49451.98
682.966	49485.42
683.314	49462.6
683.661	49452.43
684.009	49270.06
684.357	49271.64
684.705	49142.83
685.053	49199.55
685.4	49129.5
685.748	48721.83
686.095	48543.3
686.443	48184.67
686.79	48144.21
687.138	48136.53
687.485	47972.24
687.832	47729.08
688.18	47623.78
688.527	47310.56
688.874	47184.69
689.221	47188.76
689.568	46829.67
689.915	46811.59
690.262	46891.14
690.609	46776.57
690.956	46716.68
691.303	46829.45
691.65	46662.9
691.997	46698.6
692.344	46687.53
692.69	46746.28
693.037	46916.9
693.383	46732.05
693.73	46979.95
694.077	46898.37
694.423	46913.06
694.769	46878.71
695.116	46835.32
695.462	46774.08
695.808	46698.6
696.155	46693.86
696.501	46389.91
696.847	46106.98
697.193	45894.78
697.539	45943.82
697.885	45526.2
698.231	45221.58
698.577	45170.28
698.923	44935.94
699.269	44630.86
699.614	44354.48
699.96	44202.17
700.306	44115.17
700.651	43812.12
700.997	43624.33
701.342	43579.81
701.688	43426.15
702.033	43423.66
702.379	43358.35
702.724	43284.91
703.069	43396.54
703.415	43005.59
703.76	43225.93
704.105	43319.93
704.45	43387.28
704.795	43289.65
705.14	43272.48
705.485	43264.34
705.83	43206.27
706.175	43368.52
706.52	43364.23
706.865	43337.11
707.209	43309.54
707.554	43174.63
707.899	43337.56
708.243	42948.42
708.588	42989.77
708.932	42564.93
709.277	42575.55
709.621	42412.84
709.966	41939.63
710.31	41985.96
710.654	41426.2
710.998	41516.82
711.342	41392.08
711.687	41248.8
712.031	40867.8
712.375	40752.32
712.719	40725.65
713.063	40467.13
713.407	40470.07
713.75	40219.22
714.094	40316.62
714.438	40173.58
714.782	40293.35
715.125	40064.2
715.469	40248.83
715.812	40005.67
716.156	39898.56
716.499	40177.19
716.843	40355.04
717.186	40126.57
717.53	40320.47
717.873	40488.6
718.216	40420.12
718.559	40308.71
718.902	40168.83
719.246	40447.47
719.589	40348.71
719.932	40225.55
720.275	40285.21
720.617	40205.21
720.96	40097.65
721.303	40047.48
721.646	39878.67
721.989	39580.82
722.331	39694.72
722.674	39269.19
723.016	39227.61
723.359	39149.42
723.701	38969.54
724.044	38592.6
724.386	38374.98
724.729	38439.38
725.071	37974.54
725.413	38039.85
725.755	37850.02
726.097	37611.16
726.439	37551.27
726.782	37467.66
727.124	37631.27
727.465	37563.48
727.807	37473.31
728.149	37415.23
728.491	37515.79
728.833	37476.02
729.175	37370.49
729.516	37546.75
729.858	37581.55
730.199	37835.56
730.541	37798.95
730.882	37834.2
731.224	37952.84
731.565	37852.06
731.906	37945.84
732.248	38152.61
732.589	37833.3
732.93	37662.91
733.271	37748.56
733.612	37780.65
733.953	37713.75
734.294	37456.13
734.635	37382.69
734.976	37375.23
735.317	37125.07
735.658	37046.2
735.999	36951.51
736.339	36826.09
736.68	36699.54
737.021	36462.49
737.361	36158.77
737.702	36417.52
738.042	36076.28
738.383	35909.51
738.723	35837.42
739.063	35593.36
739.404	35740.02
739.744	35646.92
740.084	35395.4
740.424	35518.11
740.764	35434.04
741.104	35655.28
741.444	35399.01
741.784	35479.24
742.124	35671.1
742.464	35467.49
742.804	35592
743.143	35592.45
743.483	35656.18
743.823	35683.3
744.162	35610.31
744.502	35881.49
744.841	35831.09
745.181	35920.35
745.52	35966.23
745.86	35902.05
746.199	35907.93
746.538	35700.47
746.877	35917.64
747.216	35737.53
747.556	35624.32
747.895	35679.01
748.234	35427.71
748.573	35309.75
748.911	35272.01
749.25	35036.31
749.589	34821.17
749.928	34651.46
750.267	34782.98
750.605	34653.5
750.944	34385.25
751.283	34143.68
751.621	34177.35
751.96	33654.88
752.298	33693.52
752.636	33548.44
752.975	33380.53
753.313	33274.55
753.651	33287.43
753.989	33011.05
754.327	33041.56
754.666	32864.62
755.004	33075.46
755.342	32977.16
755.679	33060.54
756.017	32905.74
756.355	33120.65
756.693	32890.83
757.031	33156.59
757.368	32995.23
757.706	33124.27
758.044	33003.82
758.381	32991.62
758.719	33069.58
759.056	33113.42
759.394	33063.93
759.731	32854.22
760.068	33073.65
760.405	32895.35
760.743	32686.54
761.08	32825.52
761.417	32547.56
761.754	32552.08
762.091	32463.04
762.428	32252.88
762.765	32130.4
763.102	32062.6
763.438	31806.79
763.775	31575.84
764.112	31538.32
764.449	31492
764.785	31239.57
765.122	31016.3
765.458	30728.18
765.795	30501.29
766.131	30465.13
766.467	30308.98
766.804	30057.46
767.14	29878.71
767.476	29957.12
767.812	29806.62
768.148	29842.32
768.485	29601.43
768.821	29360.75
769.157	29385.61
769.492	29532.27
769.828	29436.01
770.164	29231.27
770.5	29112.85
770.836	29213.64
771.171	29168.44
771.507	29271.94
771.842	29001.44
772.178	29161.21
772.513	29171.61
772.849	29069.46
773.184	28926.41
773.519	29010.03
773.855	28906.98
774.19	28783.82
774.525	28724.84
774.86	28769.13
775.195	28732.75
775.53	28509.25
775.865	28445.3
776.2	28176.6
776.535	27919.89
776.87	28015.48
777.205	27766.67
777.539	27654.13
777.874	27501.59
778.209	27285.55
778.543	27169.85
778.878	26956.07
779.212	26970.31
779.547	26685.8
779.881	26661.84
780.215	26427.5
780.55	26557.66
780.884	26232.25
781.218	26059.6
781.552	25937.11
781.886	25756.1
782.22	25570.8
782.554	25509.78
782.888	25308.66
783.222	25190.47
783.556	25157.93
783.889	25203.35
784.223	24908.22
784.557	24924.03
784.89	25047.42
785.224	24963.81
785.557	24889.91
785.891	24883.13
786.224	24780.76
786.558	24910.25
786.891	24653.31
787.224	24689.01
787.557	24682.68
787.891	24637.26
788.224	24739.41
788.557	24691.27
788.89	24554.78
789.223	24674.32
789.556	24529.69
789.888	24521.56
790.221	24409.25
790.554	24195.69
790.887	24297.38
791.219	24135.35
791.552	24064.17
791.884	24034.79
792.217	23805.87
792.549	23724.52
792.882	23441.81
793.214	23353.23
793.546	23306
793.879	23099.45
794.211	22954.14
794.543	22963.86
794.875	22670.31
795.207	22740.81
795.539	22434.83
795.871	22444.55
796.203	22175.86
796.535	21971.34
796.867	22009.99
797.198	21906.49
797.53	21906.94
797.862	21786.04
798.193	21761.18
798.525	21566.38
798.856	21542.43
799.188	21323.22
799.519	21301.98
799.85	21296.33
800.182	21332.72
800.513	21353.28
800.844	21132.5
801.175	21353.73
801.506	21315.09
801.837	21201.19
802.168	21261.53
802.499	21270.8
802.83	21138.14
803.161	21145.38
803.491	21251.36
803.822	21256.56
804.153	21107.41
804.483	21113.06
804.814	21022.44
805.145	21054.98
805.475	21108.77
805.805	21000.3
806.136	20919.62
806.466	20950.35
806.796	20859.51
807.126	20654.54
807.457	20648.89
807.787	20578.61
808.117	20418.62
808.447	20475.56
808.777	20405.96
809.107	20276.02
809.436	20178.4
809.766	20196.93
810.096	19958.97
810.426	19840.33
810.755	19799.65
811.085	19719.65
811.414	19564.17
811.744	19400.11
812.073	19391.52
812.403	19286.67
812.732	19085.77
813.061	19101.81
813.39	18974.59
813.719	18939.33
814.049	19012.55
814.378	18867.92
814.707	18752.44
815.036	18747.7
815.365	18732.56
815.693	18490.98
816.022	18646.68
816.351	18553.81
816.68	18422.28
817.008	18573.69
817.337	18360.82
817.665	18440.14
817.994	18454.6
818.322	18457.09
818.651	18402.62
818.979	18389.06
819.307	18447.82
819.636	18497.08
819.964	18410.98
820.292	18516.52
820.62	18577.31
820.948	18472.23
821.276	18509.97
821.604	18477.2
821.932	18544.31
822.259	18641.26
822.587	18627.93
822.915	18624.76
823.243	18726.91
823.57	18646.91
823.898	18513.36
824.225	18481.04
824.553	18489.85
824.88	18532.11
825.207	18455.28
825.535	18328.05
825.862	18374.15
826.189	18338.9
826.516	18382.06
826.843	18336.18
827.17	18332.79
827.497	18175.74
827.824	18163.31
828.151	18122.63
828.478	17984.33
828.805	18064.78
829.131	17905.69
829.458	17822.98
829.785	17742.98
830.111	17775.75
830.438	17866.82
830.764	17825.01
831.09	17758.35
831.417	17681.29
831.743	17761.96
832.069	17718.57
832.395	17693.49
832.722	17650.55
833.048	17710.44
833.374	17706.82
833.7	17690.55
834.026	17610.33
834.351	17799.02
834.677	17771
835.003	17818.01
835.329	17896.87
835.654	17852.36
835.98	17850.77
836.306	17841.28
836.631	17853.94
836.956	17845.35
837.282	17921.51
837.607	17865.69
837.932	17744.34
838.258	17972.58
838.583	17826.14
838.908	17857.33
839.233	17800.61
839.558	17875.18
839.883	17686.48
840.208	17754.5
840.533	17677.9
840.858	17627.73
841.182	17615.07
841.507	17621.18
841.832	17527.62
842.156	17526.94
842.481	17448.75
842.805	17352.26
843.13	17302.31
843.454	17276.33
843.778	17080.85
844.103	17047.18
844.427	17055.54
844.751	16950.01
845.075	16881.08
845.399	16748.88
845.723	16608.09
846.047	16647.19
846.371	16462.11
846.695	16442.68
847.019	16387.76
847.343	16228.67
847.666	16160.65
847.99	16035.23
848.313	15874.1
848.637	15900.77
848.96	15802.69
849.284	15732.41
849.607	15634.11
849.931	15556.14
850.254	15522.25
850.577	15440.22
850.9	15431.63
851.223	15318.18
851.546	15454.23
851.869	15303.27
852.192	15451.06
852.515	15237.73
852.838	15158.19
853.161	15255.81
853.483	15214.68
853.806	15165.19
854.129	15171.97
854.451	15196.61
854.774	15115.48
855.096	15136.72
855.419	15132.43
855.741	15101.47
856.063	15003.62
856.385	15008.14
856.708	15021.02
857.03	14867.58
857.352	14948.25
857.674	14876.84
857.996	14861.7
858.318	14801.14
858.64	14852.43
858.961	14680.24
859.283	14580.35
859.605	14556.4
859.926	14548.71
860.248	14537.87
860.57	14391.88
860.891	14455.38
861.212	14331.54
861.534	14257.65
861.855	14165.45
862.176	14069.63
862.498	14067.82
862.819	14042.96
863.14	13975.4
863.461	13885.23
863.782	13735.18
864.103	13806.59
864.424	13756.64
864.745	13690.43
865.065	13555.29
865.386	13556.88
865.707	13451.34
866.027	13504.45
866.348	13398.24
866.668	13393.94
866.989	13343.32
867.309	13258.35
867.63	13384.9
867.95	13334.51
868.27	13224.23
868.59	13289.09
868.91	13317.33
869.23	13273.04
869.55	13274.17
869.87	13264.68
870.19	13317.79
870.51	13343.32
870.83	13361.4
871.15	13298.35
871.469	13372.47
871.789	13327.05
872.109	13366.82
872.428	13260.61
872.748	13415.18
873.067	13381.51
873.386	13419.7
873.706	13350.55
874.025	13370.21
874.344	13300.61
874.663	13383.55
874.982	13342.19
875.301	13361.17
875.62	13342.87
875.939	13346.94
876.258	13218.58
876.577	13302.19
876.896	13234.62
877.214	13172.93
877.533	13107.4
877.852	13131.8
878.17	13112.37
878.489	13185.36
878.807	13127.28
879.125	13106.27
879.444	13092.25
879.762	12947.4
880.08	12944.46
880.398	12910.34
880.716	12793.28
881.034	12789.66
881.352	12725.71
881.67	12669.89
881.988	12624.24
882.306	12526.62
882.624	12469.22
882.941	12379.05
883.259	12349.68
883.577	12372.5
883.894	12235.33
884.212	12162.34
884.529	12202.11
884.846	12205.05
885.164	12095.9
885.481	12036.01
885.798	12043.02
886.115	12000.76
886.432	12022.68
886.75	11896.13
887.067	11935.45
887.383	11892.29
887.7	11917.37
888.017	11854.32
888.334	11876.92
888.651	11797.6
888.967	11807.54
889.284	11791.05
889.6	11783.59
889.917	11754.44
890.233	11816.36
890.55	11780.88
890.866	11779.52
891.182	11623.37
891.498	11662.01
891.815	11653.87
892.131	11646.64
892.447	11707.88
892.763	11619.75
893.079	11585.4
893.395	11656.81
893.71	11554.44
894.026	11578.62
894.342	11530.26
894.657	11480.77
894.973	11469.25
895.289	11534.56
895.604	11558.06
895.92	11377.5
896.235	11355.13
896.55	11432.86
896.865	11289.36
897.181	11289.14
897.496	11286.43
897.811	11238.29
898.126	11219.54
898.441	11113.32
898.756	11062.7
899.071	11007.79
899.386	10983.84
899.7	10871.75
900.015	10816.61
900.33	10660.91
900.644	10739.32
900.959	10631.08
901.273	10641.47
901.588	10487.35
901.902	10416.84
902.216	10390.86
902.531	10308.82
902.845	10267.7
903.159	10180.01
903.473	10190.86
903.787	10108.6
904.101	10046.68
904.415	10087.36
904.729	10023.63
905.042	9904.32
905.356	9910.64
905.67	9868.84
905.984	9904.99
906.297	9804.21
906.611	9773.47
906.924	9682.85
907.237	9642.85
907.551	9655.73
907.864	9554.72
908.177	9575.74
908.491	9494.61
908.804	9526.47
909.117	9484.67
909.43	9417.55
909.743	9432.46
910.056	9409.19
910.368	9424.78
910.681	9368.28
910.994	9385.91
911.307	9300.94
911.619	9267.95
911.932	9287.38
912.244	9286.93
912.557	9255.07
912.869	9207.16
913.181	9158.35
913.494	9176.65
913.806	9076.54
914.118	9111.12
914.43	9052.13
914.742	9047.62
915.054	8965.36
915.366	8965.81
915.678	8921.52
915.99	8913.83
916.302	8751.58
916.613	8806.49
916.925	8749.09
917.236	8815.98
917.548	8733.27
917.859	8733.95
918.171	8722.88
918.482	8613.5
918.794	8579.6
919.105	8604.46
919.416	8473.17
919.727	8427.07
920.038	8418.03
920.349	8348.88
920.66	8377.12
920.971	8272.49
921.282	8246.28
921.593	8134.87
921.903	8151.82
922.214	8035.44
922.525	8005.16
922.835	7942.79
923.146	7994.76
923.456	7913.63
923.767	7812.85
924.077	7793.41
924.387	7750.25
924.697	7698.05
925.008	7736.69
925.318	7621.44
925.628	7540.31
925.938	7473.19
926.248	7449.92
926.558	7408.79
926.867	7377.6
927.177	7376.47
927.487	7310.71
927.796	7262.13
928.106	7231.39
928.416	7197.49
928.725	7200.66
929.034	7179.19
929.344	7195.23
929.653	7132.64
929.962	7154.11
930.271	7127.67
930.581	7115.01
930.89	6978.52
931.199	7054
931.508	7061
931.817	7014.67
932.125	7012.64
932.434	6964.73
932.743	6934.45
933.051	6952.76
933.36	6954.34
933.669	6895.81
933.977	6935.58
934.286	6843.15
934.594	6867.33
934.902	6812.87
935.21	6881.8
935.519	6745.08
935.827	6757.05
936.135	6709.37
936.443	6634.12
936.751	6647.23
937.059	6644.97
937.367	6600
937.674	6613.78
937.982	6579.66
938.29	6542.82
938.597	6520.45
938.905	6472.32
939.213	6440.9
939.52	6407.68
939.827	6400.45
940.135	6357.74
940.442	6355.71
940.749	6309.38
941.056	6248.82
941.363	6200.46
941.67	6192.55
941.977	6138.31
942.284	6062.38
942.591	6020.35
942.898	5991.88
943.205	6019.9
943.511	5985.32
943.818	5981.03
944.125	5935.83
944.431	5921.14
944.738	5901.94
945.044	5820.13
945.35	5788.04
945.657	5713.01
945.963	5721.15
946.269	5665.11
946.575	5670.3
946.881	5596.18
947.187	5601.15
947.493	5565.22
947.799	5509.86
948.105	5500.59
948.41	5439.57
948.716	5434.15
949.022	5450.87
949.327	5396.86
949.633	5330.42
949.938	5273.93
950.244	5297.66
950.549	5313.25
950.854	5286.58
951.16	5267.15
951.465	5256.3
951.77	5202.07
952.075	5177.43
952.38	5251.33
952.685	5206.59
952.99	5158.23
953.294	5176.98
953.599	5135.4
953.904	5156.19
954.209	5108.74
954.513	5113.93
954.818	5122.29
955.122	5071.9
955.426	5054.5
955.731	4994.61
956.035	5065.8
956.339	5041.39
956.643	4963.65
956.948	4980.38
957.252	4977.89
957.556	4963.88
957.86	4904.9
958.163	4936.31
958.467	4910.1
958.771	4908.06
959.075	4925.92
959.378	4849.99
959.682	4833.04
959.985	4784.68
960.289	4764.79
960.592	4740.38
960.896	4709.42
961.199	4701.51
961.502	4669.2
961.805	4668.97
962.108	4583.55
962.411	4667.17
962.714	4624.68
963.017	4627.62
963.32	4598.92
963.623	4541.29
963.926	4535.64
964.228	4487.74
964.531	4490.67
964.833	4441.86
965.136	4459.49
965.438	4414.29
965.741	4356.44
966.043	4364.12
966.345	4336.1
966.648	4307.4
966.95	4286.61
967.252	4243
967.554	4228.76
967.856	4194.18
968.158	4187.63
968.46	4128.87
968.761	4179.27
969.063	4094.07
969.365	4075.77
969.666	4052.04
969.968	3989.44
970.269	4003.68
970.571	3930.01
970.872	3988.99
971.174	3935.66
971.475	3897.92
971.776	3883.91
972.077	3894.98
972.378	3863.34
972.679	3862.89
972.98	3845.27
973.281	3765.04
973.582	3837.36
973.883	3779.28
974.183	3767.98
974.484	3775.89
974.785	3704.03
975.085	3737.25
975.386	3737.7
975.686	3707.42
975.986	3680.07
976.287	3662.45
976.587	3649.34
976.887	3637.59
977.187	3652.73
977.487	3630.13
977.787	3645.27
978.087	3632.39
978.387	3594.65
978.687	3576.8
978.987	3553.97
979.286	3573.41
979.586	3546.06
979.885	3530.47
980.185	3527.76
980.484	3518.95
980.784	3506.52
981.083	3519.4
981.382	3467.65
981.682	3503.58
981.981	3493.86
982.28	3429.23
982.579	3415.22
982.878	3422
983.177	3404.37
983.475	3379.74
983.774	3378.61
984.073	3335.68
984.372	3362.11
984.67	3339.97
984.969	3327.54
985.267	3286.86
985.566	3272.85
985.864	3298.84
986.162	3296.13
986.461	3213.87
986.759	3209.8
987.057	3197.15
987.355	3196.7
987.653	3179.75
987.951	3166.64
988.249	3142.23
988.547	3107.88
988.844	3113.99
989.142	3079.41
989.44	3059.3
989.737	3040.32
990.035	3005.74
990.332	3010.94
990.63	2982.01
990.927	2963.48
991.224	2910.83
991.521	2957.61
991.819	2937.49
992.116	2909.47
992.413	2886.87
992.71	2885.07
993.006	2903.6
993.303	2812.98
993.6	2829.7
993.897	2803.49
994.193	2806.88
994.49	2778.4
994.787	2820.43
995.083	2704.05
995.379	2713.77
995.676	2688.23
995.972	2706.54
996.268	2661.57
996.565	2666.99
996.861	2617.28
997.157	2598.75
997.453	2614.79
997.749	2603.49
998.044	2553.1
998.34	2623.83
998.636	2574.79
998.932	2580.89
999.227	2545.41
999.523	2563.49
999.818	2550.16
1000.114	2533.89
1000.409	2547
1000.704	2547
1001	2514.91
1001.295	2494.12
1001.59	2460.22
1001.885	2470.39
1002.18	2452.53
1002.475	2466.09
1002.77	2438.52
1003.065	2438.75
1003.359	2412.76
1003.654	2427.9
1003.949	2391.52
1004.243	2345.87
1004.538	2324.85
1004.832	2322.59
1005.127	2363.05
1005.421	2325.53
1005.715	2324.63
1006.009	2317.62
1006.304	2303.16
1006.598	2268.58
1006.892	2288.02
1007.186	2234.46
1007.48	2253.44
1007.773	2241.24
1008.067	2226.33
1008.361	2220.22
1008.655	2195.59
1008.948	2196.95
1009.242	2189.49
1009.535	2184.52
1009.829	2130.06
1010.122	2162.37
1010.415	2138.42
1010.708	2128.7
1011.001	2100.68
1011.295	2047.12
1011.588	2073.56
1011.881	2013.68
1012.173	2044.41
1012.466	2040.79
1012.759	2052.54
1013.052	2007.57
1013.344	1963.06
1013.637	1970.97
1013.93	1945.43
1014.222	1966.67
1014.514	1946.11
1014.807	1929.61
1015.099	1904.98
1015.391	1904.53
1015.683	1855.26
1015.976	1862.72
1016.268	1863.4
1016.56	1832.66
1016.851	1811.87
1017.143	1797.86
1017.435	1804.87
1017.727	1788.82
1018.018	1746.79
1018.31	1778.65
1018.602	1742.72
1018.893	1730.75
1019.185	1719.22
1019.476	1700.46
1019.767	1724.19
1020.058	1707.7
1020.35	1671.99
1020.641	1685.77
1020.932	1685.77
1021.223	1636.06
1021.514	1625.44
1021.804	1607.58
1022.095	1633.12
1022.386	1615.95
1022.677	1584.08
1022.967	1567.81
1023.258	1564.87
1023.548	1554.7
1023.839	1542.28
1024.129	1542.95
1024.419	1551.54
1024.709	1530.75
1025	1477.87
1025.29	1513.35
1025.58	1478.1
1025.87	1482.16
1026.16	1471.77
1026.449	1489.85
1026.739	1457.08
1027.029	1487.36
1027.319	1440.13
1027.608	1433.8
1027.898	1430.64
1028.187	1436.74
1028.477	1434.71
1028.766	1398.32
1029.055	1398.78
1029.344	1393.13
1029.634	1379.34
1029.923	1373.47
1030.212	1362.39
1030.501	1349.29
1030.79	1344.09
1031.078	1332.11
1031.367	1319.68
1031.656	1335.28
1031.945	1294.6
1032.233	1313.13
1032.522	1286.24
1032.81	1280.81
1033.099	1297.31
1033.387	1260.25
1033.675	1257.76
1033.963	1275.16
1034.251	1254.37
1034.54	1248.05
1034.828	1237.43
1035.116	1242.17
1035.403	1202.17
1035.691	1187.26
1035.979	1209.86
1036.267	1180.03
1036.554	1199.46
1036.842	1139.57
1037.129	1148.84
1037.417	1137.54
1037.704	1164.88
1037.992	1127.82
1038.279	1124.89
1038.566	1113.81
1038.853	1113.81
1039.14	1113.81
