Data from red_cardboard_box_FLMS001491_00075.txt Node
Date: Wed Feb 08 11:33:06 GMT 2017
User: dcchb
Spectrometer: FLMS00149
Trigger mode: 0
Integration Time (sec): 2.000000E-2
Scans to average: 10
Electric dark correction enabled: true
Nonlinearity correction enabled: false
Boxcar width: 0
XAxis mode: Wavelengths
Number of Pixels in Spectrum: 2048
>>>>>Begin Spectral Data<<<<<
341.393	-21.02
341.776	-21.02
342.16	-21.02
342.543	-59.21
342.927	-66.89
343.31	-78.87
343.693	-61.47
344.077	-61.69
344.46	-51.07
344.843	-49.94
345.226	-54.01
345.61	-21.47
345.993	-11.98
346.376	-8.14
346.759	22.6
347.142	7.23
347.525	36.61
347.908	68.02
348.291	61.92
348.674	97.17
349.057	105.08
349.44	111.41
349.823	126.1
350.206	168.81
350.588	191.18
350.971	209.49
351.354	213.33
351.737	232.76
352.119	239.54
352.502	276.38
352.884	281.8
353.267	275.92
353.65	283.83
354.032	290.39
354.414	314.57
354.797	290.84
355.179	308.47
355.562	317.51
355.944	334.45
356.326	304.85
356.709	312.76
357.091	317.73
357.473	357.96
357.855	314.34
358.238	333.1
358.62	335.81
359.002	345.98
359.384	338.3
359.766	325.64
360.148	333.55
360.53	326.09
360.912	327.9
361.294	331.52
361.676	326.09
362.057	328.8
362.439	324.51
362.821	315.7
363.203	300.78
363.584	328.13
363.966	311.18
364.348	303.95
364.729	302.82
365.111	309.37
365.493	297.39
365.874	311.63
366.256	314.79
366.637	287.45
367.019	293.78
367.4	310.05
367.781	298.98
368.163	310.27
368.544	306.21
368.925	308.24
369.306	313.21
369.688	294.46
370.069	312.76
370.45	283.83
370.831	313.44
371.212	273.44
371.593	292.87
371.974	296.04
372.355	301.01
372.736	309.14
373.117	301.46
373.498	295.59
373.879	315.7
374.26	301.69
374.641	294.23
375.021	305.08
375.402	312.08
375.783	313.89
376.163	312.08
376.544	316.15
376.925	302.59
377.305	295.81
377.686	309.37
378.066	309.6
378.447	273.89
378.827	310.05
379.208	325.87
379.588	299.65
379.968	291.97
380.349	302.14
380.729	337.17
381.109	317.28
381.489	332.19
381.87	322.25
382.25	314.79
382.63	315.7
383.01	326.77
383.39	324.74
383.77	325.42
384.15	321.12
384.53	310.27
384.91	319.09
385.29	331.74
385.67	343.04
386.049	325.87
386.429	327.9
386.809	327.9
387.189	327.45
387.568	342.14
387.948	338.97
388.328	324.06
388.707	338.3
389.087	324.96
389.466	343.04
389.846	317.51
390.225	342.59
390.605	336.04
390.984	336.94
391.363	341.69
391.743	334.45
392.122	316.6
392.501	315.7
392.881	361.57
393.26	337.62
393.639	333.32
394.018	344.17
394.397	327.22
394.776	332.87
395.155	339.65
395.534	345.08
395.913	350.95
396.292	355.02
396.671	359.09
397.05	350.5
397.429	343.49
397.808	343.95
398.186	353.89
398.565	344.85
398.944	342.36
399.323	342.59
399.701	373.32
400.08	346.43
400.458	359.31
400.837	343.72
401.215	360.67
401.594	342.82
401.972	362.02
402.351	361.35
402.729	348.47
403.107	385.07
403.486	360.22
403.864	372.19
404.242	372.42
404.62	369.26
404.999	360.67
405.377	374.68
405.755	377.17
406.133	371.29
406.511	343.27
406.889	376.94
407.267	393.89
407.645	390.5
408.023	391.85
408.401	371.06
408.779	371.97
409.156	377.17
409.534	402.02
409.912	386.2
410.29	386.66
410.667	362.25
411.045	378.97
411.422	399.09
411.8	384.4
412.178	381.23
412.555	372.42
412.933	396.83
413.31	388.92
413.687	396.37
414.065	388.46
414.442	389.82
414.819	399.31
415.197	405.64
415.574	428.01
415.951	421.01
416.328	402.7
416.705	408.35
417.082	396.37
417.46	421.01
417.837	423.72
418.214	405.64
418.591	412.19
418.967	411.74
419.344	448.8
419.721	433.21
420.098	438.41
420.475	440.21
420.852	434.79
421.228	422.81
421.605	423.04
421.982	437.05
422.358	415.58
422.735	429.82
423.111	445.86
423.488	431.63
423.864	425.98
424.241	437.95
424.617	468.91
424.994	427.33
425.37	448.12
425.746	435.02
426.123	447.9
426.499	452.64
426.875	446.32
427.251	442.7
427.627	472.08
428.003	462.59
428.379	470.04
428.756	450.61
429.132	463.49
429.507	458.52
429.883	466.43
430.259	451.51
430.635	479.99
431.011	461.91
431.387	463.04
431.763	467.56
432.138	469.82
432.514	492.42
432.89	494.22
433.265	477.73
433.641	488.8
434.016	489.03
434.392	504.17
434.767	490.83
435.143	498.52
435.518	485.18
435.894	505.3
436.269	497.16
436.644	495.58
437.02	504.62
437.395	517.05
437.77	502.81
438.145	520.21
438.52	515.92
438.895	508.69
439.271	507.56
439.646	517.73
440.021	520.89
440.395	516.82
440.77	524.73
441.145	537.84
441.52	537.16
441.895	536.03
442.27	548.91
442.645	548.01
443.019	553.43
443.394	534.68
443.769	528.35
444.143	538.74
444.518	553.66
444.892	553.21
445.267	549.36
445.641	531.96
446.016	548.23
446.39	545.75
446.764	559.31
447.139	554.56
447.513	574
447.887	558.63
448.262	567.22
448.636	562.92
449.01	574.67
449.384	557.05
449.758	571.28
450.132	584.84
450.506	569.25
450.88	578.52
451.254	594.11
451.628	596.37
452.002	572.41
452.376	599.98
452.75	607.89
453.123	587.56
453.497	598.63
453.871	599.31
454.244	598.4
454.618	601.11
454.992	610.38
455.365	610.15
455.739	619.42
456.112	628.01
456.486	634.56
456.859	626.2
457.232	625.75
457.606	644.73
457.979	628.46
458.352	643.82
458.725	649.47
459.099	663.94
459.472	652.41
459.845	641.34
460.218	665.52
460.591	663.94
460.964	651.51
461.337	672.3
461.71	674.33
462.083	709.13
462.456	719.08
462.829	707.55
463.201	702.58
463.574	700.09
463.947	719.3
464.32	714.56
464.692	698.74
465.065	726.76
465.438	743.48
465.81	731.51
466.183	734.9
466.555	748.45
466.928	741.45
467.3	741.9
467.672	764.73
468.045	766.08
468.417	753.65
468.789	742.35
469.161	778.06
469.534	781
469.906	776.48
470.278	800.2
470.65	805.18
471.022	802.46
471.394	811.5
471.766	799.98
472.138	858.73
472.51	842.69
472.882	840.66
473.253	869.81
473.625	871.84
473.997	857.15
474.369	855.57
474.74	891.28
475.112	885.4
475.484	910.48
475.855	914.33
476.227	898.28
476.598	947.77
476.97	940.77
477.341	950.71
477.713	929.02
478.084	956.59
478.455	961.78
478.827	982.8
479.198	991.39
479.569	1022.8
479.94	1012.63
480.311	1040.2
480.682	1035.9
481.053	1062.57
481.424	1066.86
481.795	1034.78
482.166	1075.9
482.537	1087.66
482.908	1134.43
483.279	1122
483.65	1122
484.021	1152.96
484.391	1163.13
484.762	1160.42
485.133	1164.04
485.503	1183.25
485.874	1202
486.244	1220.76
486.615	1224.6
486.985	1228.44
487.356	1278.16
487.726	1267.76
488.097	1303.92
488.467	1288.55
488.837	1334.2
489.207	1337.14
489.578	1340.98
489.948	1334.43
490.318	1368.78
490.688	1373.07
491.058	1398.61
491.428	1409.23
491.798	1404.71
492.168	1455.78
492.538	1453.52
492.908	1472.05
493.278	1473.63
493.648	1485.38
494.017	1488.77
494.387	1507.53
494.757	1498.94
495.126	1491.26
495.496	1543.01
495.866	1545.5
496.235	1559.73
496.605	1563.8
496.974	1577.81
497.344	1588.88
497.713	1590.47
498.082	1632.27
498.452	1636.12
498.821	1650.58
499.19	1622.56
499.559	1624.59
499.928	1657.81
500.298	1660.3
500.667	1685.38
501.036	1684.48
501.405	1708.66
501.774	1701.88
502.143	1710.69
502.512	1713.85
502.88	1721.08
503.249	1740.75
503.618	1752.95
503.987	1766.28
504.356	1775.09
504.724	1795.21
505.093	1820.29
505.462	1794.53
505.83	1823.23
506.199	1840.63
506.567	1846.05
506.936	1847.64
507.304	1872.27
507.672	1911.59
508.041	1900.97
508.409	1890.35
508.777	1924.7
509.145	1949.78
509.514	1937.12
509.882	1945.94
510.25	1932.15
510.618	1947.75
510.986	1945.94
511.354	1986.61
511.722	2028.65
512.09	2027.07
512.458	2019.83
512.826	2014.64
513.193	2044.92
513.561	2040.62
513.929	2051.02
514.297	2133.73
514.664	2122.43
515.032	2123.79
515.4	2121.53
515.767	2121.07
516.135	2160.85
516.502	2172.15
516.869	2183.45
517.237	2201.98
517.604	2166.95
517.972	2213.28
518.339	2235.42
518.706	2199.94
519.073	2260.28
519.44	2270.9
519.808	2286.04
520.175	2309.32
520.542	2326.04
520.909	2334.85
521.276	2373.5
521.643	2362.88
522.009	2377.11
522.376	2386.6
522.743	2400.84
523.11	2413.04
523.477	2463.66
523.843	2476.77
524.21	2484
524.577	2490.78
524.943	2533.72
525.31	2548.18
525.676	2580.05
526.043	2531.46
526.409	2611.46
526.776	2596.54
527.142	2623.21
527.508	2635.64
527.874	2654.62
528.241	2668.63
528.607	2692.81
528.973	2691
529.339	2741.62
529.705	2778.46
530.071	2770.77
530.437	2766.93
530.803	2818.46
531.169	2828.17
531.535	2812.81
531.901	2791.79
532.267	2862.3
532.632	2860.94
532.998	2903.43
533.364	2893.48
533.73	2949.3
534.095	2932.8
534.461	3001.5
534.826	2980.94
535.192	3003.31
535.557	3030.2
535.923	3027.94
536.288	3009.41
536.653	3027.49
537.019	3055.96
537.384	3064.1
537.749	3016.64
538.114	3069.07
538.479	3089.18
538.845	3099.35
539.21	3140.71
539.575	3092.12
539.94	3148.84
540.305	3163.08
540.67	3169.86
541.034	3188.16
541.399	3225.68
541.764	3219.12
542.129	3217.54
542.494	3218.9
542.858	3250.99
543.223	3236.98
543.587	3255.28
543.952	3274.49
544.316	3292.79
544.681	3293.47
545.045	3347.71
545.41	3354.94
545.774	3356.75
546.138	3420.48
546.503	3396.75
546.867	3402.85
547.231	3464.99
547.595	3412.57
547.959	3481.72
548.324	3456.86
548.688	3489.17
549.052	3527.59
549.416	3545.44
549.779	3530.75
550.143	3561.49
550.507	3543.86
550.871	3580.24
551.235	3611.2
551.599	3620.92
551.962	3604.43
552.326	3644.88
552.689	3762.84
553.053	3682.16
553.417	3695.04
553.78	3740.01
554.143	3727.36
554.507	3816.17
554.87	3806
555.234	3835.61
555.597	3854.81
555.96	3886.23
556.323	3900.46
556.686	3901.59
557.05	3931.87
557.413	3951.53
557.776	3980.46
558.139	3998.54
558.502	4070.18
558.865	4048.03
559.228	4112.89
559.59	4195.37
559.953	4137.52
560.316	4217.97
560.679	4235.37
561.041	4289.6
561.404	4317.17
561.767	4334.12
562.129	4364.18
562.492	4422.03
562.854	4384.97
563.217	4457.06
563.579	4454.35
563.941	4491.86
564.304	4581.35
564.666	4549.26
565.028	4640.33
565.39	4662.93
565.753	4684.4
566.115	4800.55
566.477	4752.19
566.839	4803.72
567.201	4889.36
567.563	4873.09
567.925	4940.44
568.287	4963.71
568.648	4989.02
569.01	5121.9
569.372	5121
569.734	5096.59
570.095	5159.19
570.457	5259.97
570.819	5285.51
571.18	5299.97
571.542	5400.76
571.903	5409.35
572.265	5488.22
572.626	5499.97
572.987	5597.82
573.349	5583.81
573.71	5706.97
574.071	5728.89
574.432	5748.78
574.794	5787.87
575.155	5896.12
575.516	5868.09
575.877	5991.03
576.238	5989.67
576.599	6099.05
576.96	6142.89
577.32	6223.57
577.681	6292.26
578.042	6362.09
578.403	6384.69
578.763	6529.55
579.124	6490.9
579.485	6639.6
579.845	6744.23
580.206	6761.63
580.566	6849.31
580.927	6949.42
581.287	6974.51
581.648	7075.97
582.008	7208.4
582.368	7246.36
582.728	7336.76
583.089	7528.39
583.449	7612.46
583.809	7666.01
584.169	7845.22
584.529	7917.08
584.889	8100.13
585.249	8153.68
585.609	8239.56
585.969	8416.5
586.329	8497.18
586.688	8660.56
587.048	8801.12
587.408	8917.28
587.768	9039.76
588.127	9182.13
588.487	9344.39
588.846	9578.05
589.206	9663.47
589.565	9789.8
589.925	10006.97
590.284	10190.24
590.643	10400.63
591.003	10586.39
591.362	10693.5
591.721	10869.54
592.08	11133.72
592.44	11345.24
592.799	11474.27
593.158	11782.06
593.517	11918.1
593.876	12213.92
594.235	12361.71
594.593	12644.41
594.952	12943.39
595.311	13079.66
595.67	13341.57
596.029	13661.56
596.387	13912.85
596.746	14120.76
597.104	14272.62
597.463	14547.19
597.822	14805.49
598.18	15063.33
598.538	15280.73
598.897	15638.46
599.255	15695.63
599.613	16231.21
599.972	16307.82
600.33	16626.46
600.688	16805.43
601.046	17131.53
601.404	17447.45
601.762	17690.16
602.12	18016.48
602.478	18186.19
602.836	18550.02
603.194	18703.46
603.552	18947.07
603.91	19172.38
604.268	19558.58
604.625	19635.64
604.983	20027.95
605.341	20133.93
605.698	20492.57
606.056	20714.71
606.413	20919.68
606.771	21245.09
607.128	21417.29
607.485	21589.04
607.843	21891.85
608.2	22164.61
608.557	22336.36
608.914	22650.48
609.272	22925.72
609.629	23174.31
609.986	23348.09
610.343	23327.97
610.7	23796.66
611.057	23862.88
611.414	24111.68
611.771	24266.93
612.127	24366.82
612.484	24602.06
612.841	24922.28
613.198	24977.42
613.554	25155.5
613.911	25297.64
614.267	25594.58
614.624	25639.1
614.98	25881.13
615.337	26075.7
615.693	26074.79
616.05	26243.6
616.406	26511.17
616.762	26549.58
617.118	26771.73
617.475	26834.55
617.831	26973.08
618.187	27161.32
618.543	27301.43
618.899	27535.55
619.255	27497.58
619.611	27662.32
619.967	27874.07
620.323	28071.58
620.678	28195.87
621.034	28009.66
621.39	28149.99
621.746	28211.01
622.101	28583.88
622.457	28439.03
622.812	28665.91
623.168	28846.02
623.523	28825.46
623.879	28874.72
624.234	28913.82
624.589	29131.21
624.945	29153.36
625.3	29398.32
625.655	29271.55
626.01	29289.63
626.365	29558.09
626.72	29437.19
627.075	29440.58
627.43	29573.69
627.785	29509.73
628.14	29669.73
628.495	29767.13
628.85	29840.57
629.205	29687.58
629.559	29981.81
629.914	30013.45
630.269	30056.38
630.623	29862.94
630.978	29899.33
631.332	30182.71
631.687	30202.6
632.041	30027.23
632.396	30273.33
632.75	30217.28
633.104	30120.34
633.459	30113.33
633.813	30261.58
634.167	30189.71
634.521	30239.43
634.875	30256.38
635.229	30161.24
635.583	30241.69
635.937	30225.19
636.291	30219.32
636.645	30283.05
636.999	30133.22
637.352	30234.23
637.706	30174.8
638.06	30285.31
638.413	30176.38
638.767	30190.62
639.121	30362.82
639.474	30252.99
639.828	30193.1
640.181	30288.24
640.534	30328.02
640.888	30166.89
641.241	30172.31
641.594	30227.91
641.947	30318.98
642.301	30350.39
642.654	30372.76
643.007	30248.24
643.36	30306.1
643.713	30325.08
644.066	30319.88
644.419	30227.68
644.771	30015.26
645.124	29686
645.477	29747.24
645.83	29603.52
646.182	29557.19
646.535	29433.8
646.888	29652.78
647.24	29525.78
647.593	29636.51
647.945	29540.01
648.298	29568.94
648.65	29478.55
649.002	29476.97
649.355	29449.4
649.707	29565.1
650.059	29610.07
650.411	30022.94
650.763	30109.72
651.115	30382.48
651.467	30273.33
651.819	30217.74
652.171	30171.18
652.523	30287.79
652.875	30268.81
653.227	30156.5
653.578	30184.97
653.93	30363.95
654.282	30176.61
654.633	30048.02
654.985	30085.31
655.337	30116.95
655.688	30178.87
656.039	30225.42
656.391	30045.54
656.742	29981.36
657.094	30101.13
657.445	30114.69
657.796	30170.73
658.147	30032.66
658.498	29983.39
658.849	30040.79
659.2	30008.7
659.551	29978.87
659.902	30121.47
660.253	30037.18
660.604	30208.92
660.955	29986.78
661.306	30101.13
661.656	29971.42
662.007	30129.15
662.358	30102.71
662.708	30109.72
663.059	30074.24
663.409	29928.03
663.76	30172.31
664.11	29983.84
664.461	30177.29
664.811	30139.32
665.161	30018.65
665.511	30017.74
665.862	30007.57
666.212	30138.64
666.562	30283.72
666.912	30069.72
667.262	30109.94
667.612	30140.45
667.962	30130.28
668.312	30050.28
668.662	30251.86
669.011	30158.08
669.361	30194.69
669.711	30085.54
670.06	30114.69
670.41	29966.67
670.76	29969.16
671.109	30115.59
671.459	30013
671.808	29935.03
672.157	30090.28
672.507	29877.18
672.856	29963.96
673.205	29934.58
673.554	30045.99
673.904	29934.35
674.253	30078.53
674.602	30023.39
674.951	29590.41
675.3	29603.29
675.649	29856.39
675.998	29994.24
676.346	29937.07
676.695	30069.49
677.044	29812.32
677.393	29869.5
677.741	29770.06
678.09	29805.54
678.438	29719.22
678.787	29671.99
679.135	29841.25
679.484	29522.61
679.832	29754.7
680.181	29570.52
680.529	29696.85
680.877	29494.14
681.225	29587.7
681.573	29763.51
681.922	29535.27
682.27	29414.82
682.618	29468.15
682.966	29320.13
683.314	29365.33
683.661	29284.43
684.009	29219.34
684.357	29153.36
684.705	29067.94
685.053	29241.49
685.4	29105.45
685.748	28920.82
686.095	28947.71
686.443	28735.06
686.79	28810.54
687.138	28895.96
687.485	28683.99
687.832	28751.79
688.18	28797.21
688.527	28643.54
688.874	28627.95
689.221	28543.2
689.568	28420.5
689.915	28340.72
690.262	28368.29
690.609	28403.32
690.956	28306.37
691.303	28138.24
691.65	28113.61
691.997	28052.6
692.344	27867.29
692.69	27895.31
693.037	27936.89
693.383	27670.91
693.73	27775.54
694.077	27633.85
694.423	27623.23
694.769	27565.15
695.116	27530.12
695.462	27443.35
695.808	27323.35
696.155	27516.79
696.501	27220.53
696.847	27230.02
697.193	27005.17
697.539	27166.97
697.885	26904.6
698.231	26955.22
698.577	26862.12
698.923	26858.95
699.269	26612.18
699.614	26504.84
699.96	26644.5
700.306	26649.24
700.651	26411.51
700.997	26359.31
701.342	26391.62
701.688	26281.57
702.033	26241.8
702.379	26102.14
702.724	26041.12
703.069	26091.52
703.415	25870.05
703.76	25885.65
704.105	25894.91
704.45	25826.89
704.795	25654.47
705.14	25638.87
705.485	25578.54
705.83	25462.61
706.175	25589.61
706.52	25522.49
706.865	25421.25
707.209	25413.8
707.554	25248.38
707.899	25358.43
708.243	25247.47
708.588	25006.35
708.932	25071.88
709.277	25002.96
709.621	25004.54
709.966	24865.11
710.31	24901.49
710.654	24666.7
710.998	24776.52
711.342	24909.63
711.687	24673.7
712.031	24583.99
712.375	24531.56
712.719	24486.36
713.063	24450.66
713.407	24546.02
713.75	24330.21
714.094	24306.25
714.438	24336.31
714.782	24263.77
715.125	24268.06
715.469	24141.74
715.812	24085.24
716.156	24015.41
716.499	24009.76
716.843	24043.21
717.186	23887.28
717.53	23915.08
717.873	23864.46
718.216	23837.34
718.559	23736.78
718.902	23618.36
719.246	23727.51
719.589	23586.72
719.932	23681.86
720.275	23543.56
720.617	23564.58
720.96	23460.63
721.303	23413.85
721.646	23445.49
721.989	23362.55
722.331	23377.01
722.674	23401.19
723.016	23414.3
723.359	23304.25
723.701	23305.15
724.044	23110.8
724.386	23071.48
724.729	23151.71
725.071	23187.41
725.413	23079.85
725.755	23052.28
726.097	22995.33
726.439	22801.89
726.782	22972.05
727.124	22965.72
727.465	22797.37
727.807	22827.42
728.149	22743.81
728.491	22800.08
728.833	22794.88
729.175	22667.2
729.516	22574.32
729.858	22538.39
730.199	22623.13
730.541	22664.04
730.882	22585.17
731.224	22717.37
731.565	22472.4
731.906	22676.01
732.248	22453.87
732.589	22407.77
732.93	22306.53
733.271	22286.42
733.612	22362.35
733.953	22422.46
734.294	22255.91
734.635	22190.83
734.976	22397.15
735.317	22158.97
735.658	22189.7
735.999	22094.33
736.339	22143.15
736.68	22136.14
737.021	22081.91
737.361	21920.1
737.702	22133.88
738.042	21986.54
738.383	22018.63
738.723	21941.34
739.063	21944.73
739.404	21975.02
739.744	21836.71
740.084	21819.99
740.424	21853.21
740.764	21754.23
741.104	21818.41
741.444	21597.4
741.784	21622.26
742.124	21709.49
742.464	21715.14
742.804	21592.43
743.143	21554.91
743.483	21635.14
743.823	21504.97
744.162	21516.04
744.502	21424.3
744.841	21457.74
745.181	21504.97
745.52	21360.79
745.86	21504.52
746.199	21344.98
746.538	21332.09
746.877	21323.51
747.216	21360.12
747.556	21322.83
747.895	21413.45
748.234	21226.79
748.573	21191.99
748.911	21232.89
749.25	21082.38
749.589	21016.4
749.928	21101.14
750.267	21047.13
750.605	21146.56
750.944	20926
751.283	20939.34
751.621	21025.89
751.96	20962.84
752.298	20930.75
752.636	20836.29
752.975	20754.48
753.313	20781.15
753.651	20747.48
753.989	20598.1
754.327	20637.88
754.666	20540.25
755.004	20552.45
755.342	20521.04
755.679	20456.41
756.017	20421.38
756.355	20425.45
756.693	20335.06
757.031	20351.78
757.368	20333.7
757.706	20276.98
758.044	20160.37
758.381	20207.6
758.719	20066.14
759.056	20119.7
759.394	20087.38
759.731	19934.39
760.068	19858.23
760.405	19860.27
760.743	19879.7
761.08	19895.75
761.417	19805.58
761.754	19797.9
762.091	19733.04
762.428	19667.28
762.765	19422.99
763.102	19600.61
763.438	19412.82
763.775	19372.82
764.112	19378.7
764.449	19407.4
764.785	19269.55
765.122	19118.82
765.458	19060.06
765.795	19048.99
766.131	19001.31
766.467	18962.21
766.804	18851.48
767.14	18804.7
767.476	18838.15
767.812	18713.86
768.148	18750.69
768.485	18610.58
768.821	18505.73
769.157	18438.39
769.492	18543.69
769.828	18430.7
770.164	18245.17
770.5	18290.14
770.836	18206.98
771.171	18089.02
771.507	18106.64
771.842	18007.21
772.178	17955.01
772.513	17835.46
772.849	17781
773.184	17858.97
773.519	17788.46
773.855	17723.15
774.19	17621.68
774.525	17616.71
774.86	17616.49
775.195	17535.13
775.53	17423.5
775.865	17447
776.2	17274.35
776.535	17106.44
776.87	17138.53
777.205	17051.3
777.539	17058.76
777.874	17046.33
778.209	16924.75
778.543	16831.42
778.878	16816.73
779.212	16678.43
779.547	16657.87
779.881	16691.54
780.215	16562.5
780.55	16631.65
780.884	16494.48
781.218	16425.33
781.552	16397.76
781.886	16339.91
782.22	16253.58
782.554	16294.03
782.888	16062.18
783.222	15964.78
783.556	15958.45
783.889	15971.33
784.223	15862.41
784.557	15735.41
784.89	15842.52
785.224	15730.21
785.557	15633.04
785.891	15587.39
786.224	15551.23
786.558	15573.83
786.891	15407.05
787.224	15470.33
787.557	15326.38
787.891	15252.03
788.224	15186.95
788.557	15245.47
788.89	15125.7
789.223	15263.78
789.556	15006.61
789.888	15044.8
790.221	15003.67
790.554	14813.62
790.887	14774.53
791.219	14817.24
791.552	14750.12
791.884	14624.93
792.217	14631.03
792.549	14571.59
792.882	14568.88
793.214	14450.92
793.546	14434.87
793.879	14321.43
794.211	14330.92
794.543	14369.34
794.875	14308.1
795.207	14388.32
795.539	14170.93
795.871	14274.43
796.203	14094.77
796.535	13973.42
796.867	13943.81
797.198	13952.63
797.53	14007.54
797.862	13887.54
798.193	13858.17
798.525	13712.86
798.856	13887.77
799.188	13582.02
799.519	13616.82
799.85	13605.07
800.182	13621.34
800.513	13492.75
800.844	13450.27
801.175	13476.03
801.506	13413.21
801.837	13392.19
802.168	13340.44
802.499	13276.94
802.83	13259.76
803.161	13250.05
803.491	13208.92
803.822	13227.67
804.153	13095.47
804.483	13024.97
804.814	12918.3
805.145	13012.77
805.475	12996.27
805.805	12849.83
806.136	12935.93
806.466	12908.59
806.796	12888.93
807.126	12871.3
807.457	12748.14
807.787	12707.24
808.117	12643.06
808.447	12603.28
808.777	12620.23
809.107	12618.65
809.436	12549.73
809.766	12531.87
810.096	12474.7
810.426	12381.14
810.755	12470.41
811.085	12424.08
811.414	12396.96
811.744	12200.81
812.073	12278.77
812.403	12297.98
812.732	12260.69
813.061	12219.57
813.39	12180.92
813.719	12100.47
814.049	12154.03
814.378	12124.88
814.707	11959.46
815.036	12088.72
815.365	12004.2
815.693	11814.6
816.022	11929.86
816.351	11850.99
816.68	11853.93
817.008	11847.6
817.337	11704.78
817.665	11773.25
817.994	11794.49
818.322	11751.1
818.651	11604.67
818.979	11599.02
819.307	11660.94
819.636	11611.45
819.964	11547.04
820.292	11635.4
820.62	11554.05
820.948	11490.09
821.276	11554.05
821.604	11507.95
821.932	11615.51
822.259	11561.5
822.587	11505.69
822.915	11483.31
823.243	11579.58
823.57	11469.98
823.898	11466.37
824.225	11449.64
824.553	11482.41
824.88	11474.27
825.207	11520.83
825.535	11423.65
825.862	11479.02
826.189	11461.17
826.516	11492.35
826.843	11493.48
827.17	11430.21
827.497	11491
827.824	11490.32
828.151	11507.04
828.478	11415.75
828.805	11531.9
829.131	11497.32
829.458	11446.25
829.785	11410.77
830.111	11420.94
830.438	11468.62
830.764	11454.16
831.09	11460.26
831.417	11391.11
831.743	11425.01
832.069	11446.25
832.395	11439.02
832.722	11376.42
833.048	11450.32
833.374	11444.67
833.7	11357.44
834.026	11425.69
834.351	11382.98
834.677	11427.5
835.003	11407.16
835.329	11382.3
835.654	11372.13
835.98	11385.92
836.306	11363.99
836.631	11207.16
836.956	11315.41
837.282	11260.72
837.607	11216.65
837.932	11221.4
838.258	11227.28
838.583	11187.28
838.908	11125.36
839.233	11121.97
839.558	11128.75
839.883	11103.66
840.208	10968.75
840.533	11094.17
840.858	11087.62
841.182	11086.49
841.507	11038.58
841.832	10944.35
842.156	10947.96
842.481	10927.85
842.805	10981.18
843.13	10839.04
843.454	10845.14
843.778	10820.05
844.103	10834.97
844.427	10811.69
844.751	10835.87
845.075	10771.69
845.399	10727.4
845.723	10650.57
846.047	10656.22
846.371	10538.48
846.695	10601.08
847.019	10501.42
847.343	10432.72
847.666	10437.47
847.99	10317.24
848.313	10437.01
848.637	10218.04
848.96	10410.57
849.284	10226.85
849.607	10201.77
849.931	10208.77
850.254	10103.24
850.577	10128.55
850.9	10018.49
851.223	10034.09
851.546	9969.91
851.869	9856.01
852.192	9997.93
852.515	9820.08
852.838	9811.27
853.161	9840.42
853.483	9788.22
853.806	9737.82
854.129	9700.76
854.451	9601.56
854.774	9658.5
855.096	9600.88
855.419	9499.19
855.741	9576.02
856.063	9530.82
856.385	9430.71
856.708	9434.78
857.03	9369.92
857.352	9417.83
857.674	9355.69
857.996	9380.54
858.318	9237.27
858.64	9311.39
858.961	9279.98
859.283	9247.67
859.605	9180.55
859.926	9258.97
860.248	9176.48
860.57	9110.04
860.891	9102.81
861.212	9099.42
861.534	9064.62
861.855	9056.71
862.176	9078.63
862.498	9099.65
862.819	9029.14
863.14	9026.66
863.461	8966.77
863.782	8943.27
864.103	8915.47
864.424	8837.96
864.745	8951.18
865.065	8872.31
865.386	8852.42
865.707	8894.68
866.027	8909.82
866.348	8871.18
866.668	8804.97
866.989	8774.23
867.309	8724.52
867.63	8784.4
867.95	8762.03
868.27	8742.14
868.59	8761.58
868.91	8756.38
869.23	8697.62
869.55	8615.59
869.87	8717.06
870.19	8604.97
870.51	8633.45
870.83	8661.47
871.15	8634.8
871.469	8588.25
871.789	8640.45
872.109	8605.2
872.428	8550.74
872.748	8615.82
873.067	8494.69
873.386	8493.56
873.706	8487.69
874.025	8487.91
874.344	8553.67
874.663	8512.09
874.982	8479.78
875.301	8429.61
875.62	8385.09
875.939	8359.33
876.258	8404.07
876.577	8335.6
876.896	8402.04
877.214	8357.75
877.533	8356.62
877.852	8327.01
878.17	8351.87
878.489	8273.68
878.807	8302.38
879.125	8362.94
879.444	8253.34
879.762	8295.6
880.08	8280.23
880.398	8235.04
880.716	8224.64
881.034	8186
881.352	8128.6
881.67	8133.12
881.988	8193.23
882.306	8153.68
882.624	8128.15
882.941	8101.71
883.259	8104.87
883.577	8030.75
883.894	8012.22
884.212	8053.35
884.529	7986.46
884.846	7988.04
885.164	7974.03
885.481	7964.31
885.798	7915.05
886.115	7837.31
886.432	7909.85
886.75	7867.36
887.067	7811.77
887.383	7818.78
887.7	7812.68
888.017	7754.6
888.334	7831.43
888.651	7688.16
888.967	7756.63
889.284	7708.95
889.6	7764.32
889.917	7555.73
890.233	7628.73
890.55	7603.64
890.866	7608.39
891.182	7555.06
891.498	7477.77
891.815	7454.49
892.131	7479.35
892.447	7485
892.763	7477.09
893.079	7392.57
893.395	7398.45
893.71	7371.33
894.026	7333.82
894.342	7346.47
894.657	7325.91
894.973	7285.91
895.289	7305.57
895.604	7223.54
895.92	7276.87
896.235	7248.17
896.55	7209.98
896.865	7145.35
897.181	7222.18
897.496	7082.98
897.811	7117.78
898.126	7046.14
898.441	7087.95
898.756	7032.81
899.071	7005.24
899.386	6967.95
899.7	7006.82
900.015	6901.51
900.33	6856.99
900.644	6882.98
900.959	6911.46
901.273	6846.83
901.588	6855.64
901.902	6770.44
902.216	6722.76
902.531	6762.08
902.845	6719.37
903.159	6720.73
903.473	6718.47
903.787	6640.73
904.101	6659.03
904.415	6573.84
904.729	6552.14
905.042	6582.2
905.356	6572.48
905.67	6564.35
905.984	6533.84
906.297	6479.15
906.611	6468.76
906.924	6423.11
907.237	6380.62
907.551	6360.51
907.864	6337.46
908.177	6332.71
908.491	6336.33
908.804	6306.27
909.117	6285.26
909.43	6212.27
909.743	6144.92
910.056	6253.17
910.368	6171.82
910.681	6159.39
910.994	6093.17
911.307	6104.25
911.619	6069.44
911.932	6042.78
912.244	5994.87
912.557	5993.06
912.869	5944.25
913.181	5989.67
913.494	5953.52
913.806	5937.92
914.118	5851.15
914.43	5851.82
914.742	5841.88
915.054	5809.11
915.366	5751.94
915.678	5802.79
915.99	5732.28
916.302	5715.33
916.613	5654.54
916.925	5697.03
917.236	5670.13
917.548	5610.7
917.859	5625.16
918.171	5587.42
918.482	5548.78
918.794	5550.36
919.105	5536.13
919.416	5459.74
919.727	5446.64
920.038	5460.42
920.349	5407.99
920.66	5418.16
920.971	5404.38
921.282	5410.03
921.593	5313.08
921.903	5328.22
922.214	5311.95
922.525	5308.11
922.835	5262.23
923.146	5185.85
923.456	5203.03
923.767	5212.52
924.077	5190.82
924.387	5177.27
924.697	5071.51
925.008	5115.8
925.318	5100.88
925.628	5092.97
925.938	5010.26
926.248	5029.92
926.558	4974.56
926.867	5007.1
927.177	4962.36
927.487	4953.99
927.796	4871.74
928.106	4881
928.416	4861.57
928.725	4861.57
929.034	4770.5
929.344	4794.45
929.653	4812.98
929.962	4770.04
930.271	4743.15
930.581	4718.07
930.89	4732.53
931.199	4671.97
931.508	4643.04
931.817	4697.73
932.125	4641.69
932.434	4632.87
932.743	4547
933.051	4539.54
933.36	4549.48
933.669	4510.16
933.977	4504.51
934.286	4504.97
934.594	4489.6
934.902	4450.96
935.21	4478.75
935.519	4402.37
935.827	4443.05
936.135	4447.11
936.443	4322.37
936.751	4325.31
937.059	4346.78
937.367	4310.4
937.674	4309.49
937.982	4305.2
938.29	4247.57
938.597	4230.4
938.905	4203.73
939.213	4225.65
939.52	4178.2
939.827	4165.77
940.135	4189.95
940.442	4072.89
940.749	4124.86
941.056	4101.36
941.363	4076.05
941.67	4070.18
941.977	4051.87
942.284	3989.5
942.591	4003.28
942.898	3988.14
943.205	3982.27
943.511	3954.02
943.818	3951.53
944.125	3939.11
944.431	3946.56
944.738	3889.62
945.044	3885.1
945.35	3864.76
945.657	3814.81
945.963	3810.3
946.269	3818.43
946.575	3800.13
946.881	3777.08
947.187	3795.61
947.493	3751.09
947.799	3699.34
948.105	3688.49
948.41	3675.84
948.716	3679.23
949.022	3656.18
949.327	3692.11
949.633	3661.37
949.938	3631.09
950.244	3642.84
950.549	3580.02
950.854	3582.05
951.16	3575.73
951.465	3553.35
951.77	3515.16
952.075	3549.74
952.38	3517.87
952.685	3510.19
952.99	3450.98
953.294	3460.93
953.599	3433.36
953.904	3430.19
954.209	3382.74
954.513	3381.61
954.818	3412.79
955.122	3408.95
955.426	3368.72
955.731	3398.55
956.035	3294.38
956.339	3288.73
956.643	3308.16
956.948	3300.25
957.252	3266.35
957.556	3305.45
957.86	3256.19
958.163	3238.33
958.467	3217.54
958.771	3212.34
959.075	3205.57
959.378	3203.98
959.682	3181.61
959.985	3118.56
960.289	3145.23
960.592	3119.92
960.896	3075.63
961.199	3104.33
961.502	3078.56
961.805	3076.53
962.108	3027.49
962.411	3042.86
962.714	3029.3
963.017	3039.02
963.32	2986.59
963.623	2978.9
963.926	3003.54
964.228	2945.01
964.531	2948.85
964.833	2949.98
965.136	2942.97
965.438	2940.49
965.741	2915.4
966.043	2899.36
966.345	2878.12
966.648	2839.02
966.95	2853.26
967.252	2839.02
967.554	2826.59
967.856	2788.4
968.158	2786.14
968.46	2806.25
968.761	2777.33
969.063	2757.89
969.365	2766.71
969.666	2726.48
969.968	2709.76
970.269	2716.09
970.571	2735.97
970.872	2700.49
971.174	2710.21
971.475	2669.08
971.776	2658.69
972.077	2641.06
972.378	2645.58
972.679	2631.57
972.98	2654.85
973.281	2636.77
973.582	2581.18
973.883	2588.18
974.183	2581.4
974.484	2576.43
974.785	2530.55
975.085	2550.44
975.386	2531.23
975.686	2518.58
975.986	2541.18
976.287	2520.39
976.587	2476.55
976.887	2479.03
977.187	2489.88
977.487	2462.53
977.787	2425.7
978.087	2443.33
978.387	2434.96
978.687	2432.03
978.987	2413.95
979.286	2400.39
979.586	2375.76
979.885	2379.82
980.185	2375.3
980.484	2346.83
980.784	2338.24
981.083	2336.89
981.382	2350.45
981.682	2309.77
981.981	2306.38
982.28	2289.43
982.579	2309.32
982.878	2259.38
983.177	2301.41
983.475	2266.83
983.774	2251.01
984.073	2246.27
984.372	2225.03
984.67	2281.97
984.969	2203.78
985.267	2191.13
985.566	2196.55
985.864	2182.77
986.162	2181.86
986.461	2163.78
986.759	2129.44
987.057	2117.91
987.355	2123.79
987.653	2119.72
987.951	2109.32
988.249	2100.28
988.547	2064.8
988.844	2086.27
989.142	2079.95
989.44	2049.66
989.737	2050.79
990.035	2045.6
990.332	2033.62
990.63	2039.72
990.927	1994.3
991.224	2010.57
991.521	2016.22
991.819	2007.63
992.116	1979.61
992.413	1981.64
992.71	1990.23
993.006	1938.71
993.303	1941.64
993.6	1946.84
993.897	1894.41
994.193	1909.33
994.49	1959.72
994.787	1933.06
995.083	1892.61
995.379	1905.03
995.676	1876.56
995.972	1871.36
996.268	1881.76
996.565	1843.12
996.861	1855.54
997.157	1837.92
997.453	1846.96
997.749	1800.63
998.044	1802.89
998.34	1814.87
998.636	1791.82
998.932	1772.83
999.227	1743.01
999.523	1761.08
999.818	1777.81
1000.114	1736.45
1000.409	1746.85
1000.704	1738.49
1001	1724.93
1001.295	1723.57
1001.59	1729.67
1001.885	1727.86
1002.18	1704.36
1002.475	1688.54
1002.77	1675.66
1003.065	1674.53
1003.359	1665.94
1003.654	1660.07
1003.949	1649.45
1004.243	1650.35
1004.538	1622.78
1004.832	1614.87
1005.127	1624.14
1005.421	1614.65
1005.715	1583.69
1006.009	1603.57
1006.304	1566.51
1006.598	1566.29
1006.892	1569.45
1007.186	1559.28
1007.48	1513.86
1007.773	1537.36
1008.067	1538.26
1008.361	1487.64
1008.655	1523.8
1008.948	1502.79
1009.242	1502.11
1009.535	1484.71
1009.829	1466.18
1010.122	1477.7
1010.415	1496.68
1010.708	1466.4
1011.001	1453.75
1011.295	1424.82
1011.588	1422.79
1011.881	1425.5
1012.173	1397.48
1012.466	1400.87
1012.759	1382.34
1013.052	1391.83
1013.344	1379.62
1013.637	1367.65
1013.93	1371.72
1014.222	1370.36
1014.514	1341.21
1014.807	1357.7
1015.099	1335.56
1015.391	1327.65
1015.683	1303.02
1015.976	1313.64
1016.268	1323.36
1016.56	1310.7
1016.851	1303.69
1017.143	1316.8
1017.435	1242
1017.727	1258.27
1018.018	1287.42
1018.31	1268.44
1018.602	1233.19
1018.893	1219.18
1019.185	1218.73
1019.476	1242.23
1019.767	1221.21
1020.058	1233.19
1020.35	1196.58
1020.641	1214.21
1020.932	1203.36
1021.223	1191.38
1021.514	1182.34
1021.804	1165.62
1022.095	1147.99
1022.386	1150.93
1022.677	1118.84
1022.967	1140.31
1023.258	1124.94
1023.548	1118.39
1023.839	1107.77
1024.129	1125.62
1024.419	1103.25
1024.709	1102.57
1025	1094.89
1025.29	1075.68
1025.58	1083.81
1025.87	1062.12
1026.16	1084.04
1026.449	1036.81
1026.739	1044.94
1027.029	1039.29
1027.319	1002.46
1027.608	1038.84
1027.898	1021.22
1028.187	1037.49
1028.477	1007.88
1028.766	994.1
1029.055	1011.72
1029.344	996.13
1029.634	963.36
1029.923	991.16
1030.212	970.37
1030.501	985.06
1030.79	958.39
1031.078	948.9
1031.367	964.95
1031.656	961.78
1031.945	960.2
1032.233	920.43
1032.522	937.6
1032.81	931.95
1033.099	927.89
1033.387	914.33
1033.675	903.48
1033.963	900.09
1034.251	909.35
1034.54	900.54
1034.828	866.19
1035.116	889.47
1035.403	864.16
1035.691	881.78
1035.979	876.81
1036.267	857.15
1036.554	851.05
1036.842	829.81
1037.129	859.86
1037.417	841.79
1037.704	841.33
1037.992	837.72
1038.279	828.9
1038.566	814.22
1038.853	814.22
1039.14	814.22
