Data from red_cardboard_box_FLMS001491_00082.txt Node
Date: Wed Feb 08 11:33:16 GMT 2017
User: dcchb
Spectrometer: FLMS00149
Trigger mode: 0
Integration Time (sec): 2.000000E-2
Scans to average: 10
Electric dark correction enabled: true
Nonlinearity correction enabled: false
Boxcar width: 0
XAxis mode: Wavelengths
Number of Pixels in Spectrum: 2048
>>>>>Begin Spectral Data<<<<<
341.393	-18.94
341.776	-18.94
342.16	-18.94
342.543	-77.47
342.927	-76.11
343.31	-67.75
343.693	-52.84
344.077	-52.61
344.46	-64.36
344.843	-42.44
345.226	-33.63
345.61	-30.47
345.993	-38.6
346.376	-25.72
346.759	15.64
347.142	28.97
347.525	40.72
347.908	55.86
348.291	77.1
348.674	90.21
349.057	99.93
349.44	112.36
349.823	129.53
350.206	162.75
350.588	190.55
350.971	226.25
351.354	243.65
351.737	250.21
352.119	269.19
352.502	260.83
352.884	274.61
353.267	303.76
353.65	292.46
354.032	294.27
354.414	328.4
354.797	313.03
355.179	339.92
355.562	352.8
355.944	341.28
356.326	331.33
356.709	352.35
357.091	344.67
357.473	350.99
357.855	346.7
358.238	337.66
358.62	355.29
359.002	343.99
359.384	346.25
359.766	350.77
360.148	337.66
360.53	329.07
360.912	327.72
361.294	354.84
361.676	350.09
362.057	326.36
362.439	345.57
362.821	336.98
363.203	332.91
363.584	323.65
363.966	321.84
364.348	356.87
364.729	339.92
365.111	321.39
365.493	340.15
365.874	348.73
366.256	327.49
366.637	316.19
367.019	320.26
367.4	334.95
367.781	317.77
368.163	323.2
368.544	326.36
368.925	310.54
369.306	342.18
369.688	320.49
370.069	307.6
370.45	312.35
370.831	303.09
371.212	308.28
371.593	310.32
371.974	320.71
372.355	314.38
372.736	316.87
373.117	318.68
373.498	314.61
373.879	326.81
374.26	320.26
374.641	314.38
375.021	328.17
375.402	337.21
375.783	324.78
376.163	337.89
376.544	336.53
376.925	328.17
377.305	333.59
377.686	352.58
378.066	323.65
378.447	337.43
378.827	323.2
379.208	325.68
379.588	352.35
379.968	345.12
380.349	335.85
380.729	317.1
381.109	332.91
381.489	350.54
381.87	349.64
382.25	339.92
382.63	334.72
383.01	314.38
383.39	356.19
383.77	336.53
384.15	349.41
384.53	343.76
384.91	346.02
385.29	339.24
385.67	350.09
386.049	341.5
386.429	315.51
386.809	359.58
387.189	336.3
387.568	347.83
387.948	356.64
388.328	347.83
388.707	352.35
389.087	356.64
389.466	354.84
389.846	352.8
390.225	370.2
390.605	352.35
390.984	361.61
391.363	352.58
391.743	342.63
392.122	353.93
392.501	355.06
392.881	331.56
393.26	358
393.639	410.65
394.018	372.91
394.397	367.04
394.776	363.2
395.155	363.87
395.534	374.5
395.913	378.56
396.292	368.62
396.671	378.11
397.05	368.39
397.429	376.53
397.808	366.81
398.186	377.43
398.565	391.44
398.944	371.78
399.323	371.33
399.701	392.8
400.08	380.82
400.458	386.47
400.837	399.81
401.215	378.56
401.594	398.68
401.972	405
402.351	383.99
402.729	390.99
403.107	394.61
403.486	395.96
403.864	396.64
404.242	385.12
404.62	371.33
404.999	403.65
405.377	404.78
405.755	398
406.133	396.42
406.511	420.37
406.889	409.98
407.267	399.13
407.645	416.08
408.023	410.43
408.401	400.48
408.779	409.3
409.156	416.08
409.534	419.01
409.912	414.49
410.29	417.88
410.667	437.54
411.045	432.12
411.422	427.6
411.8	427.83
412.178	428.73
412.555	451.1
412.933	446.36
413.31	439.58
413.687	414.27
414.065	419.92
414.442	452.01
414.819	423.31
415.197	447.71
415.574	432.12
415.951	441.84
416.328	465.11
416.705	469.18
417.082	452.91
417.46	460.37
417.837	460.14
418.214	458.56
418.591	467.83
418.967	466.02
419.344	490.42
419.721	477.09
420.098	481.16
420.475	492.46
420.852	487.71
421.228	479.58
421.605	498.56
421.982	485.23
422.358	495.62
422.735	510.09
423.111	483.65
423.488	506.02
423.864	493.59
424.241	502.18
424.617	501.95
424.994	493.59
425.37	506.47
425.746	520.03
426.123	511.67
426.499	498.33
426.875	527.71
427.251	504.44
427.627	513.7
428.003	543.08
428.379	507.83
428.756	525.9
429.132	512.35
429.507	537.66
429.883	545.34
430.259	540.37
430.635	545.34
431.011	549.86
431.387	548.95
431.763	550.54
432.138	561.61
432.514	550.08
432.89	580.37
433.265	569.52
433.641	564.32
434.016	585.79
434.392	581.27
434.767	600.25
435.143	571.33
435.518	605.68
435.894	603.42
436.269	607.03
436.644	610.42
437.02	613.81
437.395	607.03
437.77	624.21
438.145	620.59
438.52	624.21
438.895	636.41
439.271	629.18
439.646	643.64
440.021	628.95
440.395	624.21
440.77	630.76
441.145	630.53
441.52	662.4
441.895	652.45
442.27	643.64
442.645	677.54
443.019	651.1
443.394	627.82
443.769	670.76
444.143	675.73
444.518	663.98
444.892	660.59
445.267	659.91
445.641	676.63
446.016	693.58
446.39	681.61
446.764	665.34
447.139	692.45
447.513	709.18
447.887	687.03
448.262	673.7
448.636	675.28
449.01	680.93
449.384	699.46
449.758	704.43
450.132	719.12
450.506	729.51
450.88	730.64
451.254	725.45
451.628	713.7
452.002	707.37
452.376	711.21
452.75	728.16
453.123	722.06
453.497	726.35
453.871	735.39
454.244	741.27
454.618	753.92
454.992	753.47
455.365	772.23
455.739	772
456.112	786.91
456.486	769.51
456.859	780.13
457.232	817.87
457.606	794.6
457.979	812
458.352	808.83
458.725	825.56
459.099	819
459.472	849.29
459.845	819.91
460.218	827.82
460.591	851.32
460.964	848.83
461.337	876.18
461.71	846.35
462.083	877.31
462.456	894.26
462.829	871.88
463.201	867.82
463.574	889.74
463.947	875.5
464.32	888.15
464.692	895.84
465.065	918.89
465.438	924.09
465.81	920.92
466.183	947.14
466.555	981.26
466.928	932.22
467.3	960.24
467.672	945.78
468.045	986.01
468.417	1000.02
468.789	984.2
469.161	1002.95
469.534	998.89
469.906	1018.32
470.278	1044.53
470.65	1014.25
471.022	1047.92
471.394	1075.72
471.766	1090.64
472.138	1064.42
472.51	1106.91
472.882	1108.94
473.253	1125.44
473.625	1117.98
473.997	1151.42
474.369	1132.89
474.74	1149.62
475.112	1161.14
475.484	1184.64
475.855	1179.9
476.227	1201.82
476.598	1216.73
476.97	1218.99
477.341	1252.66
477.713	1281.59
478.084	1273.46
478.455	1295.38
478.827	1342.83
479.198	1327.69
479.569	1345.09
479.94	1378.54
480.311	1412.21
480.682	1378.09
481.053	1447.01
481.424	1444.07
481.795	1463.28
482.166	1436.84
482.537	1522.49
482.908	1525.43
483.279	1519.32
483.65	1524.75
484.021	1578.31
484.391	1578.31
484.762	1593.67
485.133	1594.35
485.503	1649.49
485.874	1629.15
486.244	1654.46
486.615	1701.92
486.985	1681.13
487.356	1709.38
487.726	1755.02
488.097	1752.31
488.467	1798.87
488.837	1852.2
489.207	1818.07
489.578	1865.08
489.948	1847.9
490.318	1870.95
490.688	1912.99
491.058	1926.55
491.428	1950.05
491.798	1926.77
492.168	1982.82
492.538	2001.12
492.908	2038.18
493.278	2045.86
493.648	2044.06
494.017	2091.51
494.387	2094.9
494.757	2103.49
495.126	2102.13
495.496	2136.26
495.866	2163.38
496.235	2193.66
496.605	2168.57
496.974	2210.15
497.344	2245.63
497.713	2203.6
498.082	2248.34
498.452	2258.97
498.821	2278.85
499.19	2274.78
499.559	2321.79
499.928	2312.52
500.298	2334.22
500.667	2370.6
501.036	2364.5
501.405	2375.35
501.774	2382.8
502.143	2385.06
502.512	2435.01
502.88	2434.1
503.249	2459.41
503.618	2488.79
503.987	2484.27
504.356	2496.02
504.724	2535.79
505.093	2544.83
505.462	2518.85
505.83	2544.38
506.199	2575.57
506.567	2607.21
506.936	2591.84
507.304	2611.27
507.672	2646.75
508.041	2677.26
508.409	2683.14
508.777	2729.91
509.145	2742.57
509.514	2719.07
509.882	2703.25
510.25	2745.05
510.618	2800.42
510.986	2807.43
511.354	2838.16
511.722	2853.3
512.09	2882.68
512.458	2893.98
512.826	2878.61
513.193	2914.32
513.561	2924.94
513.929	2943.69
514.297	2956.35
514.664	3017.14
515.032	3039.06
515.4	3056.23
515.767	3062.79
516.135	3077.48
516.502	3042.22
516.869	3107.76
517.237	3154.99
517.604	3144.14
517.972	3204.03
518.339	3205.16
518.706	3218.04
519.073	3234.99
519.44	3237.02
519.808	3298.03
520.175	3284.25
520.542	3339.84
520.909	3358.15
521.276	3360.86
521.643	3418.03
522.009	3398.37
522.376	3464.81
522.743	3475.21
523.11	3495.54
523.477	3554.3
523.843	3562.89
524.21	3608.99
524.577	3584.13
524.943	3708.65
525.31	3696.89
525.676	3672.04
526.043	3745.48
526.409	3777.12
526.776	3743.45
527.142	3774.63
527.508	3784.12
527.874	3869.77
528.241	3874.74
528.607	3895.76
528.973	3945.25
529.339	3964.01
529.705	3954.74
530.071	4014.85
530.437	4055.98
530.803	4018.69
531.169	4070.9
531.535	4116.09
531.901	4078.13
532.267	4141.4
532.632	4163.1
532.998	4185.47
533.364	4227.5
533.73	4215.75
534.095	4288.97
534.461	4287.61
534.826	4325.8
535.192	4330.55
535.557	4380.72
535.923	4380.27
536.288	4408.29
536.653	4454.16
537.019	4404.9
537.384	4462.98
537.749	4466.14
538.114	4488.51
538.479	4502.75
538.845	4521.28
539.21	4510.66
539.575	4562.63
539.94	4573.71
540.305	4641.28
540.67	4607.83
541.034	4638.79
541.399	4646.02
541.764	4685.79
542.129	4704.1
542.494	4722.18
542.858	4795.17
543.223	4774.61
543.587	4798.11
543.952	4808.28
544.316	4811.22
544.681	4833.14
545.045	4843.98
545.41	4866.36
545.774	4885.56
546.138	4939.57
546.503	4968.5
546.867	4946.8
547.231	5031.32
547.595	5025.67
547.959	5057.99
548.324	5114.48
548.688	5112.22
549.052	5085.56
549.416	5146.8
549.779	5216.4
550.143	5244.88
550.507	5256.18
550.871	5280.36
551.235	5278.1
551.599	5306.57
551.962	5364.87
552.326	5401.48
552.689	5445.55
553.053	5435.83
553.417	5481.93
553.78	5526.68
554.143	5519.67
554.507	5561.48
554.87	5626.34
555.234	5674.02
555.597	5611.42
555.96	5719.21
556.323	5749.04
556.686	5741.59
557.05	5830.85
557.413	5829.72
557.776	5879.44
558.139	5950.85
558.502	5988.59
558.865	5985.65
559.228	6099.54
559.59	6079.66
559.953	6187.45
560.316	6240.33
560.679	6272.19
561.041	6347.45
561.404	6362.81
561.767	6431.74
562.129	6419.08
562.492	6513.77
562.854	6522.58
563.217	6598.06
563.579	6645.97
563.941	6702.01
564.304	6764.61
564.666	6838.73
565.028	6897.04
565.39	6906.3
565.753	7016.36
566.115	7079.86
566.477	7104.26
566.839	7201.21
567.201	7252.73
567.563	7286.4
567.925	7327.99
568.287	7436.46
568.648	7516.68
569.01	7621.54
569.372	7697.92
569.734	7723.23
570.095	7759.61
570.457	7896.33
570.819	7919.38
571.18	8060.85
571.542	8091.36
571.903	8190.11
572.265	8207.96
572.626	8304.68
572.987	8425.36
573.349	8475.53
573.71	8580.16
574.071	8687.05
574.432	8699.47
574.794	8903.76
575.155	8887.72
575.516	8990.54
575.877	9101.05
576.238	9190.54
576.599	9258.78
576.96	9398.89
577.32	9456.29
577.681	9604.76
578.042	9746
578.403	9811.76
578.763	9858.77
579.124	10058.76
579.485	10116.61
579.845	10376.27
580.206	10423.05
580.566	10503.27
580.927	10677.05
581.287	10864.84
581.648	10954.56
582.008	11178.05
582.368	11176.02
582.728	11459.63
583.089	11503.92
583.449	11720.86
583.809	11813.29
584.169	12081.08
584.529	12199.72
584.889	12525.36
585.249	12518.58
585.609	12788.63
585.969	13058.23
586.329	13179.13
586.688	13446.92
587.048	13583.87
587.408	13925.78
587.768	14067.92
588.127	14352.66
588.487	14604.18
588.846	14973.89
589.206	14995.58
589.565	15258.17
589.925	15659.07
590.284	15824.49
590.643	16177.92
591.003	16453.85
591.362	16786.72
591.721	17034.85
592.08	17282.3
592.44	17695.62
592.799	17979.91
593.158	18285.21
593.517	18521.59
593.876	18923.84
594.235	19280.67
594.593	19656.7
594.952	20098.04
595.311	20240.41
595.67	20709.1
596.029	21191.35
596.387	21484.22
596.746	21837.89
597.104	22131.21
597.463	22549.96
597.822	22912.43
598.18	23219.77
598.538	23620.66
598.897	24124.83
599.255	24280.53
599.613	24960.29
599.972	25081.42
600.33	25541.97
600.688	25807.27
601.046	26270.54
601.404	26743.97
601.762	27113.68
602.12	27580.11
602.478	27839.99
602.836	28308
603.194	28429.35
603.552	28838.83
603.91	29063.68
604.268	29616.44
604.625	29840.39
604.983	30269.3
605.341	30534.38
605.698	31050.3
606.056	31269.95
606.413	31629.95
606.771	32087.11
607.128	32324.16
607.485	32543.37
607.843	32927.76
608.2	33328.88
608.557	33699.5
608.914	33852.26
609.272	34319.37
609.629	34671
609.986	35048.84
610.343	34965
610.7	35601.59
611.057	35666.45
611.414	35873
611.771	36170.39
612.127	36591.4
612.484	36675.69
612.841	37123.36
613.198	37164.26
613.554	37421.88
613.911	37627.98
614.267	37896.9
614.624	38022.09
614.98	38323.78
615.337	38639.93
615.693	38733.49
616.05	38890.77
616.406	39205.79
616.762	39318.56
617.118	39553.13
617.475	39631.32
617.831	39899.78
618.187	40186.33
618.543	40299.55
618.899	40680.78
619.255	40713.1
619.611	40746.32
619.967	41050.04
620.323	41321.44
620.678	41188.34
621.034	41332.51
621.39	41422.23
621.746	41492.96
622.101	42103.79
622.457	41798.72
622.812	42035.77
623.168	42223.11
623.523	42151.7
623.879	42459.26
624.234	42216.33
624.589	42527.51
624.945	42486.38
625.3	42790.1
625.655	42841.85
626.01	43001.4
626.365	42941.51
626.72	43107.61
627.075	43136.31
627.43	43189.64
627.785	43103.09
628.14	43279.36
628.495	43441.16
628.85	43343.54
629.205	43327.26
629.559	43699.23
629.914	43518.67
630.269	43798.21
630.623	43677.99
630.978	43605.68
631.332	43831.21
631.687	43874.59
632.041	43791.43
632.396	44019
632.75	43738.1
633.104	43838.21
633.459	43735.62
633.813	43872.11
634.167	43931.99
634.521	43923.41
634.875	43962.95
635.229	43864.2
635.583	43729.51
635.937	43693.58
636.291	43693.58
636.645	43932.9
636.999	43751.66
637.352	44018.32
637.706	43727.48
638.06	43818.1
638.413	43708.72
638.767	43888.83
639.121	43896.29
639.474	43752.56
639.828	43952.78
640.181	43920.02
640.534	43988.04
640.888	43807.03
641.241	43720.02
641.594	43812.45
641.947	43896.97
642.301	43740.14
642.654	43964.99
643.007	43942.84
643.36	43873.69
643.713	43866.46
644.066	44001.37
644.419	43723.64
644.771	43561.16
645.124	43052.7
645.477	42955.98
645.83	42771.8
646.182	42754.62
646.535	42587.85
646.888	42813.83
647.24	42732.03
647.593	43007.5
647.945	42741.29
648.298	42570.22
648.65	42681.63
649.002	42552.37
649.355	42682.99
649.707	42567.51
650.059	42805.47
650.411	43242.52
650.763	43301.28
651.115	43685.45
651.467	43606.58
651.819	43496.98
652.171	43487.26
652.523	43535.85
652.875	43446.58
653.227	43364.55
653.578	43580.59
653.93	43590.99
654.282	43399.81
654.633	43314.16
654.985	43395.06
655.337	43526.36
655.688	43377.21
656.039	43656.3
656.391	43183.99
656.742	43348.96
657.094	43348.73
657.445	43519.12
657.796	43398.22
658.147	43244.56
658.498	43242.52
658.849	43367.94
659.2	43313.93
659.551	43171.79
659.902	43232.58
660.253	43235.74
660.604	43391.22
660.955	43206.82
661.306	43362.97
661.656	43157.1
662.007	43421.73
662.358	43352.8
662.708	43322.52
663.059	43248.62
663.409	43009.31
663.76	43409.07
664.11	43442.74
664.461	43443.19
664.811	43373.59
665.161	43307.15
665.511	43226.93
665.862	43374.04
666.212	43409.97
666.562	43294.72
666.912	43224.89
667.262	43236.65
667.612	43201.84
667.962	43326.36
668.312	43164.33
668.662	43440.26
669.011	43419.69
669.361	43254.05
669.711	43195.06
670.06	43308.96
670.41	42989.65
670.76	43010.44
671.109	43242.75
671.459	43093.37
671.808	43106.93
672.157	43177.21
672.507	42890.89
672.856	42864.45
673.205	43050.89
673.554	43001.85
673.904	42938.8
674.253	43242.3
674.602	43000.95
674.951	42384.69
675.3	42288.87
675.649	42959.14
675.998	42895.64
676.346	42773.83
676.695	43033.26
677.044	42549.66
677.393	42735.42
677.741	42850.44
678.09	42704.91
678.438	42675.3
678.787	42729.99
679.135	42850.67
679.484	42532.03
679.832	42628.98
680.181	42482.54
680.529	42563.67
680.877	42470.11
681.225	42300.63
681.573	42577.68
681.922	42235.99
682.27	42290.91
682.618	42285.03
682.966	42058.82
683.314	42178.59
683.661	42063.8
684.009	41836.68
684.357	41716.46
684.705	41697.7
685.053	41662.22
685.4	41760.53
685.748	41568.44
686.095	41446.64
686.443	41320.76
686.79	41356.47
687.138	41500.87
687.485	41351.5
687.832	41252.52
688.18	41295.68
688.527	41132.75
688.874	41150.37
689.221	40878.52
689.568	40828.8
689.915	40843.04
690.262	40749.03
690.609	40634
690.956	40634.68
691.303	40404.63
691.65	40280.34
691.997	40357.63
692.344	40188.82
692.69	40168.03
693.037	40072.89
693.383	39867.02
693.73	40009.39
694.077	39782.05
694.423	39829.5
694.769	39645.55
695.116	39633.35
695.462	39542.96
695.808	39430.87
696.155	39448.95
696.501	39063.42
696.847	39072.46
697.193	38890.55
697.539	38950.43
697.885	38697.1
698.231	38580.72
698.577	38774.16
698.923	38589.76
699.269	38390.67
699.614	38162.65
699.96	38300.73
700.306	38186.38
700.651	38039.72
700.997	37840.86
701.342	37808.31
701.688	37812.16
702.033	37634.76
702.379	37622.1
702.724	37534.42
703.069	37643.35
703.415	37165.17
703.76	37247.88
704.105	37238.39
704.45	37192.74
704.795	37112.96
705.14	36849.69
705.485	36894.21
705.83	36755.91
706.175	36815.35
706.52	36532.64
706.865	36586.88
707.209	36413.1
707.554	36361.35
707.899	36494
708.243	36249.03
708.588	36025.08
708.932	35984.41
709.277	35960
709.621	35986.44
709.966	35688.6
710.31	35764.75
710.654	35390.75
710.998	35615.83
711.342	35497.87
711.687	35457.64
712.031	35216.74
712.375	35186.24
712.719	35247.93
713.063	35183.07
713.407	35272.79
713.75	35099.68
714.094	35022.85
714.438	34851.1
714.782	35000.7
715.125	34680.26
715.469	34803.42
715.812	34571.79
716.156	34516.2
716.499	34531.34
716.843	34555.29
717.186	34380.83
717.53	34563.43
717.873	34487.27
718.216	34241.4
718.559	34245.92
718.902	34015.19
719.246	34059.26
719.589	33943.56
719.932	33879.15
720.275	33834.63
720.617	33745.37
720.96	33806.39
721.303	33693.62
721.646	33706.5
721.989	33525.04
722.331	33699.5
722.674	33604.13
723.016	33658.59
723.359	33483.46
723.701	33478.03
724.044	33352.39
724.386	33306.51
724.729	33273.52
725.071	33351.03
725.413	33247.3
725.755	33230.58
726.097	33051.6
726.439	32883.47
726.782	32911.27
727.124	33085.27
727.465	32854.77
727.807	32811.83
728.149	32798.95
728.491	32669.01
728.833	32734.55
729.175	32579.98
729.516	32337.05
729.858	32567.77
730.199	32562.58
730.541	32473.99
730.882	32387.44
731.224	32513.99
731.565	32199.2
731.906	32176.15
732.248	32285.97
732.589	32112.19
732.93	32080.55
733.271	31925.08
733.612	32060.89
733.953	31893.89
734.294	31937.06
734.635	31887.79
734.976	31959.2
735.317	31840.56
735.658	31795.14
735.999	31708.59
736.339	31667.91
736.68	31857.51
737.021	31718.3
737.361	31609.15
737.702	31658.64
738.042	31445.09
738.383	31511.53
738.723	31398.31
739.063	31446.9
739.404	31430.4
739.744	31340.01
740.084	31233.8
740.424	31286.23
740.764	31325.55
741.104	31264.08
741.444	31190.63
741.784	31054.82
742.124	31204.19
742.464	31015.5
742.804	30956.74
743.143	31043.29
743.483	30966.23
743.823	30745.45
744.162	30688.95
744.502	30780.48
744.841	30639.24
745.181	30851.21
745.52	30574.38
745.86	30744.09
746.199	30575.96
746.538	30557.88
746.877	30712.68
747.216	30531.67
747.556	30450.54
747.895	30432.69
748.234	30343.65
748.573	30222.52
748.911	30268.85
749.25	30287.61
749.589	30263.43
749.928	30097.56
750.267	30142.07
750.605	30143.88
750.944	30010.1
751.283	29890.56
751.621	30062.98
751.96	29837
752.298	29874.51
752.636	29886.71
752.975	29634.07
753.313	29578.02
753.651	29692.37
753.989	29507.74
754.327	29573.73
754.666	29450.12
755.004	29469.32
755.342	29435.88
755.679	29366.5
756.017	29194.08
756.355	29290.8
756.693	29125.15
757.031	29180.97
757.368	28985.49
757.706	28959.28
758.044	28835.22
758.381	28876.8
758.719	28741.21
759.056	28857.14
759.394	28710.7
759.731	28546.41
760.068	28549.35
760.405	28390.26
760.743	28391.61
761.08	28476.13
761.417	28227.32
761.754	28158.62
762.091	28233.42
762.428	28031.85
762.765	27837.05
763.102	27957.73
763.438	27716.83
763.775	27688.81
764.112	27666.66
764.449	27674.79
764.785	27528.13
765.122	27415.82
765.458	27385.09
765.795	27153.45
766.131	27217.18
766.467	27090.18
766.804	27042.72
767.14	26829.62
767.476	26837.75
767.812	26681.83
768.148	26795.5
768.485	26624.88
768.821	26434.38
769.157	26492.23
769.492	26454.49
769.828	26398.22
770.164	26216.98
770.5	26082.07
770.836	26096.98
771.171	25965.01
771.507	25842.07
771.842	25594.4
772.178	25578.35
772.513	25682.53
772.849	25604.34
773.184	25510.33
773.519	25467.17
773.855	25360.05
774.19	25230.11
774.525	25100.17
774.86	25164.8
775.195	25070.8
775.53	24934.3
775.865	24878.94
776.2	24676.23
776.535	24528.66
776.87	24513.75
777.205	24411.6
777.539	24313.98
777.874	24431.04
778.209	24194.89
778.543	24026.3
778.878	23991.73
779.212	23929.81
779.547	23844.16
779.881	23868.79
780.215	23694.33
780.55	23792.19
780.884	23511.97
781.218	23566.65
781.552	23355.36
781.886	23354.91
782.22	23270.84
782.554	23183.84
782.888	22903.39
783.222	22966.44
783.556	22834.24
783.889	22719.67
784.223	22543.63
784.557	22418.66
784.89	22647.13
785.224	22424.76
785.557	22422.73
785.891	22221.6
786.224	22235.39
786.558	22202.17
786.891	22016.19
787.224	21930.31
787.557	21895.51
787.891	21892.8
788.224	21815.29
788.557	21834.72
788.89	21738.45
789.223	21743.43
789.556	21412.59
789.888	21573.49
790.221	21424.56
790.554	21241.74
790.887	21206.04
791.219	21136.44
791.552	21063.22
791.884	20983.22
792.217	20901.87
792.549	20920.17
792.882	20667.97
793.214	20672.72
793.546	20650.35
793.879	20511.14
794.211	20433.18
794.543	20454.19
794.875	20338.72
795.207	20399.51
795.539	20370.81
795.871	20197.25
796.203	20064.83
796.535	19986.41
796.867	19937.6
797.198	19856.24
797.53	19858.73
797.862	19741.44
798.193	19860.76
798.525	19688.79
798.856	19758.17
799.188	19432.3
799.519	19428.23
799.85	19355.69
800.182	19325.86
800.513	19330.61
800.844	19171.97
801.175	19270.04
801.506	19256.49
801.837	19124.96
802.168	19126.55
802.499	19002.25
802.83	18871.64
803.161	18874.12
803.491	18911.86
803.822	18828.7
804.153	18747.8
804.483	18580.12
804.814	18574.24
805.145	18528.82
805.475	18502.15
805.805	18413.57
806.136	18380.12
806.466	18456.96
806.796	18336.96
807.126	18240.69
807.457	18065.33
807.787	18145.1
808.117	17928.84
808.447	18077.99
808.777	18092.22
809.107	17976.07
809.436	17930.19
809.766	17855.17
810.096	17790.54
810.426	17742.17
810.755	17781.72
811.085	17732.91
811.414	17663.53
811.744	17576.98
812.073	17486.59
812.403	17572.69
812.732	17510.77
813.061	17412.69
813.39	17259.7
813.719	17254.73
814.049	17278.91
814.378	17302.86
814.707	17135.64
815.036	17262.64
815.365	17128.18
815.693	16993.49
816.022	16972.7
816.351	16900.61
816.68	16781.07
817.008	16814.29
817.337	16722.09
817.665	16629.66
817.994	16672.82
818.322	16727.06
818.651	16574.07
818.979	16512.6
819.307	16600.28
819.636	16571.81
819.964	16433.73
820.292	16549.89
820.62	16429.67
820.948	16380.4
821.276	16438.48
821.604	16454.52
821.932	16430.12
822.259	16469.21
822.587	16312.16
822.915	16316.22
823.243	16408.88
823.57	16332.95
823.898	16292.04
824.225	16327.07
824.553	16292.95
824.88	16342.66
825.207	16428.54
825.535	16264.93
825.862	16375.66
826.189	16301.76
826.516	16289.11
826.843	16306.05
827.17	16426.05
827.497	16464.02
827.824	16355.54
828.151	16426.28
828.478	16358.71
828.805	16427.18
829.131	16322.33
829.458	16300.63
829.785	16266.73
830.111	16189.45
830.438	16338.82
830.764	16302.44
831.09	16264.7
831.417	16256.79
831.743	16312.61
832.069	16276.68
832.395	16206.85
832.722	16275.77
833.048	16265.38
833.374	16322.55
833.7	16105.16
834.026	16112.16
834.351	16159.62
834.677	16171.37
835.003	16091.6
835.329	16102.9
835.654	16091.82
835.98	16044.59
836.306	16133.86
836.631	15978.61
836.956	15990.13
837.282	15940.87
837.607	15922.56
837.932	15936.35
838.258	15899.06
838.583	15933.41
838.908	15750.81
839.233	15870.59
839.558	15841.21
839.883	15809.12
840.208	15668.78
840.533	15734.32
840.858	15804.15
841.182	15671.04
841.507	15648.67
841.832	15524.38
842.156	15542.91
842.481	15566.86
842.805	15574.77
843.13	15439.18
843.454	15435.34
843.778	15353.99
844.103	15343.14
844.427	15418.39
844.751	15378.17
845.075	15356.93
845.399	15226.53
845.723	15087.56
846.047	15111.74
846.371	14979.08
846.695	15021.12
847.019	14902.7
847.343	14862.7
847.666	14801.69
847.99	14710.16
848.313	14698.86
848.637	14587
848.96	14601.24
849.284	14541.35
849.607	14480.57
849.931	14435.14
850.254	14307.24
850.577	14235.6
850.9	14175.26
851.223	14217.75
851.546	14091.2
851.869	13965.55
852.192	14080.35
852.515	13921.71
852.838	13870.86
853.161	13850.3
853.483	13894.14
853.806	13763.75
854.129	13806.01
854.451	13710.64
854.774	13674.03
855.096	13526.47
855.419	13620.25
855.741	13493.02
856.063	13434.72
856.385	13407.83
856.708	13439.46
857.03	13304.33
857.352	13373.25
857.674	13257.55
857.996	13218.23
858.318	13145.91
858.64	13199.47
858.961	13143.65
859.283	13033.82
859.605	13064.56
859.926	13097.33
860.248	12995.86
860.57	12961.96
860.891	12975.97
861.212	12834.06
861.534	12765.36
861.855	12783.21
862.176	12866.82
862.498	12794.28
862.819	12813.94
863.14	12675.42
863.461	12708.41
863.782	12663.89
864.103	12600.16
864.424	12575.76
864.745	12637.22
865.065	12571.24
865.386	12600.84
865.707	12582.54
866.027	12566.49
866.348	12492.82
866.668	12438.81
866.989	12371.02
867.309	12305.71
867.63	12305.71
867.95	12437.91
868.27	12346.38
868.59	12310.23
868.91	12307.74
869.23	12276.1
869.55	12153.85
869.87	12182.32
870.19	12184.35
870.51	12167.41
870.83	12178.71
871.15	12145.94
871.469	12208.31
871.789	12211.25
872.109	12043.57
872.428	12077.24
872.748	11993.85
873.067	12029.33
873.386	12023.68
873.706	12004.7
874.025	11957.92
874.344	11998.82
874.663	11923.12
874.982	11910.24
875.301	11974.87
875.62	11868.2
875.939	11855.1
876.258	11813.29
876.577	11873.18
876.896	11832.73
877.214	11733.97
877.533	11814.87
877.852	11779.17
878.17	11755.67
878.489	11693.07
878.807	11711.82
879.125	11730.58
879.444	11641.32
879.762	11697.36
880.08	11671.83
880.398	11598.61
880.716	11529.23
881.034	11522.9
881.352	11502.56
881.67	11458.5
881.988	11515.45
882.306	11544.15
882.624	11475.22
882.941	11418.5
883.259	11296.24
883.577	11327.65
883.894	11301.67
884.212	11274.55
884.529	11221.44
884.846	11222.12
885.164	11178.51
885.481	11284.94
885.798	11118.39
886.115	11082.01
886.432	11090.15
886.75	11071.84
887.067	11138.28
887.383	10988
887.7	11011.28
888.017	11016.48
888.334	11034.1
888.651	10944.61
888.967	10873.65
889.284	10787.1
889.6	10839.08
889.917	10756.6
890.233	10718.18
890.55	10680.67
890.866	10710.5
891.182	10615.81
891.498	10629.82
891.815	10567.9
892.131	10542.36
892.447	10511.18
892.763	10548.69
893.079	10525.64
893.395	10435.93
893.71	10406.55
894.026	10387.34
894.342	10380.33
894.657	10293.11
894.973	10248.13
895.289	10291.3
895.604	10263.05
895.92	10223.5
896.235	10075.94
896.55	10055.15
896.865	10101.47
897.181	10100.34
897.496	10081.36
897.811	9984.41
898.126	9981.47
898.441	9955.71
898.756	9966.56
899.071	9858.99
899.386	9850.4
899.7	9694.48
900.015	9715.04
900.33	9638.88
900.644	9707.13
900.959	9623.29
901.273	9605.67
901.588	9569.51
901.902	9642.27
902.216	9497.19
902.531	9522.73
902.845	9464.88
903.159	9382.17
903.473	9367.48
903.787	9311.44
904.101	9256.3
904.415	9295.17
904.729	9288.39
905.042	9187.6
905.356	9206.58
905.67	9121.84
905.984	9160.03
906.297	9117.09
906.611	9039.8
906.924	9000.71
907.237	8978.79
907.551	8889.75
907.864	8941.73
908.177	8908.06
908.491	8889.53
908.804	8837.78
909.117	8734.73
909.43	8735.86
909.743	8702.41
910.056	8698.8
910.368	8589.42
910.681	8575.41
910.994	8589.87
911.307	8518.24
911.619	8410.67
911.932	8482.08
912.244	8395.3
912.557	8377.45
912.869	8355.53
913.181	8330.22
913.494	8307.85
913.806	8231.46
914.118	8170.67
914.43	8108.3
914.742	8142.88
915.054	8091.36
915.366	8029.44
915.678	8059.94
915.99	7996.44
916.302	7934.75
916.613	7888.42
916.925	7929.55
917.236	7861.53
917.548	7789.67
917.859	7830.34
918.171	7791.7
918.482	7760.97
918.794	7692.72
919.105	7748.54
919.416	7549.45
919.727	7597.58
920.038	7544.25
920.349	7591.71
920.66	7553.97
920.971	7551.03
921.282	7483.46
921.593	7395.55
921.903	7385.38
922.214	7345.16
922.525	7297.7
922.835	7265.84
923.146	7273.75
923.456	7222.68
923.767	7178.61
924.077	7218.84
924.387	7096.13
924.697	7079.86
925.008	7058.61
925.318	6993.98
925.628	7069.01
925.938	6993.98
926.248	6932.29
926.558	6968.67
926.867	6863.14
927.177	6815
927.487	6838.05
927.796	6743.82
928.106	6717.83
928.416	6687.1
928.725	6788.79
929.034	6649.36
929.344	6712.41
929.653	6642.35
929.962	6553.09
930.271	6572.07
930.581	6515.13
930.89	6489.59
931.199	6474.45
931.508	6451.62
931.817	6442.58
932.125	6423.83
932.434	6424.73
932.743	6269.26
933.051	6306.09
933.36	6292.31
933.669	6326.88
933.977	6259.09
934.286	6215.02
934.594	6148.58
934.902	6123.27
935.21	6102.48
935.519	6089.6
935.827	6043.05
936.135	6102.48
936.443	6002.6
936.751	5975.93
937.059	5950.85
937.367	5946.33
937.674	5917.4
937.982	5949.26
938.29	5862.26
938.597	5902.26
938.905	5823.62
939.213	5834.69
939.52	5760.12
939.827	5766.44
940.135	5673.57
940.442	5693.23
940.749	5641.02
941.056	5624.3
941.363	5629.05
941.67	5650.74
941.977	5611.65
942.284	5517.86
942.591	5465.89
942.898	5517.64
943.205	5441.48
943.511	5431.54
943.818	5415.27
944.125	5432.44
944.431	5436.96
944.738	5411.65
945.044	5368.04
945.35	5321.71
945.657	5260.47
945.963	5236.51
946.269	5201.94
946.575	5199.23
946.881	5169.85
947.187	5212.11
947.493	5173.01
947.799	5121.72
948.105	5120.81
948.41	5073.13
948.716	5100.02
949.022	5038.1
949.327	4996.97
949.633	4987.48
949.938	4977.99
950.244	4964.43
950.549	4905.9
950.854	4874.94
951.16	4849.63
951.465	4833.81
951.77	4850.31
952.075	4891.67
952.38	4789.29
952.685	4821.61
952.99	4771.89
953.294	4762.63
953.599	4763.08
953.904	4624.78
954.209	4690.09
954.513	4674.04
954.818	4606.47
955.122	4647.15
955.426	4578
955.731	4558.11
956.035	4531.22
956.339	4562.63
956.643	4554.05
956.948	4523.31
957.252	4458
957.556	4455.97
957.86	4444.67
958.163	4383.88
958.467	4432.69
958.771	4378.68
959.075	4371.23
959.378	4347.27
959.682	4337.56
959.985	4356.99
960.289	4283.55
960.592	4272.7
960.896	4236.09
961.199	4200.61
961.502	4239.25
961.805	4188.41
962.108	4177.33
962.411	4199.25
962.714	4162.87
963.017	4121.06
963.32	4121.97
963.623	4079.26
963.926	4073.83
964.228	4046.94
964.531	4035.64
964.833	4046.49
965.136	3961.75
965.438	3980.5
965.741	3948.41
966.043	3945.25
966.345	3894.63
966.648	3884.01
966.95	3908.64
967.252	3859.6
967.554	3876.32
967.856	3867.74
968.158	3839.94
968.46	3779.15
968.761	3778.7
969.063	3799.94
969.365	3764.24
969.666	3739.83
969.968	3724.24
970.269	3694.86
970.571	3705.03
970.872	3658.25
971.174	3613.28
971.475	3649.44
971.776	3634.98
972.077	3617.12
972.378	3575.09
972.679	3556.33
972.98	3559.72
973.281	3533.73
973.582	3492.38
973.883	3485.37
974.183	3482.44
974.484	3457.35
974.785	3433.85
975.085	3442.21
975.386	3428.2
975.686	3450.12
975.986	3463
976.287	3409.22
976.587	3352.04
976.887	3348.88
977.187	3331.48
977.487	3314.76
977.787	3320.86
978.087	3293.52
978.387	3315.44
978.687	3315.44
978.987	3235.89
979.286	3251.48
979.586	3204.03
979.885	3169.45
980.185	3208.77
980.484	3174.42
980.784	3151.82
981.083	3157.7
981.382	3131.26
981.682	3144.37
981.981	3152.28
982.28	3141.2
982.579	3052.17
982.878	3035.44
983.177	3065.72
983.475	3023.47
983.774	3063.01
984.073	3035.22
984.372	3019.17
984.67	2961.77
984.969	3014.43
985.267	2972.62
985.566	2948.89
985.864	2888.78
986.162	2925.84
986.461	2912.06
986.759	2888.78
987.057	2882
987.355	2833.87
987.653	2882.23
987.951	2858.95
988.249	2834.54
988.547	2817.6
988.844	2814.43
989.142	2771.49
989.44	2789.35
989.737	2767.88
990.035	2762.68
990.332	2731.72
990.63	2704.38
990.927	2690.37
991.224	2687.88
991.521	2708.67
991.819	2661.22
992.116	2678.16
992.413	2642.68
992.71	2676.81
993.006	2633.87
993.303	2626.87
993.6	2632.74
993.897	2625.96
994.193	2605.85
994.49	2597.94
994.787	2586.42
995.083	2508.45
995.379	2522.24
995.676	2514.1
995.972	2531.28
996.268	2522.91
996.565	2455.35
996.861	2470.71
997.157	2448.57
997.453	2494.89
997.749	2436.14
998.044	2415.57
998.34	2397.04
998.636	2383.48
998.932	2366.99
999.227	2350.94
999.523	2347.1
999.818	2371.05
1000.114	2336.48
1000.409	2309.81
1000.704	2297.61
1001	2277.95
1001.295	2298.96
1001.59	2224.84
1001.885	2235.69
1002.18	2249.47
1002.475	2242.02
1002.77	2249.7
1003.065	2216.93
1003.359	2178.52
1003.654	2188.23
1003.949	2177.84
1004.243	2185.07
1004.538	2158.63
1004.832	2147.56
1005.127	2121.79
1005.421	2139.87
1005.715	2094
1006.009	2102.36
1006.304	2079.08
1006.598	2060.1
1006.892	2058.07
1007.186	2035.47
1007.48	2030.05
1007.773	2021.68
1008.067	2016.71
1008.361	1987.11
1008.655	1976.26
1008.948	1957.51
1009.242	1942.59
1009.535	1968.35
1009.829	1933.78
1010.122	1929.94
1010.415	1894.46
1010.708	1908.47
1011.001	1922.48
1011.295	1893.33
1011.588	1875.7
1011.881	1873.67
1012.173	1860.11
1012.466	1840.45
1012.759	1831.18
1013.052	1825.53
1013.344	1801.12
1013.637	1793.67
1013.93	1785.98
1014.222	1814.01
1014.514	1767.91
1014.807	1759.09
1015.099	1735.36
1015.391	1737.4
1015.683	1731.3
1015.976	1716.83
1016.268	1737.17
1016.56	1696.27
1016.851	1698.75
1017.143	1663.73
1017.435	1643.61
1017.727	1651.75
1018.018	1641.81
1018.31	1623.95
1018.602	1636.84
1018.893	1655.59
1019.185	1584.18
1019.476	1593.9
1019.767	1581.02
1020.058	1544.86
1020.35	1556.39
1020.641	1536.95
1020.932	1523.62
1021.223	1531.53
1021.514	1495.6
1021.804	1496.27
1022.095	1513.9
1022.386	1477.52
1022.677	1481.81
1022.967	1459.21
1023.258	1394.81
1023.548	1436.16
1023.839	1441.13
1024.129	1422.38
1024.419	1410.85
1024.709	1414.92
1025	1402.04
1025.29	1384.19
1025.58	1391.64
1025.87	1338.76
1026.16	1363.62
1026.449	1375.83
1026.739	1355.03
1027.029	1327.69
1027.319	1329.27
1027.608	1327.47
1027.898	1323.17
1028.187	1304.19
1028.477	1310.29
1028.766	1291.31
1029.055	1248.82
1029.344	1273.23
1029.634	1231.65
1029.923	1254.25
1030.212	1249.28
1030.501	1240.69
1030.79	1208.15
1031.078	1232.1
1031.367	1195.49
1031.656	1186
1031.945	1193.01
1032.233	1193.68
1032.522	1164.98
1032.81	1160.24
1033.099	1156.62
1033.387	1162.27
1033.675	1141.26
1033.963	1119.56
1034.251	1141.71
1034.54	1111.2
1034.828	1124.08
1035.116	1122.05
1035.403	1097.19
1035.691	1077.53
1035.979	1089.73
1036.267	1065.78
1036.554	1082.95
1036.842	1067.58
1037.129	1068.94
1037.417	1063.07
1037.704	1047.25
1037.992	1022.39
1038.279	1038.89
1038.566	1008.38
1038.853	1008.38
1039.14	1008.38
