Data from red_shiny_book_FLMS001491_00034.txt Node
Date: Wed Feb 08 15:24:46 GMT 2017
User: dcchb
Spectrometer: FLMS00149
Trigger mode: 0
Integration Time (sec): 2.000000E-2
Scans to average: 10
Electric dark correction enabled: true
Nonlinearity correction enabled: false
Boxcar width: 0
XAxis mode: Wavelengths
Number of Pixels in Spectrum: 2048
>>>>>Begin Spectral Data<<<<<
341.393	-10.14
341.776	-10.14
342.16	-10.14
342.543	-82.23
342.927	-81.55
343.31	-77.94
343.693	-59.41
344.077	-54.66
344.46	-63.7
344.843	-53.3
345.226	-39.74
345.61	-51.5
345.993	-22.8
346.376	-10.59
346.759	18.11
347.142	31.21
347.525	52.68
347.908	74.15
348.291	64.43
348.674	76.86
349.057	116.18
349.44	120.48
349.823	148.27
350.206	183.07
350.588	210.64
350.971	214.26
351.354	206.35
351.737	248.38
352.119	249.06
352.502	269.4
352.884	271.21
353.267	287.48
353.65	314.37
354.032	314.37
354.414	308.72
354.797	321.38
355.179	339.68
355.562	325.44
355.944	339.68
356.326	355.05
356.709	330.42
357.091	358.44
357.473	344.2
357.855	336.52
358.238	343.75
358.62	340.13
359.002	353.92
359.384	350.98
359.766	342.17
360.148	357.53
360.53	351.88
360.912	352.11
361.294	343.52
361.676	370.41
362.057	335.84
362.439	334.93
362.821	355.95
363.203	321.83
363.584	341.49
363.966	323.41
364.348	340.81
364.729	357.76
365.111	320.25
365.493	320.02
365.874	333.8
366.256	326.35
366.637	328.16
367.019	327.03
367.4	301.04
367.781	322.51
368.163	339
368.544	319.34
368.925	330.19
369.306	338.78
369.688	332.45
370.069	311.21
370.45	317.53
370.831	323.86
371.212	331.54
371.593	315.27
371.974	317.31
372.355	335.61
372.736	303.07
373.117	316.63
373.498	325.22
373.879	326.12
374.26	322.96
374.641	328.16
375.021	323.41
375.402	339.23
375.783	322.96
376.163	339
376.544	363.86
376.925	347.14
377.305	351.88
377.686	343.07
378.066	337.42
378.447	337.42
378.827	341.49
379.208	326.12
379.588	324.77
379.968	349.62
380.349	339
380.729	364.99
381.109	342.84
381.489	347.14
381.87	327.03
382.25	365.89
382.63	352.79
383.01	350.75
383.39	347.36
383.77	335.61
384.15	349.85
384.53	355.27
384.91	357.53
385.29	344.88
385.67	354.37
386.049	362.28
386.429	352.56
386.809	358.21
387.189	348.95
387.568	369.51
387.948	362.28
388.328	373.13
388.707	377.42
389.087	383.52
389.466	372.67
389.846	365.44
390.225	357.31
390.605	379.45
390.984	345.33
391.363	393.69
391.743	370.87
392.122	392.56
392.501	370.41
392.881	374.71
393.26	380.13
393.639	368.15
394.018	373.58
394.397	396.4
394.776	383.52
395.155	380.13
395.534	406.8
395.913	400.92
396.292	388.49
396.671	390.98
397.05	375.61
397.429	380.36
397.808	413.35
398.186	386.46
398.565	414.25
398.944	383.52
399.323	396.85
399.701	400.47
400.08	393.01
400.458	394.59
400.837	397.31
401.215	406.8
401.594	397.76
401.972	416.97
402.351	398.21
402.729	408.83
403.107	414.25
403.486	420.36
403.864	420.13
404.242	417.19
404.62	413.12
404.999	425.55
405.377	410.19
405.755	420.58
406.133	435.72
406.511	421.03
406.889	426.46
407.267	444.08
407.645	422.84
408.023	433.92
408.401	454.93
408.779	443.18
409.156	441.37
409.534	461.03
409.912	459.9
410.29	472.78
410.667	457.64
411.045	464.2
411.422	468.94
411.8	463.07
412.178	469.85
412.555	469.17
412.933	472.56
413.31	463.52
413.687	480.47
414.065	486.8
414.442	515.72
414.819	499.68
415.197	511.88
415.574	499.9
415.951	494.25
416.328	517.53
416.705	535.83
417.082	502.39
417.46	531.54
417.837	536.06
418.214	548.04
418.591	567.7
418.967	530.64
419.344	548.71
419.721	541.48
420.098	543.52
420.475	549.62
420.852	550.97
421.228	540.35
421.605	562.95
421.982	550.75
422.358	555.95
422.735	578.09
423.111	579.45
423.488	578.54
423.864	563.86
424.241	575.61
424.617	593.91
424.994	573.57
425.37	587.36
425.746	574.25
426.123	616.51
426.499	600.92
426.875	609.5
427.251	611.31
427.627	619.22
428.003	619.9
428.379	613.8
428.756	622.16
429.132	628.49
429.507	642.05
429.883	639.11
430.259	653.57
430.635	653.57
431.011	653.57
431.387	644.08
431.763	660.12
432.138	646.34
432.514	654.93
432.89	661.93
433.265	677.98
433.641	689.05
434.016	707.81
434.392	698.09
434.767	717.98
435.143	705.32
435.518	731.76
435.894	720.01
436.269	725.21
436.644	736.28
437.02	722.27
437.395	703.96
437.77	738.99
438.145	761.14
438.52	772.44
438.895	767.92
439.271	751.42
439.646	782.15
440.021	775.15
440.395	756.39
440.77	755.04
441.145	767.24
441.52	781.7
441.895	780.12
442.27	795.49
442.645	801.82
443.019	788.48
443.394	818.09
443.769	792.78
444.143	822.61
444.518	797.07
444.892	814.24
445.267	813.79
445.641	792.55
446.016	809.27
446.39	820.12
446.764	847.01
447.139	818.76
447.513	844.75
447.887	843.85
448.262	843.62
448.636	837.75
449.01	858.54
449.384	881.36
449.758	872.1
450.132	857.41
450.506	878.65
450.88	841.14
451.254	862.38
451.628	871.64
452.002	913.68
452.376	905.77
452.75	907.58
453.123	875.94
453.497	905.32
453.871	895.15
454.244	920.91
454.618	930.4
454.992	913.45
455.365	900.57
455.739	927.91
456.112	908.25
456.486	912.32
456.859	936.5
457.232	969.95
457.606	967.69
457.979	952.55
458.352	958.65
458.725	943.96
459.099	986.22
459.472	979.21
459.845	973.56
460.218	990.74
460.591	985.09
460.964	982.15
461.337	989.38
461.71	1023.5
462.083	1016.95
462.456	1022.83
462.829	1015.14
463.201	1016.05
463.574	1016.72
463.947	1067.12
464.32	1064.41
464.692	1047.46
465.065	1072.32
465.438	1059.89
465.81	1057.63
466.183	1076.61
466.555	1082.26
466.928	1079.32
467.3	1106.89
467.672	1100.11
468.045	1166.55
468.417	1142.37
468.789	1129.26
469.161	1159.09
469.534	1147.79
469.906	1167.68
470.278	1183.05
470.65	1162.26
471.022	1190.96
471.394	1177.17
471.766	1203.61
472.138	1229.15
472.51	1264.4
472.882	1294.23
473.253	1284.06
473.625	1318.64
473.997	1306.21
474.369	1322.93
474.74	1301.69
475.112	1318.19
475.484	1319.54
475.855	1354.12
476.227	1353.44
476.598	1368.13
476.97	1377.17
477.341	1445.41
477.713	1432.08
478.084	1428.92
478.455	1504.85
478.827	1508.01
479.198	1551.17
479.569	1549.59
479.94	1548.46
480.311	1577.39
480.682	1584.39
481.053	1620.32
481.424	1611.74
481.795	1611.51
482.166	1618.97
482.537	1694.22
482.908	1713.88
483.279	1722.92
483.65	1780.32
484.021	1813.54
484.391	1827.1
484.762	1850.83
485.133	1854.67
485.503	1856.25
485.874	1869.81
486.244	1891.05
486.615	1890.15
486.985	1958.62
487.356	1937.15
487.726	1999.3
488.097	2009.92
488.467	2040.43
488.837	2112.74
489.207	2151.61
489.578	2155.23
489.948	2226.64
490.318	2218.95
490.688	2233.19
491.058	2262.12
491.428	2241.1
491.798	2285.17
492.168	2301.44
492.538	2286.97
492.908	2313.87
493.278	2297.14
493.648	2317.26
494.017	2357.71
494.387	2428.44
494.757	2423.69
495.126	2482.67
495.496	2502.34
495.866	2547.76
496.235	2553.63
496.605	2595.21
496.974	2589.11
497.344	2566.74
497.713	2576.91
498.082	2578.27
498.452	2570.58
498.821	2608.32
499.19	2628.21
499.559	2631.6
499.928	2656.91
500.298	2661.88
500.667	2726.28
501.036	2732.61
501.405	2791.82
501.774	2765.83
502.143	2821.42
502.512	2799.05
502.88	2813.97
503.249	2810.35
503.618	2804.02
503.987	2772.38
504.356	2790.69
504.724	2774.64
505.093	2762.44
505.462	2789.79
505.83	2790.01
506.199	2836.34
506.567	2848.77
506.936	2879.95
507.304	2979.84
507.672	2960.18
508.041	2989.78
508.409	2978.48
508.777	3023.68
509.145	2992.49
509.514	2969.44
509.882	2959.05
510.25	2912.95
510.618	2952.04
510.986	2947.3
511.354	2943.23
511.722	2913.17
512.09	2955.2
512.458	2970.35
512.826	2998.59
513.193	3050.12
513.561	3036.56
513.929	3089.44
514.297	3128.99
514.664	3109.55
515.032	3149.1
515.4	3156.1
515.767	3123.11
516.135	3080.4
516.502	3073.17
516.869	3063
517.237	3041.08
517.604	3047.86
517.972	3052.83
518.339	3058.7
518.706	3099.61
519.073	3131.92
519.44	3168.98
519.808	3185.26
520.175	3233.39
520.542	3283.78
520.909	3278.81
521.276	3281.52
521.643	3308.42
522.009	3296.89
522.376	3279.94
522.743	3236.1
523.11	3240.85
523.477	3228.19
523.843	3164.92
524.21	3194.75
524.577	3241.07
524.943	3282.43
525.31	3304.57
525.676	3373.27
526.043	3416.44
526.409	3470.9
526.776	3506.38
527.142	3551.35
527.508	3559.03
527.874	3598.13
528.241	3598.13
528.607	3575.75
528.973	3584.79
529.339	3564.23
529.705	3558.35
530.071	3574.4
530.437	3608.07
530.803	3537.79
531.169	3587.96
531.535	3586.83
531.901	3608.07
532.267	3714.05
532.632	3739.14
532.998	3802.64
533.364	3824.79
533.73	3872.02
534.095	3930.77
534.461	3992.92
534.826	4019.81
535.192	3975.06
535.557	4024.56
535.923	4006.02
536.288	3973.71
536.653	3982.97
537.019	3904.56
537.384	3961.28
537.749	3950.66
538.114	4003.76
538.479	4020.04
538.845	4017.1
539.21	4036.31
539.575	4112.69
539.94	4207.38
540.305	4233.82
540.67	4260.03
541.034	4366.02
541.399	4366.24
541.764	4380.7
542.129	4456.41
542.494	4376.18
542.858	4416.41
543.223	4369.86
543.587	4367.6
543.952	4300.03
544.316	4295.28
544.681	4317.43
545.045	4314.94
545.41	4340.25
545.774	4387.71
546.138	4397.2
546.503	4468.39
546.867	4513.13
547.231	4607.59
547.595	4667.25
547.959	4676.29
548.324	4705.67
548.688	4669.51
549.052	4752.22
549.416	4716.97
549.779	4699.79
550.143	4658.21
550.507	4680.81
550.871	4635.16
551.235	4564.88
551.599	4556.97
551.962	4472.23
552.326	4513.13
552.689	4580.47
553.053	4552.9
553.417	4602.85
553.78	4624.09
554.143	4676.29
554.507	4752.45
554.87	4807.59
555.234	4875.83
555.597	4874.7
555.96	4950.63
556.323	4916.74
556.686	4901.82
557.05	4942.95
557.413	4886.91
557.776	4787.47
558.139	4812.78
558.502	4764.87
558.865	4723.75
559.228	4702.73
559.59	4752.22
559.953	4747.93
560.316	4779.11
560.679	4780.69
561.041	4843.29
561.404	4871.31
561.767	4952.67
562.129	4977.75
562.492	5109.72
562.854	5095.26
563.217	5148.82
563.579	5162.83
563.941	5148.82
564.304	5208.03
564.666	5172.55
565.028	5215.03
565.39	5118.31
565.753	5122.38
566.115	5036.05
566.477	5029.27
566.839	4997.18
567.201	4980.24
567.563	4950.63
567.925	4984.3
568.287	5064.98
568.648	5092.55
569.01	5172.1
569.372	5245.77
569.734	5284.86
570.095	5405.08
570.457	5417.74
570.819	5515.82
571.18	5569.15
571.542	5536.15
571.903	5609.82
572.265	5596.94
572.626	5597.62
572.987	5597.17
573.349	5530.28
573.71	5537.28
574.071	5590.62
574.432	5532.31
574.794	5571.18
575.155	5582.25
575.516	5617.28
575.877	5658.18
576.238	5754.45
576.599	5808.46
576.96	5962.36
577.32	6090.49
577.681	6290.94
578.042	6366.41
578.403	6501.55
578.763	6619.29
579.124	6759.4
579.485	6946.96
579.845	7006.62
580.206	7126.17
580.566	7243.45
580.927	7385.82
581.287	7506.27
581.648	7581.3
582.008	7794.17
582.368	7889.54
582.728	8122.53
583.089	8291.79
583.449	8534.72
583.809	8740.14
584.169	9020.13
584.529	9289.05
584.889	9745.08
585.249	10008.8
585.609	10392.07
585.969	10869.57
586.329	11225.95
586.688	11599.72
587.048	12109.09
587.408	12458.46
587.768	12876.75
588.127	13277.87
588.487	13651.87
588.846	14124.18
589.206	14399.42
589.565	14780.2
589.925	15201.89
590.284	15672.16
590.643	15990.12
591.003	16493.38
591.362	16911.67
591.721	17311.66
592.08	17790.75
592.44	18315.25
592.799	18904.84
593.158	19383.02
593.517	19935.32
593.876	20538.47
594.235	21071.79
594.593	21698.21
594.952	22202.83
595.311	22801.91
595.67	23223.37
596.029	23953.97
596.387	24431.93
596.746	24961.86
597.104	25306.03
597.463	25582.63
597.822	26434.59
598.18	26609.27
598.538	27025.98
598.897	27649.92
599.255	27787.32
599.613	28618.71
599.972	28804.24
600.33	29253.04
600.688	29722.41
601.046	30100.25
601.404	30642.39
601.762	31235.37
602.12	31723.49
602.478	32135.23
602.836	32730.47
603.194	33226.05
603.552	33479.37
603.91	33872.58
604.268	34504.88
604.625	34796.85
604.983	35350.96
605.341	35645.87
605.698	36211.96
606.056	36527.43
606.413	36744.37
606.771	37244.92
607.128	37549.78
607.485	37461.42
607.843	37851.01
608.2	38403.31
608.557	38642.85
608.914	38812.57
609.272	39134.59
609.629	39492.78
609.986	39796.5
610.343	39944.97
610.7	40565.06
611.057	40676.02
611.414	40890.93
611.771	41380.41
612.127	41772.49
612.484	41852.71
612.841	42287.05
613.198	42398.46
613.554	42682.97
613.911	43130.42
614.267	43278.89
614.624	43366.12
614.98	43524.53
615.337	43920.68
615.693	43977.85
616.05	44028.7
616.406	44408.58
616.762	44202.71
617.118	44400.89
617.475	44482.47
617.831	44517.05
618.187	44664.39
618.543	44740.09
618.899	45247.88
619.255	45164.26
619.611	45251.04
619.967	45526.29
620.323	45758.15
620.678	45754.53
621.034	45792.04
621.39	45861.2
621.746	46089.89
622.101	46730.32
622.457	46542.53
622.812	46611.46
623.168	46900.26
623.523	46816.88
623.879	47148.17
624.234	46887.38
624.589	47028.85
624.945	47230.42
625.3	47123.31
625.655	47104.78
626.01	47075.17
626.365	47166.92
626.72	47070.65
627.075	47010.09
627.43	47000.37
627.785	47048.06
628.14	47180.48
628.495	47113.14
628.85	47187.71
629.205	47026.81
629.559	47410.08
629.914	47306.58
630.269	47522.85
630.623	47407.37
630.978	47495.5
631.332	47774.37
631.687	47841.03
632.041	47713.58
632.396	47891.88
632.75	47699.79
633.104	47857.53
633.459	47708.38
633.813	47763.29
634.167	47670.19
634.521	47718.1
634.875	47646.01
635.229	47598.32
635.583	47384.77
635.937	47318.78
636.291	47340.25
636.645	47315.62
636.999	47144.33
637.352	47119.02
637.706	46977.55
638.06	47155.4
638.413	47078.34
638.767	46989.75
639.121	47008.06
639.474	46939.81
639.828	47003.09
640.181	46999.24
640.534	47141.84
640.888	47066.81
641.241	46946.82
641.594	47116.53
641.947	47310.42
642.301	47207.37
642.654	47222.74
643.007	47345
643.36	47263.42
643.713	47155.62
644.066	47144.78
644.419	47005.57
644.771	46675.64
645.124	46251.47
645.477	46216.89
645.83	45871.82
646.182	45628.88
646.535	45465.27
646.888	45576.91
647.24	45362.45
647.593	45515.67
647.945	45489
648.298	45157.03
648.65	45057.6
649.002	44985.29
649.355	45219.4
649.707	45159.74
650.059	45353.41
650.411	45922.66
650.763	45947.75
651.115	46408.98
651.467	46246.5
651.819	46374.63
652.171	46332.82
652.523	46264.35
652.875	46221.19
653.227	46105.26
653.578	46463.44
653.93	46260.51
654.282	46161.75
654.633	46047.63
654.985	45984.81
655.337	46047.18
655.688	46051.25
656.039	46027.29
656.391	45561.77
656.742	45583.46
657.094	45645.16
657.445	45596.34
657.796	45629.11
658.147	45455.33
658.498	45312.28
658.849	45413.52
659.2	45398.16
659.551	45333.07
659.902	45550.92
660.253	45468.66
660.604	45403.13
660.955	45438.83
661.306	45750.24
661.656	45599.51
662.007	45666.85
662.358	45694.42
662.708	45614.42
663.059	45739.39
663.409	45411.49
663.76	45786.17
664.11	45983.23
664.461	45759.5
664.811	45766.96
665.161	45540.98
665.511	45599.96
665.862	45470.25
666.212	45478.15
666.562	45536.23
666.912	45442.9
667.262	45241.55
667.612	45279.06
667.962	45012.4
668.312	44913.42
668.662	45209.46
669.011	45057.15
669.361	44902.8
669.711	44903.71
670.06	44829.58
670.41	44748.91
670.76	44775.35
671.109	44811.73
671.459	44936.47
671.808	44907.77
672.157	45121.33
672.507	44717.5
672.856	44865.29
673.205	44997.04
673.554	45119.29
673.904	44903.93
674.253	45263.24
674.602	45165.85
674.951	44524.96
675.3	44451.97
675.649	45075.45
675.998	44859.19
676.346	44905.29
676.695	45031.39
677.044	44631.17
677.393	44675.92
677.741	44678.18
678.09	44534.9
678.438	44339.88
678.787	44373.1
679.135	44294.23
679.484	43924.07
679.832	43929.49
680.181	43743.06
680.529	44003.17
680.877	43793.9
681.225	43822.83
681.573	44102.82
681.922	43776.73
682.27	43678.65
682.618	43929.72
682.966	43642.04
683.314	43909.16
683.661	43714.59
684.009	43597.75
684.357	43565.44
684.705	43624.19
685.053	43771.53
685.4	43701.48
685.748	43594.14
686.095	43475.5
686.443	43360.47
686.79	43410.86
687.138	43496.51
687.485	43318.66
687.832	43169.97
688.18	43186.46
688.527	42878.67
688.874	42824.21
689.221	42602.75
689.568	42477.33
689.915	42535.18
690.262	42286.15
690.609	42075.98
690.956	41994.63
691.303	41871.24
691.65	41734.75
691.997	41754.86
692.344	41442.33
692.69	41435.32
693.037	41456.34
693.383	41190.36
693.73	41404.82
694.077	41012.28
694.423	41050.25
694.769	41070.13
695.116	40990.14
695.462	40994.43
695.808	40869.24
696.155	41151.04
696.501	40818.16
696.847	40789.46
697.193	40612.97
697.539	40840.99
697.885	40523.71
698.231	40362.13
698.577	40438.96
698.923	40348.12
699.269	40105.41
699.614	39919.88
699.96	39859.09
700.306	39729.15
700.651	39494.58
700.997	39342.72
701.342	39334.59
701.688	39154.7
702.033	38999
702.379	38886.69
702.724	38697.54
703.069	38831.1
703.415	38453.25
703.76	38288.96
704.105	38391.56
704.45	38187.95
704.795	37973.27
705.14	37950.67
705.485	37934.62
705.83	37871.35
706.175	37858.47
706.52	37819.6
706.865	37830.67
707.209	37752.26
707.554	37598.36
707.899	37798.81
708.243	37575.76
708.588	37735.53
708.932	37340.74
709.277	37572.6
709.621	37561.07
709.966	37251.25
710.31	37303
710.654	37039.05
710.998	37012.61
711.342	37071.82
711.687	36874.09
712.031	36683.13
712.375	36624.15
712.719	36601.55
713.063	36496.24
713.407	36519.75
713.75	36268.23
714.094	36150.94
714.438	35945.98
714.782	36072.07
715.125	35706.66
715.469	35739.65
715.812	35526.78
716.156	35396.16
716.499	35324.75
716.843	35472.32
717.186	35156.39
717.53	35382.83
717.873	35366.78
718.216	35212.44
718.559	35023.51
718.902	34955.95
719.246	35060.12
719.589	35007.7
719.932	34875.5
720.275	35037.53
720.617	34949.17
720.96	34998.2
721.303	34960.01
721.646	34951.2
721.989	34814.03
722.331	35037.98
722.674	34890.18
723.016	34873.24
723.359	34615.62
723.701	34883.4
724.044	34557.09
724.386	34304.66
724.729	34380.59
725.071	34357.09
725.413	34221.95
725.755	33995.74
726.097	33887.27
726.439	33743.1
726.782	33727.73
727.124	33831.23
727.465	33508.98
727.807	33423.1
728.149	33351.02
728.491	33323.9
728.833	33307.18
729.175	33092.49
729.516	33112.83
729.858	32985.38
730.199	33103.56
730.541	33014.08
730.882	32938.37
731.224	33012.72
731.565	32886.4
731.906	32956.68
732.248	33110.12
732.589	32965.04
732.93	32801.65
733.271	32758.94
733.612	32959.61
733.953	32948.77
734.294	32825.15
734.635	32811.59
734.976	32932.72
735.317	32765.95
735.658	32698.38
735.999	32746.74
736.339	32722.33
736.68	32923.23
737.021	32675.55
737.361	32413.41
737.702	32643.24
738.042	32457.93
738.383	32252.51
738.723	32294.55
739.063	32006.87
739.404	32174.55
739.744	31977.94
740.084	31864.73
740.424	31829.93
740.764	31757.61
741.104	31777.5
741.444	31516.94
741.784	31419.32
742.124	31491.63
742.464	31359.2
742.804	31436.26
743.143	31179.32
743.483	31235.82
743.823	31156.72
744.162	31237.17
744.502	31166.67
744.841	30994.47
745.181	31261.58
745.52	31082.15
745.86	31149.27
746.199	31010.29
746.538	31071.08
746.877	31099.32
747.216	31196.5
747.556	31129.15
747.895	31121.47
748.234	30997.18
748.573	30898.42
748.911	30811.42
749.25	30892.78
749.589	30780.69
749.928	30759.67
750.267	30788.82
750.605	30801.25
750.944	30671.09
751.283	30617.08
751.621	30532.33
751.96	30300.93
752.298	30368.72
752.636	30258.89
752.975	30148.16
753.313	29876.3
753.651	30074.49
753.989	29738
754.327	29680.6
754.666	29592.24
755.004	29510.66
755.342	29453.04
755.679	29495.52
756.017	29201.97
756.355	29290.78
756.693	29084.24
757.031	29006.72
757.368	28965.59
757.706	28935.99
758.044	28779.38
758.381	28874.98
758.719	28727.63
759.056	28782.77
759.394	28595.21
759.731	28585.94
760.068	28694.64
760.405	28399.06
760.743	28434.99
761.08	28556.34
761.417	28455.78
761.754	28375.55
762.091	28367.42
762.428	28220.53
762.765	28178.72
763.102	28367.42
763.438	28068.67
763.775	27972.85
764.112	27891.05
764.449	28040.65
764.785	27828.9
765.122	27614.44
765.458	27509.14
765.795	27456.93
766.131	27408.35
766.467	27224.62
766.804	27200.44
767.14	26981.92
767.476	26999.32
767.812	26784.63
768.148	26782.83
768.485	26550.06
768.821	26454.47
769.157	26364.53
769.492	26231.43
769.828	26125.44
770.164	25863.75
770.5	25903.75
770.836	25793.02
771.171	25640.03
771.507	25582.41
771.842	25438.23
772.178	25447.95
772.513	25409.3
772.849	25311.68
773.184	25242.98
773.519	25198.24
773.855	25116.66
774.19	25070.56
774.525	24927.28
774.86	24883.44
775.195	24955.08
775.53	24824.69
775.865	24686.61
776.2	24506.95
776.535	24542.66
776.87	24433.06
777.205	24405.49
777.539	24310.58
777.874	24438.48
778.209	24223.12
778.543	24178.6
778.878	23961.21
779.212	24002.79
779.547	23822
779.881	23891.15
780.215	23732.06
780.55	23803.7
780.884	23535
781.218	23369.81
781.552	23414.1
781.886	23289.36
782.22	22985.41
782.554	23025.86
782.888	22752.65
783.222	22627.23
783.556	22541.36
783.889	22461.13
784.223	22282.15
784.557	22255.26
784.89	22262.95
785.224	22188.6
785.557	22036.96
785.891	21912.45
786.224	21911.09
786.558	21792.45
786.891	21675.16
787.224	21618.22
787.557	21594.71
787.891	21527.15
788.224	21541.83
788.557	21442.18
788.89	21403.99
789.223	21388.39
789.556	21292.12
789.888	21244.44
790.221	21194.05
790.554	21090.1
790.887	21164.9
791.219	20980.49
791.552	20947.27
791.884	20927.61
792.217	20802.19
792.549	20835.41
792.882	20654.63
793.214	20574.85
793.546	20633.84
793.879	20543.44
794.211	20383.45
794.543	20511.81
794.875	20376.89
795.207	20468.19
795.539	20207.63
795.871	20178.48
796.203	20056.45
796.535	19933.97
796.867	19882.22
797.198	19733.97
797.53	19738.94
797.862	19546.86
798.193	19587.99
798.525	19388.45
798.856	19477.26
799.188	19221.44
799.519	19121.79
799.85	18965.86
800.182	19013.99
800.513	19072.75
800.844	18763.6
801.175	18912.75
801.506	18877.27
801.837	18761.34
802.168	18682.47
802.499	18611.52
802.83	18520.9
803.161	18404.29
803.491	18396.61
803.822	18441.58
804.153	18431.18
804.483	18272.09
804.814	18291.07
805.145	18273.67
805.475	18246.1
805.805	18191.19
806.136	18122.26
806.466	18364.52
806.796	18147.12
807.126	18102.15
807.457	18051.76
807.787	18012.21
808.117	17964.75
808.447	17876.85
808.777	17943.06
809.107	17911.65
809.436	17846.34
809.766	17941.48
810.096	17760.24
810.426	17691.77
810.755	17732.9
811.085	17552.11
811.414	17655.16
811.744	17469.85
812.073	17441.15
812.403	17365
812.732	17179.24
813.061	17155.06
813.39	17065.12
813.719	17157.77
814.049	17095.62
814.378	17018.34
814.707	16895.63
815.036	16876.87
815.365	16806.59
815.693	16638.91
816.022	16588.29
816.351	16554.62
816.68	16429.43
817.008	16541.06
817.337	16328.41
817.665	16255.19
817.994	16403.66
818.322	16219.26
818.651	16197.79
818.979	16145.82
819.307	16233.73
819.636	16092.94
819.964	16086.16
820.292	16224.46
820.62	16149.66
820.948	16094.97
821.276	16154.63
821.604	16137.01
821.932	16116.89
822.259	16180.62
822.587	16258.58
822.915	16131.81
823.243	16235.99
823.57	16201.18
823.898	16222.88
824.225	16186.27
824.553	16265.82
824.88	16193.05
825.207	16266.49
825.535	16267.62
825.862	16385.81
826.189	16229.66
826.516	16219.04
826.843	16390.33
827.17	16259.26
827.497	16391.46
827.824	16260.39
828.151	16263.1
828.478	16268.08
828.805	16329.77
829.131	16175.87
829.458	16118.47
829.785	16096.1
830.111	16002.55
830.438	16110.79
830.764	15975.43
831.09	16131.58
831.417	15956.44
831.743	15931.59
832.069	15979.95
832.395	15818.37
832.722	15937.01
833.048	15733.85
833.374	15770.91
833.7	15734.76
834.026	15726.39
834.351	15768.65
834.677	15804.36
835.003	15715.32
835.329	15637.58
835.654	15648.66
835.98	15576.57
836.306	15666.73
836.631	15598.94
836.956	15675.77
837.282	15609.11
837.607	15574.08
837.932	15575.44
838.258	15540.86
838.583	15548.55
838.908	15553.74
839.233	15500.64
839.558	15568.88
839.883	15435.33
840.208	15431.94
840.533	15471.94
840.858	15407.98
841.182	15541.31
841.507	15509.45
841.832	15411.37
842.156	15396.69
842.481	15402.34
842.805	15400.3
843.13	15437.59
843.454	15286.86
843.778	15274.88
844.103	15259.29
844.427	15228.55
844.751	15103.59
845.075	15148.33
845.399	15046.19
845.723	15021.1
846.047	14974.78
846.371	14832.86
846.695	14833.31
847.019	14703.6
847.343	14630.83
847.666	14585.86
847.99	14517.61
848.313	14458.18
848.637	14285.53
848.96	14249.15
849.284	14290.05
849.607	14092.99
849.931	14111.3
850.254	13925.54
850.577	13985.2
850.9	13857.29
851.223	13758.76
851.546	13619.33
851.869	13542.05
852.192	13653.91
852.515	13505.21
852.838	13435.16
853.161	13476.06
853.483	13342.73
853.806	13336.63
854.129	13287.14
854.451	13281.26
854.774	13250.3
855.096	13228.16
855.419	13221.6
855.741	13135.5
856.063	13099.57
856.385	13162.85
856.708	13044.88
857.03	13073.36
857.352	13053.7
857.674	13016.18
857.996	13001.49
858.318	12993.36
858.64	12953.36
858.961	12914.94
859.283	12941.38
859.605	12814.61
859.926	12855.74
860.248	12761.73
860.57	12792.91
860.891	12744.78
861.212	12714.5
861.534	12740.71
861.855	12685.57
862.176	12739.58
862.498	12614.16
862.819	12652.58
863.14	12487.38
863.461	12470.43
863.782	12498.23
864.103	12526.03
864.424	12409.19
864.745	12448.06
865.065	12388.18
865.386	12317.9
865.707	12254.85
866.027	12264.11
866.348	12252.59
866.668	12160.84
866.989	12197.45
867.309	12073.38
867.63	12105.7
867.95	12062.08
868.27	12002.42
868.59	11912.48
868.91	11907.29
869.23	11892.6
869.55	11837.23
869.87	11937.12
870.19	11824.12
870.51	11852.6
870.83	11817.57
871.15	11747.52
871.469	11813.95
871.789	11747.29
872.109	11781.64
872.428	11677.69
872.748	11676.11
873.067	11738.48
873.386	11714.97
873.706	11638.82
874.025	11610.57
874.344	11567.18
874.663	11638.82
874.982	11567.63
875.301	11609.89
875.62	11639.5
875.939	11614.64
876.258	11562.44
876.577	11505.26
876.896	11540.29
877.214	11532.83
877.533	11552.94
877.852	11515.21
878.17	11562.21
878.489	11545.49
878.807	11513.4
879.125	11476.79
879.444	11569.89
879.762	11479.05
880.08	11498.03
880.398	11404.93
880.716	11510.23
881.034	11389.33
881.352	11391.14
881.67	11304.82
881.988	11276.34
882.306	11369.67
882.624	11264.82
882.941	11202.22
883.259	11194.54
883.577	11214.42
883.894	11184.82
884.212	11086.29
884.529	11038.83
884.846	10969.68
885.164	10957.25
885.481	10883.81
885.798	10936.01
886.115	10779.63
886.432	10867.31
886.75	10755.68
887.067	10805.85
887.383	10709.13
887.7	10667.09
888.017	10715.68
888.334	10727.43
888.651	10613.99
888.967	10582.57
889.284	10500.54
889.6	10493.76
889.917	10387.78
890.233	10392.07
890.55	10391.62
890.866	10383.94
891.182	10326.99
891.498	10343.71
891.815	10183.49
892.131	10302.58
892.447	10252.19
892.763	10194.11
893.079	10205.18
893.395	10133.55
893.71	10130.16
894.026	10155.92
894.342	10159.99
894.657	10089.48
894.973	10124.51
895.289	10071.18
895.604	10030.5
895.92	9948.69
896.235	10051.52
896.55	9984.17
896.865	9979.65
897.181	9958.86
897.496	9958.86
897.811	9877.28
898.126	9905.98
898.441	9759.09
898.756	9760.68
899.071	9769.04
899.386	9744.86
899.7	9711.41
900.015	9629.61
900.33	9525.2
900.644	9607.91
900.959	9604.97
901.273	9475.94
901.588	9521.36
901.902	9426.22
902.216	9403.17
902.531	9388.26
902.845	9292.67
903.159	9235.94
903.473	9225.55
903.787	9161.82
904.101	9045.44
904.415	9081.15
904.729	9067.36
905.042	8950.08
905.356	8940.13
905.67	8914.37
905.984	8932.45
906.297	8860.36
906.611	8807.25
906.924	8777.65
907.237	8767.93
907.551	8739.46
907.864	8608.62
908.177	8650.42
908.491	8553.93
908.804	8586.92
909.117	8488.17
909.43	8387.15
909.743	8435.06
910.056	8390.54
910.368	8358
910.681	8250.21
910.994	8250.66
911.307	8278.23
911.619	8179.93
911.932	8160.94
912.244	8096.31
912.557	8121.4
912.869	8055.18
913.181	8062.64
913.494	8073.26
913.806	8037.78
914.118	7988.52
914.43	7908.29
914.742	7940.84
915.054	7883.44
915.366	7835.3
915.678	7826.94
915.99	7856.32
916.302	7776.32
916.613	7735.64
916.925	7760.05
917.236	7737.68
917.548	7694.06
917.859	7734.51
918.171	7664.46
918.482	7592.6
918.794	7602.99
919.105	7628.3
919.416	7521.19
919.727	7554.41
920.038	7499.49
920.349	7504.01
920.66	7373.39
920.971	7404.81
921.282	7393.51
921.593	7335.43
921.903	7332.26
922.214	7202.55
922.525	7205.94
922.835	7178.82
923.146	7131.14
923.456	7144.47
923.767	7039.62
924.077	7054.76
924.387	6994.42
924.697	7003.69
925.008	6993.97
925.318	6848.21
925.628	6916.68
925.938	6807.76
926.248	6826.29
926.558	6776.35
926.867	6738.16
927.177	6653.19
927.487	6666.97
927.796	6549.46
928.106	6610.02
928.416	6542.46
928.725	6480.31
929.034	6406.64
929.344	6482.57
929.653	6399.41
929.962	6351.27
930.271	6383.36
930.581	6319.64
930.89	6324.16
931.199	6284.38
931.508	6254.33
931.817	6207.32
932.125	6218.62
932.434	6216.36
932.743	6130.26
933.051	6119.19
933.36	6139.08
933.669	6095.91
933.977	6079.19
934.286	6016.82
934.594	6000.77
934.902	5970.94
935.21	5914.45
935.519	5944.96
935.827	5979.76
936.135	5849.37
936.443	5841.91
936.751	5786.54
937.059	5832.19
937.367	5822.7
937.674	5768.69
937.982	5797.16
938.29	5739.99
938.597	5772.08
938.905	5697.96
939.213	5716.71
939.52	5717.84
939.827	5690.05
940.135	5648.92
940.442	5635.36
940.749	5587.68
941.056	5588.58
941.363	5556.04
941.67	5549.26
941.977	5487.79
942.284	5471.97
942.591	5497.74
942.898	5423.84
943.205	5440.56
943.511	5397.85
943.818	5365.54
944.125	5374.8
944.431	5353.11
944.738	5292.54
945.044	5305.43
945.35	5198.99
945.657	5206.22
945.963	5195.37
946.269	5138.65
946.575	5148.82
946.881	5126.45
947.187	5106.33
947.493	5037.18
947.799	5024.08
948.105	5005.09
948.41	4997.18
948.716	4978.2
949.022	4928.03
949.327	4904.08
949.633	4870.86
949.938	4861.37
950.244	4852.56
950.549	4769.39
950.854	4749.73
951.16	4730.53
951.465	4756.97
951.77	4680.58
952.075	4665.44
952.38	4695.72
952.685	4641.71
952.99	4630.87
953.294	4641.94
953.599	4551.32
953.904	4538.67
954.209	4552.9
954.513	4534.6
954.818	4473.36
955.122	4460.48
955.426	4436.52
955.731	4472.23
956.035	4400.14
956.339	4406.69
956.643	4434.26
956.948	4410.08
957.252	4388.16
957.556	4376.64
957.86	4335.06
958.163	4352.46
958.467	4311.1
958.771	4321.5
959.075	4315.85
959.378	4284.89
959.682	4218.22
959.985	4214.38
960.289	4208.05
960.592	4228.39
960.896	4182.29
961.199	4184.55
961.502	4142.29
961.805	4140.03
962.108	4106.81
962.411	4096.64
962.714	4127.83
963.017	4079.24
963.32	4093.25
963.623	4023.2
963.926	4068.85
964.228	4041.5
964.531	4031.79
964.833	3977.55
965.136	3975.29
965.438	3946.37
965.741	3955.86
966.043	3940.94
966.345	3892.81
966.648	3851.23
966.95	3866.37
967.252	3851.68
967.554	3836.09
967.856	3802.19
968.158	3752.25
968.46	3781.62
968.761	3762.42
969.063	3743.43
969.365	3723.55
969.666	3673.83
969.968	3634.73
970.269	3675.41
970.571	3639.48
970.872	3615.3
971.174	3595.19
971.475	3563.55
971.776	3582.76
972.077	3531.91
972.378	3565.81
972.679	3500.73
972.98	3511.8
973.281	3470.67
973.582	3461.86
973.883	3423.44
974.183	3387.51
974.484	3409.43
974.785	3372.82
975.085	3407.4
975.386	3351.58
975.686	3342.77
975.986	3273.16
976.287	3280.17
976.587	3326.04
976.887	3279.04
977.187	3264.35
977.487	3247.63
977.787	3227.51
978.087	3187.52
978.387	3218.25
978.687	3217.8
978.987	3184.35
979.286	3166.05
979.586	3175.99
979.885	3152.94
980.185	3133.28
980.484	3134.41
980.784	3123.34
981.083	3068.2
981.382	3052.83
981.682	3076.78
981.981	3097.57
982.28	3062.55
982.579	3019.38
982.878	3054.19
983.177	2992.72
983.475	3040.63
983.774	3001.31
984.073	2974.41
984.372	2967.41
984.67	2957.01
984.969	2930.8
985.267	2938.71
985.566	2933.06
985.864	2940.52
986.162	2879.5
986.461	2891.25
986.759	2883.57
987.057	2888.31
987.355	2861.42
987.653	2862.55
987.951	2864.59
988.249	2834.53
988.547	2852.16
988.844	2790.92
989.142	2776.23
989.44	2774.42
989.737	2776.45
990.035	2718.37
990.332	2724.25
990.63	2706.4
990.927	2704.36
991.224	2674.99
991.521	2682.9
991.819	2655.78
992.116	2637.92
992.413	2611.49
992.71	2643.8
993.006	2599.73
993.303	2605.38
993.6	2580.75
993.897	2614.42
994.193	2561.32
994.49	2550.92
994.787	2515.22
995.083	2494.65
995.379	2498.27
995.676	2475.22
995.972	2464.37
996.268	2406.52
996.565	2409.23
996.861	2429.12
997.157	2376.24
997.453	2390.7
997.749	2397.03
998.044	2369.91
998.34	2383.69
998.636	2358.16
998.932	2357.25
999.227	2310.48
999.523	2311.38
999.818	2284.26
1000.114	2272.96
1000.409	2278.39
1000.704	2258.05
1001	2295.79
1001.295	2220.99
1001.59	2227.31
1001.885	2185.28
1002.18	2187.54
1002.475	2159.75
1002.77	2189.12
1003.065	2180.08
1003.359	2148.45
1003.654	2145.28
1003.949	2143.47
1004.243	2142.12
1004.538	2116.81
1004.832	2106.19
1005.127	2091.95
1005.421	2085.62
1005.715	2052.63
1006.009	2093.08
1006.304	2065.51
1006.598	2019.18
1006.892	2037.71
1007.186	1992.97
1007.48	2009.01
1007.773	2015.57
1008.067	2008.34
1008.361	1992.29
1008.655	1969.02
1008.948	1963.82
1009.242	1956.59
1009.535	1959.3
1009.829	1950.49
1010.122	1924.72
1010.415	1926.53
1010.708	1908.9
1011.001	1879.53
1011.295	1868.91
1011.588	1871.84
1011.881	1858.28
1012.173	1876.14
1012.466	1847.66
1012.759	1830.94
1013.052	1837.49
1013.344	1826.87
1013.637	1815.57
1013.93	1771.73
1014.222	1776.48
1014.514	1771.96
1014.807	1770.6
1015.099	1738.06
1015.391	1741.45
1015.683	1739.87
1015.976	1743.71
1016.268	1720.21
1016.56	1689.48
1016.851	1640.66
1017.143	1669.36
1017.435	1657.16
1017.727	1623.04
1018.018	1629.14
1018.31	1621.91
1018.602	1639.08
1018.893	1604.51
1019.185	1588.24
1019.476	1590.95
1019.767	1564.05
1020.058	1556.82
1020.35	1542.59
1020.641	1538.07
1020.932	1511.85
1021.223	1487.45
1021.514	1488.12
1021.804	1458.52
1022.095	1474.11
1022.386	1483.38
1022.677	1470.95
1022.967	1417.84
1023.258	1448.8
1023.548	1473.89
1023.839	1426.88
1024.129	1397.73
1024.419	1380.56
1024.709	1379.2
1025	1353.21
1025.29	1383.95
1025.58	1358.64
1025.87	1350.5
1026.16	1363.61
1026.449	1330.16
1026.739	1336.26
1027.029	1345.08
1027.319	1299.88
1027.608	1306.43
1027.898	1316.15
1028.187	1294.68
1028.477	1270.5
1028.766	1269.15
1029.055	1292.65
1029.344	1253.78
1029.634	1240.67
1029.923	1233.44
1030.212	1247.23
1030.501	1225.08
1030.79	1197.74
1031.078	1200.9
1031.367	1198.64
1031.656	1198.64
1031.945	1203.16
1032.233	1178.98
1032.522	1159.55
1032.81	1169.49
1033.099	1153.44
1033.387	1155.03
1033.675	1153.22
1033.963	1144.63
1034.251	1132.43
1034.54	1135.37
1034.828	1100.11
1035.116	1113.45
1035.403	1096.04
1035.691	1087.68
1035.979	1091.3
1036.267	1077.74
1036.554	1071.19
1036.842	1064.86
1037.129	1077.74
1037.417	1091.07
1037.704	1035.48
1037.992	1039.77
1038.279	1034.35
1038.566	1016.5
1038.853	1016.5
1039.14	1016.5
