Data from red_shiny_book_FLMS001491_00015.txt Node
Date: Wed Feb 08 15:23:42 GMT 2017
User: dcchb
Spectrometer: FLMS00149
Trigger mode: 0
Integration Time (sec): 2.000000E-2
Scans to average: 10
Electric dark correction enabled: true
Nonlinearity correction enabled: false
Boxcar width: 0
XAxis mode: Wavelengths
Number of Pixels in Spectrum: 2048
>>>>>Begin Spectral Data<<<<<
341.393	6.09
341.776	6.09
342.16	6.09
342.543	-47.92
342.927	-55.15
343.31	-85.66
343.693	-55.61
344.077	-71.42
344.46	-59.67
344.843	-46.79
345.226	-44.31
345.61	-33.46
345.993	-14.03
346.376	-3.4
346.759	8.8
347.142	15.35
347.525	40.21
347.908	56.26
348.291	70.72
348.674	111.4
349.057	111.62
349.44	141.9
349.823	137.16
350.206	193.2
350.588	236.36
350.971	213.09
351.354	257.61
351.737	255.8
352.119	269.81
352.502	272.07
352.884	297.61
353.267	295.8
353.65	301.45
354.032	312.75
354.414	318.4
354.797	334.67
355.179	336.93
355.562	330.37
355.944	338.73
356.326	368.34
356.709	336.93
357.091	375.34
357.473	336.02
357.855	353.2
358.238	380.99
358.62	370.37
359.002	348.9
359.384	362.91
359.766	317.49
360.148	354.78
360.53	373.54
360.912	352.52
361.294	358.62
361.676	372.63
362.057	348.9
362.439	354.55
362.821	355.68
363.203	374.44
363.584	354.55
363.966	355.91
364.348	344.38
364.729	352.29
365.111	345.97
365.493	340.32
365.874	351.39
366.256	348.9
366.637	338.73
367.019	344.38
367.4	337.83
367.781	337.15
368.163	328.11
368.544	342.58
368.925	344.61
369.306	353.65
369.688	354.55
370.069	354.78
370.45	346.64
370.831	341.22
371.212	340.54
371.593	332.86
371.974	331.28
372.355	350.94
372.736	330.15
373.117	348
373.498	343.48
373.879	347.55
374.26	342.58
374.641	359.98
375.021	344.16
375.402	348.23
375.783	338.28
376.163	341.9
376.544	357.04
376.925	362.24
377.305	340.09
377.686	360.43
378.066	355
378.447	345.97
378.827	351.84
379.208	356.36
379.588	350.94
379.968	369.92
380.349	380.99
380.729	338.06
381.109	373.31
381.489	366.08
381.87	378.06
382.25	380.77
382.63	371.05
383.01	384.83
383.39	378.06
383.77	367.66
384.15	375.57
384.53	384.16
384.91	397.49
385.29	409.01
385.67	390.48
386.049	406.98
386.429	399.98
386.809	394.55
387.189	387.32
387.568	411.73
387.948	419.41
388.328	417.6
388.707	402.01
389.087	418.73
389.466	410.6
389.846	409.92
390.225	398.39
390.605	394.78
390.984	409.47
391.363	416.25
391.743	409.01
392.122	433.65
392.501	431.39
392.881	444.95
393.26	419.41
393.639	419.86
394.018	441.56
394.397	439.75
394.776	427.55
395.155	420.31
395.534	443.14
395.913	432.06
396.292	418.51
396.671	443.36
397.05	448.11
397.429	449.01
397.808	448.56
398.186	430.48
398.565	450.14
398.944	448.79
399.323	443.82
399.701	457.6
400.08	463.48
400.458	470.71
400.837	467.54
401.215	455.79
401.594	450.82
401.972	467.09
402.351	487.88
402.729	454.66
403.107	473.65
403.486	493.08
403.864	487.43
404.242	473.65
404.62	486.3
404.999	479.75
405.377	485.17
405.755	477.94
406.133	492.85
406.511	499.41
406.889	518.62
407.267	499.63
407.645	529.01
408.023	528.11
408.401	522.68
408.779	525.4
409.156	531.5
409.534	516.13
409.912	517.03
410.29	546.41
410.667	535.11
411.045	547.09
411.422	550.25
411.8	576.92
412.178	590.93
412.555	588.44
412.933	534.21
413.31	555
413.687	574.66
414.065	592.74
414.442	598.39
414.819	607.2
415.197	585.73
415.574	612.85
415.951	627.99
416.328	612.85
416.705	596.13
417.082	626.41
417.46	597.71
417.837	618.05
418.214	653.3
418.591	650.36
418.967	658.5
419.344	672.28
419.721	682.23
420.098	665.51
420.475	700.08
420.852	662.79
421.228	663.7
421.605	675.9
421.982	664.6
422.358	712.96
422.735	687.43
423.111	718.61
423.488	706.63
423.864	718.61
424.241	724.49
424.617	714.54
424.994	713.19
425.37	710.7
425.746	700.76
426.123	734.66
426.499	769.91
426.875	749.12
427.251	783.92
427.627	778.27
428.003	804.26
428.379	792.51
428.756	771.27
429.132	785.05
429.507	794.09
429.883	809.68
430.259	772.39
430.635	793.64
431.011	811.49
431.387	816.46
431.763	852.84
432.138	852.84
432.514	864.14
432.89	868.89
433.265	877.7
433.641	883.8
434.016	878.38
434.392	845.84
434.767	877.7
435.143	871.38
435.518	878.61
435.894	912.73
436.269	923.8
436.644	941.43
437.02	916.35
437.395	951.15
437.77	954.76
438.145	926.06
438.52	921.09
438.895	933.75
439.271	958.15
439.646	967.87
440.021	983.46
440.395	980.07
440.77	979.17
441.145	1032.05
441.52	1032.73
441.895	1026.17
442.27	1026.85
442.645	1019.39
443.019	1021.2
443.394	1010.35
443.769	1014.87
444.143	1026.63
444.518	996.12
444.892	1024.14
445.267	1052.16
445.641	1091.71
446.016	1082.22
446.39	1102.56
446.764	1091.26
447.139	1106.62
447.513	1075.66
447.887	1064.14
448.262	1050.81
448.636	1064.59
449.01	1098.26
449.384	1077.7
449.758	1101.65
450.132	1123.57
450.506	1145.94
450.88	1154.53
451.254	1165.15
451.628	1136
452.002	1153.85
452.376	1154.31
452.75	1125.61
453.123	1148.2
453.497	1139.16
453.871	1122.44
454.244	1137.36
454.618	1194.76
454.992	1235.66
455.365	1215.32
455.739	1236.79
456.112	1265.49
456.486	1258.03
456.859	1239.95
457.232	1262.1
457.606	1205.15
457.979	1228.88
458.352	1264.13
458.725	1244.25
459.099	1256.45
459.472	1279.05
459.845	1291.25
460.218	1294.19
460.591	1361.31
460.964	1363.57
461.337	1388.2
461.71	1393.17
462.083	1372.61
462.456	1372.15
462.829	1352.27
463.201	1338.93
463.574	1329.44
463.947	1364.47
464.32	1378.03
464.692	1398.59
465.065	1393.4
465.438	1463.22
465.81	1491.92
466.183	1488.99
466.555	1522.88
466.928	1486.73
467.3	1514.07
467.672	1481.98
468.045	1514.97
468.417	1492.6
468.789	1476.56
469.161	1493.28
469.534	1512.26
469.906	1569.44
470.278	1611.69
470.65	1627.29
471.022	1704.57
471.394	1737.12
471.766	1719.94
472.138	1727.4
472.51	1735.31
472.882	1731.01
473.253	1690.34
473.625	1738.02
473.997	1736.21
474.369	1703.67
474.74	1735.99
475.112	1806.27
475.484	1836.55
475.855	1882.2
476.227	1932.82
476.598	2024.57
476.97	2060.04
477.341	2064.56
477.713	2066.6
478.084	2029.54
478.455	2038.8
478.827	2027.28
479.198	2049.2
479.569	2067.95
479.94	2080.38
480.311	2091.91
480.682	2205.58
481.053	2295.29
481.424	2323.54
481.795	2358.34
482.166	2434.5
482.537	2494.61
482.908	2508.17
483.279	2507.94
483.65	2506.13
484.021	2495.06
484.391	2515.63
484.762	2474.05
485.133	2492.35
485.503	2514.95
485.874	2591.56
486.244	2585.91
486.615	2716.75
486.985	2825.67
487.356	2881.94
487.726	2929.85
488.097	2998.55
488.467	3028.38
488.837	3042.39
489.207	3057.76
489.578	3088.94
489.948	3029.06
490.318	3011.43
490.688	3000.36
491.058	3010.75
491.428	3040.13
491.798	3092.56
492.168	3209.84
492.538	3291.2
492.908	3358.09
493.278	3470.63
493.648	3527.35
494.017	3540.68
494.387	3583.17
494.757	3600.57
495.126	3583.17
495.496	3510.4
495.866	3465.88
496.235	3457.3
496.605	3488.71
496.974	3472.89
497.344	3519.44
497.713	3547.01
498.082	3604.64
498.452	3717.63
498.821	3784.29
499.19	3871.75
499.559	3958.53
499.928	3979.99
500.298	4003.72
500.667	4017.28
501.036	3918.75
501.405	3927.57
501.774	3841.92
502.143	3790.17
502.512	3779.77
502.88	3796.5
503.249	3777.51
503.618	3792.43
503.987	3900.45
504.356	3952.65
504.724	4032.87
505.093	4135.24
505.462	4189.03
505.83	4266.54
506.199	4287.56
506.567	4343.15
506.936	4303.15
507.304	4262.92
507.672	4180.67
508.041	4141.8
508.409	4139.09
508.777	4052.76
509.145	4012.31
509.514	4016.38
509.882	4068.58
510.25	4114.91
510.618	4194.68
510.986	4269.03
511.354	4432.41
511.722	4469.92
512.09	4559.87
512.458	4546.08
512.826	4567.55
513.193	4550.15
513.561	4533.2
513.929	4473.54
514.297	4386.76
514.664	4350.15
515.032	4309.48
515.4	4277.61
515.767	4267.22
516.135	4293.21
516.502	4279.65
516.869	4408.46
517.237	4509.02
517.604	4524.84
517.972	4695.46
518.339	4744.72
518.706	4819.52
519.073	4862
519.44	4898.61
519.808	4885.73
520.175	4834.44
520.542	4748.11
520.909	4693.2
521.276	4619.3
521.643	4521.22
522.009	4549.02
522.376	4511.28
522.743	4553.54
523.11	4636.25
523.477	4686.19
523.843	4865.17
524.21	4935.9
524.577	5075.78
524.943	5179.74
525.31	5227.65
525.676	5322.56
526.043	5367.08
526.409	5318.49
526.776	5305.61
527.142	5193.3
527.508	5173.86
527.874	5142.22
528.241	5035.33
528.607	4959.4
528.973	4982
529.339	5010.02
529.705	5062.45
530.071	5202.56
530.437	5324.14
530.803	5407.53
531.169	5618.82
531.535	5637.35
531.901	5762.32
532.267	5886.84
532.632	5955.54
532.998	5951.02
533.364	5923.67
533.73	5924.8
534.095	5930.9
534.461	5791.02
534.826	5724.36
535.192	5667.86
535.557	5613.85
535.923	5532.72
536.288	5563.46
536.653	5632.15
537.019	5707.18
537.384	5884.58
537.749	6011.58
538.114	6209.99
538.479	6271.46
538.845	6407.73
539.21	6431.91
539.575	6541.28
539.94	6613.15
540.305	6619.47
540.67	6575.18
541.034	6490.89
541.399	6422.19
541.764	6320.27
542.129	6282.53
542.494	6216.09
542.858	6190.33
543.223	6150.78
543.587	6169.77
543.952	6242.99
544.316	6296.77
544.681	6361.17
545.045	6610.89
545.41	6753.93
545.774	6870.99
546.138	7064.43
546.503	7102.62
546.867	7158.44
547.231	7214.71
547.595	7203.41
547.959	7135.39
548.324	7061.95
548.688	6943.53
549.052	6867.38
549.416	6752.58
549.779	6618.57
550.143	6590.55
550.507	6621.73
550.871	6530.66
551.235	6592.13
551.599	6738.11
551.962	6769.75
552.326	6913.25
552.689	7078.9
553.053	7175.84
553.417	7304.88
553.78	7543.29
554.143	7539.9
554.507	7638.88
554.87	7643.17
555.234	7610.86
555.597	7447.47
555.96	7436.63
556.323	7296.07
556.686	7166.35
557.05	7051.55
557.413	6990.76
557.776	6909.18
558.139	6913.48
558.502	6901.73
558.865	6966.36
559.228	7070.76
559.59	7280.92
559.953	7369.74
560.316	7595.04
560.679	7749.39
561.041	7927.24
561.404	8001.36
561.767	8151.41
562.129	8157.74
562.492	8239.32
562.854	8093.33
563.217	8105.99
563.579	7958.42
563.941	7898.54
564.304	7710.29
564.666	7665.77
565.028	7464.65
565.39	7443.18
565.753	7407.25
566.115	7441.37
566.477	7414.48
566.839	7573.35
567.201	7607.47
567.563	7776.5
567.925	8021.24
568.287	8171.07
568.648	8322.25
569.01	8557.27
569.372	8701.23
569.734	8733.54
570.095	8862.13
570.457	8850.6
570.819	8861
571.18	8724.5
571.542	8711.85
571.903	8598.63
572.265	8425.75
572.626	8299.2
572.987	8191.86
573.349	8189.15
573.71	8089.26
574.071	8105.76
574.432	8192.54
574.794	8383.72
575.155	8518.86
575.516	8616.71
575.877	8833.2
576.238	9165.85
576.599	9340.08
576.96	9579.4
577.32	9755.21
577.681	10058.93
578.042	10104.8
578.403	10255.31
578.763	10335.08
579.124	10363.33
579.485	10488.3
579.845	10442.88
580.206	10443.55
580.566	10433.16
580.927	10450.78
581.287	10565.36
581.648	10631.8
582.008	10827.5
582.368	10998.79
582.728	11283.08
583.089	11531.43
583.449	11937.07
583.809	12364.18
584.169	12876.26
584.529	13244.61
584.889	14003.23
585.249	14354.86
585.609	14901.06
585.969	15350.77
586.329	15839.34
586.688	16389.16
587.048	16638.64
587.408	17141.46
587.768	17400.43
588.127	17766.07
588.487	18085.84
588.846	18466.17
589.206	18651.92
589.565	18957.91
589.925	19284.22
590.284	19739.13
590.643	20262.05
591.003	20798.76
591.362	21355.36
591.721	21961.44
592.08	22552.84
592.44	23339.49
592.799	23952.12
593.158	24657.19
593.517	25362.48
593.876	26112.52
594.235	26707.76
594.593	27457.12
594.952	28112.02
595.311	28568.27
595.67	29206.68
596.029	29870.61
596.387	30215.91
596.746	30738.16
597.104	31066.74
597.463	31384.7
597.822	31841.86
598.18	32174.73
598.538	32400.26
598.897	33004.32
599.255	33117.76
599.613	34084.06
599.972	34456.03
600.33	34897.15
600.688	35406.74
601.046	36135.53
601.404	36864.1
601.762	37279.91
602.12	38201.92
602.478	38766.65
602.836	39385.62
603.194	39596.01
603.552	40318.47
603.91	40639.82
604.268	41317.09
604.625	41637.54
604.983	42033
605.341	42224.86
605.698	42610.39
606.056	42942.36
606.413	43064.16
606.771	43300.09
607.128	43483.36
607.485	43571.04
607.843	43771.94
608.2	44249.67
608.557	44513.84
608.914	44682.2
609.272	45117.9
609.629	45523.99
609.986	45990.19
610.343	46186.12
610.7	46869.71
611.057	47102.7
611.414	47322.36
611.771	47729.35
612.127	48315.1
612.484	48393.52
612.841	48763.68
613.198	48806.16
613.554	49093.16
613.911	49350.55
614.267	49370.89
614.624	49558.91
614.98	49612.69
615.337	49853.36
615.693	49708.96
616.05	49700.6
616.406	49930.88
616.762	49800.71
617.118	49813.37
617.475	49860.37
617.831	50015.39
618.187	50212.68
618.543	50243.41
618.899	50510.52
619.255	50663.51
619.611	50754.81
619.967	51110.28
620.323	51251.52
620.678	51367
621.034	51502.59
621.39	51636.59
621.746	51686.54
622.101	52172.85
622.457	52115.9
622.812	52189.35
623.168	52350.02
623.523	52345.28
623.879	52392.96
624.234	52165.17
624.589	52255.79
624.945	52231.61
625.3	52305.05
625.655	52213.3
626.01	52054.89
626.365	52046.75
626.72	52035.91
627.075	52031.39
627.43	51992.52
627.785	51934.44
628.14	52028.45
628.495	52044.49
628.85	52232.28
629.205	52136.92
629.559	52449.68
629.914	52362.9
630.269	52569.68
630.623	52601.77
630.978	52581.65
631.332	52828.65
631.687	52970.57
632.041	52927.86
632.396	53002.43
632.75	52922.89
633.104	53016.67
633.459	52775.55
633.813	52859.16
634.167	52801.54
634.521	52693.97
634.875	52686.51
635.229	52519.28
635.583	52260.53
635.937	52176.92
636.291	52126.98
636.645	52094.89
636.999	51887.44
637.352	52025.06
637.706	51811.96
638.06	51973.53
638.413	51915.68
638.767	51794.33
639.121	51943.03
639.474	51815.12
639.828	51987.32
640.181	52119.52
640.534	52206.3
640.888	52294.88
641.241	52180.76
641.594	52311.83
641.947	52439.29
642.301	52468.89
642.654	52413.52
643.007	52529.9
643.36	52398.61
643.713	52450.36
644.066	52424.82
644.419	52133.08
644.771	51868.68
645.124	51453.77
645.477	51125.87
645.83	50976.5
646.182	50820.8
646.535	50624.64
646.888	50608.6
647.24	50358.66
647.593	50653.12
647.945	50509.17
648.298	50279.57
648.65	50341.49
649.002	50217.2
649.355	50435.04
649.707	50238.44
650.059	50565.66
650.411	50960.91
650.763	51185.31
651.115	51460.55
651.467	51528.35
651.819	51579.42
652.171	51492.19
652.523	51551.62
652.875	51593.43
653.227	51449.25
653.578	51637.95
653.93	51499.87
654.282	51385.75
654.633	51269.15
654.985	51329.48
655.337	51201.8
655.688	51107.79
656.039	51174.23
656.391	50792.1
656.742	50717.3
657.094	50687.01
657.445	50783.74
657.796	50527.92
658.147	50517.75
658.498	50517.53
658.849	50524.76
659.2	50485.66
659.551	50382.84
659.902	50673
660.253	50609.95
660.604	50644.98
660.955	50663.51
661.306	50844.3
661.656	50850.63
662.007	51020.79
662.358	51065.76
662.708	51164.29
663.059	51120.45
663.409	51034.58
663.76	51272.08
664.11	51258.07
664.461	51272.31
664.811	51200.45
665.161	51141.47
665.511	51002.94
665.862	50897.4
666.212	50959.1
666.562	50840.23
666.912	50668.03
667.262	50530.18
667.612	50399.56
667.962	50353.92
668.312	50243.18
668.662	50163.19
669.011	50111.44
669.361	50005.9
669.711	50011.1
670.06	49987.37
670.41	49906.47
670.76	49923.42
671.109	49940.37
671.459	50043.19
671.808	50100.14
672.157	50303.3
672.507	50132.23
672.856	50188.04
673.205	50404.99
673.554	50480.69
673.904	50526.79
674.253	50663.51
674.602	50649.28
674.951	50174.03
675.3	49974.72
675.649	50578.09
675.998	50448.38
676.346	50428.49
676.695	50453.57
677.044	50103.08
677.393	50192.34
677.741	50155.28
678.09	49903.76
678.438	49638.45
678.787	49675.52
679.135	49621.96
679.484	49325.69
679.832	49305.81
680.181	49017.91
680.529	49189.43
680.877	49067.62
681.225	48884.12
681.573	49155.53
681.922	48936.55
682.27	48944.24
682.618	48976.1
682.966	48993.95
683.314	49174.51
683.661	49114.63
684.009	49010.22
684.357	49017.68
684.705	49162.08
685.053	49236.88
685.4	49235.75
685.748	49097
686.095	49063.78
686.443	49094.51
686.79	48957.12
687.138	49067.62
687.485	49093.38
687.832	48865.82
688.18	48848.19
688.527	48613.4
688.874	48424.93
689.221	48339.05
689.568	48086.41
689.915	47870.82
690.262	47790.37
690.609	47639.86
690.956	47428.12
691.303	47349.93
691.65	46997.17
691.997	47038.75
692.344	46670.4
692.69	46767.34
693.037	46742.94
693.383	46487.8
693.73	46508.14
694.077	46343.4
694.423	46447.8
694.769	46347.47
695.116	46479.44
695.462	46316.96
695.808	46346.11
696.155	46461.14
696.501	46214.59
696.847	46344.76
697.193	46094.59
697.539	46377.07
697.885	46085.1
698.231	45977.53
698.577	46112.45
698.923	45971.43
699.269	45905.67
699.614	45859.35
699.96	45632.46
700.306	45435.85
700.651	45286.7
700.997	44997.67
701.342	44888.98
701.688	44708.41
702.033	44557.23
702.379	44429.78
702.724	44194.53
703.069	44072.27
703.415	43499.86
703.76	43646.07
704.105	43559.29
704.45	43375.57
704.795	43029.81
705.14	43109.59
705.485	42965.41
705.83	42892.87
706.175	42967.22
706.52	42830.72
706.865	42792.08
707.209	42913.21
707.554	42762.7
707.899	42906.2
708.243	42910.5
708.588	42832.98
708.932	42684.06
709.277	42836.15
709.621	42948.24
709.966	42655.59
710.31	42791.63
710.654	42515.48
710.998	42612.42
711.342	42665.76
711.687	42481.13
712.031	42371.3
712.375	42110.29
712.719	41969.5
713.063	41860.35
713.407	41938.32
713.75	41630.53
714.094	41541.04
714.438	41229.18
714.782	41199.58
715.125	40946.48
715.469	40889.53
715.812	40607.28
716.156	40333.61
716.499	40362.99
716.843	40195.31
717.186	40050.01
717.53	40079.38
717.873	40099.5
718.216	40123.9
718.559	39812.5
718.902	39679.62
719.246	39718.72
719.589	39750.13
719.932	39659.96
720.275	39827.64
720.617	39830.13
720.96	39893.85
721.303	39899.5
721.646	40077.8
721.989	39908.09
722.331	40120.74
722.674	39976.56
723.016	39964.81
723.359	39892.5
723.701	39975.43
724.044	39686.17
724.386	39638.94
724.729	39658.83
725.071	39483.02
725.413	39469.68
725.755	39308.1
726.097	39157.6
726.439	38863.6
726.782	38871.05
727.124	38871.73
727.465	38620.67
727.807	38497.05
728.149	38297.28
728.491	38108.59
728.833	38134.12
729.175	37856.17
729.516	37902.94
729.858	37712.21
730.199	37588.6
730.541	37417.08
730.882	37467.93
731.224	37578.43
731.565	37228.16
731.906	37382.51
732.248	37427.48
732.589	37314.03
732.93	37250.31
733.271	37434.93
733.612	37445.78
733.953	37605.78
734.294	37412.34
734.635	37498.89
734.976	37513.35
735.317	37422.96
735.658	37467.02
735.999	37647.36
736.339	37498.66
736.68	37631.09
737.021	37536.17
737.361	37340.7
737.702	37627.02
738.042	37476.06
738.383	37155.39
738.723	37277.42
739.063	37126.69
739.404	37203.08
739.744	36915.17
740.084	36741.62
740.424	36752.69
740.764	36604
741.104	36583.66
741.444	36282.2
741.784	36087.17
742.124	36088.3
742.464	35892.6
742.804	35936.44
743.143	35700.06
743.483	35624.13
743.823	35504.82
744.162	35555.66
744.502	35481.54
744.841	35347.08
745.181	35420.07
745.52	35366.74
745.86	35371.26
746.199	35314.54
746.538	35249.23
746.877	35449.68
747.216	35569.9
747.556	35545.72
747.895	35540.52
748.234	35470.01
748.573	35500.75
748.911	35580.52
749.25	35442.44
749.589	35425.95
749.928	35469.79
750.267	35670.69
750.605	35424.59
750.944	35396.12
751.283	35310.7
751.621	35279.28
751.96	35024.83
752.298	35132.62
752.636	35007.43
752.975	34802.69
753.313	34528.57
753.651	34665.06
753.989	34384.17
754.327	34339.2
754.666	33923.16
755.004	33974.23
755.342	34010.84
755.679	33780.34
756.017	33510.29
756.355	33392.78
756.693	33250.64
757.031	33259.45
757.368	33044.99
757.706	32986.24
758.044	32798.67
758.381	32842.51
758.719	32635.29
759.056	32642.07
759.394	32496.08
759.731	32514.84
760.068	32496.53
760.405	32349.64
760.743	32289.98
761.08	32363.65
761.417	32258.57
761.754	32271.23
762.091	32207.73
762.428	32335.86
762.765	32154.39
763.102	32233.71
763.438	32097.45
763.775	32004.79
764.112	32139.71
764.449	32239.14
764.785	31969.54
765.122	31823.33
765.458	31751.69
765.795	31732.94
766.131	31696.1
766.467	31554.18
766.804	31356.68
767.14	31287.98
767.476	31202.33
767.812	31016.12
768.148	30955.33
768.485	30721.89
768.821	30436.47
769.157	30410.71
769.492	30289.36
769.828	30206.2
770.164	29937.96
770.5	29736.83
770.836	29730.96
771.171	29387.24
771.507	29262.04
771.842	29005.55
772.178	29038.32
772.513	28945.21
772.849	28785.44
773.184	28706.8
773.519	28501.61
773.855	28451.22
774.19	28380.03
774.525	28325.57
774.86	28360.14
775.195	28309.98
775.53	28203.54
775.865	28064.33
776.2	27968.29
776.535	27908.86
776.87	27959.93
777.205	27804.68
777.539	27771.91
777.874	27809.65
778.209	27603.1
778.543	27683.1
778.878	27532.14
779.212	27536.89
779.547	27456.89
779.881	27554.06
780.215	27222.77
780.55	27450.79
780.884	27128.99
781.218	27118.14
781.552	27136.45
781.886	26847.87
782.22	26884.93
782.554	26578.72
782.888	26354.1
783.222	26187.09
783.556	26057.15
783.889	26093.76
784.223	25974.44
784.557	25623.27
784.89	25683.83
785.224	25523.61
785.557	25345.31
785.891	25259.66
786.224	25169.49
786.558	25078.42
786.891	24780.13
787.224	24719.56
787.557	24543.97
787.891	24563.18
788.224	24386.46
788.557	24435.73
788.89	24357.54
789.223	24346.46
789.556	24106.92
789.888	24102.4
790.221	24048.39
790.554	23897.21
790.887	23976.76
791.219	23911.22
791.552	23829.19
791.884	23784.67
792.217	23795.07
792.549	23772.69
792.882	23563.21
793.214	23632.13
793.546	23577.45
793.879	23513.27
794.211	23366.6
794.543	23547.16
794.875	23482.98
795.207	23537.45
795.539	23396.88
795.871	23357.34
796.203	23145.14
796.535	22949.21
796.867	23020.62
797.198	22941.08
797.53	22912.15
797.862	22730.24
798.193	22820.18
798.525	22630.13
798.856	22546.96
799.188	22197.37
799.519	22226.29
799.85	22135.45
800.182	22053.64
800.513	21982.91
800.844	21745.85
801.175	21781.79
801.506	21698.62
801.837	21604.39
802.168	21380.21
802.499	21303.38
802.83	21132.31
803.161	21009.15
803.491	21009.15
803.822	21107
804.153	20875.37
804.483	20782.94
804.814	20695.94
805.145	20601.25
805.475	20695.71
805.805	20602.38
806.136	20630.63
806.466	20596.51
806.796	20611.2
807.126	20510.41
807.457	20483.06
807.787	20495.04
808.117	20460.92
808.447	20333.69
808.777	20502.5
809.107	20456.85
809.436	20416.4
809.766	20343.18
810.096	20322.39
810.426	20365.55
810.755	20287.36
811.085	20356.06
811.414	20275.16
811.744	20103.64
812.073	20122.62
812.403	20107.71
812.732	19972.34
813.061	19995.39
813.39	19815.51
813.719	19827.49
814.049	19879.92
814.378	19790.2
814.707	19741.84
815.036	19596.76
815.365	19532.35
815.693	19326.26
816.022	19232.25
816.351	19201.74
816.68	19022.76
817.008	19173.04
817.337	18826.84
817.665	18814.63
817.994	18825.03
818.322	18804.69
818.651	18614.19
818.979	18577.35
819.307	18626.61
819.636	18491.93
819.964	18310.24
820.292	18528.54
820.62	18456.68
820.948	18303.46
821.276	18328.77
821.604	18272.95
821.932	18353.63
822.259	18318.37
822.587	18267.3
822.915	18312.05
823.243	18398.82
823.57	18379.39
823.898	18318.37
824.225	18361.54
824.553	18400.63
824.88	18466.62
825.207	18490.8
825.535	18496.67
825.862	18551.59
826.189	18583.9
826.516	18681.53
826.843	18699.83
827.17	18646.28
827.497	18718.14
827.824	18733.05
828.151	18728.53
828.478	18790
828.805	18821.41
829.131	18823.9
829.458	18690.57
829.785	18661.42
830.111	18700.96
830.438	18786.38
830.764	18693.73
831.09	18709.55
831.417	18604.47
831.743	18697.35
832.069	18678.36
832.395	18418.94
832.722	18469.33
833.048	18361.99
833.374	18373.29
833.7	18279.73
834.026	18345.72
834.351	18313.18
834.677	18199.28
835.003	18214.42
835.329	18123.8
835.654	18036.57
835.98	17970.36
836.306	17941.66
836.631	17836.81
836.956	17920.42
837.282	17851.27
837.607	17725.17
837.932	17585.29
838.258	17664.15
838.583	17613.31
838.908	17551.16
839.233	17601.78
839.558	17466.42
839.883	17506.64
840.208	17458.06
840.533	17543.03
840.858	17553.65
841.182	17571.05
841.507	17560.65
841.832	17486.53
842.156	17494.89
842.481	17498.73
842.805	17511.84
843.13	17422.8
843.454	17421.45
843.778	17535.34
844.103	17522.91
844.427	17497.83
844.751	17500.54
845.075	17486.31
845.399	17520.43
845.723	17357.5
846.047	17292.86
846.371	17244.73
846.695	17193.66
847.019	17083.6
847.343	17033.21
847.666	16963.38
847.99	16847.9
848.313	16825.76
848.637	16658.08
848.96	16757.29
849.284	16576.5
849.607	16456.95
849.931	16419.89
850.254	16313.46
850.577	16146.91
850.9	15993.24
851.223	15983.07
851.546	15938.1
851.869	15745.11
852.192	15790.76
852.515	15650.2
852.838	15526.13
853.161	15490.2
853.483	15438.22
853.806	15340.37
854.129	15290.43
854.451	15214.5
854.774	15136.54
855.096	15028.97
855.419	14912.59
855.741	14950.78
856.063	14857.67
856.385	14839.6
856.708	14748.52
857.03	14809.31
857.352	14788.75
857.674	14764.8
857.996	14599.38
858.318	14514.86
858.64	14576.78
858.961	14545.14
859.283	14510.56
859.605	14465.59
859.926	14593.27
860.248	14516.21
860.57	14518.93
860.891	14567.74
861.212	14434.41
861.534	14472.83
861.855	14461.07
862.176	14516.44
862.498	14397.8
862.819	14487.29
863.14	14328.2
863.461	14297.24
863.782	14458.59
864.103	14504.01
864.424	14385.37
864.745	14485.48
865.065	14351.92
865.386	14300.17
865.707	14255.88
866.027	14269.44
866.348	14167.52
866.668	14148.31
866.989	14171.59
867.309	14018.83
867.63	14091.37
867.95	14085.27
868.27	13975.66
868.59	13991.48
868.91	13915.1
869.23	13825.39
869.55	13846.4
869.87	13789.91
870.19	13759.4
870.51	13763.92
870.83	13720.08
871.15	13607.76
871.469	13593.3
871.789	13594.43
872.109	13490.48
872.428	13430.37
872.748	13457.26
873.067	13444.83
873.386	13362.12
873.706	13343.36
874.025	13255
874.344	13185.18
874.663	13232.63
874.982	13178.4
875.301	13166.42
875.62	13135.91
875.939	13110.38
876.258	13060.21
876.577	13058.63
876.896	13052.3
877.214	12987.67
877.533	13059.76
877.852	12964.39
878.17	13145.63
878.489	13077.38
878.807	13055.01
879.125	13047.1
879.444	13079.64
879.762	13021.79
880.08	12980.44
880.398	12973.2
880.716	13034.22
881.034	12947.44
881.352	13062.02
881.67	12897.27
881.988	13064.73
882.306	13013.2
882.624	13027.89
882.941	12901.57
883.259	12939.31
883.577	12879.65
883.894	12902.02
884.212	12898.4
884.529	12892.53
884.846	12782.7
885.164	12858.63
885.481	12781.57
885.798	12743.38
886.115	12692.99
886.432	12689.82
886.75	12628.13
887.067	12681.46
887.383	12526.89
887.7	12507.91
888.017	12499.54
888.334	12389.49
888.651	12458.87
888.967	12347.46
889.284	12294.35
889.6	12170.51
889.917	12044.41
890.233	12017.07
890.55	11962.16
890.866	11977.07
891.182	11904.08
891.498	11913.12
891.815	11722.16
892.131	11723.52
892.447	11650.53
892.763	11630.87
893.079	11608.04
893.395	11583.41
893.71	11486.69
894.026	11526.24
894.342	11458.89
894.657	11388.16
894.973	11339.12
895.289	11391.78
895.604	11412.34
895.92	11192.69
896.235	11170.54
896.55	11321.72
896.865	11214.38
897.181	11171.9
897.496	11170.31
897.811	11094.38
898.126	11088.06
898.441	11091.9
898.756	11059.58
899.071	11060.71
899.386	11040.15
899.7	10942.07
900.015	10917.89
900.33	10920.15
900.644	10900.94
900.959	10946.59
901.273	10882.64
901.588	10788.4
901.902	10805.58
902.216	10799.93
902.531	10738.01
902.845	10785.69
903.159	10656.65
903.473	10582.98
903.787	10581.85
904.101	10608.97
904.415	10543.89
904.729	10432.03
905.042	10515.64
905.356	10452.37
905.67	10439.03
905.984	10420.28
906.297	10367.4
906.611	10293.05
906.924	10265.03
907.237	10237.68
907.551	10107.74
907.864	10033.39
908.177	10033.62
908.491	10003.34
908.804	9917.01
909.117	9907.97
909.43	9830.01
909.743	9736.23
910.056	9799.05
910.368	9741.65
910.681	9657.13
910.994	9563.8
911.307	9558.38
911.619	9374.43
911.932	9453.97
912.244	9355.45
912.557	9333.3
912.869	9255.34
913.181	9163.13
913.494	9171.72
913.806	9082.91
914.118	9070.03
914.43	8944.84
914.742	8994.78
915.054	8927.89
915.366	8867.1
915.678	8870.49
915.99	8764.5
916.302	8762.92
916.613	8715.69
916.925	8698.97
917.236	8665.29
917.548	8648.35
917.859	8658.06
918.171	8615.13
918.482	8534.68
918.794	8525.41
919.105	8592.3
919.416	8486.99
919.727	8505.3
920.038	8429.37
920.349	8470.5
920.66	8389.14
920.971	8411.97
921.282	8372.65
921.593	8338.3
921.903	8275.25
922.214	8280.45
922.525	8256.04
922.835	8272.54
923.146	8165.87
923.456	8184.4
923.767	8086.55
924.077	8152.09
924.387	8111.86
924.697	8083.16
925.008	8057.18
925.318	8007.68
925.628	8013.56
925.938	7933.56
926.248	7805.66
926.558	7828.71
926.867	7849.95
927.177	7772.21
927.487	7815.37
927.796	7712.1
928.106	7671.87
928.416	7680.01
928.725	7638.43
929.034	7574.48
929.344	7598.88
929.653	7475.04
929.962	7374.03
930.271	7430.52
930.581	7283.64
930.89	7295.39
931.199	7236.18
931.508	7216.29
931.817	7230.53
932.125	7141.27
932.434	7059.24
932.743	7007.49
933.051	7004.1
933.36	6958.9
933.669	6922.29
933.977	6866.7
934.286	6905.79
934.594	6886.13
934.902	6801.61
935.21	6753.93
935.519	6718
935.827	6688.4
936.135	6651.79
936.443	6531.11
936.751	6600.26
937.059	6513.03
937.367	6540.6
937.674	6474.39
937.982	6411.12
938.29	6438.69
938.597	6425.35
938.905	6339.25
939.213	6427.16
939.52	6350.78
939.827	6359.37
940.135	6246.6
940.442	6280.72
940.749	6301.29
941.056	6314.62
941.363	6212.7
941.67	6208.18
941.977	6215.87
942.284	6183.33
942.591	6150.11
942.898	6138.58
943.205	6160.95
943.511	6080.28
943.818	6162.08
944.125	6106.49
944.431	6105.36
944.738	6049.32
945.044	6058.36
945.35	5993.73
945.657	6011.58
945.963	5937.68
946.269	5932.03
946.575	5928.19
946.881	5904.69
947.187	5896.33
947.493	5835.54
947.799	5843.67
948.105	5806.61
948.41	5751.7
948.716	5752.38
949.022	5697.01
949.327	5698.59
949.633	5622.44
949.938	5685.94
950.244	5625.83
950.549	5555.09
950.854	5529.56
951.16	5485.72
951.465	5514.64
951.77	5448.66
952.075	5424.48
952.38	5389.9
952.685	5381.99
952.99	5356
953.294	5326.17
953.599	5291.6
953.904	5184.48
954.209	5231.94
954.513	5230.13
954.818	5141.32
955.122	5112.85
955.426	5122.11
955.731	5100.64
956.035	5089.8
956.339	5005.28
956.643	5031.04
956.948	4960.31
957.252	4947.65
957.556	4922.34
957.86	4859.07
958.163	4794.21
958.467	4837.37
958.771	4824.49
959.075	4788.11
959.378	4724.16
959.682	4774.78
959.985	4752.4
960.289	4721.67
960.592	4692.52
960.896	4686.64
961.199	4654.78
961.502	4640.99
961.805	4638.73
962.108	4603.71
962.411	4565.74
962.714	4542.24
963.017	4515.8
963.32	4545.4
963.623	4485.07
963.926	4474.22
964.228	4482.81
964.531	4467.67
964.833	4503.6
965.136	4440.55
965.438	4431.28
965.741	4426.76
966.043	4397.38
966.345	4418.85
966.648	4380.44
966.95	4353.09
967.252	4337.05
967.554	4317.39
967.856	4343.83
968.158	4304.51
968.46	4267.44
968.761	4243.04
969.063	4252.3
969.365	4286.2
969.666	4231.06
969.968	4187.9
970.269	4166.43
970.571	4141.8
970.872	4158.75
971.174	4123.95
971.475	4144.96
971.776	4096.83
972.077	4092.76
972.378	4055.02
972.679	4029.48
972.98	4032.65
973.281	4016.38
973.582	4026.55
973.883	3955.59
974.183	3957.62
974.484	3965.31
974.785	3930.73
975.085	3881.69
975.386	3937.96
975.686	3883.5
975.986	3822.48
976.287	3841.92
976.587	3759.21
976.887	3763.5
977.187	3721.7
977.487	3693.22
977.787	3647.35
978.087	3688.48
978.387	3624.75
978.687	3650.96
978.987	3610.74
979.286	3561.93
979.586	3593.56
979.885	3549.5
980.185	3547.24
980.484	3525.54
980.784	3484.19
981.083	3492.1
981.382	3479.67
981.682	3456.62
981.981	3424.3
982.28	3409.39
982.579	3358.99
982.878	3404.42
983.177	3377.07
983.475	3314.93
983.774	3302.05
984.073	3336.85
984.372	3260.92
984.67	3301.37
984.969	3297.75
985.267	3272.67
985.566	3259.11
985.864	3254.59
986.162	3208.49
986.461	3212.78
986.759	3239.45
987.057	3167.13
987.355	3151.32
987.653	3161.03
987.951	3137.76
988.249	3111.77
988.547	3170.07
988.844	3087.14
989.142	3111.32
989.44	3092.33
989.737	3069.06
990.035	3060.47
990.332	3069.96
990.63	3009.62
990.927	3077.19
991.224	3027.93
991.521	2993.13
991.819	2979.79
992.116	3012.56
992.413	3003.97
992.71	2968.04
993.006	2987.7
993.303	2937.54
993.6	2963.3
993.897	2917.42
994.193	2928.95
994.49	2943.19
994.787	2888.27
995.083	2878.1
995.379	2823.87
995.676	2846.46
995.972	2795.84
996.268	2789.52
996.565	2771.66
996.861	2762.63
997.157	2785.68
997.453	2732.12
997.749	2754.72
998.044	2722.85
998.34	2719.69
998.636	2703.64
998.932	2654.38
999.227	2655.28
999.523	2668.84
999.818	2617.77
1000.114	2596.75
1000.409	2592.69
1000.704	2561.73
1001	2555.62
1001.295	2552.01
1001.59	2557.88
1001.885	2506.59
1002.18	2526.25
1002.475	2478.56
1002.77	2480.37
1003.065	2443.09
1003.359	2438.57
1003.654	2453.48
1003.949	2358.57
1004.243	2380.26
1004.538	2347.95
1004.832	2349.08
1005.127	2341.62
1005.421	2300.26
1005.715	2326.03
1006.009	2290.55
1006.304	2250.77
1006.598	2258.68
1006.892	2260.94
1007.186	2249.42
1007.48	2203.77
1007.773	2169.87
1008.067	2203.54
1008.361	2189.53
1008.655	2151.79
1008.948	2164.22
1009.242	2182.53
1009.535	2118.35
1009.829	2113.15
1010.122	2098.69
1010.415	2084
1010.708	2106.6
1011.001	2046.26
1011.295	2050.1
1011.588	2053.49
1011.881	2035.41
1012.173	1973.72
1012.466	2005.36
1012.759	2022.31
1013.052	2009.42
1013.344	1997
1013.637	1981.4
1013.93	1962.65
1014.222	1969.43
1014.514	1961.29
1014.807	1960.84
1015.099	1927.62
1015.391	1935.3
1015.683	1907.51
1015.976	1916.77
1016.268	1899.14
1016.56	1866.38
1016.851	1869.77
1017.143	1892.59
1017.435	1873.83
1017.727	1842.65
1018.018	1818.02
1018.31	1840.39
1018.602	1828.19
1018.893	1791.35
1019.185	1770.33
1019.476	1765.82
1019.767	1775.98
1020.058	1757.91
1020.35	1763.78
1020.641	1756.32
1020.932	1709.55
1021.223	1699.83
1021.514	1687.4
1021.804	1711.81
1022.095	1664.57
1022.386	1684.46
1022.677	1609.89
1022.967	1634.29
1023.258	1622.99
1023.548	1606.5
1023.839	1608.76
1024.129	1576.44
1024.419	1586.38
1024.709	1551.58
1025	1559.72
1025.29	1557.91
1025.58	1510.91
1025.87	1504.13
1026.16	1505.03
1026.449	1506.16
1026.739	1456.9
1027.029	1472.72
1027.319	1447.18
1027.608	1490.79
1027.898	1446.5
1028.187	1416.45
1028.477	1428.65
1028.766	1424.36
1029.055	1397.24
1029.344	1366.28
1029.634	1392.49
1029.923	1346.62
1030.212	1363.34
1030.501	1382.1
1030.79	1339.84
1031.078	1324.92
1031.367	1331.93
1031.656	1292.61
1031.945	1292.61
1032.233	1288.54
1032.522	1249.67
1032.81	1262.55
1033.099	1257.58
1033.387	1255.32
1033.675	1251.7
1033.963	1236.56
1034.251	1254.64
1034.54	1208.99
1034.828	1203.34
1035.116	1205.38
1035.403	1168.54
1035.691	1201.31
1035.979	1161.31
1036.267	1161.99
1036.554	1148.66
1036.842	1157.92
1037.129	1138.49
1037.417	1144.81
1037.704	1131.71
1037.992	1101.2
1038.279	1109.79
1038.566	1096.45
1038.853	1096.45
1039.14	1096.45
