Data from red_shiny_book_FLMS001491_00041.txt Node
Date: Wed Feb 08 15:24:54 GMT 2017
User: dcchb
Spectrometer: FLMS00149
Trigger mode: 0
Integration Time (sec): 2.000000E-2
Scans to average: 10
Electric dark correction enabled: true
Nonlinearity correction enabled: false
Boxcar width: 0
XAxis mode: Wavelengths
Number of Pixels in Spectrum: 2048
>>>>>Begin Spectral Data<<<<<
341.393	-16.65
341.776	-16.65
342.16	-16.65
342.543	-72.02
342.927	-65.92
343.31	-80.38
343.693	-92.13
344.077	-43.54
344.46	-47.61
344.843	-54.84
345.226	-18.91
345.61	-38.12
345.993	5.49
346.376	1.88
346.759	12.27
347.142	17.7
347.525	38.04
347.908	35.78
348.291	61.31
348.674	100.86
349.057	102.21
349.44	134.08
349.823	151.25
350.206	158.48
350.588	199.39
350.971	218.37
351.354	234.19
351.737	266.5
352.119	254.98
352.502	282.55
352.884	282.55
353.267	307.41
353.65	306.96
354.032	306.28
354.414	330.91
354.797	315.77
355.179	321.42
355.562	335.66
355.944	331.14
356.326	330.68
356.709	350.34
357.091	344.24
357.473	370.46
357.855	359.61
358.238	349.44
358.62	377.91
359.002	351.25
359.384	348.54
359.766	345.82
360.148	321.87
360.53	374.07
360.912	347.41
361.294	347.63
361.676	349.67
362.057	341.08
362.439	343.56
362.821	346.95
363.203	337.69
363.584	347.63
363.966	338.59
364.348	341.98
364.729	327.75
365.111	322.77
365.493	328.88
365.874	318.93
366.256	326.84
366.637	332.27
367.019	324.58
367.4	312.38
367.781	332.04
368.163	349.21
368.544	317.58
368.925	344.92
369.306	355.32
369.688	332.49
370.069	332.49
370.45	322.55
370.831	329.33
371.212	323.9
371.593	330.46
371.974	329.78
372.355	345.37
372.736	334.07
373.117	327.97
373.498	334.75
373.879	337.91
374.26	319.61
374.641	302.66
375.021	345.37
375.402	324.13
375.783	324.81
376.163	332.72
376.544	329.1
376.925	349.44
377.305	348.99
377.686	334.98
378.066	351.47
378.447	353.96
378.827	330.46
379.208	336.11
379.588	347.86
379.968	353.06
380.349	332.94
380.729	353.51
381.109	351.02
381.489	337.91
381.87	345.82
382.25	337.24
382.63	354.41
383.01	374.98
383.39	364.35
383.77	348.31
384.15	352.38
384.53	371.36
384.91	359.61
385.29	352.6
385.67	376.78
386.049	413.39
386.429	368.42
386.809	366.84
387.189	370.91
387.568	372.26
387.948	360.74
388.328	375.88
388.707	368.65
389.087	372.04
389.466	371.13
389.846	381.3
390.225	379.95
390.605	385.6
390.984	375.2
391.363	383.34
391.743	418.36
392.122	367.97
392.501	409.78
392.881	385.15
393.26	385.37
393.639	385.6
394.018	390.79
394.397	405.26
394.776	382.21
395.155	399.38
395.534	408.42
395.913	409.55
396.292	409.55
396.671	409.78
397.05	381.76
397.429	428.76
397.808	390.12
398.186	389.44
398.565	388.76
398.944	411.13
399.323	402.32
399.701	433.05
400.08	404.13
400.458	414.3
400.837	423.56
401.215	438.48
401.594	424.47
401.972	445.26
402.351	415.43
402.729	465.37
403.107	428.08
403.486	450.91
403.864	431.02
404.242	465.14
404.62	450.68
404.999	453.17
405.377	446.16
405.755	433.51
406.133	443.9
406.511	451.36
406.889	461.53
407.267	455.65
407.645	471.92
408.023	471.24
408.401	493.62
408.779	458.82
409.156	487.06
409.534	478.48
409.912	471.47
410.29	483.45
410.667	481.64
411.045	510.34
411.422	511.92
411.8	505.82
412.178	494.29
412.555	506.95
412.933	522.09
413.31	524.58
413.687	513.73
414.065	489.32
414.442	518.48
414.819	520.28
415.197	552.15
415.574	555.31
415.951	573.61
416.328	566.38
416.705	575.2
417.082	557.57
417.46	547.17
417.837	565.03
418.214	564.8
418.591	570.68
418.967	578.36
419.344	578.36
419.721	586.95
420.098	603.44
420.475	587.63
420.852	607.74
421.228	607.74
421.605	591.92
421.982	583.33
422.358	616.1
422.735	633.27
423.111	642.31
423.488	631.24
423.864	637.79
424.241	650.22
424.617	655.87
424.994	646.61
425.37	660.39
425.746	646.38
426.123	661.75
426.499	660.62
426.875	671.01
427.251	671.69
427.627	680.5
428.003	693.61
428.379	724.12
428.756	719.15
429.132	688.64
429.507	729.54
429.883	720.96
430.259	682.76
430.635	712.37
431.011	702.88
431.387	714.18
431.763	736.32
432.138	769.54
432.514	744.91
432.89	762.54
433.265	774.29
433.641	773.84
434.016	766.83
434.392	754.85
434.767	765.25
435.143	774.29
435.518	792.59
435.894	785.81
436.269	809.31
436.644	839.6
437.02	822.65
437.395	846.38
437.77	818.81
438.145	860.39
438.52	856.32
438.895	820.61
439.271	815.64
439.646	861.97
440.021	853.61
440.395	871.91
440.77	864.91
441.145	897.9
441.52	908.97
441.895	920.5
442.27	908.97
442.645	899.71
443.019	914.17
443.394	889.54
443.769	870.1
444.143	889.99
444.518	901.29
444.892	887.96
445.267	930.22
445.641	939.93
446.016	975.64
446.39	951.01
446.764	954.4
447.139	984.68
447.513	960.27
447.887	936.09
448.262	951.23
448.636	951.01
449.01	945.58
449.384	961.18
449.758	939.48
450.132	975.64
450.506	981.29
450.88	999.37
451.254	1014.51
451.628	1023.09
452.002	1015.19
452.376	1016.99
452.75	1006.37
453.123	1002.53
453.497	1005.47
453.871	999.82
454.244	1028.07
454.618	1024.9
454.992	1058.8
455.365	1113.04
455.739	1079.82
456.112	1093.38
456.486	1104.9
456.859	1130.89
457.232	1120.72
457.606	1091.34
457.979	1082.53
458.352	1068.97
458.725	1100.61
459.099	1112.36
459.472	1125.69
459.845	1157.1
460.218	1160.94
460.591	1178.34
460.964	1192.13
461.337	1231
461.71	1235.74
462.083	1224.45
462.456	1195.07
462.829	1198.46
463.201	1173.83
463.574	1183.09
463.947	1196.88
464.32	1205.01
464.692	1245.91
465.065	1230.09
465.438	1310.77
465.81	1315.97
466.183	1325.46
466.555	1366.36
466.928	1350.54
467.3	1313.71
467.672	1349.64
468.045	1320.49
468.417	1306.7
468.789	1327.04
469.161	1303.54
469.534	1342.63
469.906	1391.45
470.278	1431.9
470.65	1450.43
471.022	1483.87
471.394	1517.09
471.766	1550.31
472.138	1556.64
472.51	1543.76
472.882	1567.71
473.253	1523.65
473.625	1541.05
473.997	1503.53
474.369	1553.25
474.74	1561.39
475.112	1614.49
475.484	1614.72
475.855	1701.95
476.227	1712.12
476.598	1773.13
476.97	1797.76
477.341	1825.11
477.713	1812.9
478.084	1795.73
478.455	1841.15
478.827	1823.3
479.198	1843.64
479.569	1809.74
479.94	1847.93
480.311	1893.13
480.682	1937.87
481.053	1975.16
481.424	2038.66
481.795	2102.39
482.166	2123.18
482.537	2208.37
482.908	2204.08
483.279	2235.49
483.65	2242.5
484.021	2239.33
484.391	2209.96
484.762	2211.54
485.133	2212.67
485.503	2260.12
485.874	2312.55
486.244	2334.02
486.615	2425.77
486.985	2482.04
487.356	2562.49
487.726	2621.47
488.097	2634.13
488.467	2682.49
488.837	2694.69
489.207	2709.15
489.578	2703.5
489.948	2661.02
490.318	2678.42
490.688	2685.65
491.058	2675.03
491.428	2728.59
491.798	2819.88
492.168	2862.14
492.538	2966.32
492.908	3024.17
493.278	3109.82
493.648	3100.78
494.017	3195.47
494.387	3206.31
494.757	3140.78
495.126	3145.52
495.496	3085.64
495.866	3082.7
496.235	3082.48
496.605	3093.77
496.974	3113.44
497.344	3206.54
497.713	3176.48
498.082	3244.73
498.452	3357.5
498.821	3434.56
499.19	3444.27
499.559	3507.55
499.928	3557.72
500.298	3551.84
500.667	3591.16
501.036	3503.93
501.405	3493.99
501.774	3419.19
502.143	3407.21
502.512	3394.78
502.88	3373.54
503.249	3388.91
503.618	3443.82
503.987	3528.11
504.356	3593.2
504.724	3691.5
505.093	3702.35
505.462	3750.93
505.83	3874.09
506.199	3857.14
506.567	3897.6
506.936	3825.28
507.304	3787.09
507.672	3726.3
508.041	3691.72
508.409	3658.51
508.777	3639.07
509.145	3629.13
509.514	3682.01
509.882	3686.75
510.25	3772.4
510.618	3834.55
510.986	3935.11
511.354	4010.81
511.722	4058.27
512.09	4139.85
512.458	4117.25
512.826	4106.86
513.193	4113.41
513.561	4026.41
513.929	3996.12
514.297	3962
514.664	3925.39
515.032	3859.63
515.4	3937.37
515.767	3887.65
516.135	3940.76
516.502	3968.33
516.869	4116.35
517.237	4163.58
517.604	4260.52
517.972	4342.1
518.339	4358.6
518.706	4438.82
519.073	4389.11
519.44	4355.21
519.808	4326.96
520.175	4242.44
520.542	4242.22
520.909	4150.92
521.276	4070.92
521.643	4084.26
522.009	4139.4
522.376	4145.27
522.743	4255.33
523.11	4327.41
523.477	4409.9
523.843	4522.89
524.21	4573.51
524.577	4689.21
524.943	4752.71
525.31	4816.89
525.676	4846.95
526.043	4808.08
526.409	4804.46
526.776	4750.68
527.142	4671.36
527.508	4620.51
527.874	4602.44
528.241	4557.24
528.607	4565.15
528.973	4606.05
529.339	4661.19
529.705	4828.42
530.071	4903.9
530.437	4991.13
530.803	5144.79
531.169	5231.8
531.535	5307.5
531.901	5356.99
532.267	5405.58
532.632	5413.49
532.998	5356.31
533.364	5317.9
533.73	5257.11
534.095	5216.66
534.461	5171.46
534.826	5135.08
535.192	5123.1
535.557	5110.22
535.923	5119.71
536.288	5229.31
536.653	5341.4
537.019	5440.15
537.384	5565.35
537.749	5702.52
538.114	5817.54
538.479	5884.89
538.845	5948.16
539.21	5960.59
539.575	5958.11
539.94	5918.11
540.305	5863.87
540.67	5784.33
541.034	5768.96
541.399	5688.28
541.764	5593.37
542.129	5589.75
542.494	5629.53
542.858	5649.87
543.223	5670.2
543.587	5784.33
543.952	5916.53
544.316	5990.2
544.681	6171.66
545.045	6295.72
545.41	6355.16
545.774	6526.68
546.138	6494.59
546.503	6480.13
546.867	6446.91
547.231	6431.54
547.595	6374.37
547.959	6274.71
548.324	6183.64
548.688	6107.93
549.052	6049.4
549.416	5979.12
549.779	5982.74
550.143	5985.45
550.507	6081.04
550.871	6147.48
551.235	6273.58
551.599	6402.61
551.962	6481.48
552.326	6609.39
552.689	6791.08
553.053	6820
553.417	6850.96
553.78	6920.11
554.143	6840.79
554.507	6873.56
554.87	6739.78
555.234	6695.04
555.597	6517.19
555.96	6381.15
556.323	6346.12
556.686	6314.48
557.05	6294.59
557.413	6319
557.776	6334.14
558.139	6442.84
558.502	6518.77
558.865	6686
559.228	6801.7
559.59	6953.11
559.953	7032.43
560.316	7182.48
560.679	7290.73
561.041	7325.3
561.404	7337.28
561.767	7292.08
562.129	7230.39
562.492	7161.69
562.854	7041.02
563.217	6897.97
563.579	6829.72
563.941	6806.67
564.304	6731.87
564.666	6690.52
565.028	6674.25
565.39	6721.02
565.753	6824.75
566.115	6989.94
566.477	7129.6
566.839	7220.67
567.201	7334.34
567.563	7481.68
567.925	7704.73
568.287	7850.26
568.648	7799.87
569.01	7953.99
569.372	7946.98
569.734	7809.81
570.095	7803.93
570.457	7655.01
570.819	7630.15
571.18	7509.93
571.542	7376.6
571.903	7324.62
572.265	7299.31
572.626	7219.99
572.987	7221.35
573.349	7332.99
573.71	7459.54
574.071	7633.77
574.432	7764.16
574.794	7987.43
575.155	8151.95
575.516	8372.96
575.877	8508.1
576.238	8654.76
576.599	8807.3
576.96	8887.07
577.32	8939.27
577.681	9003
578.042	9011.13
578.403	9000.74
578.763	8965.26
579.124	8961.64
579.485	8954.19
579.845	8984.47
580.206	8949.67
580.566	9008.65
580.927	9221.52
581.287	9401.41
581.648	9531.35
582.008	9897.66
582.368	10171.78
582.728	10532.9
583.089	10843.63
583.449	11339.21
583.809	11719.31
584.169	12044.5
584.529	12390.48
584.889	12936.23
585.249	13134.19
585.609	13379.83
585.969	13765.58
586.329	13963.32
586.688	14227.95
587.048	14463.42
587.408	14699.12
587.768	15006.68
588.127	15284.64
588.487	15548.59
588.846	16007.79
589.206	16377.95
589.565	16813.64
589.925	17316
590.284	17842.77
590.643	18400.72
591.003	19052.9
591.362	19711.42
591.721	20230.27
592.08	20849.47
592.44	21582.55
592.799	22157.68
593.158	22679.47
593.517	23286.01
593.876	23835.6
594.235	24209.15
594.593	24643.49
594.952	25061.78
595.311	25418.39
595.67	25935.43
596.029	26281.64
596.387	26647.05
596.746	27017.44
597.104	27338.79
597.463	27807.48
597.822	28460.79
598.18	28702.37
598.538	29154.56
598.897	29911.37
599.255	30262.33
599.613	31275.41
599.972	31674.04
600.33	32316.28
600.688	32812.77
601.046	33505.86
601.404	34233.07
601.762	34656.33
602.12	35378.58
602.478	35794.84
602.836	36211.77
603.194	36461.94
603.552	36734.02
603.91	36897.41
604.268	37575.58
604.625	37485.86
604.983	37832.07
605.341	37928.11
605.698	38233.64
606.056	38834.53
606.413	39058.48
606.771	39416.89
607.128	39701.17
607.485	40010.77
607.843	40429.52
608.2	40842.39
608.557	41508.13
608.914	41772.31
609.272	42258.62
609.629	42758.49
609.986	43242.78
610.343	43528.87
610.7	44044.11
611.057	44113.04
611.414	44486.81
611.771	44809.06
612.127	45082.5
612.484	45136.51
612.841	45373.11
613.198	45350.97
613.554	45414.92
613.911	45639.77
614.267	45702.6
614.624	45775.82
614.98	45918.86
615.337	46074.11
615.693	46077.96
616.05	46200.66
616.406	46712.74
616.762	46728.11
617.118	46775.79
617.475	46953.86
617.831	47296.45
618.187	47518.82
618.543	47909.32
618.899	48283.09
619.255	48365.8
619.611	48499.59
619.967	48862.74
620.323	49028.84
620.678	49017.31
621.034	49020.02
621.39	48912.91
621.746	49086.01
622.101	49427.25
622.457	49157.65
622.812	49161.26
623.168	49228.38
623.523	49151.77
623.879	49256.63
624.234	48909.75
624.589	49138.67
624.945	49059.57
625.3	49194.71
625.655	49232.22
626.01	49117.2
626.365	49307.93
626.72	49379.34
627.075	49371.2
627.43	49652.78
627.785	49624.08
628.14	49794.69
628.495	50073.78
628.85	50053.67
629.205	50009.6
629.559	50429.25
629.914	50318.07
630.269	50360.78
630.623	50432.64
630.978	50352.42
631.332	50405.3
631.687	50411.63
632.041	50187
632.396	50127.79
632.75	50118.75
633.104	49982.94
633.459	49805.54
633.813	49756.5
634.167	49672.44
634.521	49650.29
634.875	49696.17
635.229	49537.07
635.583	49358.77
635.937	49399.22
636.291	49491.2
636.645	49611.87
636.999	49579.78
637.352	49690.06
637.706	49665.43
638.06	49831.75
638.413	49929.61
638.767	49852.55
639.121	50037.62
639.474	49817.07
639.828	49909.94
640.181	50016.16
640.534	50087.12
640.888	49942.71
641.241	49829.95
641.594	49878.99
641.947	49713.79
642.301	49636.73
642.654	49657.07
643.007	49484.42
643.36	49358.55
643.713	49132.56
644.066	49177.53
644.419	48890.76
644.771	48689.86
645.124	48349.76
645.477	48117.22
645.83	47994.29
646.182	47940.73
646.535	47866.16
646.888	48048.07
647.24	47892.82
647.593	48168.52
647.945	48180.05
648.298	48067.06
648.65	48120.39
649.002	48187.96
649.355	48283.09
649.707	48288.07
650.059	48459.81
650.411	48899.35
650.763	48931.67
651.115	49234.93
651.467	49151.32
651.819	49025.9
652.171	48827.49
652.523	48729.64
652.875	48691.22
653.227	48330.1
653.578	48559.92
653.93	48366.93
654.282	48124
654.633	47893.27
654.985	48050.56
655.337	47987.74
655.688	47966.04
656.039	48056.21
656.391	47758.81
656.742	47783.22
657.094	48092.14
657.445	48133.72
657.796	48185.92
658.147	48178.24
658.498	48172.14
658.849	48473.15
659.2	48373.49
659.551	48335.97
659.902	48551.56
660.253	48628.17
660.604	48600.37
660.955	48430.89
661.306	48587.72
661.656	48514.05
662.007	48498
662.358	48410.78
662.708	48368.29
663.059	48289.42
663.409	47958.36
663.76	48207.16
664.11	48011.46
664.461	47944.12
664.811	47815.76
665.161	47658.93
665.511	47538.93
665.862	47507.52
666.212	47558.82
666.562	47523.79
666.912	47547.52
667.262	47439.73
667.612	47389.56
667.962	47677.91
668.312	47573.73
668.662	47841.3
669.011	47808.53
669.361	47815.99
669.711	47842.88
670.06	47924.69
670.41	47860.51
670.76	47810.79
671.109	48001.29
671.459	48023.67
671.808	47959.71
672.157	48123.1
672.507	47785.25
672.856	47845.82
673.205	47884.46
673.554	47767.18
673.904	47596.11
674.253	47783.67
674.602	47483.57
674.951	46794.77
675.3	46695.57
675.649	47054.65
675.998	46979.17
676.346	46890.59
676.695	46885.39
677.044	46643.59
677.393	46698.5
677.741	46639.97
678.09	46597.26
678.438	46604.27
678.787	46653.31
679.135	46634.1
679.484	46471.17
679.832	46683.14
680.181	46561.11
680.529	46810.82
680.877	46813.53
681.225	46847.88
681.573	47096.23
681.922	46957.71
682.27	46892.4
682.618	47018.72
682.966	46818.27
683.314	47004.71
683.661	46777.82
684.009	46679.52
684.357	46565.17
684.705	46561.56
685.053	46543.71
685.4	46314.11
685.748	45996.15
686.095	45822.14
686.443	45624.18
686.79	45515.26
687.138	45522.49
687.485	45393.45
687.832	45098.55
688.18	45229.62
688.527	44895.16
688.874	44835.05
689.221	44820.14
689.568	44601.16
689.915	44626.69
690.262	44647.94
690.609	44515.06
690.956	44643.42
691.303	44565.9
691.65	44466.92
691.997	44483.87
692.344	44422.41
692.69	44443.2
693.037	44544.89
693.383	44160.04
693.73	44518.67
694.077	44172.47
694.423	44317.78
694.769	44193.94
695.116	44083.88
695.462	44098.57
695.808	43763.67
696.155	43858.35
696.501	43443.22
696.847	43441.87
697.193	43144.7
697.539	43216.79
697.885	42711.49
698.231	42519.18
698.577	42467.88
698.923	42276.93
699.269	42082.58
699.614	41912.87
699.96	41608.92
700.306	41730.95
700.651	41344.75
700.997	41299.78
701.342	41243.51
701.688	41238.53
702.033	41257.06
702.379	41205.77
702.724	41238.99
703.069	41141.36
703.415	40865.66
703.76	41036.51
704.105	41066.34
704.45	41140.46
704.795	40842.61
705.14	40797.87
705.485	40930.29
705.83	40776.17
706.175	40915.38
706.52	40749.28
706.865	40690.3
707.209	40613.47
707.554	40611.66
707.899	40496.41
708.243	40329.63
708.588	40124.89
708.932	39804.67
709.277	39852.36
709.621	39701.63
709.966	39347.28
710.31	39468.19
710.654	39002.21
710.998	39028.2
711.342	38919.95
711.687	38705.72
712.031	38596.34
712.375	38314.32
712.719	38395.22
713.063	38332.4
713.407	38424.15
713.75	38154.32
714.094	38169.01
714.438	37988
714.782	38063.93
715.125	38064.15
715.469	38167.43
715.812	37997.04
716.156	37983.03
716.499	37813.77
716.843	38033.19
717.186	37902.35
717.53	38228.9
717.873	38185.51
718.216	38022.12
718.559	37961.78
718.902	37747.1
719.246	37859.64
719.589	37646.54
719.932	37606.09
720.275	37704.62
720.617	37603.83
720.96	37476.83
721.303	37390.95
721.646	37306.21
721.989	37108.02
722.331	37162.71
722.674	36851.31
723.016	36820.57
723.359	36715.26
723.701	36536.96
724.044	36289.74
724.386	36081.61
724.729	36145.11
725.071	36009.07
725.413	35919.35
725.755	35776.53
726.097	35702.86
726.439	35550.55
726.782	35575.63
727.124	35745.12
727.465	35547.84
727.807	35548.74
728.149	35495.63
728.491	35564.56
728.833	35614.28
729.175	35430.1
729.516	35519.36
729.858	35559.14
730.199	35640.72
730.541	35734.5
730.882	35619.25
731.224	35751.9
731.565	35626.7
731.906	35655.86
732.248	35649.53
732.589	35546.48
732.93	35444.34
733.271	35451.79
733.612	35316.66
733.953	35376.54
734.294	35168.86
734.635	35125.47
734.976	35112.14
735.317	34806.84
735.658	34744.24
735.999	34573.85
736.339	34501.08
736.68	34633.06
737.021	34265.61
737.361	34186.97
737.702	34228.55
738.042	34022
738.383	34040.08
738.723	33821.33
739.063	33633.08
739.404	33809.58
739.744	33596.02
740.084	33630.82
740.424	33744.04
740.764	33576.59
741.104	33779.52
741.444	33512.64
741.784	33529.81
742.124	33590.83
742.464	33678.51
742.804	33622.46
743.143	33556.25
743.483	33731.84
743.823	33512.41
744.162	33628.34
744.502	33774.78
744.841	33596.25
745.181	33891.83
745.52	33698.39
745.86	33768.9
746.199	33707.43
746.538	33562.58
746.877	33646.87
747.216	33570.71
747.556	33300.66
747.895	33300.21
748.234	33157.39
748.573	32989.26
748.911	32904.74
749.25	32961.92
749.589	32641.02
749.928	32713.56
750.267	32492.55
750.605	32426.34
750.944	32190.64
751.283	32021.83
751.621	32049.85
751.96	31709.75
752.298	31690.99
752.636	31783.87
752.975	31635.17
753.313	31426.36
753.651	31616.64
753.989	31326.7
754.327	31450.77
754.666	31222.75
755.004	31282.41
755.342	31408.74
755.679	31343.88
756.017	31238.8
756.355	31273.15
756.693	31186.14
757.031	31415.74
757.368	31199.02
757.706	31204.22
758.044	31090.1
758.381	31248.74
758.719	31117.44
759.056	31180.49
759.394	31037.22
759.731	30989.76
760.068	30940.27
760.405	30885.81
760.743	30782.09
761.08	30711.81
761.417	30453.51
761.754	30391.36
762.091	30444.47
762.428	30210.58
762.765	29904.14
763.102	30005.38
763.438	29744.37
763.775	29618.95
764.112	29656.47
764.449	29462.8
764.785	29307.1
765.122	29118.18
765.458	28900.1
765.795	28794.57
766.131	28798.18
766.467	28689.26
766.804	28487.23
767.14	28430.06
767.476	28231.19
767.812	28157.75
768.148	28303.96
768.485	27962.73
768.821	28006.57
769.157	27837.53
769.492	27917.98
769.828	27869.17
770.164	27636.63
770.5	27669.4
770.836	27748.49
771.171	27529.97
771.507	27588.72
771.842	27346.02
772.178	27490.65
772.513	27443.19
772.849	27448.16
773.184	27361.39
773.519	27327.94
773.855	27239.13
774.19	27077.55
774.525	27076.42
774.86	27100.37
775.195	26992.58
775.53	26852.02
775.865	26701.06
776.2	26414.74
776.535	26308.31
776.87	26224.69
777.205	26066.05
777.539	25942.44
777.874	26012.72
778.209	25648.89
778.543	25506.97
778.878	25390.59
779.212	25273.08
779.547	25042.35
779.881	25199.63
780.215	24799.64
780.55	25003.93
780.884	24722.81
781.218	24699.08
781.552	24596.71
781.886	24357.4
782.22	24246.89
782.554	24192.2
782.888	23945.66
783.222	23892.78
783.556	23864.75
783.889	23849.16
784.223	23639.45
784.557	23720.58
784.89	23838.09
785.224	23591.54
785.557	23578.89
785.891	23486.46
786.224	23565.55
786.558	23488.72
786.891	23347.03
787.224	23426.8
787.557	23287.14
787.891	23320.36
788.224	23274.26
788.557	23333.69
788.89	23214.6
789.223	23312.45
789.556	23006.47
789.888	23072.23
790.221	22917.66
790.554	22790.43
790.887	22816.65
791.219	22730.32
791.552	22582.08
791.884	22439.93
792.217	22418.01
792.549	22139.83
792.882	22144.12
793.214	21952.26
793.546	21946.16
793.879	21703.45
794.211	21608.99
794.543	21584.36
794.875	21408.1
795.207	21395.44
795.539	21338.72
795.871	21296.91
796.203	21060.99
796.535	20870.03
796.867	20855.79
797.198	20786.19
797.53	20756.14
797.862	20578.29
798.193	20661.67
798.525	20507.1
798.856	20603.6
799.188	20264.85
799.519	20272.31
799.85	20172.65
800.182	20230.95
800.513	20240.44
800.844	20079.99
801.175	20199.99
801.506	20229.14
801.837	20167.68
802.168	20107.11
802.499	19978.75
802.83	20050.62
803.161	20033.67
803.491	19974.01
803.822	20029.6
804.153	19903.95
804.483	19725.88
804.814	19791.41
805.145	19797.74
805.475	19755.03
805.805	19613.79
806.136	19711.87
806.466	19731.3
806.796	19598.2
807.126	19499.67
807.457	19395.94
807.787	19465.32
808.117	19227.36
808.447	19132.67
808.777	19212.9
809.107	19055.61
809.436	18901.27
809.766	18887.03
810.096	18831.89
810.426	18628.73
810.755	18712.35
811.085	18562.75
811.414	18442.3
811.744	18271.45
812.073	18181.51
812.403	18249.31
812.732	18077.34
813.061	18004.34
813.39	17865.14
813.719	17927.28
814.049	17995.08
814.378	17991.46
814.707	17752.15
815.036	17824.01
815.365	17751.02
815.693	17659.27
816.022	17661.98
816.351	17585.37
816.68	17461.53
817.008	17606.16
817.337	17510.34
817.665	17538.82
817.994	17598.7
818.322	17554.86
818.651	17539.04
818.979	17471.7
819.307	17606.84
819.636	17510.8
819.964	17382.66
820.292	17529.33
820.62	17600.29
820.948	17380.18
821.276	17515.54
821.604	17527.75
821.932	17481.64
822.259	17551.25
822.587	17530.23
822.915	17449.56
823.243	17593.73
823.57	17432.38
823.898	17472.15
824.225	17466.28
824.553	17329.56
824.88	17391.03
825.207	17297.69
825.535	17233.06
825.862	17396.68
826.189	17172.73
826.516	17288.88
826.843	17275.1
827.17	17188.55
827.497	17145.83
827.824	17115.33
828.151	17073.97
828.478	17031.49
828.805	17112.39
829.131	17019.28
829.458	16865.84
829.785	16845.73
830.111	16851.38
830.438	16991.49
830.764	16849.35
831.09	16925.95
831.417	16836.01
831.743	16892.73
832.069	16781.1
832.395	16739.74
832.722	16864.71
833.048	16830.36
833.374	16864.71
833.7	16801.44
834.026	16886.18
834.351	16943.58
834.677	16905.39
835.003	16893.19
835.329	16876.01
835.654	16919.63
835.98	16915.33
836.306	16991.04
836.631	16830.81
836.956	16922.34
837.282	16876.46
837.607	16871.27
837.932	16947.2
838.258	16913.3
838.583	16895.22
838.908	16852.28
839.233	16794.66
839.558	16743.81
839.883	16796.69
840.208	16717.6
840.533	16710.14
840.858	16695.9
841.182	16667.2
841.507	16689.8
841.832	16516.47
842.156	16483.7
842.481	16406.87
842.805	16341.79
843.13	16193.77
843.454	16184.5
843.778	16179.98
844.103	16061.57
844.427	15959.42
844.751	16075.58
845.075	15879.2
845.399	15942.25
845.723	15740.9
846.047	15750.39
846.371	15627.23
846.695	15589.49
847.019	15431.3
847.343	15486.67
847.666	15291.87
847.99	15263.62
848.313	15272.89
848.637	15110.41
848.96	15047.13
849.284	14995.16
849.607	14903.41
849.931	14927.59
850.254	14867.48
850.577	14781.38
850.9	14730.3
851.223	14713.81
851.546	14682.85
851.869	14620.03
852.192	14669.06
852.515	14534.15
852.838	14559.69
853.161	14532.8
853.483	14422.06
853.806	14462.29
854.129	14433.82
854.451	14391.33
854.774	14373.03
855.096	14309.07
855.419	14290.99
855.741	14240.15
856.063	14266.59
856.385	14159.7
856.708	14124.22
857.03	14092.36
857.352	14130.77
857.674	14067.27
857.996	13988.86
858.318	13926.71
858.64	13905.02
858.961	13825.92
859.283	13816.88
859.605	13782.99
859.926	13743.89
860.248	13641.75
860.57	13639.71
860.891	13670.22
861.212	13610.33
861.534	13436.33
861.855	13421.19
862.176	13319.27
862.498	13287.18
862.819	13322.43
863.14	13181.87
863.461	13144.13
863.782	13153.62
864.103	13078.14
864.424	13114.53
864.745	13072.95
865.065	12965.38
865.386	12934.42
865.707	12894.42
866.027	12890.13
866.348	12770.13
866.668	12870.92
866.989	12810.58
867.309	12746.85
867.63	12794.08
867.95	12798.15
868.27	12632.51
868.59	12712.28
868.91	12678.83
869.23	12640.42
869.55	12568.1
869.87	12695.33
870.19	12689.68
870.51	12736.46
870.83	12672.28
871.15	12644.71
871.469	12655.11
871.789	12738.27
872.109	12703.47
872.428	12608.55
872.748	12664.82
873.067	12706.18
873.386	12747.76
873.706	12708.66
874.025	12671.6
874.344	12606.29
874.663	12555.9
874.982	12543.02
875.301	12637.25
875.62	12551.38
875.939	12569.01
876.258	12603.58
876.577	12496.69
876.896	12511.83
877.214	12334.44
877.533	12433.19
877.852	12386.41
878.17	12434.09
878.489	12406.75
878.807	12361.55
879.125	12347.99
879.444	12283.82
879.762	12144.84
880.08	12139.19
880.398	12094.44
880.716	12062.8
881.034	11939.19
881.352	12015.35
881.67	11943.49
881.988	11967.21
882.306	11810.38
882.624	11817.84
882.941	11750.27
883.259	11679.31
883.577	11664.17
883.894	11652.19
884.212	11567.68
884.529	11557.73
884.846	11517.51
885.164	11461.01
885.481	11503.5
885.798	11505.98
886.115	11395.48
886.432	11385.31
886.75	11392.77
887.067	11343.28
887.383	11332.88
887.7	11357.96
888.017	11311.86
888.334	11314.8
888.651	11308.47
888.967	11342.37
889.284	11184.41
889.6	11221.7
889.917	11222.15
890.233	11191.41
890.55	11203.17
890.866	11214.01
891.182	11187.8
891.498	11107.12
891.815	11117.74
892.131	11120.46
892.447	11071.64
892.763	11132.89
893.079	11063.96
893.395	10921.37
893.71	10979.67
894.026	11017.63
894.342	10927.01
894.657	10837.53
894.973	10895.6
895.289	10926.11
895.604	10791.2
895.92	10682.28
896.235	10703.97
896.55	10666.68
896.865	10701.03
897.181	10632.56
897.496	10647.25
897.811	10582.17
898.126	10590.3
898.441	10511.88
898.756	10433.02
899.071	10382.4
899.386	10372.68
899.7	10173.36
900.015	10127.49
900.33	10134.49
900.644	10036.19
900.959	10100.6
901.273	9982.18
901.588	9941.5
901.902	9879.36
902.216	9841.85
902.531	9855.18
902.845	9758.23
903.159	9644.56
903.473	9629.65
903.787	9612.47
904.101	9539.48
904.415	9539.03
904.729	9473.49
905.042	9423.55
905.356	9455.19
905.67	9371.8
905.984	9460.39
906.297	9406.15
906.611	9294.29
906.924	9246.16
907.237	9216.78
907.551	9242.77
907.864	9167.29
908.177	9122.77
908.491	9162.77
908.804	9072.83
909.117	9043
909.43	9028.76
909.743	9046.84
910.056	9013.17
910.368	8895.43
910.681	8925.94
910.994	8967.97
911.307	8914.64
911.619	8859.5
911.932	8876.67
912.244	8836.9
912.557	8814.98
912.869	8753.29
913.181	8694.98
913.494	8698.6
913.806	8659.96
914.118	8640.52
914.43	8504.48
914.742	8540.86
915.054	8450.24
915.366	8536.57
915.678	8419.06
915.99	8438.27
916.302	8398.04
916.613	8346.97
916.925	8397.82
917.236	8330.47
917.548	8306.29
917.859	8290.7
918.171	8177.48
918.482	8148.33
918.794	8125.73
919.105	8095
919.416	8087.99
919.727	8060.65
920.038	8013.19
920.349	7934.33
920.66	7816.36
920.971	7845.74
921.282	7778.4
921.593	7669.93
921.903	7662.92
922.214	7633.54
922.525	7622.47
922.835	7556.03
923.146	7546.99
923.456	7468.8
923.767	7463.38
924.077	7403.27
924.387	7367.79
924.697	7304.06
925.008	7291.18
925.318	7259.54
925.628	7211.41
925.938	7183.61
926.248	7109.04
926.558	7120.11
926.867	7055.03
927.177	7068.59
927.487	7016.38
927.796	6959.44
928.106	6923.05
928.416	6854.81
928.725	6928.7
929.034	6894.35
929.344	6804.19
929.653	6836.95
929.962	6782.72
930.271	6800.12
930.581	6746.33
930.89	6693.91
931.199	6693.23
931.508	6711.76
931.817	6716.96
932.125	6683.74
932.434	6707.01
932.743	6583.63
933.051	6575.49
933.36	6608.48
933.669	6574.81
933.977	6531.88
934.286	6530.97
934.594	6505.66
934.902	6458.43
935.21	6463.18
935.519	6467.92
935.827	6435.16
936.135	6420.47
936.443	6358.1
936.751	6320.13
937.059	6271.77
937.367	6245.33
937.674	6271.09
937.982	6285.56
938.29	6123.75
938.597	6128.05
938.905	6086.92
939.213	6135.05
939.52	6078.33
939.827	6038.78
940.135	6033.58
940.442	6008.05
940.749	5947.48
941.056	5966.92
941.363	5887.6
941.67	5878.79
941.977	5801.27
942.284	5806.02
942.591	5764.44
942.898	5705.23
943.205	5800.37
943.511	5721.05
943.818	5675.18
944.125	5682.18
944.431	5589.53
944.738	5578.68
945.044	5571.22
945.35	5500.49
945.657	5477.89
945.963	5391.34
946.269	5401.74
946.575	5396.09
946.881	5335.52
947.187	5351.34
947.493	5366.03
947.799	5306.15
948.105	5227.96
948.41	5226.83
948.716	5260.05
949.022	5198.58
949.327	5171.69
949.633	5151.12
949.938	5131.24
950.244	5101.63
950.549	5076.1
950.854	5051.24
951.16	5047.4
951.465	5027.74
951.77	4974.86
952.075	5004.46
952.38	4951.13
952.685	4946.16
952.99	4913.39
953.294	4912.71
953.599	4912.03
953.904	4900.73
954.209	4871.35
954.513	4870.68
954.818	4834.97
955.122	4858.93
955.426	4826.38
955.731	4798.36
956.035	4770.34
956.339	4810.57
956.643	4757.23
956.948	4705.26
957.252	4725.14
957.556	4687.63
957.86	4682.21
958.163	4651.47
958.467	4676.78
958.771	4622.1
959.075	4620.51
959.378	4628.65
959.682	4635.88
959.985	4534.87
960.289	4546.39
960.592	4531.25
960.896	4475.43
961.199	4468.2
961.502	4423.01
961.805	4399.5
962.108	4390.24
962.411	4397.92
962.714	4322.89
963.017	4345.95
963.32	4364.93
963.623	4331.93
963.926	4331.48
964.228	4251.94
964.531	4202.67
964.833	4174.2
965.136	4200.86
965.438	4189.11
965.741	4109.79
966.043	4110.7
966.345	4097.59
966.648	4095.78
966.95	4019.17
967.252	4029.8
967.554	4008.55
967.856	4000.19
968.158	3931.72
968.46	3952.28
968.761	3897.82
969.063	3915.9
969.365	3876.13
969.666	3847.43
969.968	3827.99
970.269	3768.79
970.571	3777.37
970.872	3782.8
971.174	3771.95
971.475	3734.44
971.776	3719.07
972.077	3731.27
972.378	3718.39
972.679	3672.29
972.98	3745.06
973.281	3696.02
973.582	3627.55
973.883	3615.57
974.183	3615.57
974.484	3611.5
974.785	3582.58
975.085	3582.8
975.386	3576.02
975.686	3528.79
975.986	3542.58
976.287	3564.27
976.587	3480.66
976.887	3463.48
977.187	3523.82
977.487	3497.15
977.787	3471.39
978.087	3425.29
978.387	3458.74
978.687	3428.46
978.987	3425.97
979.286	3397.5
979.586	3426.42
979.885	3343.71
980.185	3405.4
980.484	3355.91
980.784	3345.29
981.083	3325.18
981.382	3324.05
981.682	3332.86
981.981	3303.94
982.28	3304.16
982.579	3295.58
982.878	3274.33
983.177	3213.09
983.475	3204.73
983.774	3191.4
984.073	3213.09
984.372	3195.92
984.67	3154.11
984.969	3157.73
985.267	3157.28
985.566	3149.82
985.864	3120.89
986.162	3117.73
986.461	3091.74
986.759	3067.11
987.057	3037.5
987.355	3020.1
987.653	3023.27
987.951	2998.41
988.249	2985.3
988.547	2938.98
988.844	2954.34
989.142	2959.54
989.44	2905.3
989.737	2905.76
990.035	2874.8
990.332	2828.92
990.63	2848.58
990.927	2798.64
991.224	2810.84
991.521	2792.31
991.819	2767.91
992.116	2758.42
992.413	2772.43
992.71	2742.15
993.006	2737.17
993.303	2701.24
993.6	2708.25
993.897	2664.41
994.193	2685.88
994.49	2646.33
994.787	2644.75
995.083	2617.4
995.379	2607.01
995.676	2595.93
995.972	2623.73
996.268	2572.21
996.565	2537.41
996.861	2531.76
997.157	2549.61
997.453	2536.5
997.749	2510.97
998.044	2468.25
998.34	2491.08
998.636	2486.56
998.932	2454.47
999.227	2473
999.523	2463.96
999.818	2448.37
1000.114	2434.58
1000.409	2416.96
1000.704	2433.68
1001	2411.98
1001.295	2348.94
1001.59	2368.82
1001.885	2356.39
1002.18	2346
1002.475	2331.99
1002.77	2321.59
1003.065	2333.57
1003.359	2310.07
1003.654	2293.57
1003.949	2301.25
1004.243	2303.96
1004.538	2261.48
1004.832	2251.76
1005.127	2272.78
1005.421	2254.02
1005.715	2249.73
1006.009	2190.07
1006.304	2200.69
1006.598	2169.28
1006.892	2189.17
1007.186	2168.6
1007.48	2146.23
1007.773	2159.11
1008.067	2126.57
1008.361	2109.17
1008.655	2089.51
1008.948	2122.5
1009.242	2098.32
1009.535	2053.8
1009.829	2059.68
1010.122	2020.13
1010.415	2003.63
1010.708	1980.13
1011.001	2012
1011.295	1992.33
1011.588	1976.74
1011.881	1978.78
1012.173	1971.54
1012.466	1948.72
1012.759	1926.12
1013.052	1947.36
1013.344	1908.5
1013.637	1899.46
1013.93	1884.09
1014.222	1867.59
1014.514	1873.69
1014.807	1830.76
1015.099	1820.81
1015.391	1829.4
1015.683	1808.61
1015.976	1782.4
1016.268	1768.84
1016.56	1786.46
1016.851	1784.66
1017.143	1742.62
1017.435	1742.62
1017.727	1722.29
1018.018	1741.49
1018.31	1659.69
1018.602	1655.39
1018.893	1679.8
1019.185	1652.91
1019.476	1638.9
1019.767	1646.81
1020.058	1624.21
1020.35	1616.98
1020.641	1605.9
1020.932	1588.5
1021.223	1597.09
1021.514	1550.31
1021.804	1558.67
1022.095	1540.14
1022.386	1540.6
1022.677	1546.47
1022.967	1526.13
1023.258	1485
1023.548	1483.2
1023.839	1472.35
1024.129	1477.77
1024.419	1490.65
1024.709	1466.7
1025	1452.01
1025.29	1433.25
1025.58	1427.6
1025.87	1415.17
1026.16	1404.55
1026.449	1418.34
1026.739	1417.89
1027.029	1416.08
1027.319	1385.57
1027.608	1412.69
1027.898	1346.7
1028.187	1380.6
1028.477	1371.56
1028.766	1369.53
1029.055	1367.04
1029.344	1342.18
1029.634	1328.62
1029.923	1291.56
1030.212	1308.74
1030.501	1315.52
1030.79	1276.87
1031.078	1266.03
1031.367	1262.64
1031.656	1240.94
1031.945	1251.11
1032.233	1265.12
1032.522	1238.91
1032.81	1240.26
1033.099	1240.49
1033.387	1224.45
1033.675	1211.79
1033.963	1202.3
1034.251	1234.39
1034.54	1204.78
1034.828	1168.63
1035.116	1135.86
1035.403	1154.62
1035.691	1169.98
1035.979	1173.83
1036.267	1117.56
1036.554	1108.06
1036.842	1137.44
1037.129	1102.41
1037.417	1123.2
1037.704	1104.45
1037.992	1087.5
1038.279	1060.61
1038.566	1068.07
1038.853	1068.07
1039.14	1068.07
