Data from red_cardboard_box_FLMS001491_00025.txt Node
Date: Wed Feb 08 11:31:46 GMT 2017
User: dcchb
Spectrometer: FLMS00149
Trigger mode: 0
Integration Time (sec): 2.000000E-2
Scans to average: 10
Electric dark correction enabled: true
Nonlinearity correction enabled: false
Boxcar width: 0
XAxis mode: Wavelengths
Number of Pixels in Spectrum: 2048
>>>>>Begin Spectral Data<<<<<
341.393	-31.02
341.776	-31.02
342.16	-31.02
342.543	-52.48
342.927	-80.05
343.31	-72.14
343.693	-94.52
344.077	-67.85
344.46	-55.87
344.843	-79.38
345.226	-41.41
345.61	-27.63
345.993	-9.77
346.376	-0.06
346.759	7.63
347.142	37.68
347.525	47.4
347.908	64.8
348.291	83.78
348.674	92.82
349.057	114.52
349.44	122.65
349.823	131.69
350.206	165.81
350.588	187.96
350.971	208.07
351.354	245.13
351.737	245.13
352.119	261.63
352.502	262.54
352.884	274.29
353.267	305.25
353.65	302.53
354.032	308.41
354.414	317.22
354.797	317.9
355.179	324
355.562	322.65
355.944	350.67
356.326	351.35
356.709	343.89
357.091	359.93
357.473	361.97
357.855	354.74
358.238	351.12
358.62	360.39
359.002	347.28
359.384	346.6
359.766	343.21
360.148	355.41
360.53	337.34
360.912	355.87
361.294	325.58
361.676	331.01
362.057	324.68
362.439	346.83
362.821	330.1
363.203	340.27
363.584	331.46
363.966	318.58
364.348	314.74
364.729	339.6
365.111	326.26
365.493	324.23
365.874	312.93
366.256	332.59
366.637	320.16
367.019	330.56
367.4	302.99
367.781	333.95
368.163	327.62
368.544	324.45
368.925	324.23
369.306	328.52
369.688	306.83
370.069	308.64
370.45	327.62
370.831	314.96
371.212	316.77
371.593	306.15
371.974	305.92
372.355	303.44
372.736	289.43
373.117	325.36
373.498	341.63
373.879	309.99
374.26	335.3
374.641	326.26
375.021	309.09
375.402	328.07
375.783	312.48
376.163	297.11
376.544	315.19
376.925	326.04
377.305	313.38
377.686	329.88
378.066	318.58
378.447	345.92
378.827	352.48
379.208	314.51
379.588	334.4
379.968	302.99
380.349	329.43
380.729	320.16
381.109	322.65
381.489	335.75
381.87	330.1
382.25	355.41
382.63	342.99
383.01	335.75
383.39	328.97
383.77	343.89
384.15	346.38
384.53	331.01
384.91	354.51
385.29	338.01
385.67	347.96
386.049	352.7
386.429	342.31
386.809	351.57
387.189	368.75
387.568	361.52
387.948	345.47
388.328	355.87
388.707	346.15
389.087	370.33
389.466	343.66
389.846	358.8
390.225	349.31
390.605	345.47
390.984	368.3
391.363	357.22
391.743	351.35
392.122	361.97
392.501	358.58
392.881	360.39
393.26	362.65
393.639	372.14
394.018	383.89
394.397	364.23
394.776	370.78
395.155	368.3
395.534	357.67
395.913	373.04
396.292	362.19
396.671	380.27
397.05	377.33
397.429	375.53
397.808	379.14
398.186	385.02
398.565	389.76
398.944	366.49
399.323	374.62
399.701	383.89
400.08	375.53
400.458	380.95
400.837	389.99
401.215	375.07
401.594	374.4
401.972	387.73
402.351	392.7
402.729	387.05
403.107	395.41
403.486	397.45
403.864	406.94
404.242	391.8
404.62	409.65
404.999	416.66
405.377	415.07
405.755	422.76
406.133	417.79
406.511	414.4
406.889	401.06
407.267	397.22
407.645	399.48
408.023	427.5
408.401	416.66
408.779	424.79
409.156	416.43
409.534	404.9
409.912	432.25
410.29	461.85
410.667	447.84
411.045	428.41
411.422	427.95
411.8	448.52
412.178	454.62
412.555	443.32
412.933	452.36
413.31	461.17
413.687	432.25
414.065	459.59
414.442	446.71
414.819	460.72
415.197	464.11
415.574	466.6
415.951	458.69
416.328	458.46
416.705	470.89
417.082	476.32
417.46	459.82
417.837	479.93
418.214	482.87
418.591	481.96
418.967	459.14
419.344	496.88
419.721	497.56
420.098	492.36
420.475	496.2
420.852	500.72
421.228	492.81
421.605	478.8
421.982	474.73
422.358	486.26
422.735	511.57
423.111	496.65
423.488	511.57
423.864	523.77
424.241	499.59
424.617	520.83
424.994	528.52
425.37	498.46
425.746	545.92
426.123	549.08
426.499	518.12
426.875	538.23
427.251	533.26
427.627	542.3
428.003	529.87
428.379	537.1
428.756	561.06
429.132	552.25
429.507	566.71
429.883	556.99
430.259	556.54
430.635	578.69
431.011	570.55
431.387	583.21
431.763	594.73
432.138	611.45
432.514	601.28
432.89	604.9
433.265	590.89
433.641	586.37
434.016	603.09
434.392	606.71
434.767	611.23
435.143	621.85
435.518	632.7
435.894	627.05
436.269	614.84
436.644	651
437.02	647.84
437.395	641.96
437.77	654.62
438.145	615.52
438.52	660.04
438.895	669.53
439.271	670.66
439.646	671.11
440.021	669.08
440.395	680.83
440.77	665.24
441.145	682.64
441.52	679.02
441.895	675.18
442.27	679.25
442.645	690.55
443.019	692.81
443.394	705.24
443.769	683.54
444.143	701.39
444.518	700.72
444.892	731
445.267	706.37
445.641	713.15
446.016	727.16
446.39	698
446.764	723.99
447.139	728.06
447.513	715.86
447.887	740.04
448.262	723.99
448.636	735.97
449.01	727.61
449.384	729.42
449.758	745.23
450.132	759.25
450.506	738.23
450.88	744.1
451.254	758.34
451.628	758.12
452.002	758.12
452.376	803.09
452.75	784.56
453.123	788.17
453.497	790.88
453.871	768.51
454.244	804.67
454.618	791.11
454.992	832.01
455.365	784.1
455.739	804.67
456.112	823.2
456.486	841.5
456.859	874.72
457.232	848.51
457.606	853.71
457.979	864.78
458.352	871.33
458.725	887.38
459.099	879.24
459.472	888.06
459.845	885.34
460.218	912.91
460.591	921.95
460.964	889.64
461.337	916.76
461.71	940.03
462.083	932.57
462.456	924.44
462.829	924.89
463.201	966.47
463.574	964.21
463.947	966.25
464.32	1015.28
464.692	982.97
465.065	994.27
465.438	1002.4
465.81	1001.5
466.183	1017.77
466.555	1039.24
466.928	1032.46
467.3	1048.96
467.672	1022.29
468.045	1046.92
468.417	1064.1
468.789	1067.03
469.161	1074.49
469.534	1106.13
469.906	1117.65
470.278	1128.05
470.65	1135.73
471.022	1136.41
471.394	1148.39
471.766	1157.43
472.138	1185.22
472.51	1195.39
472.882	1165.79
473.253	1230.65
473.625	1223.19
473.997	1264.54
474.369	1264.54
474.74	1255.28
475.112	1262.06
475.484	1285.79
475.855	1309.51
476.227	1316.52
476.598	1336.63
476.97	1357.65
477.341	1371.21
477.713	1357.2
478.084	1393.35
478.455	1432.45
478.827	1424.76
479.198	1487.14
479.569	1477.87
479.94	1482.84
480.311	1479.23
480.682	1547.02
481.053	1554.03
481.424	1565.33
481.795	1594.25
482.166	1607.81
482.537	1640.58
482.908	1639.22
483.279	1676.51
483.65	1665.89
484.021	1694.36
484.391	1742.5
484.762	1775.94
485.133	1816.17
485.503	1807.81
485.874	1829.27
486.244	1808.26
486.615	1871.31
486.985	1867.24
487.356	1896.16
487.726	1901.59
488.097	1954.92
488.467	1985.2
488.837	1998.99
489.207	2051.19
489.578	2035.82
489.948	2045.31
490.318	2100.68
490.688	2075.14
491.058	2139.32
491.428	2142.71
491.798	2154.46
492.168	2213.22
492.538	2215.48
492.908	2229.72
493.278	2237.4
493.648	2267.23
494.017	2313.1
494.387	2300.22
494.757	2370.28
495.126	2366.89
495.496	2362.14
495.866	2383.61
496.235	2394.46
496.605	2441.01
496.974	2464.29
497.344	2472.19
497.713	2465.87
498.082	2455.25
498.452	2491.4
498.821	2517.84
499.19	2534.57
499.559	2564.85
499.928	2583.15
500.298	2586.32
500.667	2630.38
501.036	2636.03
501.405	2652.76
501.774	2645.98
502.143	2694.79
502.512	2688.23
502.88	2697.27
503.249	2727.1
503.618	2768.68
503.987	2744.05
504.356	2803.03
504.724	2821.34
505.093	2787.44
505.462	2824.73
505.83	2877.61
506.199	2868.57
506.567	2885.97
506.936	2904.73
507.304	2929.36
507.672	2967.78
508.041	2975.46
508.409	2991.28
508.777	2999.19
509.145	3051.61
509.514	3059.3
509.882	3061.33
510.25	3042.12
510.618	3114.21
510.986	3106.53
511.354	3166.19
511.722	3197.15
512.09	3186.98
512.458	3218.84
512.826	3224.94
513.193	3270.82
513.561	3243.25
513.929	3302.68
514.297	3349.23
514.664	3334.32
515.032	3363.92
515.4	3369.57
515.767	3426.29
516.135	3439.63
516.502	3489.57
516.869	3501.09
517.237	3510.59
517.604	3549.91
517.972	3533.64
518.339	3602.11
518.706	3567.08
519.073	3608.44
519.44	3636.23
519.808	3689.11
520.175	3620.19
520.542	3710.35
520.909	3765.95
521.276	3774.99
521.643	3767.53
522.009	3822.22
522.376	3820.18
522.743	3896.56
523.11	3965.71
523.477	3970.91
523.843	3992.38
524.21	4009.56
524.577	4061.98
524.943	4117.58
525.31	4111.02
525.676	4118.48
526.043	4159.38
526.409	4212.04
526.776	4226.73
527.142	4250.45
527.508	4266.72
527.874	4314.41
528.241	4298.59
528.607	4311.24
528.973	4386.72
529.339	4400.51
529.705	4402.77
530.071	4478.7
530.437	4492.48
530.803	4543.78
531.169	4579.94
531.535	4568.18
531.901	4570.67
532.267	4642.99
532.632	4604.79
532.998	4632.59
533.364	4689.76
533.73	4712.59
534.095	4784.22
534.461	4780.61
534.826	4837.1
535.192	4866.48
535.557	4865.8
535.923	4868.52
536.288	4914.39
536.653	4967.72
537.019	4906.48
537.384	5009.3
537.749	4958.23
538.114	4999.36
538.479	5068.51
538.845	5056.53
539.21	5090.88
539.575	5095.18
539.94	5136.76
540.305	5159.81
540.67	5193.93
541.034	5192.12
541.399	5264.66
541.764	5249.75
542.129	5267.83
542.494	5298.34
542.858	5347.37
543.223	5361.16
543.587	5421.95
543.952	5360.03
544.316	5407.26
544.681	5387.6
545.045	5436.64
545.41	5473.7
545.774	5506.24
546.138	5530.42
546.503	5558.67
546.867	5548.5
547.231	5619.46
547.595	5663.52
547.959	5722.05
548.324	5695.84
548.688	5714.37
549.052	5768.15
549.416	5746.23
549.779	5821.94
550.143	5811.54
550.507	5892.44
550.871	5932.44
551.235	5900.58
551.599	6028.49
551.962	5993.91
552.326	6021.03
552.689	6069.39
553.053	6105.77
553.417	6123.62
553.78	6187.58
554.143	6201.14
554.507	6242.94
554.87	6268.03
555.234	6320.23
555.597	6339.21
555.96	6384.86
556.323	6396.16
556.686	6507.12
557.05	6559.77
557.413	6591.18
557.776	6595.93
558.139	6657.4
558.502	6697.85
558.865	6685.19
559.228	6868.92
559.59	6809.71
559.953	6865.3
560.316	6951.85
560.679	7044.5
561.041	7052.19
561.404	7204.73
561.767	7193.65
562.129	7231.39
562.492	7270.71
562.854	7324.5
563.217	7414.66
563.579	7382.8
563.941	7531.72
564.304	7616.01
564.666	7679.06
565.028	7764.71
565.39	7786.63
565.753	7830.47
566.115	7924.71
566.477	7987.53
566.839	8047.42
567.201	8134.87
567.563	8167.64
567.925	8291.48
568.287	8299.16
568.648	8387.29
569.01	8494.86
569.372	8586.61
569.734	8648.76
570.095	8724.01
570.457	8799.26
570.819	8888.98
571.18	8986.15
571.542	9112.02
571.903	9186.82
572.265	9262.75
572.626	9285.35
572.987	9430.88
573.349	9518.11
573.71	9615.96
574.071	9700.03
574.432	9800.59
574.794	9935.95
575.155	9959.46
575.516	10024.76
575.877	10197.64
576.238	10252.1
576.599	10531.64
576.96	10533.45
577.32	10633.79
577.681	10760.11
578.042	10878.75
578.403	11082.36
578.763	11157.84
579.124	11314.9
579.485	11390.83
579.845	11553.99
580.206	11723.93
580.566	11833.98
580.927	11918.27
581.287	12084.15
581.648	12287.76
582.008	12462.67
582.368	12556.45
582.728	12777.91
583.089	12971.35
583.449	13021.97
583.809	13324.34
584.169	13547.38
584.529	13684.33
584.889	13925
585.249	14086.13
585.609	14234.37
585.969	14551.43
586.329	14842.27
586.688	15063.5
587.048	15204.52
587.408	15512.53
587.768	15670.27
588.127	15900.09
588.487	16180.54
588.846	16606.96
589.206	16798.6
589.565	17086.5
589.925	17549.54
590.284	17679.93
590.643	18061.62
591.003	18307.03
591.362	18629.06
591.721	18966.68
592.08	19202.38
592.44	19688.24
592.799	19938.85
593.158	20346.53
593.517	20657.48
593.876	21021.76
594.235	21184.47
594.593	21749.2
594.952	22138.12
595.311	22408.39
595.67	22856.97
596.029	23469.16
596.387	23797.28
596.746	24062.36
597.104	24439.53
597.463	24790.48
597.822	25300.3
598.18	25453.74
598.538	25966.04
598.897	26497.33
599.255	26575.06
599.613	27435.38
599.972	27530.97
600.33	28125.08
600.688	28377.95
601.046	28872.18
601.404	29457.47
601.762	29676.45
602.12	30217.45
602.478	30494.73
602.836	30967.72
603.194	31250.65
603.552	31653.8
603.91	31856.28
604.268	32654.45
604.625	32701
604.983	33266.87
605.341	33395.45
605.698	34024.36
606.056	34366.05
606.413	34736.21
606.771	35204.67
607.128	35578.22
607.485	35614.37
607.843	35941.6
608.2	36549.72
608.557	36923.49
608.914	37168.91
609.272	37527.54
609.629	37989.45
609.986	38260.41
610.343	38367.3
610.7	38874.85
611.057	39000.95
611.414	39266.48
611.771	39522.07
612.127	40017.42
612.484	40363.63
612.841	40528.14
613.198	40600.68
613.554	40778.08
613.911	41186.21
614.267	41453.09
614.624	41578.74
614.98	41933.76
615.337	42104.6
615.693	42361.09
616.05	42524.25
616.406	43021.41
616.762	42968.53
617.118	43101.41
617.475	43223.44
617.831	43539.14
618.187	43764.22
618.543	43949.07
618.899	44398.1
619.255	44442.39
619.611	44482.39
619.967	44716.06
620.323	44890.74
620.678	45054.13
621.034	44947.69
621.39	45144.52
621.746	45152.65
622.101	45736.14
622.457	45499.99
622.812	45728.01
623.168	45967.77
623.523	45960.32
623.879	46292.29
624.234	46035.57
624.589	46189.92
624.945	46340.42
625.3	46578.15
625.655	46422
626.01	46719.39
626.365	46817.47
626.72	46720.3
627.075	46788.09
627.43	47027.86
627.785	46800.75
628.14	46993.06
628.495	47108.31
628.85	47141.08
629.205	47058.82
629.559	47478.02
629.914	47321.86
630.269	47254.52
630.623	47384.01
630.978	47333.61
631.332	47461.97
631.687	47531.12
632.041	47552.59
632.396	47639.82
632.75	47489.09
633.104	47639.14
633.459	47472.37
633.813	47492.71
634.167	47535.64
634.521	47668.29
634.875	47718.01
635.229	47673.04
635.583	47578.81
635.937	47626.49
636.291	47580.61
636.645	47664.68
636.999	47619.71
637.352	47801.17
637.706	47509.2
638.06	47682.31
638.413	47712.59
638.767	47660.16
639.121	47622.19
639.474	47449.32
639.828	47589.88
640.181	47686.15
640.534	47795.3
640.888	47631.01
641.241	47414.52
641.594	47517.79
641.947	47547.62
642.301	47612.48
642.654	47634.17
643.007	47688.18
643.36	47546.72
643.713	47716.88
644.066	47756.65
644.419	47480.73
644.771	47297.68
645.124	46814.53
645.477	46891.37
645.83	46745.61
646.182	46539.74
646.535	46513.52
646.888	46668.55
647.24	46420.64
647.593	46732.5
647.945	46588.78
648.298	46315.79
648.65	46504.48
649.002	46296.13
649.355	46384.71
649.707	46435.11
650.059	46539.28
650.411	47093.17
650.763	47167.52
651.115	47365.25
651.467	47346.5
651.819	47480.5
652.171	47297.23
652.523	47377
652.875	47337.23
653.227	47126.84
653.578	47499.94
653.93	47406.61
654.282	47214.52
654.633	47110.34
654.985	47141.98
655.337	47267.63
655.688	47242.77
656.039	47305.82
656.391	47099.5
656.742	47124.35
657.094	47221.07
657.445	47285.71
657.796	47152.15
658.147	47217.91
658.498	47130.68
658.849	47151.92
659.2	47103.56
659.551	46978.37
659.902	47198.02
660.253	47096.78
660.604	47308.08
660.955	46904.92
661.306	46989.44
661.656	47004.13
662.007	47116.9
662.358	47031.93
662.708	47037.58
663.059	47059.27
663.409	46988.09
663.76	47115.77
664.11	47171.58
664.461	47189.21
664.811	47202.09
665.161	47043.68
665.511	47070.12
665.862	47140.85
666.212	47106.5
666.562	47156.9
666.912	47115.09
667.262	47069.44
667.612	47016.11
667.962	47093.85
668.312	46964.36
668.662	47170.45
669.011	47151.47
669.361	46940.86
669.711	47070.34
670.06	47035.54
670.41	46851.59
670.76	46827.41
671.109	47015.2
671.459	46874.64
671.808	46836
672.157	46955.55
672.507	46839.39
672.856	46628.32
673.205	46711.71
673.554	46807.98
673.904	46780.63
674.253	46938.37
674.602	46785.15
674.951	46243.25
675.3	45985.85
675.649	46617.47
675.998	46679.62
676.346	46735.66
676.695	46758.71
677.044	46449.34
677.393	46541.32
677.741	46638.49
678.09	46592.39
678.438	46383.58
678.787	46517.59
679.135	46415.9
679.484	46194.44
679.832	46378.39
680.181	46193.53
680.529	46445.5
680.877	46188.79
681.225	46195.11
681.573	46230.14
681.922	46100.65
682.27	45886.42
682.618	46029.02
682.966	45953.31
683.314	46001.45
683.661	45941.11
684.009	45766.88
684.357	45476.49
684.705	45563.27
685.053	45478.97
685.4	45466.32
685.748	45312.42
686.095	45411.18
686.443	45076.5
686.79	45175.93
687.138	45205.76
687.485	45165.31
687.832	45076.27
688.18	45101.81
688.527	44795.83
688.874	44914.24
689.221	44678.32
689.568	44565.1
689.915	44438.55
690.262	44512.67
690.609	44371.66
690.956	44316.74
691.303	44107.48
691.65	43967.83
691.997	43993.59
692.344	43722.18
692.69	43766.93
693.037	43934.38
693.383	43498.01
693.73	43599.25
694.077	43479.25
694.423	43462.76
694.769	43255.98
695.116	43213.95
695.462	43193.16
695.808	42939.83
696.155	42981.64
696.501	42777.8
696.847	42745.03
697.193	42525.61
697.539	42554.08
697.885	42317.25
698.231	42283.58
698.577	42393.18
698.923	42140.53
699.269	41903.7
699.614	41855.57
699.96	41740.54
700.306	41856.7
700.651	41730.37
700.997	41502.13
701.342	41531.05
701.688	41326.31
702.033	41229.14
702.379	41147.56
702.724	41018.53
703.069	41037.73
703.415	40727.23
703.76	40758.65
704.105	40790.28
704.45	40633.45
704.795	40412.89
705.14	40378.99
705.485	40329.05
705.83	40148.27
706.175	40184.2
706.52	39971.77
706.865	40061.94
707.209	39918.67
707.554	39876.86
707.899	39972.68
708.243	39798.67
708.588	39730.65
708.932	39400.72
709.277	39366.14
709.621	39336.31
709.966	39091.57
710.31	39218.35
710.654	38928.86
710.998	38978.35
711.342	38953.95
711.687	38924.34
712.031	38794.63
712.375	38563.45
712.719	38648.42
713.063	38617.46
713.407	38626.05
713.75	38605.93
714.094	38361.65
714.438	38243.46
714.782	38386.5
715.125	38173.86
715.469	38295.66
715.812	37983.8
716.156	37832.85
716.499	37872.62
716.843	37732.74
717.186	37570.71
717.53	37877.82
717.873	37801.44
718.216	37657.03
718.559	37504.72
718.902	37168.23
719.246	37318.74
719.589	37247.1
719.932	37129.81
720.275	37086.2
720.617	37072.87
720.96	37131.4
721.303	37208.46
721.646	37044.39
721.989	36867.45
722.331	37025.64
722.674	36834.46
723.016	36782.48
723.359	36696.83
723.701	36722.37
724.044	36542.26
724.386	36338.2
724.729	36681.92
725.071	36354.47
725.413	36380.91
725.755	36258.88
726.097	36310.63
726.439	36006.23
726.782	36014.14
727.124	36127.81
727.465	35957.42
727.807	36030.86
728.149	35968.94
728.491	35879
728.833	35933.24
729.175	35713.35
729.516	35626.13
729.858	35527.37
730.199	35695.95
730.541	35637.42
730.882	35516.98
731.224	35607.59
731.565	35264.33
731.906	35317.66
732.248	35463.19
732.589	35367.38
732.93	35024.79
733.271	35218.45
733.612	35073.37
733.953	35063.88
734.294	35043.77
734.635	34974.17
734.976	35097.33
735.317	34935.07
735.658	34770.33
735.999	34856.2
736.339	34759.26
736.68	34759.48
737.021	34613.5
737.361	34627.73
737.702	34626.15
738.042	34615.53
738.383	34459.15
738.723	34544.35
739.063	34271.36
739.404	34490.34
739.744	34444.01
740.084	34220.96
740.424	34303.22
740.764	34225.26
741.104	34261.42
741.444	34068.88
741.784	33907.53
742.124	34085.6
742.464	34008.54
742.804	33921.54
743.143	33902.78
743.483	33855.55
743.823	33659.17
744.162	33759.51
744.502	33756.34
744.841	33608.55
745.181	33738.72
745.52	33569.46
745.86	33674.54
746.199	33585.5
746.538	33528.78
746.877	33383.92
747.216	33524.94
747.556	33507.99
747.895	33324.72
748.234	33103.25
748.573	33181.67
748.911	33137.83
749.25	33208.11
749.589	33074.78
749.928	32958.85
750.267	33042.69
750.605	32914.56
750.944	32850.83
751.283	32779.87
751.621	32718.63
751.96	32552.53
752.298	32657.16
752.636	32655.81
752.975	32392.09
753.313	32331.75
753.651	32544.17
753.989	32332.2
754.327	32228.7
754.666	31943.51
755.004	32174.92
755.342	32084.07
755.679	31993.68
756.017	31903.74
756.355	32132.21
756.693	31836.85
757.031	31769.73
757.368	31522.73
757.706	31555.27
758.044	31646.34
758.381	31515.5
758.719	31316.86
759.056	31442.51
759.394	31294.94
759.731	31105.34
760.068	31164.32
760.405	30903.54
760.743	30904.89
761.08	30932.92
761.417	30742.41
761.754	30776.54
762.091	30700.15
762.428	30634.17
762.765	30432.59
763.102	30560.5
763.438	30352.59
763.775	30187.85
764.112	30146.95
764.449	30089.77
764.785	29937.91
765.122	29812.94
765.458	29687.75
765.795	29678.71
766.131	29601.65
766.467	29488.43
766.804	29394.88
767.14	29190.59
767.476	29353.07
767.812	29152.17
768.148	29248.67
768.485	28961.89
768.821	28751.5
769.157	28734.1
769.492	28688.91
769.828	28641.68
770.164	28415.47
770.5	28316.04
770.836	28505.41
771.171	28260.22
771.507	28070.17
771.842	27880.11
772.178	28062.03
772.513	27765.54
772.849	27796.95
773.184	27796.05
773.519	27863.39
773.855	27582.95
774.19	27481.71
774.525	27308.83
774.86	27337.3
775.195	27175.27
775.53	27158.78
775.865	26974.38
776.2	26876.3
776.535	26731.22
776.87	26599.92
777.205	26536.19
777.539	26385.24
777.874	26513.6
778.209	26272.93
778.543	26244
778.878	26095.08
779.212	26073.61
779.547	25837.23
779.881	25918.36
780.215	25722.21
780.55	25815.54
780.884	25673.17
781.218	25535.32
781.552	25588.65
781.886	25271.14
782.22	25277.7
782.554	25254.87
782.888	24916.35
783.222	25014.88
783.556	24828.9
783.889	24850.82
784.223	24646.75
784.557	24569.02
784.89	24569.47
785.224	24482.46
785.557	24284.28
785.891	24306.88
786.224	24230.72
786.558	24143.04
786.891	23935.13
787.224	23884.51
787.557	23874.34
787.891	23747.57
788.224	23869.37
788.557	23745.99
788.89	23594.35
789.223	23580.57
789.556	23379.22
789.888	23408.82
790.221	23330.4
790.554	23085.21
790.887	23121.82
791.219	22969.28
791.552	23034.59
791.884	22861.26
792.217	22772
792.549	22728.16
792.882	22698.1
793.214	22438.68
793.546	22393.03
793.879	22346.25
794.211	22208.85
794.543	22242.07
794.875	22162.75
795.207	22246.14
795.539	22003.21
795.871	22195.07
796.203	21942.42
796.535	21813.16
796.867	21778.13
797.198	21768.64
797.53	21635.31
797.862	21557.12
798.193	21450.23
798.525	21377.46
798.856	21447.06
799.188	21283.23
799.519	21153.06
799.85	21084.59
800.182	21049.79
800.513	21026.96
800.844	20808.66
801.175	21015.21
801.506	20990.35
801.837	20819.28
802.168	20666.07
802.499	20674.88
802.83	20583.13
803.161	20492.29
803.491	20357.83
803.822	20517.6
804.153	20328.22
804.483	20169.13
804.814	20147.44
805.145	20069.02
805.475	19972.53
805.805	20021.34
806.136	19964.84
806.466	19996.48
806.796	19916.93
807.126	19810.5
807.457	19703.61
807.787	19772.53
808.117	19599.2
808.447	19547.68
808.777	19640.56
809.107	19607.34
809.436	19503.84
809.766	19419.55
810.096	19414.35
810.426	19289.15
810.755	19364.63
811.085	19217.07
811.414	19194.92
811.744	19050.06
812.073	19024.08
812.403	19086.22
812.732	18917.41
813.061	18987.47
813.39	18739.11
813.719	18777.3
814.049	18757.87
814.378	18717.87
814.707	18602.39
815.036	18566.91
815.365	18584.54
815.693	18423.41
816.022	18463.19
816.351	18364.66
816.68	18261.61
817.008	18263.42
817.337	18168.05
817.665	18137.77
817.994	18209.86
818.322	18084.21
818.651	18061.16
818.979	18035.63
819.307	18050.99
819.636	17992.92
819.964	17897.55
820.292	17911.79
820.62	17836.76
820.948	17778.46
821.276	17845.8
821.604	17866.14
821.932	17920.83
822.259	17862.75
822.587	17820.94
822.915	17858.46
823.243	17921.51
823.57	17738.01
823.898	17778.46
824.225	17774.39
824.553	17789.31
824.88	17788.85
825.207	17842.86
825.535	17789.08
825.862	17716.77
826.189	17752.47
826.516	17708.18
826.843	17874.28
827.17	17847.84
827.497	17739.14
827.824	17770.55
828.151	17763.32
828.478	17771.68
828.805	17731
829.131	17664.11
829.458	17711.79
829.785	17678.12
830.111	17709.31
830.438	17743.21
830.764	17663.43
831.09	17791.57
831.417	17603.77
831.743	17706.37
832.069	17633.83
832.395	17617.79
832.722	17656.2
833.048	17652.13
833.374	17633.38
833.7	17534.85
834.026	17513.83
834.351	17582.31
834.677	17652.59
835.003	17587.05
835.329	17622.98
835.654	17491.46
835.98	17525.58
836.306	17455.98
836.631	17307.29
836.956	17462.99
837.282	17459.82
837.607	17274.74
837.932	17281.52
838.258	17298.92
838.583	17319.94
838.908	17152.49
839.233	17211.24
839.558	17177.8
839.883	17152.03
840.208	17096.22
840.533	17120.17
840.858	17022.09
841.182	17052.15
841.507	17039.5
841.832	16986.39
842.156	16983.45
842.481	16937.35
842.805	16875.66
843.13	16777.81
843.454	16839.95
843.778	16737.36
844.103	16538.49
844.427	16687.64
844.751	16627.75
845.075	16676.34
845.399	16497.14
845.723	16437.03
846.047	16432.28
846.371	16248.1
846.695	16313.41
847.019	16170.82
847.343	16072.52
847.666	15977.15
847.99	16010.6
848.313	15940.09
848.637	15857.38
848.96	15745.52
849.284	15717.95
849.607	15685.86
849.931	15644.73
850.254	15440.44
850.577	15488.12
850.9	15336.94
851.223	15339.88
851.546	15202.71
851.869	15226.89
852.192	15271.41
852.515	15118.87
852.838	15117.29
853.161	15044.07
853.483	15043.16
853.806	14949.38
854.129	14858.99
854.451	14799.78
854.774	14800.46
855.096	14758.65
855.419	14726.79
855.741	14576.28
856.063	14564.31
856.385	14524.99
856.708	14449.51
857.03	14453.8
857.352	14399.11
857.674	14403.41
857.996	14413.58
858.318	14175.16
858.64	14262.85
858.961	14252.45
859.283	14180.14
859.605	14108.73
859.926	14170.19
860.248	14117.54
860.57	14016.52
860.891	14038.22
861.212	13906.24
861.534	13889.97
861.855	13931.1
862.176	13868.05
862.498	13827.6
862.819	13858.11
863.14	13759.58
863.461	13776.98
863.782	13655.86
864.103	13654.05
864.424	13673.48
864.745	13692.69
865.065	13671.45
865.386	13611.11
865.707	13618.12
866.027	13523.43
866.348	13495.63
866.668	13453.6
866.989	13473.04
867.309	13359.82
867.63	13404.34
867.95	13465.8
868.27	13392.36
868.59	13362.76
868.91	13320.27
869.23	13334.06
869.55	13193.27
869.87	13220.61
870.19	13259.71
870.51	13216.32
870.83	13257.22
871.15	13278.92
871.469	13214.51
871.789	13124.34
872.109	13168.18
872.428	13094.74
872.748	13050.45
873.067	13066.94
873.386	13053.39
873.706	12998.47
874.025	12977
874.344	12963.44
874.663	12951.47
874.982	12952.82
875.301	12932.48
875.62	12888.64
875.939	12829.89
876.258	12839.83
876.577	12759.38
876.896	12877.57
877.214	12734.75
877.533	12829.44
877.852	12764.35
878.17	12707.63
878.489	12732.72
878.807	12775.65
879.125	12626.05
879.444	12713.73
879.762	12597.35
880.08	12634.19
880.398	12519.61
880.716	12577.24
881.034	12460.18
881.352	12508.09
881.67	12474.64
881.988	12489.78
882.306	12471.71
882.624	12432.16
882.941	12420.41
883.259	12297.93
883.577	12283.91
883.894	12242.56
884.212	12249.34
884.529	12190.36
884.846	12163.01
885.164	12279.39
885.481	12166.86
885.798	12158.72
886.115	12024.71
886.432	12010.93
886.75	11983.58
887.067	12052.51
887.383	11899.97
887.7	11964.6
888.017	11886.18
888.334	11922.57
888.651	11831.5
888.967	11798.73
889.284	11742.23
889.6	11757.37
889.917	11691.16
890.233	11654.1
890.55	11632.18
890.866	11650.03
891.182	11529.36
891.498	11515.57
891.815	11467.21
892.131	11484.61
892.447	11423.37
892.763	11448.91
893.079	11384.73
893.395	11370.49
893.71	11348.12
894.026	11327.33
894.342	11240.1
894.657	11158.07
894.973	11116.94
895.289	11149.93
895.604	11115.81
895.92	11023.61
896.235	11034.68
896.55	10991.74
896.865	10917.17
897.181	10922.14
897.496	10917.62
897.811	10874.23
898.126	10815.03
898.441	10760.79
898.756	10764.63
899.071	10675.82
899.386	10603.51
899.7	10685.54
900.015	10540.23
900.33	10462.04
900.644	10474.7
900.959	10459.78
901.273	10420.69
901.588	10446
901.902	10283.74
902.216	10336.17
902.531	10320.35
902.845	10267.47
903.159	10189.05
903.473	10147.25
903.787	10144.54
904.101	10071.09
904.415	10104.99
904.729	10081.03
905.042	9971.66
905.356	9973.47
905.67	9919.46
905.984	9907.48
906.297	9845.56
906.611	9750.65
906.924	9755.62
907.237	9729.41
907.551	9707.94
907.864	9610.09
908.177	9676.75
908.491	9615.74
908.804	9502.74
909.117	9515.63
909.43	9377.32
909.743	9426.59
910.056	9458.9
910.368	9342.07
910.681	9327.61
910.994	9268.4
911.307	9265.46
911.619	9121.29
911.932	9187.05
912.244	9034.28
912.557	9043.1
912.869	9060.95
913.181	9020.72
913.494	8977.11
913.806	8898.24
914.118	8890.56
914.43	8850.11
914.742	8854.85
915.054	8783.22
915.366	8745.93
915.678	8681.07
915.99	8745.25
916.302	8612.82
916.613	8503
916.925	8559.49
917.236	8564.24
917.548	8436.78
917.859	8493.51
918.171	8464.13
918.482	8368.76
918.794	8303.91
919.105	8250.8
919.416	8168.32
919.727	8253.74
920.038	8199.05
920.349	8124.48
920.66	8154.76
920.971	8151.59
921.282	8120.41
921.593	7880.41
921.903	7946.18
922.214	7914.09
922.525	7947.53
922.835	7883.58
923.146	7847.65
923.456	7899.4
923.767	7777.82
924.077	7779.85
924.387	7736.46
924.697	7659.86
925.008	7668.67
925.318	7585.96
925.628	7601.33
925.938	7559.97
926.248	7488.79
926.558	7499.41
926.867	7448.56
927.177	7394.1
927.487	7346.19
927.796	7324.95
928.106	7319.07
928.416	7299.19
928.725	7269.13
929.034	7223.03
929.344	7199.98
929.653	7205.86
929.962	7119.76
930.271	7115.91
930.581	7045.18
930.89	7043.83
931.199	7016.93
931.508	7014.45
931.817	6982.81
932.125	6919.54
932.434	6900.78
932.743	6842.48
933.051	6813.78
933.36	6825.75
933.669	6814.91
933.977	6723.16
934.286	6658.75
934.594	6649.03
934.902	6579.66
935.21	6561.58
935.519	6562.71
935.827	6581.69
936.135	6487.68
936.443	6449.04
936.751	6437.06
937.059	6421.92
937.367	6396.39
937.674	6396.16
937.982	6374.92
938.29	6355.03
938.597	6362.71
938.905	6239.1
939.213	6232.32
939.52	6204.75
939.827	6202.27
940.135	6161.59
940.442	6136.73
940.749	6113.91
941.056	6163.17
941.363	6063.06
941.67	6047.02
941.977	6072.1
942.284	5964.53
942.591	5959.33
942.898	5944.42
943.205	5909.62
943.511	5866.46
943.818	5860.35
944.125	5809.28
944.431	5795.72
944.738	5833.46
945.044	5738.32
945.35	5709.17
945.657	5704.43
945.963	5671.88
946.269	5629.85
946.575	5645.67
946.881	5576.07
947.187	5652.9
947.493	5583.3
947.799	5562.06
948.105	5488.16
948.41	5471.89
948.716	5442.29
949.022	5487.26
949.327	5400.48
949.633	5371.78
949.938	5408.39
950.244	5342.4
950.549	5273.93
950.854	5292.46
951.16	5244.33
951.465	5253.82
951.77	5215.63
952.075	5177.43
952.38	5219.02
952.685	5144.22
952.99	5128.62
953.294	5086.36
953.599	5136.53
953.904	5039.81
954.209	5042.52
954.513	5022.64
954.818	5009.3
955.122	4932.47
955.426	4986.48
955.731	4887.5
956.035	4896.09
956.339	4908.29
956.643	4842.53
956.948	4869.19
957.252	4855.64
957.556	4805.47
957.86	4762.76
958.163	4752.59
958.467	4677.33
958.771	4706.26
959.075	4705.36
959.378	4638.92
959.682	4685.92
959.985	4634.17
960.289	4618.58
960.592	4610.67
960.896	4553.5
961.199	4544.46
961.502	4534.74
961.805	4494.06
962.108	4463.1
962.411	4455.19
962.714	4458.81
963.017	4450.9
963.32	4434.86
963.623	4450.67
963.926	4367.06
964.228	4337.46
964.531	4375.65
964.833	4322.54
965.136	4269.44
965.438	4255.65
965.741	4275.76
966.043	4236.22
966.345	4211.81
966.648	4191.25
966.95	4170.68
967.252	4137.46
967.554	4163.68
967.856	4127.29
968.158	4128.2
968.46	4090.01
968.761	4057.69
969.063	4010.69
969.365	4037.8
969.666	4050.01
969.968	3978.14
970.269	4005.26
970.571	3986.51
970.872	3988.31
971.174	3903.57
971.475	3920.07
971.776	3906.96
972.077	3875.32
972.378	3845.94
972.679	3890.69
972.98	3878.71
973.281	3799.17
973.582	3755.32
973.883	3746.51
974.183	3770.69
974.484	3740.86
974.785	3698.6
975.085	3716.91
975.386	3721.88
975.686	3673.07
975.986	3663.8
976.287	3648.66
976.587	3627.87
976.887	3582.22
977.187	3595.56
977.487	3577.02
977.787	3567.31
978.087	3517.59
978.387	3530.7
978.687	3562.11
978.987	3517.14
979.286	3519.4
979.586	3532.73
979.885	3422.45
980.185	3443.24
980.484	3407.54
980.784	3418.61
981.083	3379.74
981.382	3404.15
981.682	3371.15
981.981	3390.14
982.28	3353.3
982.579	3320.76
982.878	3287.99
983.177	3307.43
983.475	3278.73
983.774	3248.9
984.073	3277.82
984.372	3211.61
984.67	3237.6
984.969	3231.27
985.267	3177.49
985.566	3162.35
985.864	3118.51
986.162	3127.09
986.461	3103.82
986.759	3134.55
987.057	3101.33
987.355	3091.16
987.653	3045.06
987.951	3024.27
988.249	3045.29
988.547	3008.68
988.844	3012.52
989.142	3018.85
989.44	2974.33
989.737	2970.94
990.035	2925.06
990.332	2954.67
990.63	2907.66
990.927	2896.82
991.224	2888.91
991.521	2880.77
991.819	2884.16
992.116	2851.17
992.413	2862.92
992.71	2834.9
993.006	2798.29
993.303	2840.77
993.6	2791.28
993.897	2779.08
994.193	2760.55
994.49	2801.45
994.787	2735.92
995.083	2701.57
995.379	2705.86
995.676	2709.25
995.972	2681
996.268	2641.68
996.565	2693.88
996.861	2640.55
997.157	2648.46
997.453	2592.64
997.749	2594
998.044	2565.53
998.34	2573.44
998.636	2579.99
998.932	2540.22
999.227	2554
999.523	2529.59
999.818	2485.3
1000.114	2470.61
1000.409	2506.32
1000.704	2441.69
1001	2429.94
1001.295	2441.69
1001.59	2424.96
1001.885	2416.38
1002.18	2398.07
1002.475	2389.26
1002.77	2349.26
1003.065	2354.23
1003.359	2354.46
1003.654	2335.25
1003.949	2303.16
1004.243	2266.55
1004.538	2269.94
1004.832	2321.92
1005.127	2278.75
1005.421	2258.42
1005.715	2264.29
1006.009	2251.86
1006.304	2221.58
1006.598	2181.36
1006.892	2191.75
1007.186	2197.17
1007.48	2182.03
1007.773	2181.13
1008.067	2148.14
1008.361	2107.01
1008.655	2136.61
1008.948	2094.8
1009.242	2092.32
1009.535	2081.7
1009.829	2083.5
1010.122	2059.55
1010.415	2077.63
1010.708	2041.25
1011.001	2038.99
1011.295	2005.54
1011.588	1998.54
1011.881	1968.93
1012.173	1965.77
1012.466	1979.78
1012.759	1953.11
1013.052	1937.75
1013.344	1911.31
1013.637	1899.1
1013.93	1917.86
1014.222	1891.19
1014.514	1898.42
1014.807	1872.44
1015.099	1822.49
1015.391	1877.41
1015.683	1852.78
1015.976	1804.42
1016.268	1796.96
1016.56	1820.23
1016.851	1807.35
1017.143	1761.48
1017.435	1771.42
1017.727	1773.68
1018.018	1755.6
1018.31	1713.34
1018.602	1720.12
1018.893	1701.82
1019.185	1677.19
1019.476	1713.34
1019.767	1652.1
1020.058	1689.62
1020.35	1656.85
1020.641	1621.37
1020.932	1635.38
1021.223	1620.92
1021.514	1621.6
1021.804	1577.98
1022.095	1566.23
1022.386	1586.79
1022.677	1575.95
1022.967	1566.46
1023.258	1563.52
1023.548	1549.06
1023.839	1497.31
1024.129	1487.59
1024.419	1503.18
1024.709	1492.56
1025	1507.47
1025.29	1480.58
1025.58	1440.81
1025.87	1425.89
1026.16	1419.57
1026.449	1444.65
1026.739	1395.61
1027.029	1436.29
1027.319	1390.19
1027.608	1390.87
1027.898	1390.42
1028.187	1373.92
1028.477	1377.99
1028.766	1329.63
1029.055	1339.8
1029.344	1340.25
1029.634	1342.51
1029.923	1313.58
1030.212	1307.93
1030.501	1287.59
1030.79	1309.97
1031.078	1250.31
1031.367	1302.51
1031.656	1287.14
1031.945	1251.21
1032.233	1233.58
1032.522	1268.16
1032.81	1220.48
1033.099	1220.25
1033.387	1208.05
1033.675	1184.32
1033.963	1193.81
1034.251	1187.48
1034.54	1162.85
1034.828	1170.76
1035.116	1173.47
1035.403	1168.5
1035.691	1149.97
1035.979	1122.4
1036.267	1119.91
1036.554	1126.92
1036.842	1142.29
1037.129	1110.42
1037.417	1081.27
1037.704	1075.62
1037.992	1097.54
1038.279	1067.94
1038.566	1087.6
1038.853	1087.6
1039.14	1087.6
