Data from red_shiny_book_FLMS001491_00093.txt Node
Date: Wed Feb 08 15:25:37 GMT 2017
User: dcchb
Spectrometer: FLMS00149
Trigger mode: 0
Integration Time (sec): 2.000000E-2
Scans to average: 10
Electric dark correction enabled: true
Nonlinearity correction enabled: false
Boxcar width: 0
XAxis mode: Wavelengths
Number of Pixels in Spectrum: 2048
>>>>>Begin Spectral Data<<<<<
341.393	-29.01
341.776	-29.01
342.16	-29.01
342.543	-62.23
342.927	-66.98
343.31	-74.43
343.693	-71.72
344.077	-53.64
344.46	-55.45
344.843	-47.99
345.226	-51.16
345.61	-50.25
345.993	-15.9
346.376	14.83
346.759	11.44
347.142	18.45
347.525	55.96
347.908	43.53
348.291	65.45
348.674	106.35
349.057	104.55
349.44	126.69
349.823	142.74
350.206	158.56
350.588	191.32
350.971	201.04
351.354	218.89
351.737	244.65
352.119	242.39
352.502	265.67
352.884	284.43
353.267	273.81
353.65	298.21
354.032	292.79
354.414	320.13
354.797	324.2
355.179	319
355.562	312.45
355.944	325.56
356.326	338.21
356.709	324.2
357.091	342.05
357.473	347.7
357.855	351.09
358.238	359.68
358.62	350.19
359.002	335.05
359.384	349.06
359.766	341.15
360.148	343.18
360.53	341.15
360.912	329.4
361.294	337.76
361.676	317.2
362.057	348.61
362.439	331.66
362.821	325.78
363.203	336.18
363.584	315.16
363.966	338.21
364.348	337.76
364.729	323.97
365.111	321.49
365.493	338.89
365.874	342.73
366.256	307.25
366.637	331.43
367.019	327.14
367.4	329.4
367.781	328.49
368.163	302.51
368.544	329.62
368.925	320.36
369.306	323.3
369.688	330.53
370.069	314.71
370.45	315.39
370.831	313.58
371.212	324.2
371.593	307.7
371.974	295.05
372.355	323.52
372.736	312.22
373.117	333.47
373.498	328.72
373.879	319.45
374.26	314.94
374.641	342.05
375.021	310.87
375.402	320.81
375.783	339.57
376.163	342.05
376.544	334.82
376.925	332.56
377.305	308.83
377.686	326.91
378.066	333.69
378.447	333.01
378.827	345.67
379.208	348.38
379.588	338.21
379.968	340.47
380.349	340.47
380.729	335.73
381.109	354.48
381.489	335.05
381.87	345.22
382.25	357.65
382.63	333.69
383.01	333.01
383.39	338.66
383.77	356.74
384.15	332.56
384.53	353.13
384.91	332.79
385.29	378.66
385.67	377.76
386.049	382.73
386.429	359.23
386.809	355.16
387.189	351.54
387.568	366.46
387.948	363.75
388.328	358.32
388.707	358.78
389.087	386.35
389.466	382.05
389.846	403.75
390.225	378.44
390.605	370.75
390.984	390.19
391.363	373.92
391.743	376.18
392.122	377.53
392.501	405.55
392.881	422.28
393.26	387.48
393.639	397.87
394.018	404.42
394.397	389.96
394.776	399.68
395.155	398.32
395.534	402.84
395.913	395.61
396.292	373.01
396.671	392.9
397.05	401.94
397.429	401.03
397.808	408.04
398.186	406.68
398.565	399.45
398.944	428.6
399.323	401.03
399.701	411.88
400.08	414.14
400.458	417.31
400.837	427.25
401.215	406.91
401.594	413.24
401.972	408.72
402.351	431.09
402.729	401.71
403.107	423.63
403.486	402.62
403.864	426.57
404.242	443.07
404.62	453.46
404.999	432.22
405.377	441.26
405.755	437.19
406.133	443.75
406.511	452.78
406.889	428.38
407.267	462.73
407.645	471.32
408.023	475.83
408.401	474.71
408.779	477.42
409.156	481.03
409.534	490.07
409.912	466.12
410.29	490.98
410.667	490.75
411.045	462.73
411.422	478.77
411.8	476.96
412.178	494.59
412.555	500.02
412.933	515.16
413.31	496.17
413.687	521.71
414.065	527.58
414.442	509.28
414.819	469.96
415.197	505.66
415.574	520.35
415.951	518.55
416.328	529.39
416.705	543.18
417.082	555.38
417.46	573.01
417.837	564.19
418.214	557.41
418.591	564.65
418.967	538.21
419.344	565.32
419.721	576.4
420.098	558.09
420.475	570.75
420.852	581.82
421.228	600.58
421.605	601.93
421.982	598.54
422.358	607.81
422.735	595.38
423.111	573.01
423.488	609.16
423.864	610.07
424.241	600.13
424.617	610.07
424.994	620.92
425.37	625.44
425.746	651.2
426.123	637.19
426.499	622.72
426.875	664.76
427.251	641.25
427.627	657.53
428.003	649.62
428.379	641.93
428.756	692.55
429.132	679.45
429.507	672.21
429.883	674.02
430.259	720.57
430.635	723.29
431.011	705.43
431.387	721.25
431.763	686.68
432.138	714.02
432.514	695.72
432.89	715.15
433.265	724.64
433.641	713.34
434.016	744.08
434.392	746.34
434.767	777.97
435.143	788.37
435.518	782.49
435.894	765.32
436.269	780.46
436.644	774.58
437.02	742.04
437.395	769.39
437.77	769.39
438.145	785.66
438.52	782.95
438.895	802.83
439.271	827.01
439.646	824.3
440.021	853
440.395	821.36
440.77	849.61
441.145	843.51
441.52	840.57
441.895	834.02
442.27	820.01
442.645	831.76
443.019	842.6
443.394	852.1
443.769	857.97
444.143	848.93
444.518	883.51
444.892	890.74
445.267	882.6
445.641	903.39
446.016	910.63
446.39	887.12
446.764	901.81
447.139	870.63
447.513	865.88
447.887	877.18
448.262	885.54
448.636	911.53
449.01	924.86
449.384	948.36
449.758	949.49
450.132	937.74
450.506	965.09
450.88	950.4
451.254	933.45
451.628	923.05
452.002	921.25
452.376	914.92
452.75	917.86
453.123	936.84
453.497	951.3
453.871	965.54
454.244	997.18
454.618	1027.01
454.992	1009.61
455.365	1015.48
455.739	1016.61
456.112	1029.04
456.486	1013
456.859	1024.3
457.232	1000.57
457.606	1002.6
457.979	1022.94
458.352	1027.23
458.725	1050.96
459.099	1066.33
459.472	1097.29
459.845	1121.92
460.218	1108.13
460.591	1116.04
460.964	1105.87
461.337	1125.31
461.71	1127.12
462.083	1113.56
462.456	1100.45
462.829	1084.18
463.201	1119.89
463.574	1089.6
463.947	1143.16
464.32	1171.64
464.692	1194.01
465.065	1186.55
465.438	1239.88
465.81	1236.72
466.183	1210.05
466.555	1239.43
466.928	1242.14
467.3	1216.83
467.672	1190.17
468.045	1236.27
468.417	1197.62
468.789	1207.57
469.161	1244.63
469.534	1293.67
469.906	1329.15
470.278	1335.25
470.65	1366.43
471.022	1361.91
471.394	1396.71
471.766	1408.01
472.138	1409.6
472.51	1388.35
472.882	1407.56
473.253	1406.21
473.625	1405.75
473.997	1409.14
474.369	1406.21
474.74	1421.57
475.112	1477.62
475.484	1521.46
475.855	1577.5
476.227	1593.32
476.598	1607.1
476.97	1643.71
477.341	1676.26
477.713	1660.44
478.084	1647.1
478.455	1656.82
478.827	1648.01
479.198	1670.38
479.569	1629.02
479.94	1690.49
480.311	1717.84
480.682	1745.41
481.053	1820.21
481.424	1855.69
481.795	1935.23
482.166	1979.07
482.537	2001.9
482.908	2004.16
483.279	2013.42
483.65	2027.21
484.021	2019.52
484.391	2030.37
484.762	2003.03
485.133	1989.47
485.503	2028.34
485.874	2059.3
486.244	2102.01
486.615	2147.88
486.985	2235.79
487.356	2277.82
487.726	2342
488.097	2402.34
488.467	2416.35
488.837	2470.81
489.207	2473.3
489.578	2505.39
489.948	2449.34
490.318	2452.73
490.688	2448.21
491.058	2454.99
491.428	2436.69
491.798	2464.71
492.168	2500.87
492.538	2494.76
492.908	2626.74
493.278	2727.98
493.648	2761.42
494.017	2826.96
494.387	2847.07
494.757	2887.52
495.126	2873.51
495.496	2886.39
495.866	2872.61
496.235	2869.9
496.605	2780.86
496.974	2795.55
497.344	2776.57
497.713	2809.56
498.082	2823.8
498.452	2877.58
498.821	2933.62
499.19	2944.02
499.559	3051.13
499.928	3129.32
500.298	3137.46
500.667	3202.09
501.036	3229.66
501.405	3244.58
501.774	3194.18
502.143	3185.59
502.512	3117.57
502.88	3106.5
503.249	3069.89
503.618	3011.14
503.987	3043.23
504.356	3072.15
504.724	3081.42
505.093	3133.39
505.462	3176.78
505.83	3231.92
506.199	3344.46
506.567	3383.78
506.936	3417.68
507.304	3443.67
507.672	3474.85
508.041	3491.57
508.409	3450.9
508.777	3351.01
509.145	3286.83
509.514	3287.74
509.882	3259.04
510.25	3225.14
510.618	3247.97
510.986	3231.24
511.354	3306.27
511.722	3368.41
512.09	3434.63
512.458	3458.58
512.826	3546.94
513.193	3564.12
513.561	3631.01
513.929	3689.54
514.297	3707.61
514.664	3688.63
515.032	3657.9
515.4	3614.28
515.767	3565.92
516.135	3513.95
516.502	3401.63
516.869	3411.58
517.237	3388.53
517.604	3399.37
517.972	3420.39
518.339	3469.65
518.706	3558.01
519.073	3625.13
519.44	3725.92
519.808	3814.96
520.175	3824.67
520.542	3894.28
520.909	3902.41
521.276	3913.48
521.643	3905.8
522.009	3831.68
522.376	3782.87
522.743	3701.06
523.11	3691.8
523.477	3690.21
523.843	3635.53
524.21	3655.41
524.577	3688.86
524.943	3741.29
525.31	3810.44
525.676	3891.56
526.043	3998
526.409	4065.35
526.776	4186.25
527.142	4202.52
527.508	4326.36
527.874	4347.37
528.241	4365
528.607	4279.12
528.973	4280.48
529.339	4224.89
529.705	4138.56
530.071	4128.17
530.437	4077.77
530.803	3984.22
531.169	4061.73
531.535	4082.75
531.901	4130.65
532.267	4179.69
532.632	4342.63
532.998	4391.44
533.364	4534.26
533.73	4611.77
534.095	4791.43
534.461	4830.75
534.826	4854.25
535.192	4846.79
535.557	4842.73
535.923	4802.95
536.288	4754.59
536.653	4728.83
537.019	4618.78
537.384	4586.69
537.749	4564.99
538.114	4529.29
538.479	4467.14
538.845	4526.35
539.21	4549.63
539.575	4645.89
539.94	4718.21
540.305	4890.86
540.67	4924.31
541.034	5048.14
541.399	5221.92
541.764	5240.91
542.129	5311.19
542.494	5346.44
542.858	5342.6
543.223	5272.09
543.587	5292.88
543.952	5190.29
544.316	5148.48
544.681	5019.22
545.045	4986
545.41	4974.7
545.774	4931.76
546.138	4952.33
546.503	4935.83
546.867	5058.31
547.231	5134.47
547.595	5238.2
547.959	5349.38
548.324	5406.1
548.688	5498.3
549.052	5613.55
549.416	5704.17
549.779	5747.11
550.143	5734.68
550.507	5731.29
550.871	5727.45
551.235	5647.68
551.599	5558.64
551.962	5431.41
552.326	5374.24
552.689	5320
553.053	5218.99
553.417	5185.77
553.78	5201.13
554.143	5165.88
554.507	5237.07
554.87	5324.3
555.234	5471.64
555.597	5498.3
555.96	5671.4
556.323	5722.93
556.686	5879.99
557.05	5942.36
557.413	6065.74
557.776	6021.9
558.139	6044.28
558.502	6049.7
558.865	5972.64
559.228	5992.07
559.59	5861.23
559.953	5728.8
560.316	5733.78
560.679	5621.24
561.041	5574.68
561.404	5540.33
561.767	5538.07
562.129	5522.93
562.492	5639.09
562.854	5630.5
563.217	5739.43
563.579	5893.77
563.941	5970.61
564.304	6103.94
564.666	6297.15
565.028	6335.12
565.39	6373.08
565.753	6493.53
566.115	6504.6
566.477	6501.89
566.839	6449.24
567.201	6354.55
567.563	6344.38
567.925	6236.14
568.287	6150.71
568.648	5993.2
569.01	5995.01
569.372	5966.09
569.734	5906.88
570.095	5940.55
570.457	5932.41
570.819	6054.45
571.18	6150.04
571.542	6224.84
571.903	6413.31
572.265	6525.85
572.626	6702.11
572.987	6820.98
573.349	6882.45
573.71	6999.05
574.071	7123.12
574.432	7218.93
574.794	7235.21
575.155	7202.66
575.516	7173.51
575.877	7118.37
576.238	7088.77
576.599	6968.55
576.96	6972.39
577.32	6905.95
577.681	6856.01
578.042	6993.18
578.403	6972.84
578.763	7052.39
579.124	7229.1
579.485	7440.85
579.845	7601.75
580.206	7898.92
580.566	8127.84
580.927	8389.07
581.287	8716.3
581.648	8959.45
582.008	9319.44
582.368	9522.83
582.728	9719.89
583.089	9885.08
583.449	10110.84
583.809	10303.83
584.169	10449.58
584.529	10624.72
584.889	10852.29
585.249	10928.44
585.609	11094.99
585.969	11403.23
586.329	11549.67
586.688	11787.18
587.048	12086.15
587.408	12457.89
587.768	12871.44
588.127	13189.4
588.487	13732.21
588.846	14348.24
589.206	14719.53
589.565	15310.02
589.925	15866.62
590.284	16255.31
590.643	16773.71
591.003	17287.6
591.362	17808.03
591.721	18231.53
592.08	18656.83
592.44	19085.74
592.799	19399.18
593.158	19824.48
593.517	20227.18
593.876	20433.5
594.235	20716.66
594.593	21038.01
594.952	21321.16
595.311	21660.81
595.67	22033.01
596.029	22556.84
596.387	23059.2
596.746	23465.96
597.104	23874.09
597.463	24341.65
597.822	25086.26
598.18	25476.53
598.538	25865.9
598.897	26687.35
599.255	26969.15
599.613	27901.55
599.972	28137.03
600.33	28819.72
600.688	29006.16
601.046	29699.47
601.404	29986.92
601.762	30279.35
602.12	30631.2
602.478	30919.1
602.836	31207.91
603.194	31226.44
603.552	31534.91
603.91	31669.37
604.268	31973.99
604.625	32155
604.983	32661.66
605.341	32653.07
605.698	33146.84
606.056	33622.08
606.413	33787.95
606.771	34220.94
607.128	34753.35
607.485	34839.9
607.843	35342.26
608.2	35919.87
608.557	36286.64
608.914	36471.95
609.272	36947.19
609.629	37379.5
609.986	37772.48
610.343	37870.56
610.7	38295.41
611.057	38556.42
611.414	38515.06
611.771	38726.81
612.127	38923.86
612.484	38970.42
612.841	38987.36
613.198	38945.33
613.554	38982.39
613.911	39343.29
614.267	39406.11
614.624	39424.42
614.98	39580.12
615.337	39809.04
615.693	39936.72
616.05	40016.72
616.406	40523.37
616.762	40542.13
617.118	40960.87
617.475	41214.88
617.831	41539.61
618.187	41737.35
618.543	42074.74
618.899	42250.56
619.255	42574.84
619.611	42527.16
619.967	42797.66
620.323	42943.42
620.678	42932.57
621.034	42889.18
621.39	42874.27
621.746	42811.44
622.101	43379.57
622.457	42911.56
622.812	42806.25
623.168	42940.26
623.523	42843.99
623.879	42983.87
624.234	42680.37
624.589	42766.7
624.945	42864.1
625.3	42854.61
625.655	42980.25
626.01	43128.5
626.365	43395.84
626.72	43302.51
627.075	43552.89
627.43	43522.16
627.785	43733.45
628.14	43930.51
628.495	44107
628.85	44151.07
629.205	44187.45
629.559	44399.43
629.914	44399.43
630.269	44328.24
630.623	44377.96
630.978	44326.66
631.332	44481.91
631.687	44393.55
632.041	44119.21
632.396	44053.22
632.75	43874.24
633.104	43846.45
633.459	43551.31
633.813	43561.93
634.167	43388.15
634.521	43375.72
634.875	43451.65
635.229	43327.59
635.583	43060.93
635.937	43235.39
636.291	43241.04
636.645	43427.25
636.999	43449.17
637.352	43584.98
637.706	43467.25
638.06	43807.12
638.413	43676.96
638.767	43701.14
639.121	43929.38
639.474	43843.73
639.828	43841.7
640.181	44118.08
640.534	44091.19
640.888	43860.91
641.241	43792.21
641.594	43736.39
641.947	43787.92
642.301	43492.56
642.654	43502.73
643.007	43326.46
643.36	43196.07
643.713	43151.77
644.066	43132.79
644.419	42794.72
644.771	42435.18
645.124	41944.8
645.477	41640.4
645.83	41571.03
646.182	41558.6
646.535	41328.09
646.888	41487.19
647.24	41409.67
647.593	41698.48
647.945	41581.65
648.298	41703.23
648.65	41679.72
649.002	41696.22
649.355	41918.59
649.707	41773.28
650.059	42098.02
650.411	42677.44
650.763	42663.43
651.115	43136.18
651.467	42972.8
651.819	42936.64
652.171	42798.11
652.523	42715.63
652.875	42662.75
653.227	42409.42
653.578	42637.66
653.93	42272.7
654.282	42131.46
654.633	41872.71
654.985	41820.74
655.337	41827.06
655.688	41706.62
656.039	41734.41
656.391	41355.66
656.742	41407.19
657.094	41497.13
657.445	41566.96
657.796	41533.06
658.147	41474.3
658.498	41586.62
658.849	41724.24
659.2	41874.97
659.551	41805.37
659.902	42088.53
660.253	42023.44
660.604	42148.64
660.955	42021.64
661.306	42186.38
661.656	42289.65
662.007	42326.26
662.358	42176.43
662.708	42223.66
663.059	42262.31
663.409	42036.32
663.76	42297.79
664.11	42023.9
664.461	42123.1
664.811	41854.86
665.161	41659.38
665.511	41566.28
665.862	41563.57
666.212	41475.89
666.562	41392.05
666.912	41270.69
667.262	41128.1
667.612	41073.86
667.962	41070.02
668.312	40869.35
668.662	41132.62
669.011	41036.58
669.361	41055.78
669.711	41044.49
670.06	40879.97
670.41	41065.73
670.76	41231.37
671.109	41364.93
671.459	41417.81
671.808	41439.73
672.157	41489.22
672.507	41374.87
672.856	41480.41
673.205	41433.63
673.554	41665.71
673.904	41678.59
674.253	41816.67
674.602	41686.28
674.951	41093.07
675.3	40748.45
675.649	41338.72
675.998	41264.37
676.346	41091.94
676.695	41274.54
677.044	40665.51
677.393	40796.36
677.741	40648.79
678.09	40450.6
678.438	40329.7
678.787	40336.71
679.135	40337.16
679.484	39902.82
679.832	40148.69
680.181	39869.38
680.529	39925.42
680.877	39849.04
681.225	39894.46
681.573	40118.63
681.922	40049.48
682.27	39983.5
682.618	40127.67
682.966	40230.72
683.314	40212.42
683.661	40130.16
684.009	40212.42
684.357	40159.54
684.705	40192.53
685.053	40209.25
685.4	40192.3
685.748	40087.45
686.095	40109.14
686.443	39971.75
686.79	39780.34
687.138	39829.83
687.485	39677.29
687.832	39515.03
688.18	39491.53
688.527	39241.14
688.874	39095.38
689.221	38841.38
689.568	38824.21
689.915	38437.55
690.262	38565
690.609	38304.22
690.956	38049.99
691.303	38039.14
691.65	37813.16
691.997	37889.77
692.344	37607.74
692.69	37566.16
693.037	37615.65
693.383	37329.56
693.73	37583.56
694.077	37324.81
694.423	37448.87
694.769	37429.21
695.116	37534.75
695.462	37578.36
695.808	37413.62
696.155	37642.09
696.501	37402.32
696.847	37349.89
697.193	37205.26
697.539	37405.03
697.885	37165.94
698.231	37039.85
698.577	36961.66
698.923	37038.49
699.269	36656.13
699.614	36620.42
699.96	36486.19
700.306	36445.51
700.651	36085.75
700.997	36111.96
701.342	35991.74
701.688	35809.6
702.033	35477.17
702.379	35479.21
702.724	35344.52
703.069	35176.84
703.415	34902.95
703.76	34839.23
704.105	34762.84
704.45	34665.9
704.795	34542.74
705.14	34420.93
705.485	34237.89
705.83	34279.01
706.175	34336.87
706.52	34358.56
706.865	34159.24
707.209	34298.9
707.554	34265.91
707.899	34362.18
708.243	34203.99
708.588	34169.64
708.932	34026.37
709.277	34131.22
709.621	34200.15
709.966	33970.77
710.31	34137.55
710.654	33974.62
710.998	34004.22
711.342	34094.61
711.687	33824.79
712.031	33579.15
712.375	33538.69
712.719	33573.72
713.063	33349.77
713.407	33357.23
713.75	33315.42
714.094	32996.79
714.438	32894.19
714.782	32841.76
715.125	32640.19
715.469	32565.61
715.812	32290.37
716.156	32164.72
716.499	32200.42
716.843	32186.41
717.186	31901
717.53	31889.92
717.873	31895.35
718.216	31932.41
718.559	31736.26
718.902	31562.25
719.246	31777.61
719.589	31573.32
719.932	31512.98
720.275	31614.45
720.617	31529.03
720.96	31703.04
721.303	31644.73
721.646	31915.69
721.989	31876.59
722.331	31879.98
722.674	31778.74
723.016	31782.36
723.359	31778.74
723.701	31741.23
724.044	31622.36
724.386	31354.8
724.729	31681.79
725.071	31512.53
725.413	31459.2
725.755	31361.8
726.097	31185.76
726.439	31103.96
726.782	31036.39
727.124	31165.2
727.465	30787.58
727.807	30802.5
728.149	30567.93
728.491	30411.32
728.833	30493.8
729.175	30223.75
729.516	30002.06
729.858	30172.23
730.199	29968.62
730.541	29915.06
730.882	29806.36
731.224	29851.56
731.565	29629.64
731.906	29800.49
732.248	29773.14
732.589	29636.42
732.93	29527.05
733.271	29586.71
733.612	29681.62
733.953	29722.3
734.294	29590.78
734.635	29634.39
734.976	29731.79
735.317	29638.01
735.658	29760.49
735.999	29736.99
736.339	29689.76
736.68	29907.38
737.021	29813.37
737.361	29674.62
737.702	29851.33
738.042	29688.63
738.383	29691.79
738.723	29851.11
739.063	29664.67
739.404	29652.24
739.744	29528.63
740.084	29378.8
740.424	29481.4
740.764	29313.49
741.104	29362.08
741.444	29084.12
741.784	28993.28
742.124	28811.36
742.464	28725.71
742.804	28671.7
743.143	28466.29
743.483	28522.1
743.823	28288.44
744.162	28143.58
744.502	28180.19
744.841	28125.28
745.181	28127.31
745.52	27913.08
745.86	28097.93
746.199	28043.47
746.538	27960.08
746.877	27994.66
747.216	27972.06
747.556	27891.61
747.895	27932.51
748.234	27913.08
748.573	27980.87
748.911	27885.96
749.25	27912.85
749.589	27893.87
749.928	28065.84
750.267	28141.1
750.605	28028.1
750.944	27902.46
751.283	27946.98
751.621	27969.58
751.96	27844.15
752.298	27833.53
752.636	27867.88
752.975	27854.32
753.313	27584.73
753.651	27752.41
753.989	27478.29
754.327	27497.95
754.666	27327.33
755.004	27290.5
755.342	27296.82
755.679	27071.29
756.017	26898.64
756.355	26981.13
756.693	26663.62
757.031	26738.65
757.368	26497.52
757.706	26416.17
758.044	26262.05
758.381	26278.09
758.719	26063.86
759.056	26037.2
759.394	25796.98
759.731	25736.41
760.068	25646.47
760.405	25495.74
760.743	25396.31
761.08	25555.4
761.417	25474.73
761.754	25329.64
762.091	25499.36
762.428	25401.73
762.765	25251
763.102	25387.72
763.438	25326.48
763.775	25078.13
764.112	25238.35
764.449	25244.22
764.785	25130.33
765.122	25119.25
765.458	25069.54
765.795	25005.36
766.131	25089.43
766.467	25093.04
766.804	24838.13
767.14	24824.57
767.476	24811.01
767.812	24718.81
768.148	24834.06
768.485	24597.69
768.821	24545.26
769.157	24336
769.492	24355.21
769.828	24176.91
770.164	24069.56
770.5	23905.95
770.836	23881.32
771.171	23697.82
771.507	23658.95
771.842	23358.62
772.178	23193.43
772.513	23310.49
772.849	23048.35
773.184	22946.66
773.519	22833.44
773.855	22696.49
774.19	22628.25
774.525	22525.65
774.86	22469.15
775.195	22475.03
775.53	22168.6
775.865	22193.46
776.2	21985.1
776.535	21903.29
776.87	21888.15
777.205	21692.68
777.539	21790.98
777.874	21759.12
778.209	21716.63
778.543	21655.39
778.878	21593.02
779.212	21576.75
779.547	21582.85
779.881	21595.51
780.215	21509.86
780.55	21529.07
780.884	21462.85
781.218	21446.58
781.552	21428.05
781.886	21292.69
782.22	21212.24
782.554	21176.53
782.888	20967.73
783.222	21048.18
783.556	20895.41
783.889	20910.78
784.223	20773.61
784.557	20711.91
784.89	20818.35
785.224	20509.66
785.557	20318.25
785.891	20399.15
786.224	20197.8
786.558	20207.75
786.891	19967.3
787.224	19856.57
787.557	19772.28
787.891	19717.14
788.224	19595.78
788.557	19639.4
788.89	19469.23
789.223	19452.06
789.556	19145.63
789.888	19121.22
790.221	19132.75
790.554	18908.57
790.887	18924.84
791.219	18881
791.552	18831.96
791.884	18740.89
792.217	18651.63
792.549	18585.42
792.882	18481.01
793.214	18337.96
793.546	18416.83
793.879	18326.67
794.211	18235.37
794.543	18299.77
794.875	18236.27
795.207	18370.96
795.539	18245.54
795.871	18321.92
796.203	18118.31
796.535	18087.35
796.867	18111.08
797.198	18099.55
797.53	18085.32
797.862	18042.38
798.193	18083.06
798.525	18020.46
798.856	17978.2
799.188	17813.46
799.519	17846.23
799.85	17771.2
800.182	17683.74
800.513	17658.89
800.844	17478.1
801.175	17755.38
801.506	17550.41
801.837	17495.27
802.168	17432.45
802.499	17305.45
802.83	17147.71
803.161	17053.03
803.491	17022.07
803.822	17054.61
804.153	16910.21
804.483	16685.58
804.814	16632.7
805.145	16592.25
805.475	16498.92
805.805	16468.63
806.136	16395.19
806.466	16385.47
806.796	16364.23
807.126	16059.83
807.457	16112.71
807.787	16070
808.117	16017.57
808.447	15923.11
808.777	16030.91
809.107	15863.68
809.436	15878.82
809.766	15818.48
810.096	15863.23
810.426	15823.68
810.755	15778.71
811.085	15787.75
811.414	15728.54
811.744	15603.12
812.073	15693.51
812.403	15662.33
812.732	15673.85
813.061	15672.05
813.39	15625.04
813.719	15566.74
814.049	15681.54
814.378	15569
814.707	15599.96
815.036	15571.71
815.365	15521.32
815.693	15431.83
816.022	15414.2
816.351	15455.33
816.68	15378.27
817.008	15362
817.337	15320.87
817.665	15188.89
817.994	15228.67
818.322	15263.92
818.651	15056.24
818.979	15002.91
819.307	15118.61
819.636	14943.7
819.964	14936.92
820.292	14988.45
820.62	14869.58
820.948	14746.87
821.276	14794.78
821.604	14741.9
821.932	14702.81
822.259	14662.81
822.587	14596.14
822.915	14589.14
823.243	14657.61
823.57	14529.48
823.898	14487.67
824.225	14525.18
824.553	14441.12
824.88	14385.3
825.207	14449.93
825.535	14426.88
825.862	14432.98
826.189	14413.55
826.516	14512.53
826.843	14581.9
827.17	14442.25
827.497	14478.86
827.824	14529.48
828.151	14537.39
828.478	14447.9
828.805	14636.82
829.131	14545.07
829.458	14549.82
829.785	14559.98
830.111	14546.88
830.438	14642.24
830.764	14661.68
831.09	14702.81
831.417	14655.58
831.743	14790.49
832.069	14708.23
832.395	14588.01
832.722	14762.92
833.048	14724.05
833.374	14692.41
833.7	14686.08
834.026	14731.28
834.351	14828.45
834.677	14745.74
835.003	14679.08
835.329	14702.81
835.654	14712.75
835.98	14564.05
836.306	14587.33
836.631	14453.77
836.956	14555.69
837.282	14405.19
837.607	14477.73
837.932	14347.33
838.258	14294.45
838.583	14275.25
838.908	14221.69
839.233	14150.73
839.558	14247.22
839.883	14129.49
840.208	14015.59
840.533	13928.81
840.858	13976.72
841.182	13943.28
841.507	13868.25
841.832	13786.45
842.156	13749.61
842.481	13729.5
842.805	13703.74
843.13	13646.56
843.454	13637.52
843.778	13550.07
844.103	13511.42
844.427	13462.84
844.751	13477.75
845.075	13443.4
845.399	13447.47
845.723	13386.91
846.047	13425.32
846.371	13333.58
846.695	13284.76
847.019	13208.38
847.343	13234.6
847.666	13130.87
847.99	13109.85
848.313	13162.73
848.637	13061.04
848.96	13076.86
849.284	13032.79
849.607	12980.14
849.931	12986.01
850.254	12933.59
850.577	12828.96
850.9	12949.41
851.223	12817.43
851.546	12761.61
851.869	12611.79
852.192	12777.43
852.515	12713.48
852.838	12626.25
853.161	12638
853.483	12549.87
853.806	12465.35
854.129	12455.86
854.451	12385.8
854.774	12299.25
855.096	12249.76
855.419	12306.26
855.741	12214.74
856.063	12135.42
856.385	12101.29
856.708	12029.66
857.03	11930.67
857.352	11920.96
857.674	11894.29
857.996	11742.66
858.318	11706.95
858.64	11698.82
858.961	11662.66
859.283	11577.01
859.605	11531.82
859.926	11499.5
860.248	11466.28
860.57	11411.37
860.891	11344.48
861.212	11282.1
861.534	11265.38
861.855	11220.86
862.176	11247.3
862.498	11208.43
862.819	11222.45
863.14	11193.07
863.461	11135.44
863.782	11092.05
864.103	11155.55
864.424	11114.43
864.745	11122.33
865.065	11070.13
865.386	11039.17
865.707	11046.4
866.027	11118.49
866.348	11058.61
866.668	11056.8
866.989	11080.08
867.309	10971.6
867.63	11013.41
867.95	11073.75
868.27	11007.99
868.59	11046.63
868.91	10982.68
869.23	11042.56
869.55	10975.22
869.87	11114.2
870.19	10977.93
870.51	11109.23
870.83	11100.19
871.15	10962.11
871.469	11051.38
871.789	11022.22
872.109	10984.71
872.428	10988.1
872.748	10926.41
873.067	10924.6
873.386	10922.79
873.706	10980.19
874.025	10903.81
874.344	10824.49
874.663	10912.85
874.982	10781.78
875.301	10815
875.62	10700.65
875.939	10723.7
876.258	10712.4
876.577	10630.82
876.896	10551.28
877.214	10520.54
877.533	10569.13
877.852	10513.31
878.17	10408.91
878.489	10443.26
878.807	10366.2
879.125	10398.51
879.444	10359.64
879.762	10274.22
880.08	10223.6
880.398	10222.92
880.716	10117.84
881.034	10129.14
881.352	10119.88
881.67	10116.49
881.988	10097.05
882.306	10036.94
882.624	10061.57
882.941	9942.7
883.259	9955.59
883.577	9893.44
883.894	9936.38
884.212	9907
884.529	9900.67
884.846	9873.33
885.164	9928.02
885.481	9870.39
885.798	9830.17
886.115	9871.97
886.432	9841.69
886.75	9832.88
887.067	9871.97
887.383	9847.79
887.7	9848.92
888.017	9810.05
888.334	9867.9
888.651	9773.9
888.967	9801.01
889.284	9736.16
889.6	9713.56
889.917	9741.58
890.233	9709.26
890.55	9710.17
890.866	9702.03
891.182	9681.02
891.498	9639.21
891.815	9631.3
892.131	9618.19
892.447	9609.38
892.763	9521.02
893.079	9528.03
893.395	9474.47
893.71	9527.12
894.026	9420.46
894.342	9421.14
894.657	9395.37
894.973	9349.05
895.289	9317.18
895.604	9275.83
895.92	9260.91
896.235	9214.14
896.55	9169.39
896.865	9129.62
897.181	9161.26
897.496	8967.36
897.811	8934.37
898.126	8974.14
898.441	8937.76
898.756	8888.72
899.071	8806.69
899.386	8781.38
899.7	8652.12
900.015	8625.23
900.33	8548.39
900.644	8520.82
900.959	8519.69
901.273	8471.78
901.588	8475.62
901.902	8479.47
902.216	8378.68
902.531	8379.36
902.845	8314.5
903.159	8279.25
903.473	8186.82
903.787	8192.69
904.101	8180.27
904.415	8175.29
904.729	8169.42
905.042	8116.09
905.356	8100.49
905.67	8070.44
905.984	8084.22
906.297	8004
906.611	7939.59
906.924	8031.34
907.237	7931.91
907.551	7967.16
907.864	7882.19
908.177	7906.15
908.491	7807.85
908.804	7835.42
909.117	7829.54
909.43	7821.4
909.743	7730.56
910.056	7720.16
910.368	7831.35
910.681	7760.16
910.994	7689.43
911.307	7700.05
911.619	7630.45
911.932	7676.32
912.244	7576.21
912.557	7560.62
912.869	7548.19
913.181	7512.49
913.494	7418.93
913.806	7483.33
914.118	7437.46
914.43	7395.2
914.742	7346.39
915.054	7309.78
915.366	7257.58
915.678	7325.37
915.99	7218.71
916.302	7182.78
916.613	7173.29
916.925	7145.26
917.236	7107.75
917.548	7064.14
917.859	7017.36
918.171	7020.3
918.482	6960.86
918.794	6972.61
919.105	6852.84
919.416	6848.55
919.727	6808.78
920.038	6785.05
920.349	6699.4
920.66	6693.52
920.971	6649.46
921.282	6653.75
921.593	6592.51
921.903	6544.83
922.214	6554.32
922.525	6559.74
922.835	6441.78
923.146	6383.93
923.456	6443.59
923.767	6333.76
924.077	6280.2
924.387	6326.08
924.697	6198.85
925.008	6279.98
925.318	6198.62
925.628	6207.89
925.938	6193.65
926.248	6076.14
926.558	6070.72
926.867	6045.18
927.177	6018.51
927.487	6050.15
927.796	5993.2
928.106	5970.61
928.416	5951.4
928.725	5975.8
929.034	5912.75
929.344	5952.75
929.653	5886.09
929.962	5857.61
930.271	5847.22
930.581	5825.52
930.89	5795.02
931.199	5749.14
931.508	5791.85
931.817	5818.07
932.125	5803.38
932.434	5754.57
932.743	5699.43
933.051	5656.04
933.36	5682.03
933.669	5686.55
933.977	5652.65
934.286	5682.03
934.594	5632.08
934.902	5596.38
935.21	5556.83
935.519	5560.45
935.827	5579.66
936.135	5480.68
936.443	5443.39
936.751	5463.05
937.059	5442.94
937.367	5454.46
937.674	5447.91
937.982	5374.01
938.29	5353.45
938.597	5348.7
938.905	5239.78
939.213	5254.01
939.52	5235.48
939.827	5256.95
940.135	5186.67
940.442	5164.07
940.749	5098.54
941.056	5151.19
941.363	5073.23
941.67	5051.08
941.977	5011.08
942.284	4983.29
942.591	4978.09
942.898	4962.95
943.205	4990.29
943.511	4865.1
943.818	4888.83
944.125	4854.02
944.431	4816.96
944.738	4785.33
945.044	4772.22
945.35	4750.98
945.657	4706.91
945.963	4706.46
946.269	4660.13
946.575	4672.56
946.881	4622.39
947.187	4574.48
947.493	4570.64
947.799	4546.69
948.105	4541.49
948.41	4469.18
948.716	4480.93
949.022	4452.91
949.327	4474.37
949.633	4411.55
949.938	4401.61
950.244	4402.74
950.549	4331.33
950.854	4369.97
951.16	4328.39
951.465	4330.87
951.77	4272.57
952.075	4319.12
952.38	4313.47
952.685	4287.71
952.99	4232.8
953.294	4273.48
953.599	4222.86
953.904	4269.63
954.209	4212.69
954.513	4226.24
954.818	4172.69
955.122	4168.39
955.426	4157.09
955.731	4160.03
956.035	4123.65
956.339	4133.14
956.643	4178.79
956.948	4101.95
957.252	4072.12
957.556	4033.03
957.86	4049.07
958.163	4094.95
958.467	4037.78
958.771	3996.19
959.075	3995.29
959.378	4003.43
959.682	3987.38
959.985	3925.69
960.289	3941.96
960.592	3883.2
960.896	3869.19
961.199	3857.89
961.502	3827.16
961.805	3880.72
962.108	3830.55
962.411	3784
962.714	3738.35
963.017	3756.88
963.32	3745.81
963.623	3747.39
963.926	3738.35
964.228	3722.76
964.531	3674.62
964.833	3687.05
965.136	3624.23
965.438	3639.37
965.741	3572.25
966.043	3579.26
966.345	3563.66
966.648	3515.98
966.95	3531.8
967.252	3485.47
967.554	3495.19
967.856	3439.6
968.158	3427.85
968.46	3435.76
968.761	3374.29
969.063	3405.02
969.365	3360.5
969.666	3332.03
969.968	3317.34
970.269	3306.72
970.571	3322.09
970.872	3295.42
971.174	3270.11
971.475	3221.53
971.776	3259.26
972.077	3192.37
972.378	3197.35
972.679	3192.6
972.98	3228.76
973.281	3168.65
973.582	3150.34
973.883	3136.33
974.183	3138.59
974.484	3104.24
974.785	3068.76
975.085	3097.69
975.386	3135.65
975.686	3071.92
975.986	3057.46
976.287	3029.89
976.587	3034.64
976.887	3062.66
977.187	3003
977.487	2993.73
977.787	2973.17
978.087	2992.83
978.387	2995.32
978.687	2911.25
978.987	2952.61
979.286	2955.77
979.586	2950.35
979.885	2934.08
980.185	2892.95
980.484	2906.51
980.784	2882.55
981.083	2866.05
981.382	2880.74
981.682	2894.75
981.981	2832.84
982.28	2840.74
982.579	2828.54
982.878	2814.53
983.177	2805.72
983.475	2821.99
983.774	2814.3
984.073	2756.9
984.372	2773.85
984.67	2770.01
984.969	2766.85
985.267	2738.15
985.566	2710.13
985.864	2671.03
986.162	2679.62
986.461	2673.97
986.759	2662.67
987.057	2659.05
987.355	2636
987.653	2630.35
987.951	2617.47
988.249	2606.63
988.547	2600.52
988.844	2574.31
989.142	2599.62
989.44	2525.95
989.737	2543.13
990.035	2567.53
990.332	2495.22
990.63	2493.63
990.927	2438.27
991.224	2455.22
991.521	2469.23
991.819	2420.42
992.116	2393.07
992.413	2400.08
992.71	2384.94
993.006	2399.17
993.303	2375.45
993.6	2384.94
993.897	2367.99
994.193	2347.42
994.49	2325.5
994.787	2276.24
995.083	2340.42
995.379	2263.81
995.676	2272.4
995.972	2265.39
996.268	2255
996.565	2243.25
996.861	2193.53
997.157	2190.14
997.453	2181.33
997.749	2157.15
998.044	2211.61
998.34	2179.74
998.636	2174.32
998.932	2133.42
999.227	2158.5
999.523	2105.17
999.818	2131.84
1000.114	2101.78
1000.409	2102.23
1000.704	2093.65
1001	2083.48
1001.295	2062.01
1001.59	2050.03
1001.885	2052.29
1002.18	2024.27
1002.475	2007.32
1002.77	2018.85
1003.065	2025.62
1003.359	2013.2
1003.654	1981.78
1003.949	1995.12
1004.243	1961.45
1004.538	1958.73
1004.832	1947.89
1005.127	1971.16
1005.421	1901.56
1005.715	1892.07
1006.009	1908.79
1006.304	1924.38
1006.598	1906.31
1006.892	1914.44
1007.186	1883.26
1007.48	1877.83
1007.773	1888.91
1008.067	1865.18
1008.361	1841
1008.655	1820.88
1008.948	1835.35
1009.242	1825.63
1009.535	1824.27
1009.829	1787.66
1010.122	1770.94
1010.415	1774.33
1010.708	1771.17
1011.001	1793.09
1011.295	1764.39
1011.588	1758.97
1011.881	1754.9
1012.173	1738.63
1012.466	1704.05
1012.759	1676.26
1013.052	1709.7
1013.344	1662.24
1013.637	1692.75
1013.93	1648.91
1014.222	1659.08
1014.514	1641.68
1014.807	1626.09
1015.099	1623.38
1015.391	1626.77
1015.683	1597.39
1015.976	1598.07
1016.268	1596.71
1016.56	1582.02
1016.851	1565.98
1017.143	1545.64
1017.435	1531.4
1017.727	1512.42
1018.018	1512.42
1018.31	1493.66
1018.602	1495.7
1018.893	1484.62
1019.185	1468.58
1019.476	1470.84
1019.767	1462.02
1020.058	1417.73
1020.35	1434.91
1020.641	1450.95
1020.932	1406.66
1021.223	1399.65
1021.514	1374.57
1021.804	1357.85
1022.095	1360.78
1022.386	1367.79
1022.677	1330.5
1022.967	1352.87
1023.258	1323.5
1023.548	1327.11
1023.839	1313.55
1024.129	1321.01
1024.419	1290.73
1024.709	1294.8
1025	1266.1
1025.29	1283.5
1025.58	1254.12
1025.87	1229.04
1026.16	1240.79
1026.449	1234.23
1026.739	1232.43
1027.029	1198.53
1027.319	1238.75
1027.608	1207.34
1027.898	1182.48
1028.187	1175.7
1028.477	1183.84
1028.766	1182.93
1029.055	1181.81
1029.344	1194.01
1029.634	1155.82
1029.923	1166.44
1030.212	1134.12
1030.501	1164.18
1030.79	1136.16
1031.078	1122.6
1031.367	1127.12
1031.656	1116.04
1031.945	1109.26
1032.233	1105.65
1032.522	1104.07
1032.81	1105.2
1033.099	1069.27
1033.387	1088.7
1033.675	1065.88
1033.963	1081.47
1034.251	1048.02
1034.54	1029.94
1034.828	1069.04
1035.116	1044.18
1035.403	1020.91
1035.691	1006.89
1035.979	1025.65
1036.267	1017.97
1036.554	998.76
1036.842	1027.23
1037.129	992.66
1037.417	1001.47
1037.704	961.92
1037.992	971.64
1038.279	969.83
1038.566	987.91
1038.853	987.91
1039.14	987.91
