Data from red_cardboard_box_FLMS001491_00092.txt Node
Date: Wed Feb 08 11:33:24 GMT 2017
User: dcchb
Spectrometer: FLMS00149
Trigger mode: 0
Integration Time (sec): 2.000000E-2
Scans to average: 10
Electric dark correction enabled: true
Nonlinearity correction enabled: false
Boxcar width: 0
XAxis mode: Wavelengths
Number of Pixels in Spectrum: 2048
>>>>>Begin Spectral Data<<<<<
341.393	-10.89
341.776	-10.89
342.16	-10.89
342.543	-58.57
342.927	-63.09
343.31	-81.62
343.693	-69.19
344.077	-65.35
344.46	-55.41
344.843	-56.54
345.226	-31.91
345.61	-30.1
345.993	-27.16
346.376	-5.69
346.759	9
347.142	30.24
347.525	30.01
347.908	81.54
348.291	70.24
348.674	95.77
349.057	106.17
349.44	103.91
349.823	141.2
350.206	175.32
350.588	209.67
350.971	219.84
351.354	243.12
351.737	236.79
352.119	265.49
352.502	272.04
352.884	285.6
353.267	305.94
353.65	302.32
354.032	303.68
354.414	314.98
354.797	320.4
355.179	312.49
355.562	310.01
355.944	323.11
356.326	334.64
356.709	340.51
357.091	337.8
357.473	357.69
357.855	343.23
358.238	353.62
358.62	341.19
359.002	333.06
359.384	355.65
359.766	315.88
360.148	332.6
360.53	339.84
360.912	352.94
361.294	352.49
361.676	339.16
362.057	327.63
362.439	333.51
362.821	341.19
363.203	324.92
363.584	328.76
363.966	309.55
364.348	353.39
364.729	310.46
365.111	347.75
365.493	342.77
365.874	308.2
366.256	329.89
366.637	336.67
367.019	335.99
367.4	303
367.781	314.3
368.163	330.34
368.544	305.94
368.925	323.11
369.306	299.61
369.688	354.75
370.069	307.52
370.45	324.02
370.831	310.46
371.212	306.16
371.593	333.06
371.974	316.11
372.355	314.53
372.736	321.31
373.117	322.89
373.498	326.05
373.879	305.26
374.26	308.2
374.641	332.38
375.021	295.32
375.402	328.31
375.783	345.49
376.163	339.61
376.544	314.75
376.925	325.6
377.305	321.08
377.686	321.31
378.066	347.97
378.447	312.04
378.827	347.07
379.208	349.33
379.588	351.59
379.968	328.08
380.349	343.68
380.729	356.33
381.109	357.01
381.489	343
381.87	335.99
382.25	326.5
382.63	345.49
383.01	333.06
383.39	324.47
383.77	339.61
384.15	338.93
384.53	340.29
384.91	339.84
385.29	334.41
385.67	352.49
386.049	347.29
386.429	354.07
386.809	336.67
387.189	357.46
387.568	364.69
387.948	346.39
388.328	352.94
388.707	351.36
389.087	373.06
389.466	363.79
389.846	380.29
390.225	361.08
390.605	357.69
390.984	366.73
391.363	378.48
391.743	348.65
392.122	347.52
392.501	371.02
392.881	367.86
393.26	354.52
393.639	382.32
394.018	370.12
394.397	361.3
394.776	365.82
395.155	357.01
395.534	381.19
395.913	383.9
396.292	390.68
396.671	355.2
397.05	391.13
397.429	381.42
397.808	371.47
398.186	355.65
398.565	410.12
398.944	392.04
399.323	399.5
399.701	393.85
400.08	395.43
400.458	373.96
400.837	386.16
401.215	410.12
401.594	374.41
401.972	387.74
402.351	416.22
402.729	394.07
403.107	392.94
403.486	411.25
403.864	405.37
404.242	418.48
404.62	408.31
404.999	419.16
405.377	408.08
405.755	400.63
406.133	418.93
406.511	415.54
406.889	416.44
407.267	414.18
407.645	426.16
408.023	439.27
408.401	408.76
408.779	433.62
409.156	441.53
409.534	436.78
409.912	452.83
410.29	453.05
410.667	425.94
411.045	431.81
411.422	425.03
411.8	433.84
412.178	445.14
412.555	449.89
412.933	454.41
413.31	443.56
413.687	468.65
414.065	452.38
414.442	456.67
414.819	459.83
415.197	470
415.574	472.04
415.951	469.32
416.328	507.29
416.705	477.23
417.082	484.69
417.46	501.64
417.837	489.89
418.214	505.48
418.591	489.66
418.967	488.08
419.344	490.11
419.721	494.86
420.098	504.58
420.475	476.56
420.852	530.11
421.228	495.99
421.605	519.49
421.982	525.82
422.358	518.14
422.735	524.24
423.111	517.23
423.488	533.28
423.864	527.85
424.241	533.28
424.617	539.38
424.994	514.52
425.37	540.51
425.746	529.44
426.123	535.99
426.499	566.72
426.875	562.88
427.251	545.48
427.627	573.95
428.003	552.49
428.379	552.94
428.756	565.82
429.132	549.55
429.507	573.95
429.883	576.67
430.259	565.59
430.635	588.87
431.011	560.62
431.387	597.91
431.763	599.94
432.138	626.83
432.514	584.12
432.89	591.35
433.265	595.42
433.641	619.6
434.016	602.43
434.392	621.64
434.767	611.47
435.143	634.07
435.518	639.04
435.894	663.89
436.269	658.02
436.644	651.01
437.02	671.58
437.395	658.7
437.77	661.41
438.145	648.08
438.52	682.2
438.895	648.53
439.271	683.56
439.646	694.85
440.021	703.89
440.395	694.85
440.77	696.21
441.145	657.57
441.52	680.84
441.895	695.31
442.27	717.45
442.645	719.49
443.019	729.43
443.394	714.97
443.769	721.07
444.143	715.87
444.518	721.29
444.892	707.06
445.267	735.31
445.641	724.68
446.016	722.2
446.39	728.07
446.764	744.34
447.139	765.36
447.513	734.18
447.887	761.52
448.262	763.1
448.636	750.67
449.01	762.88
449.384	766.72
449.758	768.3
450.132	745.25
450.506	789.32
450.88	785.7
451.254	794.74
451.628	782.08
452.002	783.44
452.376	811.69
452.75	812.59
453.123	823.44
453.497	813.95
453.871	822.31
454.244	845.36
454.618	818.47
454.992	846.72
455.365	858.01
455.739	862.08
456.112	869.09
456.486	865.92
456.859	900.05
457.232	891.23
457.606	898.47
457.979	909.31
458.352	896.66
458.725	888.97
459.099	907.28
459.472	925.81
459.845	912.48
460.218	923.32
460.591	950.67
460.964	959.71
461.337	970.1
461.71	977.56
462.083	980.04
462.456	983.66
462.829	966.26
463.201	981.63
463.574	1003.77
463.947	989.08
464.32	1048.74
464.692	1014.85
465.065	1030.89
465.438	1059.82
465.81	1072.92
466.183	1059.14
466.555	1104.11
466.928	1092.36
467.3	1089.87
467.672	1091.68
468.045	1123.54
468.417	1124.67
468.789	1121.74
469.161	1139.14
469.534	1131.45
469.906	1149.08
470.278	1173.26
470.65	1184.11
471.022	1193.15
471.394	1202.41
471.766	1222.75
472.138	1239.02
472.51	1224.56
472.882	1245.8
473.253	1274.73
473.625	1308.17
473.997	1278.79
474.369	1295.06
474.74	1308.4
475.112	1362.18
475.484	1349.07
475.855	1380.03
476.227	1364.89
476.598	1433.59
476.97	1417.1
477.341	1446.47
477.713	1482.86
478.084	1457.32
478.455	1517.43
478.827	1486.25
479.198	1533.25
479.569	1551.33
479.94	1603.76
480.311	1608.28
480.682	1621.16
481.053	1685.79
481.424	1683.08
481.795	1686.24
482.166	1733.25
482.537	1717.88
482.908	1736.64
483.279	1782.28
483.65	1813.92
484.021	1825.67
484.391	1784.77
484.762	1888.72
485.133	1878.78
485.503	1907.03
485.874	1958.78
486.244	1971.43
486.615	1968.72
486.985	1975.27
487.356	2029.73
487.726	2083.52
488.097	2103.41
488.467	2092.11
488.837	2125.33
489.207	2127.59
489.578	2178.21
489.948	2189.28
490.318	2179.79
490.688	2243.97
491.058	2292.55
491.428	2297.07
491.798	2312.44
492.168	2368.71
492.538	2379.33
492.908	2412.32
493.278	2446.67
493.648	2430.4
494.017	2450.97
494.387	2486.22
494.757	2503.17
495.126	2504.98
495.496	2512.43
495.866	2562.6
496.235	2589.49
496.605	2636.27
496.974	2577.29
497.344	2648.25
497.713	2651.41
498.082	2694.35
498.452	2712.88
498.821	2732.32
499.19	2712.88
499.559	2765.31
499.928	2783.84
500.298	2784.74
500.667	2827
501.036	2820.67
501.405	2872.88
501.774	2828.81
502.143	2878.75
502.512	2903.16
502.88	2880.79
503.249	2961.01
503.618	2938.64
503.987	2973.66
504.356	3001.91
504.724	2999.2
505.093	2980.44
505.462	3011.86
505.83	3082.14
506.199	3090.95
506.567	3090.95
506.936	3087.33
507.304	3159.65
507.672	3177.28
508.041	3215.69
508.409	3229.25
508.777	3213.66
509.145	3281.45
509.514	3260.44
509.882	3246.43
510.25	3312.19
510.618	3334.11
510.986	3346.31
511.354	3380.66
511.722	3409.81
512.09	3462.69
512.458	3418.4
512.826	3503.59
513.193	3509.02
513.561	3486.87
513.929	3532.75
514.297	3557.6
514.664	3620.2
515.032	3582.46
515.4	3603.48
515.767	3661.33
516.135	3685.28
516.502	3655
516.869	3751.05
517.237	3766.86
517.604	3760.31
517.972	3796.69
518.339	3796.47
518.706	3841.66
519.073	3867.43
519.44	3910.59
519.808	3945.39
520.175	3975.22
520.542	3995.56
520.909	4002.34
521.276	4030.36
521.643	4080.53
522.009	4071.49
522.376	4142
522.743	4151.71
523.11	4183.8
523.477	4223.35
523.843	4247.08
524.21	4319.62
524.577	4326.17
524.943	4384.7
525.31	4412.72
525.676	4437.81
526.043	4419.73
526.409	4494.98
526.776	4556.22
527.142	4517.13
527.508	4555.54
527.874	4600.29
528.241	4610.68
528.607	4675.54
528.973	4694.07
529.339	4712.15
529.705	4760.51
530.071	4802.54
530.437	4852.71
530.803	4863.78
531.169	4886.83
531.535	4903.33
531.901	4939.94
532.267	4972.71
532.632	4977.23
532.998	4987.62
533.364	5029.43
533.73	5057.45
534.095	5106.04
534.461	5108.98
534.826	5163.21
535.192	5153.49
535.557	5207.5
535.923	5212.25
536.288	5323.21
536.653	5314.39
537.019	5300.84
537.384	5292.7
537.749	5364.34
538.114	5370.21
538.479	5407.27
538.845	5432.36
539.21	5477.1
539.575	5476.88
539.94	5497.44
540.305	5535.63
540.67	5534.5
541.034	5605.46
541.399	5599.13
541.764	5627.15
542.129	5647.72
542.494	5637.32
542.858	5669.87
543.223	5684.33
543.587	5783.76
543.952	5722.97
544.316	5803.87
544.681	5823.31
545.045	5814.04
545.41	5867.6
545.774	5906.47
546.138	5916.41
546.503	5960.7
546.867	5981.04
547.231	6010.42
547.595	5989.4
547.959	6074.83
548.324	6105.33
548.688	6099.91
549.052	6134.49
549.416	6175.84
549.779	6190.08
550.143	6221.49
550.507	6254.93
550.871	6305.1
551.235	6327.02
551.599	6421.03
551.962	6410.41
552.326	6427.13
552.689	6509.84
553.053	6527.92
553.417	6557.53
553.78	6610.86
554.143	6627.35
554.507	6638.43
554.87	6664.64
555.234	6775.37
555.597	6764.75
555.96	6798.65
556.323	6834.58
556.686	6846.11
557.05	6918.65
557.413	6989.6
557.776	7004.29
558.139	7109.15
558.502	7150.05
558.865	7104.63
559.228	7223.5
559.59	7288.13
559.953	7297.84
560.316	7506.43
560.679	7409.71
561.041	7519.76
561.404	7631.62
561.767	7658.74
562.129	7625.52
562.492	7729.47
562.854	7848.79
563.217	7861.22
563.579	7909.58
563.941	7940.77
564.304	8086.07
564.666	8151.16
565.028	8193.41
565.39	8279.97
565.753	8330.13
566.115	8396.35
566.477	8520.86
566.839	8540.3
567.201	8642.44
567.563	8733.97
567.925	8810.8
568.287	8784.81
568.648	8897.8
569.01	8985.94
569.372	9080.85
569.734	9154.07
570.095	9252.6
570.457	9329.2
570.819	9349.99
571.18	9439.03
571.542	9624.79
571.903	9640.16
572.265	9718.8
572.626	9821.39
572.987	9892.13
573.349	10017.32
573.71	10101.39
574.071	10167.83
574.432	10253.25
574.794	10398.33
575.155	10441.04
575.516	10518.78
575.877	10745.66
576.238	10764.42
576.599	10863.63
576.96	10944.08
577.32	11085.77
577.681	11264.29
578.042	11361.01
578.403	11466.55
578.763	11636.94
579.124	11722.36
579.485	11845.52
579.845	12008.68
580.206	12100.43
580.566	12250.48
580.927	12459.97
581.287	12657.03
581.648	12694.99
582.008	12899.96
582.368	13027.86
582.728	13280.96
583.089	13415.88
583.449	13607.96
583.809	13825.81
584.169	14012.47
584.529	14206.59
584.889	14459.69
585.249	14623.3
585.609	14722.06
585.969	15086.79
586.329	15253.57
586.688	15509.83
587.048	15706.44
587.408	16029.59
587.768	16198.18
588.127	16459.41
588.487	16677.94
588.846	17094.42
589.206	17272.5
589.565	17673.39
589.925	17915.19
590.284	18183.66
590.643	18483.77
591.003	18885.56
591.362	19248.94
591.721	19535.04
592.08	19816.39
592.44	20232.42
592.799	20649.13
593.158	20859.75
593.517	21299.96
593.876	21699.95
594.235	22018.14
594.593	22442.76
594.952	22840.04
595.311	23149.63
595.67	23565.89
596.029	24087.01
596.387	24515.25
596.746	24972.41
597.104	25237.71
597.463	25614.88
597.822	26123.11
598.18	26363.11
598.538	26763.1
598.897	27302.74
599.255	27533.7
599.613	28315.15
599.972	28451.41
600.33	29006.2
600.688	29129.59
601.046	29864.26
601.404	30356.22
601.762	30590.79
602.12	31201.4
602.478	31619.69
602.836	31958.21
603.194	32199.56
603.552	32635.03
603.91	33028.69
604.268	33643.59
604.625	33857.15
604.983	34432.5
605.341	34575.32
605.698	35100.96
606.056	35628.4
606.413	35736.65
606.771	36442.39
607.128	36789.95
607.485	36862.72
607.843	37355.59
608.2	37782.02
608.557	38256.58
608.914	38365.5
609.272	38803.91
609.629	39265.82
609.986	39562.99
610.343	39642.08
610.7	40178.56
611.057	40449.74
611.414	40711.88
611.771	40915.27
612.127	41263.05
612.484	41423.95
612.841	41981.68
613.198	41954.79
613.554	42223.03
613.911	42677.71
614.267	42846.06
614.624	42983.69
614.98	43223.23
615.337	43630.22
615.693	43642.43
616.05	43945.92
616.406	44291.22
616.762	44252.58
617.118	44421.39
617.475	44825.45
617.831	44842.39
618.187	45025.44
618.543	45233.34
618.899	45700
619.255	45712.2
619.611	45922.37
619.967	46164.85
620.323	46327.1
620.678	46310.38
621.034	46308.12
621.39	46493.2
621.746	46584.95
622.101	47128.21
622.457	46892.74
622.812	47016.57
623.168	47141.77
623.523	47272.16
623.879	47530.01
624.234	47413.17
624.589	47597.8
624.945	47629.44
625.3	47906.49
625.655	47834.18
626.01	47924.8
626.365	48003.89
626.72	48013.84
627.075	48207.73
627.43	48182.87
627.785	48142.19
628.14	48333.38
628.495	48468.06
628.85	48419.02
629.205	48381.74
629.559	48607.72
629.914	48601.84
630.269	48702.86
630.623	48664.44
630.978	48638.23
631.332	48813.36
631.687	48950.99
632.041	48842.29
632.396	48942.17
632.75	48881.84
633.104	48963.87
633.459	48790.09
633.813	48910.54
634.167	48958.9
634.521	48898.33
634.875	49029.18
635.229	49018.78
635.583	48819.46
635.937	48911.67
636.291	48878.22
636.645	48909.63
636.999	48904.89
637.352	49005.22
637.706	48773.14
638.06	49007.71
638.413	48914.6
638.767	49000.03
639.121	48950.76
639.474	48814.95
639.828	48853.14
640.181	48873.7
640.534	49006.13
640.888	48926.58
641.241	48732.01
641.594	48876.64
641.947	49019.23
642.301	48964.32
642.654	48884.77
643.007	49040.25
643.36	48936.3
643.713	48923.87
644.066	49061.27
644.419	48743.31
644.771	48516.65
645.124	48128.86
645.477	48189.88
645.83	47908.08
646.182	47904.46
646.535	47780.4
646.888	47940.84
647.24	47817.68
647.593	48029.88
647.945	47878.7
648.298	47602.77
648.65	47656.33
649.002	47603.45
649.355	47814.07
649.707	47708.08
650.059	47896.1
650.411	48303.77
650.763	48325.24
651.115	48700.6
651.467	48689.52
651.819	48857.66
652.171	48608.85
652.523	48534.73
652.875	48616.08
653.227	48396.65
653.578	48707.6
653.93	48617.21
654.282	48472.36
654.633	48384.45
654.985	48548.74
655.337	48551
655.688	48590.09
656.039	48564.78
656.391	48346.93
656.742	48327.73
657.094	48382.19
657.445	48518.23
657.796	48442.3
658.147	48278.24
658.498	48459.02
658.849	48489.08
659.2	48332.92
659.551	48254.51
659.902	48407.27
660.253	48398.01
660.604	48269.65
660.955	48100.61
661.306	48376.31
661.656	48278.69
662.007	48414.73
662.358	48311.46
662.708	48357.78
663.059	48279.82
663.409	48034.4
663.76	48388.06
664.11	48510.09
664.461	48459.02
664.811	48403.66
665.161	48430.32
665.511	48276.43
665.862	48375.63
666.212	48339.03
666.562	48426.48
666.912	48297.44
667.262	48331.57
667.612	48211.57
667.962	48334.96
668.312	48241.18
668.662	48457.67
669.011	48303.32
669.361	48226.94
669.711	48345.81
670.06	48219.93
670.41	48129.31
670.76	48036.43
671.109	48238.69
671.459	48174.06
671.808	48078.92
672.157	48282.3
672.507	47922.99
672.856	48012.03
673.205	48094.51
673.554	48212.02
673.904	47954.4
674.253	48197.11
674.602	48081.86
674.951	47534.75
675.3	47283.01
675.649	48009.99
675.998	47944.01
676.346	47892.26
676.695	48059.26
677.044	47735.43
677.393	47889.55
677.741	47904.91
678.09	47678.25
678.438	47725.48
678.787	47801.86
679.135	47743.79
679.484	47595.99
679.832	47648.2
680.181	47392.38
680.529	47619.95
680.877	47431.25
681.225	47446.17
681.573	47585.37
681.922	47287.75
682.27	47193.74
682.618	47284.82
682.966	47146.06
683.314	47234.42
683.661	47123.92
684.009	46994.43
684.357	46868.33
684.705	46826.97
685.053	46868.78
685.4	46760.54
685.748	46695.9
686.095	46708.79
686.443	46525.74
686.79	46471.96
687.138	46486.19
687.485	46610.26
687.832	46295.46
688.18	46479.19
688.527	46200.78
688.874	46175.92
689.221	46068.12
689.568	45929.82
689.915	45898.19
690.262	45809.37
690.609	45800.11
690.956	45706.78
691.303	45632.2
691.65	45502.72
691.997	45335.71
692.344	45279.67
692.69	45249.39
693.037	45199.9
693.383	44981.37
693.73	45036.06
694.077	44708.16
694.423	44773.24
694.769	44700.48
695.116	44715.17
695.462	44534.61
695.808	44373.71
696.155	44460.26
696.501	44053.26
696.847	44296.42
697.193	43855.75
697.539	44040.16
697.885	43832.25
698.231	43744.8
698.577	43732.82
698.923	43616.89
699.269	43318.59
699.614	43192.49
699.96	43153.17
700.306	43195.88
700.651	42972.16
700.997	42767.19
701.342	42740.53
701.688	42734.65
702.033	42657.59
702.379	42664.37
702.724	42573.08
703.069	42461.67
703.415	41985.29
703.76	42123.6
704.105	42141.22
704.45	42043.15
704.795	41826.88
705.14	41751.63
705.485	41685.19
705.83	41411.52
706.175	41653.1
706.52	41443.61
706.865	41352.54
707.209	41280.45
707.554	41136.96
707.899	41293.11
708.243	40989.84
708.588	41010.4
708.932	40733.58
709.277	40705.55
709.621	40722.28
709.966	40512.56
710.31	40471.89
710.654	40173.14
710.998	40362.96
711.342	40256.75
711.687	40237.54
712.031	39932.92
712.375	39843.2
712.719	40038.68
713.063	39880.49
713.407	39921.62
713.75	39786.93
714.094	39757.78
714.438	39478.47
714.782	39626.71
715.125	39453.61
715.469	39430.11
715.812	39319.15
716.156	39221.53
716.499	39116.67
716.843	39184.92
717.186	38897.24
717.53	39136.56
717.873	39107.18
718.216	38886.17
718.559	38834.19
718.902	38516.91
719.246	38632.84
719.589	38400.08
719.932	38384.94
720.275	38341.1
720.617	38261.55
720.96	38315.56
721.303	38180.2
721.646	38358.05
721.989	38078.73
722.331	38161.89
722.674	37926.19
723.016	38073.53
723.359	38013.2
723.701	37951.73
724.044	37793.09
724.386	37617.95
724.729	37750.6
725.071	37659.98
725.413	37575.47
725.755	37486.66
726.097	37319.2
726.439	37309.26
726.782	37240.33
727.124	37439.2
727.465	37203.05
727.807	37266.55
728.149	37074.91
728.491	37014.8
728.833	37096.84
729.175	36959.21
729.516	36914.69
729.858	36792.44
730.199	36868.37
730.541	36720.57
730.882	36778.65
731.224	36791.53
731.565	36549.28
731.906	36561.93
732.248	36492.56
732.589	36369.4
732.93	36338.44
733.271	36206.46
733.612	36304.09
733.953	36288.27
734.294	36030.2
734.635	36165.56
734.976	36232.68
735.317	36066.35
735.658	35874.27
735.999	36080.59
736.339	35986.58
736.68	35989.97
737.021	35779.58
737.361	35601.06
737.702	35924.89
738.042	35720.83
738.383	35574.39
738.723	35733.71
739.063	35583.65
739.404	35662.07
739.744	35536.42
740.084	35349.08
740.424	35455.52
740.764	35507.27
741.104	35418.01
741.444	35127.17
741.784	35253.72
742.124	35267.5
742.464	35067.96
742.804	35011.92
743.143	35134.63
743.483	35032.48
743.823	34888.76
744.162	34879.94
744.502	35046.27
744.841	34919.27
745.181	34827.52
745.52	34691.93
745.86	34698.71
746.199	34691.47
746.538	34571.03
746.877	34679.72
747.216	34598.6
747.556	34409.45
747.895	34612.38
748.234	34436.34
748.573	34301.65
748.911	34326.96
749.25	34255.33
749.589	34118.38
749.928	34230.92
750.267	34186.18
750.605	34072.73
750.944	33987.99
751.283	33955.9
751.621	33892.63
751.96	33693.76
752.298	33829.8
752.636	33704.38
752.975	33578.74
753.313	33477.04
753.651	33577.38
753.989	33346.65
754.327	33430.94
754.666	33224.62
755.004	33297.39
755.342	33279.08
755.679	33005.19
756.017	33002.71
756.355	33121.57
756.693	32957.96
757.031	32971.07
757.368	32693.56
757.706	32710.51
758.044	32606.11
758.381	32652.43
758.719	32441.36
759.056	32524.53
759.394	32275.72
759.731	32235.95
760.068	32159.34
760.405	32185.1
760.743	31957.31
761.08	32099
761.417	31706.92
761.754	31820.59
762.091	31689.29
762.428	31560.71
762.765	31439.13
763.102	31578.56
763.438	31359.13
763.775	31237.33
764.112	31242.3
764.449	31220.83
764.785	30957.79
765.122	30793.05
765.458	30797.11
765.795	30768.87
766.131	30617.23
766.467	30642.54
766.804	30392.15
767.14	30238.94
767.476	30344.02
767.812	30099.73
768.148	30184.7
768.485	29895.89
768.821	29839.17
769.157	29932.05
769.492	29692.06
769.828	29682.12
770.164	29337.94
770.5	29355.12
770.836	29406.19
771.171	29121.23
771.507	29109.7
771.842	28841.23
772.178	28907.45
772.513	28828.13
772.849	28777.28
773.184	28630.17
773.519	28618.87
773.855	28568.25
774.19	28483.5
774.525	28258.65
774.86	28230.85
775.195	28090.07
775.53	28054.81
775.865	27919.9
776.2	27726.46
776.535	27524.66
776.87	27557.2
777.205	27530.76
777.539	27313.82
777.874	27394.27
778.209	27345
778.543	27180.94
778.878	26994.5
779.212	27046.93
779.547	26887.39
779.881	26864.79
780.215	26573.5
780.55	26730.33
780.884	26565.59
781.218	26470.9
781.552	26519.26
781.886	26320.17
782.22	26163.56
782.554	26104.36
782.888	25838.83
783.222	25769.22
783.556	25646.51
783.889	25671.15
784.223	25370.36
784.557	25344.38
784.89	25410.59
785.224	25292.63
785.557	25182.12
785.891	25114.33
786.224	25081.56
786.558	24991.62
786.891	24788.23
787.224	24694.9
787.557	24696.48
787.891	24640.44
788.224	24597.28
788.557	24546.2
788.89	24379.43
789.223	24423.72
789.556	24145.31
789.888	24106.89
790.221	24122.26
790.554	23876.62
790.887	23824.87
791.219	23828.03
791.552	23682.72
791.884	23566.57
792.217	23487.93
792.549	23470.98
792.882	23268.5
793.214	23121.38
793.546	23322.73
793.879	23086.13
794.211	22977.66
794.543	22971.33
794.875	22955.74
795.207	22925
795.539	22821.96
795.871	22797.78
796.203	22563.21
796.535	22606.82
796.867	22365.92
797.198	22433.72
797.53	22457.22
797.862	22294.74
798.193	22382.19
798.525	22115.08
798.856	22206.83
799.188	21972.94
799.519	21864.92
799.85	21704.47
800.182	21744.24
800.513	21856.56
800.844	21655.43
801.175	21697.69
801.506	21599.84
801.837	21566.17
802.168	21532.72
802.499	21479.84
802.83	21380.86
803.161	21209.12
803.491	21127.76
803.822	21137.93
804.153	21089.35
804.483	20899.07
804.814	20822.46
805.145	20855.23
805.475	20832.4
805.805	20727.1
806.136	20706.08
806.466	20643.71
806.796	20549.7
807.126	20481
807.457	20519.64
807.787	20396.48
808.117	20276.71
808.447	20287.33
808.777	20271.52
809.107	20196.26
809.436	20157.62
809.766	20122.14
810.096	20108.36
810.426	20019.32
810.755	19942.48
811.085	19899.77
811.414	19885.99
811.744	19613.91
812.073	19599.44
812.403	19632.89
812.732	19676.95
813.061	19614.81
813.39	19494.13
813.719	19304.53
814.049	19449.62
814.378	19402.39
814.707	19253.46
815.036	19234.71
815.365	19095.5
815.693	19030.42
816.022	19059.57
816.351	18886.24
816.68	18906.13
817.008	18970.98
817.337	18754.49
817.665	18775.06
817.994	18776.19
818.322	18817.77
818.651	18694.16
818.979	18643.54
819.307	18644.21
819.636	18571.22
819.964	18403.32
820.292	18516.08
820.62	18510.21
820.948	18533.71
821.276	18500.94
821.604	18450.55
821.932	18390.89
822.259	18488.29
822.587	18373.71
822.915	18375.75
823.243	18499.13
823.57	18370.55
823.898	18430.21
824.225	18372.36
824.553	18290.78
824.88	18333.03
825.207	18327.61
825.535	18342.53
825.862	18357.89
826.189	18282.64
826.516	18372.81
826.843	18454.61
827.17	18393.82
827.497	18426.37
827.824	18366.48
828.151	18375.29
828.478	18374.39
828.805	18400.38
829.131	18330.32
829.458	18255.3
829.785	18148.63
830.111	18276.31
830.438	18398.57
830.764	18292.81
831.09	18298.91
831.417	18231.12
831.743	18260.49
832.069	18268.86
832.395	18042.42
832.722	18219.82
833.048	18119.71
833.374	18209.42
833.7	18077.22
834.026	18215.07
834.351	18202.87
834.677	18224.79
835.003	18242.64
835.329	18114.74
835.654	18112.48
835.98	18060.5
836.306	18038.58
836.631	17955.87
836.956	18054.17
837.282	17949.99
837.607	17851.24
837.932	17903.22
838.258	17886.04
838.583	17790
838.908	17849.21
839.233	17786.83
839.558	17709.1
839.883	17652.83
840.208	17632.04
840.533	17603.34
840.858	17609.21
841.182	17626.61
841.507	17577.57
841.832	17565.37
842.156	17463
842.481	17487.41
842.805	17417.13
843.13	17354.08
843.454	17341.2
843.778	17361.08
844.103	17123.58
844.427	17168.77
844.751	17233.63
845.075	17088.32
845.399	17065.05
845.723	16925.39
846.047	17045.61
846.371	16835.9
846.695	16790.93
847.019	16741.44
847.343	16670.03
847.666	16486.3
847.99	16444.05
848.313	16450.15
848.637	16387.78
848.96	16290.15
849.284	16266.2
849.607	16185.52
849.931	16146.88
850.254	16049.25
850.577	15984.85
850.9	15824.17
851.223	15858.07
851.546	15813.55
851.869	15733.78
852.192	15788.47
852.515	15535.14
852.838	15505.99
853.161	15510.74
853.483	15463.96
853.806	15428.48
854.129	15402.49
854.451	15283.17
854.774	15283.62
855.096	15224.87
855.419	15184.42
855.741	15199.56
856.063	15037.98
856.385	14993.46
856.708	14904.65
857.03	14955.95
857.352	14911.66
857.674	14903.97
857.996	14715.5
858.318	14637.76
858.64	14668.5
858.961	14661.27
859.283	14604.32
859.605	14507.6
859.926	14565.45
860.248	14476.64
860.57	14375.4
860.891	14450.88
861.212	14348.73
861.534	14315.97
861.855	14352.35
862.176	14359.35
862.498	14330.2
862.819	14325
863.14	14247.49
863.461	14176.08
863.782	14174.73
864.103	14203.2
864.424	14022.19
864.745	14199.13
865.065	14134.73
865.386	14021.28
865.707	14097.21
866.027	14030.78
866.348	14039.81
866.668	13812.02
866.989	13827.39
867.309	13784.23
867.63	13873.27
867.95	13854.28
868.27	13851.8
868.59	13754.4
868.91	13720.27
869.23	13640.95
869.55	13661.29
869.87	13696.09
870.19	13664.01
870.51	13647.96
870.83	13642.31
871.15	13626.72
871.469	13608.87
871.789	13550.79
872.109	13548.3
872.428	13507.4
872.748	13568.19
873.067	13472.6
873.386	13494.29
873.706	13473.05
874.025	13367.74
874.344	13318.25
874.663	13422.66
874.982	13362.54
875.301	13367.97
875.62	13218.14
875.939	13212.49
876.258	13236.45
876.577	13295.88
876.896	13216.11
877.214	13187.86
877.533	13157.35
877.852	13197.8
878.17	13071.93
878.489	13132.49
878.807	13124.36
879.125	13106.28
879.444	13025.38
879.762	13036.23
880.08	13028.54
880.398	12958.26
880.716	12953.97
881.034	12918.94
881.352	12914.65
881.67	12869.9
881.988	12940.41
882.306	12927.98
882.624	12905.61
882.941	12792.39
883.259	12703.35
883.577	12680.75
883.894	12677.59
884.212	12662
884.529	12642.11
884.846	12545.39
885.164	12586.52
885.481	12574.09
885.798	12557.14
886.115	12456.58
886.432	12457.48
886.75	12395.11
887.067	12401.89
887.383	12323.02
887.7	12284.83
888.017	12300.88
888.334	12243.93
888.651	12169.58
888.967	12217.72
889.284	12123.71
889.6	12128.9
889.917	12058.17
890.233	12107.66
890.55	11999.42
890.866	12005.97
891.182	11923.94
891.498	11881.45
891.815	11869.25
892.131	11847.78
892.447	11775.69
892.763	11763.26
893.079	11727.78
893.395	11746.54
893.71	11749.93
894.026	11644.85
894.342	11583.16
894.657	11485.76
894.973	11516.72
895.289	11503.84
895.604	11449.6
895.92	11412.54
896.235	11302.71
896.55	11364.18
896.865	11309.94
897.181	11149.72
897.496	11252.77
897.811	11229.72
898.126	11169.61
898.441	11121.47
898.756	11065.66
899.071	11026.79
899.386	11005.77
899.7	10910.18
900.015	10915.6
900.33	10793.57
900.644	10799.9
900.959	10808.94
901.273	10726.23
901.588	10654.82
901.902	10682.39
902.216	10652.11
902.531	10573.69
902.845	10594.26
903.159	10517.65
903.473	10514.94
903.787	10406.46
904.101	10285.11
904.415	10375.5
904.729	10327.14
905.042	10356.3
905.356	10356.52
905.67	10247.82
905.984	10216.19
906.297	10184.1
906.611	10119.01
906.924	10109.52
907.237	10089.41
907.551	9967.15
907.864	9956.76
908.177	9932.35
908.491	9908.4
908.804	9945.01
909.117	9824.33
909.43	9749.08
909.743	9698.23
910.056	9629.76
910.368	9594.73
910.681	9572.36
910.994	9608.97
911.307	9565.13
911.619	9462.99
911.932	9440.84
912.244	9370.11
912.557	9354.97
912.869	9331.24
913.181	9307.51
913.494	9256.66
913.806	9167.17
914.118	9105.03
914.43	9093.05
914.742	9113.84
915.054	9033.62
915.366	8992.72
915.678	8948.42
915.99	8935.32
916.302	8880.85
916.613	8867.97
916.925	8866.84
917.236	8870.91
917.548	8779.61
917.859	8725.15
918.171	8690.58
918.482	8722.44
918.794	8662.78
919.105	8577.59
919.416	8539.39
919.727	8474.99
920.038	8463.69
920.349	8381.88
920.66	8461.66
920.971	8378.49
921.282	8367.65
921.593	8307.54
921.903	8258.72
922.214	8168.33
922.525	8186.41
922.835	8090.37
923.146	8046.53
923.456	8043.59
923.767	8020.31
924.077	7990.71
924.387	7979.63
924.697	7900.99
925.008	7876.36
925.318	7891.95
925.628	7838.85
925.938	7811.73
926.248	7738.51
926.558	7750.04
926.867	7672.98
927.177	7637.95
927.487	7626.2
927.796	7530.38
928.106	7559.76
928.416	7559.53
928.725	7562.24
929.034	7459.65
929.344	7459.2
929.653	7398.86
929.962	7317.96
930.271	7338.07
930.581	7311.86
930.89	7261.46
931.199	7225.76
931.508	7224.17
931.817	7139.2
932.125	7154.57
932.434	7093.33
932.743	7032.54
933.051	7031.86
933.36	6943.28
933.669	7020.34
933.977	6971.75
934.286	6934.46
934.594	6875.48
934.902	6782.6
935.21	6797.29
935.519	6856.5
935.827	6790.51
936.135	6781.7
936.443	6680.69
936.751	6715.04
937.059	6684.98
937.367	6607.47
937.674	6645.66
937.982	6583.97
938.29	6548.03
938.597	6542.38
938.905	6419.45
939.213	6493.12
939.52	6364.99
939.827	6365.67
940.135	6380.81
940.442	6322.05
940.749	6313.01
941.056	6285.67
941.363	6233.24
941.67	6236.4
941.977	6215.16
942.284	6183.75
942.591	6150.53
942.898	6099.91
943.205	6057.2
943.511	6075.28
943.818	6051.78
944.125	6002.51
944.431	5983.76
944.738	6027.14
945.044	5948.5
945.35	5920.48
945.657	5852.91
945.963	5822.86
946.269	5814.27
946.575	5812.23
946.881	5763.2
947.187	5806.81
947.493	5699.02
947.799	5718.9
948.105	5716.19
948.41	5630.32
948.716	5640.04
949.022	5636.65
949.327	5620.6
949.633	5580.83
949.938	5505.35
950.244	5467.61
950.549	5505.12
950.854	5438.46
951.16	5439.14
951.465	5405.24
951.77	5378.57
952.075	5330.44
952.38	5353.26
952.685	5339.93
952.99	5289.76
953.294	5289.31
953.599	5273.49
953.904	5172.03
954.209	5166.15
954.513	5228.29
954.818	5138.13
955.122	5086.38
955.426	5120.5
955.731	5066.04
956.035	5017
956.339	5021.75
956.643	5016.1
956.948	4988.08
957.252	4971.35
957.556	4940.84
957.86	4935.87
958.163	4902.43
958.467	4872.37
958.771	4891.81
959.075	4826.05
959.378	4840.73
959.682	4801.64
959.985	4791.02
960.289	4763.22
960.592	4724.58
960.896	4719.16
961.199	4673.73
961.502	4666.95
961.805	4639.61
962.108	4594.41
962.411	4613.85
962.714	4562.32
963.017	4584.92
963.32	4590.35
963.623	4538.14
963.926	4500.4
964.228	4447.52
964.531	4503.57
964.833	4491.82
965.136	4429.9
965.438	4431.71
965.741	4374.98
966.043	4365.49
966.345	4320.97
966.648	4283.01
966.95	4330.92
967.252	4291.6
967.554	4290.47
967.856	4287.3
968.158	4214.31
968.46	4225.84
968.761	4196.68
969.063	4184.03
969.365	4173.41
969.666	4132.73
969.968	4119.62
970.269	4106.74
970.571	4088.44
970.872	4050.02
971.174	4069.23
971.475	3986.75
971.776	4006.18
972.077	3973.64
972.378	3969.8
972.679	3980.19
972.98	3971.38
973.281	3943.13
973.582	3924.6
973.883	3891.38
974.183	3860.87
974.484	3873.08
974.785	3827.65
975.085	3815
975.386	3833.76
975.686	3827.65
975.986	3786.52
976.287	3718.5
976.587	3757.37
976.887	3758.28
977.187	3707.43
977.487	3717.37
977.787	3642.35
978.087	3669.47
978.387	3665.85
978.687	3636.25
978.987	3626.3
979.286	3600.99
979.586	3583.14
979.885	3507.66
980.185	3562.35
980.484	3509.47
980.784	3532.97
981.083	3497.72
981.382	3496.81
981.682	3468.12
981.981	3486.42
982.28	3429.02
982.579	3405.07
982.878	3406.42
983.177	3344.28
983.475	3360.55
983.774	3360.1
984.073	3283.26
984.372	3327.55
984.67	3333.2
984.969	3303.37
985.267	3254.79
985.566	3274.22
985.864	3235.8
986.162	3227.67
986.461	3179.31
986.759	3180.21
987.057	3165.07
987.355	3184.51
987.653	3190.83
987.951	3118.97
988.249	3137.28
988.547	3143.38
988.844	3115.36
989.142	3078.07
989.44	3088.24
989.737	3068.58
990.035	3020.67
990.332	2991.74
990.63	2997.84
990.927	2987.45
991.224	2988.13
991.521	2982.7
991.819	2905.19
992.116	2963.27
992.413	2953.78
992.71	2902.93
993.006	2903.84
993.303	2879.43
993.6	2860.22
993.897	2881.46
994.193	2836.27
994.49	2827.45
994.787	2806.44
995.083	2775.03
995.379	2775.93
995.676	2751.07
995.972	2747.46
996.268	2728.25
996.565	2712.2
996.861	2715.59
997.157	2719.21
997.453	2673.11
997.749	2699.1
998.044	2679.89
998.34	2620.45
998.636	2644.41
998.932	2621.36
999.227	2598.31
999.523	2586.78
999.818	2540.23
1000.114	2593.56
1000.409	2569.61
1000.704	2561.47
1001	2523.06
1001.295	2486.67
1001.59	2508.14
1001.885	2490.29
1002.18	2475.15
1002.475	2441.02
1002.77	2454.36
1003.065	2432.89
1003.359	2471.53
1003.654	2364.19
1003.949	2366.68
1004.243	2350.86
1004.538	2336.62
1004.832	2364.87
1005.127	2366.9
1005.421	2318.31
1005.715	2290.52
1006.009	2312.89
1006.304	2276.28
1006.598	2250.52
1006.892	2235.38
1007.186	2251.2
1007.48	2229.05
1007.773	2236.06
1008.067	2220.46
1008.361	2174.59
1008.655	2136.62
1008.948	2154.7
1009.242	2147.47
1009.535	2160.58
1009.829	2120.81
1010.122	2082.39
1010.415	2127.59
1010.708	2093.46
1011.001	2088.94
1011.295	2027.47
1011.588	2046.68
1011.881	2043.97
1012.173	2025.44
1012.466	2003.75
1012.759	1989.51
1013.052	2022.28
1013.344	1973.47
1013.637	1975.72
1013.93	1974.82
1014.222	1946.8
1014.514	1954.71
1014.807	1932.79
1015.099	1912.22
1015.391	1879.91
1015.683	1886.01
1015.976	1877.87
1016.268	1843.98
1016.56	1849.4
1016.851	1830.87
1017.143	1814.83
1017.435	1808.5
1017.727	1839.68
1018.018	1774.6
1018.31	1775.05
1018.602	1748.84
1018.893	1761.72
1019.185	1747.03
1019.476	1720.59
1019.767	1739.57
1020.058	1713.13
1020.35	1710.2
1020.641	1693.92
1020.932	1645.34
1021.223	1641.95
1021.514	1650.31
1021.804	1618.67
1022.095	1617.32
1022.386	1613.47
1022.677	1605.11
1022.967	1557.88
1023.258	1599.01
1023.548	1558.11
1023.839	1569.41
1024.129	1538.67
1024.419	1533.93
1024.709	1556.07
1025	1543.87
1025.29	1532.35
1025.58	1500.48
1025.87	1469.52
1026.16	1505
1026.449	1481.95
1026.739	1449.86
1027.029	1476.08
1027.319	1453.03
1027.608	1427.26
1027.898	1397.21
1028.187	1390.66
1028.477	1420.71
1028.766	1364.22
1029.055	1372.12
1029.344	1378.68
1029.634	1373.03
1029.923	1360.37
1030.212	1349.3
1030.501	1332.58
1030.79	1325.8
1031.078	1300.49
1031.367	1329.41
1031.656	1309.53
1031.945	1278.57
1032.233	1288.74
1032.522	1275.18
1032.81	1246.03
1033.099	1261.17
1033.387	1258.23
1033.675	1242.41
1033.963	1261.39
1034.251	1230.43
1034.54	1186.82
1034.828	1217.78
1035.116	1219.81
1035.403	1174.62
1035.691	1181.4
1035.979	1159.93
1036.267	1147.95
1036.554	1149.76
1036.842	1149.08
1037.129	1129.19
1037.417	1131.68
1037.704	1106.82
1037.992	1115.41
1038.279	1126.48
1038.566	1106.37
1038.853	1106.37
1039.14	1106.37
