Data from red_shiny_book_FLMS001491_00096.txt Node
Date: Wed Feb 08 15:25:38 GMT 2017
User: dcchb
Spectrometer: FLMS00149
Trigger mode: 0
Integration Time (sec): 2.000000E-2
Scans to average: 10
Electric dark correction enabled: true
Nonlinearity correction enabled: false
Boxcar width: 0
XAxis mode: Wavelengths
Number of Pixels in Spectrum: 2048
>>>>>Begin Spectral Data<<<<<
341.393	-20.08
341.776	-20.08
342.16	-20.08
342.543	-47.65
342.927	-69.35
343.31	-52.85
343.693	-79.07
344.077	-59.41
344.46	-71.83
344.843	-65.73
345.226	-35.45
345.61	-28.67
345.993	-31.84
346.376	-7.66
346.759	-1.55
347.142	37.54
347.525	32.12
347.908	61.5
348.291	94.49
348.674	95.39
349.057	113.02
349.44	146.47
349.823	144.66
350.206	172.45
350.588	207.93
350.971	220.14
351.354	210.19
351.737	239.12
352.119	253.81
352.502	288.38
352.884	291.09
353.267	292.68
353.65	314.14
354.032	309.4
354.414	301.94
354.797	321.6
355.179	339.45
355.562	355.95
355.944	317.31
356.326	361.37
356.709	331.77
357.091	318.21
357.473	356.18
357.855	367.48
358.238	333.58
358.62	364.99
359.002	348.95
359.384	343.52
359.766	321.15
360.148	334.03
360.53	350.98
360.912	368.38
361.294	354.37
361.676	329.51
362.057	343.07
362.439	342.84
362.821	314.37
363.203	335.61
363.584	327.48
363.966	337.87
364.348	327.93
364.729	355.95
365.111	305.33
365.493	338.55
365.874	316.63
366.256	311.88
366.637	321.38
367.019	315.73
367.4	336.74
367.781	346.69
368.163	326.35
368.544	324.09
368.925	332.9
369.306	341.49
369.688	318.66
370.069	305.78
370.45	327.7
370.831	312.56
371.212	344.65
371.593	334.71
371.974	320.92
372.355	331.32
372.736	320.02
373.117	326.35
373.498	334.03
373.879	325.22
374.26	323.18
374.641	317.08
375.021	341.71
375.402	347.59
375.783	322.28
376.163	327.7
376.544	341.94
376.925	362.05
377.305	330.19
377.686	323.41
378.066	341.71
378.447	327.25
378.827	343.75
379.208	344.2
379.588	330.87
379.968	338.78
380.349	355.5
380.729	351.88
381.109	340.13
381.489	352.56
381.87	370.64
382.25	348.27
382.63	368.83
383.01	343.3
383.39	350.08
383.77	355.73
384.15	366.8
384.53	349.4
384.91	341.94
385.29	379.23
385.67	366.8
386.049	376.97
386.429	352.56
386.809	379.91
387.189	375.16
387.568	356.86
387.948	368.83
388.328	376.06
388.707	387.36
389.087	365.44
389.466	372
389.846	372.67
390.225	374.93
390.605	352.56
390.984	381.04
391.363	367.7
391.743	376.52
392.122	368.38
392.501	369.74
392.881	394.37
393.26	390.3
393.639	400.24
394.018	384.88
394.397	389.4
394.776	381.04
395.155	406.8
395.534	390.98
395.913	394.37
396.292	402.5
396.671	400.92
397.05	397.53
397.429	402.96
397.808	428.49
398.186	400.24
398.565	414.03
398.944	405.44
399.323	407.93
399.701	409.96
400.08	427.59
400.458	425.78
400.837	425.1
401.215	429.62
401.594	408.83
401.972	425.1
402.351	423.97
402.729	407.7
403.107	430.07
403.486	423.75
403.864	447.7
404.242	411.54
404.62	437.76
404.999	444.31
405.377	450.19
405.755	435.27
406.133	463.29
406.511	436.63
406.889	451.77
407.267	459.68
407.645	471.43
408.023	453.35
408.401	444.76
408.779	466.23
409.156	466.68
409.534	473.91
409.912	486.57
410.29	481.37
410.667	447.25
411.045	478.43
411.422	482.73
411.8	494.7
412.178	500.58
412.555	483.63
412.933	509.85
413.31	528.6
413.687	519.11
414.065	526.79
414.442	536.06
414.819	523.4
415.197	526.34
415.574	542.39
415.951	529.28
416.328	533.57
416.705	571.76
417.082	556.62
417.46	556.17
417.837	565.66
418.214	564.53
418.591	559.34
418.967	561.82
419.344	557.3
419.721	560.47
420.098	568.15
420.475	569.05
420.852	588.94
421.228	583.74
421.605	577.64
421.982	600.46
422.358	593.23
422.735	598.66
423.111	595.94
423.488	589.84
423.864	609.28
424.241	599.79
424.617	581.71
424.994	608.37
425.37	626.23
425.746	635.49
426.123	663.74
426.499	657.86
426.875	681.14
427.251	647.92
427.627	663.06
428.003	639.33
428.379	644.08
428.756	647.24
429.132	661.25
429.507	668.26
429.883	671.65
430.259	713.46
430.635	716.85
431.011	713.46
431.387	712.78
431.763	717.98
432.138	703.96
432.514	722.5
432.89	704.64
433.265	734.02
433.641	736.05
434.016	749.84
434.392	744.19
434.767	777.41
435.143	762.95
435.518	794.58
435.894	788.93
436.269	797.97
436.644	788.03
437.02	759.78
437.395	774.02
437.77	771.31
438.145	794.58
438.52	775.38
438.895	806.56
439.271	824.64
439.646	831.87
440.021	874.36
440.395	857.86
440.77	800.69
441.145	856.28
441.52	840.46
441.895	846.11
442.27	856.05
442.645	842.27
443.019	840.91
443.394	870.51
443.769	918.2
444.143	867.12
444.518	881.59
444.892	899.21
445.267	919.1
445.641	898.08
446.016	891.76
446.39	905.77
446.764	888.59
447.139	878.65
447.513	862.6
447.887	882.26
448.262	872.32
448.636	888.82
449.01	917.52
449.384	925.2
449.758	965.65
450.132	977.4
450.506	960.23
450.88	950.51
451.254	957.07
451.628	950.96
452.002	930.63
452.376	929.27
452.75	942.15
453.123	955.03
453.497	969.04
453.871	976.95
454.244	989.61
454.618	1031.19
454.992	1029.61
455.365	1025.99
455.739	1036.16
456.112	1015.59
456.486	1026.89
456.859	1003.39
457.232	1038.65
457.606	1011.53
457.979	1015.14
458.352	1042.94
458.725	1051.53
459.099	1046.55
459.472	1110.51
459.845	1138.3
460.218	1126.33
460.591	1110.73
460.964	1114.8
461.337	1119.55
461.71	1132.2
462.083	1113.67
462.456	1113.9
462.829	1095.82
463.201	1088.14
463.574	1132.88
463.947	1137.63
464.32	1152.09
464.692	1181.01
465.065	1192.09
465.438	1215.36
465.81	1242.03
466.183	1247
466.555	1236.83
466.928	1226.44
467.3	1211.07
467.672	1193.44
468.045	1231.18
468.417	1227.34
468.789	1216.95
469.161	1258.3
469.534	1317.51
469.906	1309.15
470.278	1367.9
470.65	1346.21
471.022	1413.55
471.394	1416.26
471.766	1408.35
472.138	1425.3
472.51	1427.11
472.882	1389.14
473.253	1411.29
473.625	1411.06
473.997	1397.96
474.369	1417.62
474.74	1403.61
475.112	1495.81
475.484	1517.05
475.855	1586.88
476.227	1583.49
476.598	1640.21
476.97	1637.5
477.341	1670.94
477.713	1657.61
478.084	1637.95
478.455	1657.61
478.827	1650.38
479.198	1655.58
479.569	1626.65
479.94	1676.14
480.311	1756.37
480.682	1755.46
481.053	1823.48
481.424	1857.61
481.795	1901.22
482.166	1949.58
482.537	1976.93
482.908	1989.81
483.279	2047.21
483.65	2040.65
484.021	2062.57
484.391	2042.91
484.762	2017.83
485.133	1966.98
485.503	2003.37
485.874	2077.49
486.244	2088.11
486.615	2166.98
486.985	2234.09
487.356	2278.39
487.726	2370.36
488.097	2398.16
488.467	2408.55
488.837	2468.21
489.207	2510.24
489.578	2457.82
489.948	2437.25
490.318	2416.24
490.688	2434.31
491.058	2434.31
491.428	2415.33
491.798	2467.31
492.168	2532.84
492.538	2571.03
492.908	2618.94
493.278	2699.39
493.648	2759.5
494.017	2829.78
494.387	2847.86
494.757	2861.87
495.126	2936.22
495.496	2887.64
495.866	2876.34
496.235	2889.9
496.605	2789.11
496.974	2785.27
497.344	2797.69
497.713	2797.24
498.082	2819.16
498.452	2869.11
498.821	2888.54
499.19	2997.69
499.559	3038.14
499.928	3128.08
500.298	3177.8
500.667	3249.89
501.036	3237.23
501.405	3221.41
501.774	3186.39
502.143	3173.96
502.512	3125.14
502.88	3093.51
503.249	3080.4
503.618	3025.03
503.987	3042.66
504.356	3052.38
504.724	3079.72
505.093	3146.39
505.462	3199.49
505.83	3230.68
506.199	3292.6
506.567	3387.06
506.936	3420.96
507.304	3472.48
507.672	3468.86
508.041	3453.95
508.409	3386.38
508.777	3359.71
509.145	3319.04
509.514	3252.6
509.882	3231.36
510.25	3249.66
510.618	3240.17
510.986	3239.49
511.354	3291.69
511.722	3374.18
512.09	3390.45
512.458	3500.5
512.826	3490.11
513.193	3603.78
513.561	3629.54
513.929	3654.17
514.297	3676.99
514.664	3683.55
515.032	3614.85
515.4	3607.17
515.767	3533.49
516.135	3516.32
516.502	3414.4
516.869	3433.84
517.237	3424.34
517.604	3427.28
517.972	3457.11
518.339	3523.78
518.706	3586.15
519.073	3646.49
519.44	3736.43
519.808	3820.27
520.175	3824.56
520.542	3890.1
520.909	3910.21
521.276	3936.2
521.643	3908.4
522.009	3826.37
522.376	3801.51
522.743	3758.8
523.11	3684.9
523.477	3669.31
523.843	3628.86
524.21	3612.14
524.577	3667.95
524.943	3727.16
525.31	3794.5
525.676	3907.04
526.043	4031.79
526.409	4089.86
526.776	4173.7
527.142	4256.19
527.508	4298.9
527.874	4344.77
528.241	4309.07
528.607	4289.63
528.973	4289.63
529.339	4174.83
529.705	4172.8
530.071	4136.19
530.437	4072.24
530.803	4069.98
531.169	4065.91
531.535	4081.5
531.901	4105.91
532.267	4176.64
532.632	4336.19
532.998	4389.74
533.364	4499.57
533.73	4596.97
534.095	4704.09
534.461	4774.37
534.826	4879.9
535.192	4881.03
535.557	4875.15
535.923	4802.39
536.288	4786.8
536.653	4669.96
537.019	4662.96
537.384	4520.14
537.749	4484.66
538.114	4539.34
538.479	4512.9
538.845	4571.89
539.21	4528.04
539.575	4617.99
539.94	4749.51
540.305	4876.28
540.67	4989.95
541.034	5054.81
541.399	5164.41
541.764	5274.92
542.129	5329.83
542.494	5377.06
542.858	5337.74
543.223	5290.06
543.587	5267.69
543.952	5189.72
544.316	5135.49
544.681	5021.37
545.045	5016.62
545.41	4967.58
545.774	4901.14
546.138	4933.46
546.503	4973.91
546.867	5011.87
547.231	5087.35
547.595	5234.01
547.959	5326.89
548.324	5345.2
548.688	5536.15
549.052	5618.64
549.416	5700.9
549.779	5697.73
550.143	5732.08
550.507	5761.01
550.871	5651.41
551.235	5603.95
551.599	5588.58
551.962	5516.49
552.326	5410.51
552.689	5323.28
553.053	5229.27
553.417	5141.81
553.78	5236.05
554.143	5180.91
554.507	5219.78
554.87	5311.98
555.234	5468.59
555.597	5509.71
555.96	5617.51
556.323	5718.07
556.686	5866.77
557.05	5939.08
557.413	6037.84
557.776	6031.28
558.139	6047.78
558.502	6091.62
558.865	5977.5
559.228	5939.53
559.59	5836.94
559.953	5716.71
560.316	5692.08
560.679	5586.32
561.041	5549.94
561.404	5544.97
561.767	5524.4
562.129	5512.65
562.492	5549.49
562.854	5646.89
563.217	5732.98
563.579	5886.2
563.941	6026.08
564.304	6139.98
564.666	6255.23
565.028	6351.73
565.39	6400.09
565.753	6462.68
566.115	6494.55
566.477	6504.72
566.839	6455.9
567.201	6370.26
567.563	6297.94
567.925	6161.22
568.287	6128.45
568.648	6030.83
569.01	5935.24
569.372	5936.37
569.734	5895.01
570.095	5937.73
570.457	5942.02
570.819	6072.64
571.18	6121.22
571.542	6247.55
571.903	6375
572.265	6536.58
572.626	6690.25
572.987	6794.2
573.349	6952.39
573.71	7019.05
574.071	7172.27
574.432	7232.61
574.794	7221.53
575.155	7212.04
575.516	7210.91
575.877	7105.83
576.238	7050.69
576.599	6997.36
576.96	6903.8
577.32	6893.41
577.681	6928.43
578.042	6900.41
578.403	6960.98
578.763	7078.26
579.124	7239.16
579.485	7434.41
579.845	7635.99
580.206	7865.58
580.566	8174.5
580.927	8394.16
581.287	8752.34
581.648	8960.92
582.008	9217.19
582.368	9435.71
582.728	9753.9
583.089	9952.76
583.449	10124.51
583.809	10339.19
584.169	10535.8
584.529	10616.92
584.889	10814.66
585.249	10882
585.609	11100.08
585.969	11404.25
586.329	11540.29
586.688	11800.62
587.048	12180.72
587.408	12474.05
587.768	12867.94
588.127	13305.44
588.487	13646.45
588.846	14252.53
589.206	14615.24
589.565	15221.32
589.925	15783.57
590.284	16249.54
590.643	16718.91
591.003	17256.75
591.362	17881.59
591.721	18256.72
592.08	18701.91
592.44	19090.83
592.799	19427.31
593.158	19793.41
593.517	20079.5
593.876	20435.42
594.235	20702.53
594.593	21047.61
594.952	21408.73
595.311	21719.23
595.67	21993.8
596.029	22664.07
596.387	23003.27
596.746	23547.21
597.104	23843.02
597.463	24351.25
597.822	24921.63
598.18	25368.85
598.538	25942.62
598.897	26676.16
599.255	27065.08
599.613	27818.28
599.972	28112.06
600.33	28682.89
600.688	29057.34
601.046	29501.17
601.404	29886.93
601.762	30206.01
602.12	30546.34
602.478	30807.35
602.836	31111.3
603.194	31283.5
603.552	31400.11
603.91	31569.59
604.268	31919.19
604.625	32057.04
604.983	32503.35
605.341	32531.38
605.698	33188.76
606.056	33387.62
606.413	33801.63
606.771	34239.13
607.128	34762.96
607.485	34942.84
607.843	35336.5
608.2	35865.98
608.557	36223.93
608.914	36484.27
609.272	37061.2
609.629	37251.25
609.986	37715.42
610.343	37858.69
610.7	38243.09
611.057	38471.79
611.414	38490.54
611.771	38649.86
612.127	38829.97
612.484	39038.78
612.841	39095.95
613.198	38984.09
613.554	38933.24
613.911	39306.34
614.267	39390.4
614.624	39434.92
614.98	39358.99
615.337	39868.81
615.693	39837.17
616.05	40044.85
616.406	40598.06
616.762	40642.35
617.118	40829.01
617.475	41269
617.831	41518.03
618.187	41739.72
618.543	42018.58
618.899	42260.84
619.255	42374.06
619.611	42555.75
619.967	42698.34
620.323	42986.92
620.678	42819.69
621.034	42916.87
621.39	42849.75
621.746	42708.28
622.101	43418.55
622.457	42830.09
622.812	42893.59
623.168	42828.05
623.523	42750.54
623.879	42922.52
624.234	42666.7
624.589	42845.23
624.945	42915.96
625.3	42994.38
625.655	42951.44
626.01	43103.98
626.365	43263.3
626.72	43286.8
627.075	43537.64
627.43	43546.68
627.785	43662.61
628.14	43870.51
628.495	44152.54
628.85	44175.36
629.205	44168.58
629.559	44475.02
629.914	44252.42
630.269	44382.82
630.623	44369.03
630.978	44362.48
631.332	44345.08
631.687	44454
632.041	44157.51
632.396	44095.82
632.75	43873.45
633.104	43782.38
633.459	43591.2
633.813	43452.45
634.167	43314.6
634.521	43217.42
634.875	43486.12
635.229	43277.53
635.583	43037.77
635.937	43231.21
636.291	43379.45
636.645	43316.63
636.999	43288.16
637.352	43448.6
637.706	43582.84
638.06	43783.28
638.413	43638.43
638.767	43779.89
639.121	43811.53
639.474	43876.39
639.828	43825.99
640.181	44060.11
640.534	44108.02
640.888	43931.08
641.241	43632.55
641.594	43848.14
641.947	43851.98
642.301	43521.6
642.654	43367.25
643.007	43370.64
643.36	43196.41
643.713	42960.71
644.066	43086.13
644.419	42775.85
644.771	42360.5
645.124	41925.71
645.477	41695.2
645.83	41546.73
646.182	41474.64
646.535	41289.79
646.888	41489.33
647.24	41452.72
647.593	41789.21
647.945	41741.3
648.298	41649.78
648.65	41694.53
649.002	41670.35
649.355	41960.51
649.707	41940.17
650.059	42042.09
650.411	42677.32
650.763	42748.73
651.115	43144.88
651.467	42993.47
651.819	42900.37
652.171	42894.04
652.523	42784.44
652.875	42557.78
653.227	42323.44
653.578	42541.06
653.93	42242.99
654.282	42137.23
654.633	41872.37
654.985	41846.39
655.337	41730.91
655.688	41700.4
656.039	41857.46
656.391	41401.2
656.742	41433.06
657.094	41387.19
657.445	41608.2
657.796	41600.06
658.147	41513.06
658.498	41729.55
658.849	41766.61
659.2	41860.4
659.551	41724.35
659.902	42018.36
660.253	42058.36
660.604	42258.35
660.955	42111.24
661.306	42210.67
661.656	42251.8
662.007	42239.82
662.358	42350.78
662.708	42075.98
663.059	42319.82
663.409	42017.23
663.76	42238.69
664.11	42179.48
664.461	42116.66
664.811	41952.15
665.161	41739.95
665.511	41546.28
665.862	41451.82
666.212	41468.54
666.562	41450.46
666.912	41105.16
667.262	41100.64
667.612	40957.6
667.962	40890.25
668.312	40794.21
668.662	41086.18
669.011	41149.23
669.361	41021.1
669.711	41116.01
670.06	40897.48
670.41	41030.81
670.76	41123.47
671.109	41382.89
671.459	41317.81
671.808	41395.32
672.157	41558.71
672.507	41304.7
672.856	41610.91
673.205	41551.93
673.554	41751.7
673.904	41580.63
674.253	41777.01
674.602	41699.27
674.951	41077.37
675.3	40844.38
675.649	41303.12
675.998	41170.92
676.346	41142.22
676.695	41042.11
677.044	40635.8
677.393	40732.06
677.741	40752.86
678.09	40388.8
678.438	40217.5
678.787	40360.1
679.135	40308.12
679.484	39975.7
679.832	40105.19
680.181	39755.37
680.529	39978.19
680.877	39763.5
681.225	39873.33
681.573	40059.09
681.922	39947.9
682.27	39942.48
682.618	40026.77
682.966	40161.01
683.314	40130.27
683.661	40270.61
684.009	40129.14
684.357	40180.89
684.705	40211.4
685.053	40218.41
685.4	40234
685.748	40047.11
686.095	40088.69
686.443	39981.35
686.79	39695.93
687.138	39860.68
687.485	39713.79
687.832	39563.28
688.18	39517.41
688.527	39067.93
688.874	39201.26
689.221	38949.51
689.568	38809.4
689.915	38497.55
690.262	38455.29
690.609	38243.77
690.956	38169.65
691.303	37993.38
691.65	37770.11
691.997	37796.1
692.344	37498.25
692.69	37642.2
693.037	37561.3
693.383	37402.21
693.73	37545.71
694.077	37416.45
694.423	37530.34
694.769	37423
695.116	37317.01
695.462	37592.49
695.808	37367.86
696.155	37563.79
696.501	37256.45
696.847	37317.24
697.193	37176.9
697.539	37459.38
697.885	37060.97
698.231	37050.58
698.577	37089.45
698.923	36990.69
699.269	36806.74
699.614	36666.41
699.96	36431.84
700.306	36456.02
700.651	36190.49
700.997	36049.93
701.342	35877.73
701.688	35734.46
702.033	35487.68
702.379	35451.07
702.724	35208.59
703.069	35277.97
703.415	34716.4
703.76	34877.3
704.105	34787.59
704.45	34602.06
704.795	34470.53
705.14	34479.57
705.485	34382.4
705.83	34149.86
706.175	34223.99
706.52	34347.37
706.865	34161.62
707.209	34175.85
707.554	34167.04
707.899	34358.45
708.243	34191.67
708.588	34177.66
708.932	34136.31
709.277	34171.33
709.621	34247.26
709.966	34041.17
710.31	34065.35
710.654	33821.51
710.998	33918.46
711.342	33991.9
711.687	33874.84
712.031	33704
712.375	33609.54
712.719	33514.85
713.063	33435.99
713.407	33520.28
713.75	33242.77
714.094	33142.43
714.438	32965.04
714.782	32926.85
715.125	32546.52
715.469	32728.89
715.812	32378.84
716.156	32141.33
716.499	32178.39
716.843	32125.29
717.186	31939.98
717.53	31926.19
717.873	32015.23
718.216	31949.92
718.559	31785.18
718.902	31559.65
719.246	31701.34
719.589	31682.59
719.932	31532.76
720.275	31597.16
720.617	31709.03
720.96	31603.04
721.303	31770.04
721.646	31829.47
721.989	31779.76
722.331	31775.92
722.674	31662.25
723.016	31742.7
723.359	31822.69
723.701	31797.84
724.044	31737.05
724.386	31459.09
724.729	31641.91
725.071	31588.35
725.413	31371.18
725.755	31387.23
726.097	31236.72
726.439	31011.64
726.782	30994.47
727.124	31008.93
727.465	30741.59
727.807	30733.91
728.149	30590.64
728.491	30391.77
728.833	30351.09
729.175	30170.76
729.516	30174.15
729.858	30020.48
730.199	30012.35
730.541	29860.94
730.882	29740.94
731.224	29921.05
731.565	29660.94
731.906	29762.64
732.248	29746.14
732.589	29532.81
732.93	29484.68
733.271	29595.86
733.612	29791.34
733.953	29641.06
734.294	29586.14
734.635	29686.03
734.976	29670.89
735.317	29587.72
735.658	29693.94
735.999	29785.01
736.339	29750.66
736.68	29918.79
737.021	29680.38
737.361	29580.49
737.702	29790.21
738.042	29772.8
738.383	29707.04
738.723	29762.41
739.063	29631.11
739.404	29600.61
739.744	29557.22
740.084	29392.93
740.424	29456.88
740.764	29200.84
741.104	29218.24
741.444	29039.72
741.784	28835.2
742.124	28937.57
742.464	28760.4
742.804	28650.35
743.143	28465.49
743.483	28536.45
743.823	28224.6
744.162	28323.13
744.502	28264.37
744.841	28166.75
745.181	28190.25
745.52	27991.38
745.86	28039.07
746.199	27923.14
746.538	27886.98
746.877	28028.44
747.216	28051.27
747.556	27867.32
747.895	27931.95
748.234	27892.4
748.573	27882.46
748.911	27917.94
749.25	28023.25
749.589	27841.56
749.928	28015.11
750.267	28128.1
750.605	28008.56
750.944	28053.3
751.283	27825.74
751.621	27928.79
751.96	27836.58
752.298	27855.57
752.636	27853.76
752.975	27690.15
753.313	27604.05
753.651	27687.44
753.989	27483.6
754.327	27423.26
754.666	27274.57
755.004	27379.87
755.342	27211.29
755.679	27068.92
756.017	26915.7
756.355	26921.35
756.693	26688.37
757.031	26624.19
757.368	26510.52
757.706	26354.59
758.044	26204.76
758.381	26118.44
758.719	26092
759.056	26066.01
759.394	25917.76
759.731	25711.89
760.068	25698.34
760.405	25600.26
760.743	25468.51
761.08	25515.74
761.417	25430.77
761.754	25381.06
762.091	25420.15
762.428	25264.67
762.765	25205.24
763.102	25352.13
763.438	25169.08
763.775	25183.32
764.112	25232.36
764.449	25362.53
764.785	25185.35
765.122	25033.72
765.458	25116.66
765.795	25076.66
766.131	25168.63
766.467	25041.63
766.804	24845.93
767.14	24957.11
767.476	24879.15
767.812	24803.22
768.148	24902.2
768.485	24586.05
768.821	24492.04
769.157	24467.41
769.492	24296.11
769.828	24230.58
770.164	24019.74
770.5	23905.61
770.836	23866.75
771.171	23664.26
771.507	23594.89
771.842	23421.33
772.178	23294.56
772.513	23157.16
772.849	23110.83
773.184	22898.18
773.519	22878.75
773.855	22737.96
774.19	22674.46
774.525	22511.07
774.86	22487.35
775.195	22375.71
775.53	22317.86
775.865	22123.06
776.2	22034.93
776.535	21839
776.87	21828.83
777.205	21870.87
777.539	21791.32
777.874	21900.47
778.209	21640.14
778.543	21579.35
778.878	21590.65
779.212	21606.01
779.547	21531.67
779.881	21592.91
780.215	21473.81
780.55	21538.44
780.884	21434.49
781.218	21427.71
781.552	21443.08
781.886	21309.52
782.22	21210.09
782.554	21275.4
782.888	20990.44
783.222	21057.55
783.556	20968.52
783.889	20858.91
784.223	20686.49
784.557	20673.83
784.89	20703.44
785.224	20472.94
785.557	20368.53
785.891	20369.21
786.224	20230.68
786.558	20272.72
786.891	20026.85
787.224	19963.35
787.557	19794.54
787.891	19695.78
788.224	19592.51
788.557	19589.12
788.89	19464.83
789.223	19367.88
789.556	19168.11
789.888	19195
790.221	19083.82
790.554	18939.87
790.887	18860.55
791.219	18896.71
791.552	18777.39
791.884	18724.06
792.217	18678.41
792.549	18529.03
792.882	18446.77
793.214	18381.69
793.546	18425.31
793.879	18315.03
794.211	18254.24
794.543	18352.77
794.875	18267.12
795.207	18431.86
795.539	18181.47
795.871	18283.16
796.203	18258.08
796.535	18122.94
796.867	18127.24
797.198	18085.88
797.53	18118.65
797.862	17986
798.193	18049.72
798.525	17995.94
798.856	18088.82
799.188	17918.65
799.519	17812.89
799.85	17702.39
800.182	17753.01
800.513	17643.18
800.844	17517.99
801.175	17684.76
801.506	17541.26
801.837	17450.64
802.168	17364.54
802.499	17218.56
802.83	17148.05
803.161	17010.43
803.491	16987.83
803.822	16907.83
804.153	16924.78
804.483	16735.41
804.814	16560.27
805.145	16580.61
805.475	16501.29
805.805	16432.36
806.136	16351.91
806.466	16391.91
806.796	16281.18
807.126	16148.76
807.457	16109.21
807.787	16055.88
808.117	16057.91
808.447	16018.14
808.777	15972.72
809.107	15876.22
809.436	15914.86
809.766	15879.38
810.096	15870.57
810.426	15776.56
810.755	15771.59
811.085	15707.41
811.414	15746.73
811.744	15698.82
812.073	15623.57
812.403	15668.09
812.732	15533.63
813.061	15642.55
813.39	15561.65
813.719	15561.2
814.049	15684.36
814.378	15558.72
814.707	15525.72
815.036	15593.52
815.365	15521.88
815.693	15326.4
816.022	15478.49
816.351	15477.14
816.68	15377.03
817.008	15391.49
817.337	15251.38
817.665	15203.7
817.994	15264.03
818.322	15319.4
818.651	15158.05
818.979	15005.74
819.307	15053.87
819.636	15032.85
819.964	14807.1
820.292	14966.41
820.62	14888.45
820.948	14858.39
821.276	14857.72
821.604	14680.55
821.932	14747.44
822.259	14657.27
822.587	14642.13
822.915	14599.87
823.243	14584.73
823.57	14535.24
823.898	14562.36
824.225	14483.94
824.553	14402.14
824.88	14448.69
825.207	14508.57
825.535	14459.08
825.862	14452.98
826.189	14351.06
826.516	14580.21
826.843	14558.29
827.17	14502.02
827.497	14518.29
827.824	14506.09
828.151	14561.23
828.478	14552.19
828.805	14589.02
829.131	14525.07
829.458	14558.06
829.785	14508.57
830.111	14547.67
830.438	14679.19
830.764	14629.93
831.09	14706.08
831.417	14623.37
831.743	14650.72
832.069	14701.79
832.395	14643.49
832.722	14811.39
833.048	14652.98
833.374	14731.17
833.7	14704.73
834.026	14677.61
834.351	14706.99
834.677	14701.56
835.003	14731.62
835.329	14707.44
835.654	14618.4
835.98	14619.08
836.306	14610.72
836.631	14537.95
836.956	14595.8
837.282	14490.49
837.607	14431.74
837.932	14412.98
838.258	14278.3
838.583	14241.69
838.908	14116.72
839.233	14209.6
839.558	14078.08
839.883	14107.91
840.208	13975.25
840.533	14016.38
840.858	13965.76
841.182	13914.46
841.507	13919.44
841.832	13773.68
842.156	13788.37
842.481	13721.25
842.805	13616.85
843.13	13684.64
843.454	13614.13
843.778	13597.86
844.103	13523.06
844.427	13501.59
844.751	13526
845.075	13542.5
845.399	13482.39
845.723	13338.66
846.047	13354.03
846.371	13237.19
846.695	13339.34
847.019	13287.14
847.343	13196.74
847.666	13253.69
847.99	13183.18
848.313	13147.48
848.637	13089.18
848.96	13106.58
849.284	13057.76
849.607	12947.26
849.931	13069.06
850.254	12924.66
850.577	12867.03
850.9	12821.39
851.223	12873.59
851.546	12707.04
851.869	12702.52
852.192	12773.03
852.515	12729.41
852.838	12580.26
853.161	12608.06
853.483	12518.34
853.806	12435.18
854.129	12450.32
854.451	12343.88
854.774	12275.64
855.096	12202.65
855.419	12245.58
855.741	12251.46
856.063	12050.56
856.385	12064.57
856.708	11973.95
857.03	12005.59
857.352	11955.19
857.674	11884.24
857.996	11814.41
858.318	11757.01
858.64	11724.47
858.961	11604.69
859.283	11620.29
859.605	11583.23
859.926	11501.87
860.248	11450.57
860.57	11482.66
860.891	11415.32
861.212	11310.47
861.534	11261.65
861.855	11309.56
862.176	11221.43
862.498	11178.27
862.819	11198.6
863.14	11148.89
863.461	11197.7
863.782	11140.53
864.103	11152.96
864.424	11103.47
864.745	11133.07
865.065	11005.84
865.386	11030.02
865.707	11083.35
866.027	11013.98
866.348	10989.34
866.668	11068.89
866.989	11023.69
867.309	11061.21
867.63	11044.94
867.95	11009.23
868.27	11024.37
868.59	11046.07
868.91	11035.22
869.23	11002.68
869.55	10901.21
869.87	11016.91
870.19	10983.02
870.51	11037.03
870.83	11061.66
871.15	11028.89
871.469	11034.09
871.789	11016.91
872.109	11034.99
872.428	10916.13
872.748	10950.25
873.067	11019.85
873.386	10996.8
873.706	10942.57
874.025	10843.36
874.344	10782.57
874.663	10783.47
874.982	10708.9
875.301	10772.4
875.62	10777.37
875.939	10699.63
876.258	10669.13
876.577	10650.37
876.896	10547.32
877.214	10520.66
877.533	10515.23
877.852	10503.71
878.17	10518.85
878.489	10409.47
878.807	10442.24
879.125	10399.08
879.444	10284.5
879.762	10246.76
880.08	10226.43
880.398	10217.39
880.716	10187.33
881.034	10071.4
881.352	10157.95
881.67	10079.76
881.988	10040.22
882.306	10085.41
882.624	10033.44
882.941	9950.28
883.259	9938.98
883.577	9932.42
883.894	9914.34
884.212	9977.84
884.529	9814.46
884.846	9894.23
885.164	9862.37
885.481	9828.02
885.798	9856.94
886.115	9832.54
886.432	9835.93
886.75	9829.15
887.067	9864.63
887.383	9834.57
887.7	9791.64
888.017	9820.79
888.334	9824.63
888.651	9730.85
888.967	9868.7
889.284	9816.04
889.6	9740.56
889.917	9672.99
890.233	9696.95
890.55	9688.59
890.866	9685.42
891.182	9710.51
891.498	9642.71
891.815	9573.34
892.131	9575.14
892.447	9585.76
892.763	9487.46
893.079	9544.64
893.395	9501.93
893.71	9451.76
894.026	9459.21
894.342	9425.32
894.657	9390.97
894.973	9309.61
895.289	9321.37
895.604	9272.33
895.92	9286.56
896.235	9193.91
896.55	9203.63
896.865	9122.95
897.181	9101.03
897.496	9084.99
897.811	8989.4
898.126	8942.17
898.441	8969.51
898.756	8885.22
899.071	8846.58
899.386	8845.45
899.7	8708.95
900.015	8649.52
900.33	8625.56
900.644	8530.43
900.959	8566.58
901.273	8533.82
901.588	8460.14
901.902	8433.7
902.216	8361.84
902.531	8371.56
902.845	8362.29
903.159	8282.3
903.473	8249.3
903.787	8213.15
904.101	8171.34
904.415	8150.55
904.729	8130.66
905.042	8077.78
905.356	8023.09
905.67	8009.08
905.984	8044.79
906.297	8006.37
906.611	7994.85
906.924	8021.06
907.237	7967.5
907.551	7946.94
907.864	7907.39
908.177	7960.95
908.491	7855.41
908.804	7866.94
909.117	7752.37
909.43	7770.22
909.743	7778.35
910.056	7831.69
910.368	7770.45
910.681	7759.37
910.994	7698.13
911.307	7733.38
911.619	7600.51
911.932	7615.2
912.244	7596.21
912.557	7587.63
912.869	7550.11
913.181	7486.84
913.494	7499.72
913.806	7478.93
914.118	7435.31
914.43	7356.67
914.742	7368.2
915.054	7338.82
915.366	7345.15
915.678	7327.97
915.99	7210.46
916.302	7202.78
916.613	7156
916.925	7138.6
917.236	7150.8
917.548	7075.55
917.859	7103.8
918.171	6981.54
918.482	6979.96
918.794	6984.03
919.105	6899.06
919.416	6876.46
919.727	6806.18
920.038	6767.31
920.349	6772.51
920.66	6692.06
920.971	6705.84
921.282	6665.84
921.593	6586.52
921.903	6572.74
922.214	6532.51
922.525	6436.02
922.835	6435.57
923.146	6444.6
923.456	6437.6
923.767	6360.54
924.077	6386.75
924.387	6291.39
924.697	6237.15
925.008	6220.66
925.318	6189.47
925.628	6202.35
925.938	6173.65
926.248	6125.52
926.558	6099.53
926.867	6070.15
927.177	6074.44
927.487	5980.21
927.796	5999.87
928.106	6022.47
928.416	5945.41
928.725	6003.71
929.034	5897.73
929.344	5960.55
929.653	5881.23
929.962	5818.86
930.271	5856.37
930.581	5857.5
930.89	5816.82
931.199	5798.07
931.508	5759.88
931.817	5759.65
932.125	5810.27
932.434	5744.51
932.743	5735.02
933.051	5738.86
933.36	5679.2
933.669	5668.58
933.977	5687.11
934.286	5685.3
934.594	5632.2
934.902	5594.01
935.21	5590.84
935.519	5565.31
935.827	5530.73
936.135	5501.58
936.443	5474.23
936.751	5519.21
937.059	5427.91
937.367	5408.93
937.674	5430.17
937.982	5345.42
938.29	5344.97
938.597	5360.11
938.905	5277.63
939.213	5226.56
939.52	5241.25
939.827	5273.11
940.135	5173
940.442	5174.13
940.749	5131.87
941.056	5104.75
941.363	5018.43
941.67	5040.8
941.977	5040.35
942.284	4998.77
942.591	4977.07
942.898	4956.51
943.205	4966.45
943.511	4885.55
943.818	4913.8
944.125	4835.83
944.431	4812.56
944.738	4858.43
945.044	4762.16
945.35	4744.76
945.657	4695.5
945.963	4677.42
946.269	4644.88
946.575	4635.84
946.881	4644.2
947.187	4602.62
947.493	4615.73
947.799	4560.81
948.105	4504.99
948.41	4479.68
948.716	4495.05
949.022	4466.13
949.327	4452.79
949.633	4485.56
949.938	4394.26
950.244	4425
950.549	4391.1
950.854	4419.35
951.16	4352.23
951.465	4315.62
951.77	4298.67
952.075	4295.96
952.38	4298.9
952.685	4292.57
952.99	4294.15
953.294	4285.57
953.599	4223.87
953.904	4224.78
954.209	4169.64
954.513	4202.63
954.818	4189.75
955.122	4144.55
955.426	4173.7
955.731	4147.26
956.035	4128.96
956.339	4154.5
956.643	4063.65
956.948	4138.45
957.252	4078.11
957.556	4117.66
957.86	4067.27
958.163	4060.03
958.467	4023.88
958.771	4012.35
959.075	3994.05
959.378	3956.31
959.682	4017.55
959.985	3931.9
960.289	3914.5
960.592	3895.29
960.896	3921.06
961.199	3881.06
961.502	3841.96
961.805	3876.31
962.108	3786.14
962.411	3836.76
962.714	3760.61
963.017	3758.35
963.32	3739.59
963.623	3734.62
963.926	3684.9
964.228	3706.82
964.531	3698.24
964.833	3683.55
965.136	3655.75
965.438	3615.98
965.741	3620.72
966.043	3576.66
966.345	3576.21
966.648	3556.32
966.95	3534.62
967.252	3486.72
967.554	3510.44
967.856	3490.11
968.158	3431.8
968.46	3413.72
968.761	3414.18
969.063	3408.53
969.365	3355.42
969.666	3371.92
969.968	3307.51
970.269	3299.15
970.571	3276.55
970.872	3306.38
971.174	3247.63
971.475	3263.67
971.776	3231.58
972.077	3249.66
972.378	3223.45
972.679	3198.59
972.98	3204.92
973.281	3182.54
973.582	3123.11
973.883	3150.68
974.183	3122.88
974.484	3125.6
974.785	3080.4
975.085	3096.9
975.386	3088.76
975.686	3056.9
975.986	3055.77
976.287	3048.31
976.587	3030.23
976.887	3013.96
977.187	3025.49
977.487	2981.42
977.787	2976.22
978.087	2949.33
978.387	2988.65
978.687	2954.3
978.987	2913.85
979.286	2933.28
979.586	2973.51
979.885	2927.63
980.185	2929.67
980.484	2899.39
980.784	2883.57
981.083	2914.53
981.382	2905.04
981.682	2879.27
981.981	2835.89
982.28	2844.7
982.579	2851.93
982.878	2815.55
983.177	2796.79
983.475	2785.72
983.774	2804.25
984.073	2765.61
984.372	2731.48
984.67	2753.18
984.969	2783.68
985.267	2760.41
985.566	2736
985.864	2712.5
986.162	2698.49
986.461	2697.58
986.759	2695.1
987.057	2637.7
987.355	2649.68
987.653	2637.92
987.951	2622.56
988.249	2585.95
988.547	2577.14
988.844	2558.83
989.142	2572.84
989.44	2536.91
989.737	2528.78
990.035	2525.39
990.332	2521.09
990.63	2482.22
990.927	2466.86
991.224	2445.16
991.521	2465.5
991.819	2424.37
992.116	2447.87
992.413	2405.61
992.71	2389.12
993.006	2373.3
993.303	2383.02
993.6	2366.29
993.897	2384.6
994.193	2365.39
994.49	2327.88
994.787	2299.63
995.083	2260.99
995.379	2283.81
995.676	2254.43
995.972	2278.84
996.268	2252.85
996.565	2248.56
996.861	2207.88
997.157	2192.51
997.453	2152.06
997.749	2181.67
998.044	2178.05
998.34	2187.99
998.636	2150.93
998.932	2139.86
999.227	2145.96
999.523	2128.79
999.818	2124.27
1000.114	2107.32
1000.409	2093.08
1000.704	2064.61
1001	2077.26
1001.295	2079.52
1001.59	2079.52
1001.885	2036.81
1002.18	2049.24
1002.475	2032.74
1002.77	2048.11
1003.065	2013.08
1003.359	2025.74
1003.654	1969.92
1003.949	2001.56
1004.243	1971.5
1004.538	1962.91
1004.832	1951.39
1005.127	1931.73
1005.421	1943.25
1005.715	1943.03
1006.009	1920.43
1006.304	1944.16
1006.598	1912.52
1006.892	1903.71
1007.186	1892.41
1007.48	1875.91
1007.773	1859.87
1008.067	1852.63
1008.361	1873.2
1008.655	1822.35
1008.948	1855.12
1009.242	1851.28
1009.535	1824.16
1009.829	1760.66
1010.122	1805.63
1010.415	1770.15
1010.708	1768.57
1011.001	1783.26
1011.295	1746.87
1011.588	1751.39
1011.881	1726.31
1012.173	1734.9
1012.466	1699.87
1012.759	1709.36
1013.052	1715.46
1013.344	1672.75
1013.637	1688.35
1013.93	1655.13
1014.222	1676.37
1014.514	1665.52
1014.807	1619.42
1015.099	1623.94
1015.391	1622.36
1015.683	1631.85
1015.976	1598.63
1016.268	1585.07
1016.56	1580.1
1016.851	1533.77
1017.143	1578.52
1017.435	1522.47
1017.727	1540.1
1018.018	1511.85
1018.31	1502.36
1018.602	1489.48
1018.893	1498.75
1019.185	1456.04
1019.476	1460.78
1019.767	1457.62
1020.058	1446.54
1020.35	1434.79
1020.641	1413.78
1020.932	1381.91
1021.223	1382.14
1021.514	1401.57
1021.804	1331.74
1022.095	1372.87
1022.386	1342.37
1022.677	1347.56
1022.967	1315.93
1023.258	1327.68
1023.548	1323.16
1023.839	1312.31
1024.129	1325.19
1024.419	1310.05
1024.709	1272.54
1025	1294.46
1025.29	1270.96
1025.58	1260.33
1025.87	1272.99
1026.16	1239.32
1026.449	1241.13
1026.739	1258.98
1027.029	1247.91
1027.319	1203.61
1027.608	1202.03
1027.898	1209.49
1028.187	1190.96
1028.477	1197.06
1028.766	1192.31
1029.055	1176.95
1029.344	1177.85
1029.634	1172.2
1029.923	1134.91
1030.212	1157.96
1030.501	1142.37
1030.79	1106.89
1031.078	1120
1031.367	1118.64
1031.656	1130.62
1031.945	1087.46
1032.233	1122.48
1032.522	1096.5
1032.81	1067.8
1033.099	1097.4
1033.387	1056.72
1033.675	1063.5
1033.963	1054.92
1034.251	1069.38
1034.54	1057.18
1034.828	1034.13
1035.116	1050.85
1035.403	1064.86
1035.691	1037.97
1035.979	1021.24
1036.267	1036.84
1036.554	1013.79
1036.842	1015.14
1037.129	1012.88
1037.417	1002.49
1037.704	1010.4
1037.992	995.48
1038.279	965.88
1038.566	979.21
1038.853	979.21
1039.14	979.21
