Data from red_shiny_book_FLMS001491_00025.txt Node
Date: Wed Feb 08 15:24:38 GMT 2017
User: dcchb
Spectrometer: FLMS00149
Trigger mode: 0
Integration Time (sec): 2.000000E-2
Scans to average: 10
Electric dark correction enabled: true
Nonlinearity correction enabled: false
Boxcar width: 0
XAxis mode: Wavelengths
Number of Pixels in Spectrum: 2048
>>>>>Begin Spectral Data<<<<<
341.393	-18.9
341.776	-18.9
342.16	-18.9
342.543	-61.61
342.927	-53.25
343.31	-74.72
343.693	-61.16
344.077	-54.83
344.46	-82.62
344.843	-49.86
345.226	-54.15
345.61	-14.15
345.993	-2.63
346.376	6.41
346.759	15.9
347.142	21.1
347.525	35.79
347.908	34.43
348.291	70.82
348.674	85.73
349.057	123.92
349.44	149.01
349.823	130.7
350.206	163.7
350.588	201.89
350.971	205.05
351.354	226.07
351.737	252.28
352.119	263.58
352.502	267.87
352.884	280.98
353.267	289.34
353.65	293.18
354.032	283.24
354.414	315.33
354.797	343.13
355.179	317.59
355.562	336.12
355.944	332.73
356.326	343.58
356.709	354.43
357.091	340.64
357.473	359.85
357.855	344.48
358.238	351.04
358.62	336.8
359.002	356.23
359.384	344.26
359.766	334.54
360.148	336.12
360.53	352.84
360.912	332.96
361.294	328.44
361.676	341.32
362.057	368.44
362.439	334.09
362.821	312.62
363.203	315.33
363.584	345.39
363.966	330.92
364.348	336.8
364.729	327.08
365.111	322.11
365.493	336.57
365.874	340.87
366.256	312.39
366.637	325.95
367.019	309.23
367.4	311.04
367.781	333.64
368.163	325.95
368.544	343.35
368.925	312.84
369.306	313.52
369.688	312.39
370.069	317.59
370.45	313.52
370.831	314.43
371.212	316.23
371.593	338.83
371.974	325.5
372.355	329.34
372.736	335.22
373.117	325.27
373.498	345.61
373.879	319.85
374.26	327.53
374.641	351.04
375.021	335.67
375.402	313.3
375.783	351.71
376.163	330.02
376.544	333.64
376.925	357.36
377.305	346.74
377.686	342
378.066	342
378.447	365.5
378.827	348.55
379.208	351.49
379.588	351.71
379.968	347.65
380.349	341.54
380.729	351.71
381.109	348.55
381.489	336.12
381.87	354.43
382.25	355.78
382.63	349.91
383.01	364.37
383.39	367.08
383.77	355.56
384.15	345.61
384.53	372.28
384.91	373.86
385.29	365.05
385.67	351.26
386.049	373.63
386.429	366.18
386.809	380.41
387.189	389.45
387.568	385.16
387.948	374.99
388.328	377.02
388.707	386.97
389.087	391.49
389.466	376.12
389.846	392.84
390.225	391.94
390.605	379.28
390.984	390.81
391.363	382
391.743	393.75
392.122	391.26
392.501	408.44
392.881	406.63
393.26	398.04
393.639	410.02
394.018	419.73
394.397	391.71
394.776	399.4
395.155	418.83
395.534	388.78
395.913	411.83
396.292	401.43
396.671	411.15
397.05	416.8
397.429	440.53
397.808	414.09
398.186	422.67
398.565	399.17
398.944	430.36
399.323	455.89
399.701	410.47
400.08	444.37
400.458	434.42
400.837	448.66
401.215	430.58
401.594	424.48
401.972	451.82
402.351	435.33
402.729	457.02
403.107	462.22
403.486	443.91
403.864	457.7
404.242	467.64
404.62	459.06
404.999	490.24
405.377	472.84
405.755	454.99
406.133	484.82
406.511	491.37
406.889	502.44
407.267	481.88
407.645	481.65
408.023	505.38
408.401	462.45
408.779	510.13
409.156	508.32
409.534	502.44
409.912	510.81
410.29	498.6
410.667	507.87
411.045	502.67
411.422	517.13
411.8	538.83
412.178	530.92
412.555	543.35
412.933	545.83
413.31	549.67
413.687	553.06
414.065	560.97
414.442	562.78
414.819	572.27
415.197	566.85
415.574	580.18
415.951	588.77
416.328	612.27
416.705	612.05
417.082	604.36
417.46	630.35
417.837	603.23
418.214	605.49
418.591	621.76
418.967	629.67
419.344	619.73
419.721	646.4
420.098	666.51
420.475	659.73
420.852	674.87
421.228	654.3
421.605	641.65
421.982	668.32
422.358	662.44
422.735	683
423.111	673.29
423.488	695.21
423.864	684.59
424.241	723.46
424.617	718.94
424.994	713.96
425.37	741.53
425.746	716
426.123	729.78
426.499	739.73
426.875	713.29
427.251	729.78
427.627	742.89
428.003	750.12
428.379	773.17
428.756	765.04
429.132	766.62
429.507	751.7
429.883	782.44
430.259	783.57
430.635	767.52
431.011	786.73
431.387	796.45
431.763	812.49
432.138	821.08
432.514	836.67
432.89	860.85
433.265	878.71
433.641	886.39
434.016	871.7
434.392	894.98
434.767	870.12
435.143	898.14
435.518	865.15
435.894	874.19
436.269	920.06
436.644	925.71
437.02	926.16
437.395	960.29
437.77	981.08
438.145	958.03
438.52	948.08
438.895	995.31
439.271	957.57
439.646	978.82
440.021	964.35
440.395	985.82
440.77	991.7
441.145	986.27
441.52	1023.56
441.895	1053.16
442.27	1044.58
442.645	1056.78
443.019	1070.34
443.394	1033.96
443.769	1053.62
444.143	1031.02
444.518	1036.67
444.892	1031.92
445.267	1034.18
445.641	1068.98
446.016	1060.17
446.39	1110.79
446.764	1153.5
447.139	1127.51
447.513	1130.9
447.887	1126.83
448.262	1090.9
448.636	1094.07
449.01	1134.29
449.384	1117.12
449.758	1119.38
450.132	1137.68
450.506	1152.6
450.88	1168.64
451.254	1194.18
451.628	1230.56
452.002	1210.9
452.376	1256.55
452.75	1209.09
453.123	1217.23
453.497	1247.06
453.871	1202.99
454.244	1188.98
454.618	1206.15
454.992	1218.13
455.365	1241.18
455.739	1289.77
456.112	1321.18
456.486	1341.07
456.859	1340.84
457.232	1344.91
457.606	1319.82
457.979	1357.79
458.352	1329.54
458.725	1286.15
459.099	1330.22
459.472	1343.33
459.845	1367.96
460.218	1359.82
460.591	1400.27
460.964	1435.3
461.337	1484.34
461.71	1505.58
462.083	1545.13
462.456	1532.93
462.829	1508.52
463.201	1479.14
463.574	1451.57
463.947	1475.75
464.32	1462.19
464.692	1475.75
465.065	1520.95
465.438	1552.36
465.81	1570.66
466.183	1645.92
466.555	1709.87
466.928	1722.75
467.3	1678.68
467.672	1705.12
468.045	1725.24
468.417	1664
468.789	1648.85
469.161	1674.17
469.534	1684.33
469.906	1717.55
470.278	1739.7
470.65	1768.85
471.022	1838.45
471.394	1915.97
471.766	1941.73
472.138	1980.82
472.51	1998.45
472.882	2004.78
473.253	2009.98
473.625	2007.94
473.997	1972.01
474.369	1969.52
474.74	1958.23
475.112	1993.48
475.484	2037.77
475.855	2113.25
476.227	2137.2
476.598	2239.35
476.97	2294.49
477.341	2366.12
477.713	2391.43
478.084	2400.93
478.455	2438.44
478.827	2393.24
479.198	2401.15
479.569	2355.73
479.94	2381.27
480.311	2395.5
480.682	2457.2
481.053	2538.1
481.424	2588.72
481.795	2669.39
482.166	2772.67
482.537	2850.41
482.908	2971.76
483.279	2977.86
483.65	3019.67
484.021	3008.82
484.391	2974.02
484.762	2936.96
485.133	2866.45
485.503	2920.01
485.874	2953.45
486.244	2977.41
486.615	3076.16
486.985	3196.38
487.356	3310.51
487.726	3391.63
488.097	3534.23
488.467	3602.93
488.837	3658.52
489.207	3724.73
489.578	3710.04
489.948	3607.45
490.318	3599.09
490.688	3582.36
491.058	3559.31
491.428	3580.56
491.798	3626.88
492.168	3726.99
492.538	3814
492.908	3901.45
493.278	4045.63
493.648	4069.81
494.017	4250.59
494.387	4242.91
494.757	4342.34
495.126	4378.95
495.496	4326.3
495.866	4273.42
496.235	4221.67
496.605	4175.79
496.974	4161.56
497.344	4150.71
497.713	4170.82
498.082	4200.65
498.452	4315.45
498.821	4408.78
499.19	4569.68
499.559	4682.9
499.928	4811.48
500.298	4834.76
500.667	4890.13
501.036	4926.28
501.405	4844.7
501.774	4773.74
502.143	4676.35
502.512	4656.91
502.88	4626.4
503.249	4519.29
503.618	4582.34
503.987	4587.76
504.356	4676.12
504.724	4824.36
505.093	4902.78
505.462	5004.7
505.83	5119.5
506.199	5282.43
506.567	5350.68
506.936	5360.17
507.304	5328.08
507.672	5272.26
508.041	5167.86
508.409	5061.42
508.777	5021.65
509.145	4951.37
509.514	4874.98
509.882	4911.37
510.25	4966.28
510.618	5108.88
510.986	5193.62
511.354	5369.21
511.722	5508.64
512.09	5688.3
512.458	5717.45
512.826	5809.42
513.193	5753.61
513.561	5765.81
513.929	5713.83
514.297	5589.54
514.664	5508.41
515.032	5387.29
515.4	5304.8
515.767	5279.72
516.135	5299.15
516.502	5316.56
516.869	5445.59
517.237	5589.09
517.604	5659.37
517.972	5926.71
518.339	6040.15
518.706	6154.73
519.073	6228.4
519.44	6292.57
519.808	6300.26
520.175	6207.15
520.542	6160.6
520.909	5998.35
521.276	5820.72
521.643	5806.03
522.009	5694.62
522.376	5680.84
522.743	5733.49
523.11	5815.3
523.477	5974.16
523.843	6077.21
524.21	6286.93
524.577	6468.62
524.943	6661.6
525.31	6786.12
525.676	6955.61
526.043	6946.57
526.409	6970.75
526.776	6949.51
527.142	6800.58
527.508	6702.06
527.874	6593.81
528.241	6495.73
528.607	6409.41
528.973	6374.61
529.339	6425.68
529.705	6441.27
530.071	6559.01
530.437	6792.9
530.803	6973.23
531.169	7199.9
531.535	7297.97
531.901	7541.36
532.267	7684.63
532.632	7785.19
532.998	7849.37
533.364	7809.82
533.73	7670.62
534.095	7611.86
534.461	7450.51
534.826	7272.89
535.192	7124.87
535.557	7120.58
535.923	7077.41
536.288	7050.07
536.653	7179.33
537.019	7282.15
537.384	7467.01
537.749	7764.63
538.114	7934.34
538.479	8193.09
538.845	8327.55
539.21	8495.68
539.575	8520.31
539.94	8591.5
540.305	8483.7
540.67	8403.03
541.034	8248.23
541.399	8105.18
541.764	8006.43
542.129	7877.62
542.494	7752.2
542.858	7732.76
543.223	7673.33
543.587	7791.52
543.952	7925.53
544.316	8063.83
544.681	8186.54
545.045	8450.94
545.41	8712.85
545.774	8922.34
546.138	9027.64
546.503	9173.4
546.867	9196.91
547.231	9199.84
547.595	9138.83
547.959	8963.46
548.324	8832.62
548.688	8692.96
549.052	8507.66
549.416	8301.11
549.779	8228.34
550.143	8192.41
550.507	8180.21
550.871	8247.33
551.235	8276.03
551.599	8458.62
551.962	8645.96
552.326	8855.45
552.689	9105.83
553.053	9230.8
553.417	9449.78
553.78	9697.91
554.143	9642.32
554.507	9693.39
554.87	9523.68
555.234	9585.82
555.597	9378.6
555.96	9166.17
556.323	8956.46
556.686	8808.21
557.05	8683.92
557.413	8648.9
557.776	8606.41
558.139	8608.9
558.502	8677.6
558.865	8816.12
559.228	9048.43
559.59	9245.49
559.953	9417.24
560.316	9765.7
560.679	9916.66
561.041	10154.39
561.404	10261.51
561.767	10323.43
562.129	10188.52
562.492	10258.35
562.854	10071.91
563.217	9850.22
563.579	9741.98
563.941	9491.36
564.304	9344.7
564.666	9207.53
565.028	9093.18
565.39	9134.08
565.753	9107.42
566.115	9259.5
566.477	9411.14
566.839	9598.93
567.201	9793.95
567.563	9992.36
567.925	10346.93
568.287	10552.58
568.648	10783.98
569.01	10859.91
569.372	11012.68
569.734	11019.46
570.095	10913.02
570.457	10928.16
570.819	10712.35
571.18	10622.86
571.542	10488.17
571.903	10152.36
572.265	9986.04
572.626	9951.24
572.987	9826.72
573.349	9842.99
573.71	9970.67
574.071	9960.05
574.432	10196.43
574.794	10490.88
575.155	10673.02
575.516	10956.63
575.877	11394.14
576.238	11581.93
576.599	11854.01
576.96	12093.33
577.32	12266.88
577.681	12259.2
578.042	12426.65
578.403	12324.28
578.763	12280.21
579.124	12143.95
579.485	12084.96
579.845	11932.88
580.206	11916.16
580.566	11878.64
580.927	11847.68
581.287	11957.06
581.648	12087.45
582.008	12432.75
582.368	12810.6
582.728	13048.33
583.089	13594.98
583.449	14001.52
583.809	14554.05
584.169	15081.72
584.529	15583.18
584.889	16157.4
585.249	16485.75
585.609	16966.64
585.969	17351.72
586.329	17618.6
586.688	18005.71
587.048	18085.71
587.408	18462.65
587.768	18584.68
588.127	18890.89
588.487	18948.51
588.846	19468.27
589.206	19521.61
589.565	19863.52
589.925	20421.92
590.284	20805.64
590.643	21397.94
591.003	22178.26
591.362	22929.2
591.721	23531.44
592.08	24231.09
592.44	25029.26
592.799	25762.35
593.158	26555.09
593.517	27038.92
593.876	27662.86
594.235	28234.14
594.593	28719.78
594.952	29320.44
595.311	29499.2
595.67	29895.34
596.029	30461.88
596.387	30596.34
596.746	30989.1
597.104	31114.07
597.463	31406.49
597.822	31747.05
598.18	32173.25
598.538	32581.37
598.897	33328.02
599.255	33578.18
599.613	34716.69
599.972	35031.03
600.33	35888.63
600.688	36479.13
601.046	37263.29
601.404	37941.01
601.762	38497.6
602.12	39238.38
602.478	39781.19
602.836	40345.46
603.194	40595.63
603.552	40949.97
603.91	41060.47
604.268	41311.77
604.625	41525.77
604.983	41876.95
605.341	41800.34
605.698	42185.64
606.056	42358.52
606.413	42452.53
606.771	42804.38
607.128	42929.8
607.485	43214.99
607.843	43465.61
608.2	44089.77
608.557	44537.44
608.914	44874.84
609.272	45390.98
609.629	45876.84
609.986	46532.19
610.343	46747.1
610.7	47293.53
611.057	47642.67
611.414	47805.38
611.771	48149.78
612.127	48493.05
612.484	48531.24
612.841	48833.38
613.198	48713.83
613.554	48787.05
613.911	49014.62
614.267	48925.35
614.624	48859.37
614.98	48962.87
615.337	49108.4
615.693	48930.32
616.05	48992.47
616.406	49210.99
616.762	49053.71
617.118	49296.87
617.475	49582.28
617.831	49962.16
618.187	50094.81
618.543	50441.47
618.899	50681.24
619.255	50803.49
619.611	51004.17
619.967	51345.85
620.323	51697.71
620.678	51622.46
621.034	51622.46
621.39	51777.25
621.746	51897.03
622.101	52097.7
622.457	51843.69
622.812	51824.48
623.168	51930.02
623.523	51764.6
623.879	51860.64
624.234	51456.81
624.589	51596.02
624.945	51512.18
625.3	51629.24
625.655	51480.77
626.01	51516.24
626.365	51583.81
626.72	51605.51
627.075	51606.86
627.43	51771.38
627.785	51851.15
628.14	52081.65
628.495	52169.11
628.85	52264.47
629.205	52424.02
629.559	52699.94
629.914	52648.87
630.269	52764.35
630.623	52894.29
630.978	52811.8
631.332	52878.69
631.687	52968.18
632.041	52607.97
632.396	52720.05
632.75	52507.63
633.104	52397.58
633.459	52212.05
633.813	52077.36
634.167	51945.16
634.521	51885.73
634.875	51850.25
635.229	51684.15
635.583	51522.57
635.937	51570.93
636.291	51516.47
636.645	51573.19
636.999	51600.76
637.352	51829
637.706	51734.54
638.06	52114.42
638.413	52123.91
638.767	52160.75
639.121	52273.96
639.474	52170.69
639.828	52315.55
640.181	52400.97
640.534	52539.72
640.888	52438.25
641.241	52254.98
641.594	52314.19
641.947	52253.63
642.301	52136.57
642.654	52010.24
643.007	51928.44
643.36	51748.55
643.713	51504.72
644.066	51525.96
644.419	51296.82
644.771	51015.24
645.124	50544.97
645.477	50367.57
645.83	50247.13
646.182	50088.03
646.535	50062.95
646.888	50086.9
647.24	49926.23
647.593	50234.02
647.945	50367.12
648.298	50260.23
648.65	50394.92
649.002	50340
649.355	50716.49
649.707	50749.71
650.059	50885.98
650.411	51365.74
650.763	51422.24
651.115	51834.88
651.467	51630.14
651.819	51588.56
652.171	51434.89
652.523	51249.81
652.875	51199.87
653.227	51039.65
653.578	51062.92
653.93	50834.91
654.282	50686.21
654.633	50395.37
654.985	50281.25
655.337	50267.92
655.688	50144.75
656.039	50349.95
656.391	49999.67
656.742	50154.7
657.094	50078.99
657.445	50302.49
657.796	50264.98
658.147	50381.81
658.498	50339.1
658.849	50622.71
659.2	50587.68
659.551	50641.92
659.902	50854.79
660.253	50832.87
660.604	51118.29
660.955	50984.28
661.306	51099.98
661.656	50965.3
662.007	51080.32
662.358	51027.44
662.708	50928.01
663.059	50773.66
663.409	50487.12
663.76	50640.56
664.11	50430.62
664.461	50379.33
664.811	50192.44
665.161	50133
665.511	49747.93
665.862	49757.42
666.212	49764.2
666.562	49797.87
666.912	49577.76
667.262	49634.03
667.612	49530.31
667.962	49660.47
668.312	49687.82
668.662	49919.45
669.011	49903.41
669.361	49975.95
669.711	50114.7
670.06	50224.07
670.41	50161.25
670.76	50273.79
671.109	50539.09
671.459	50537.96
671.808	50518.53
672.157	50614.57
672.507	50488.02
672.856	50614.57
673.205	50469.72
673.554	50562.6
673.904	50326.9
674.253	50423.84
674.602	50151.76
674.951	49527.37
675.3	49205.12
675.649	49589.74
675.998	49529.63
676.346	49338
676.695	49477.43
677.044	48944.11
677.393	49050.55
677.741	48940.94
678.09	48843.09
678.438	48807.39
678.787	48892.81
679.135	48885.81
679.484	48789.08
679.832	48968.29
680.181	48885.81
680.529	49097.32
680.877	49031.79
681.225	49219.13
681.573	49514.04
681.922	49315.17
682.27	49324.44
682.618	49396.3
682.966	49389.75
683.314	49519.46
683.661	49444.66
684.009	49372.35
684.357	49356.75
684.705	49044.44
685.053	49123.76
685.4	49058.68
685.748	48712.25
686.095	48693.49
686.443	48355.2
686.79	48049.22
687.138	48113.4
687.485	47983.46
687.832	47696.91
688.18	47607.87
688.527	47292.63
688.874	47163.82
689.221	46952.52
689.568	46910.49
689.915	46770.38
690.262	46908.46
690.609	46687.67
690.956	46648.12
691.303	46731.96
691.65	46642.7
691.997	46649.25
692.344	46687.44
692.69	46922.69
693.037	47030.49
693.383	46805.63
693.73	47012.18
694.077	46821.23
694.423	46967.44
694.769	47037.72
695.116	46921.11
695.462	46822.13
695.808	46717.27
696.155	46738.06
696.501	46487.22
696.847	46209.04
697.193	45915.04
697.539	46028.03
697.885	45520.92
698.231	45236.41
698.577	45115.96
698.923	44989.86
699.269	44614.73
699.614	44283.44
699.96	44155.53
700.306	43975.2
700.651	43848.2
700.997	43681.42
701.342	43554.65
701.688	43482.78
702.033	43323.24
702.379	43326.63
702.724	43149.68
703.069	43444.14
703.415	43052.96
703.76	43239.17
704.105	43344.48
704.45	43306.74
704.795	43189.91
705.14	43278.04
705.485	43327.99
705.83	43263.35
706.175	43413.18
706.52	43375.67
706.865	43304.93
707.209	43179.51
707.554	43340.41
707.899	43287.99
708.243	42920.09
708.588	42942.68
708.932	42614.33
709.277	42633.31
709.621	42345.86
709.966	42108.58
710.31	42078.53
710.654	41650.74
710.998	41546.79
711.342	41393.35
711.687	41130.98
712.031	40709.75
712.375	40783.65
712.719	40558.57
713.063	40368.74
713.407	40384.33
713.75	40246.71
714.094	40424.11
714.438	40142.76
714.782	40228.63
715.125	40076.32
715.469	40164.23
715.812	39981.86
716.156	39827.74
716.499	40144.34
716.843	40365.8
717.186	40077
717.53	40362.87
717.873	40431.34
718.216	40367.84
718.559	40429.3
718.902	40199.25
719.246	40335.75
719.589	40328.06
719.932	40066.38
720.275	40238.35
720.617	40218.46
720.96	40260.5
721.303	40063.21
721.646	40025.92
721.989	39667.52
722.331	39631.13
722.674	39378.26
723.016	39217.81
723.359	39096.01
723.701	39087.42
724.044	38703.7
724.386	38409.24
724.729	38443.59
725.071	38133.55
725.413	37906.43
725.755	37829.37
726.097	37657.4
726.439	37610.17
726.782	37510.96
727.124	37788.02
727.465	37510.96
727.807	37517.06
728.149	37356.16
728.491	37436.61
728.833	37591.64
729.175	37483.39
729.516	37557.52
729.858	37731.52
730.199	37844.97
730.541	37790.28
730.882	37749.6
731.224	38002.48
731.565	37779.2
731.906	38003.83
732.248	38041.8
732.589	38029.59
732.93	37697.4
733.271	37728.36
733.612	37834.34
733.953	37701.01
734.294	37528.36
734.635	37419.67
734.976	37396.84
735.317	37152.78
735.658	37079.56
735.999	36941.26
736.339	36696.97
736.68	36731.55
737.021	36590.54
737.361	36172.92
737.702	36331.78
738.042	36231.45
738.383	35889.76
738.723	35958.69
739.063	35619.26
739.404	35690.67
739.744	35594.18
740.084	35487.51
740.424	35599.6
740.764	35360.28
741.104	35671.46
741.444	35422.43
741.784	35536.1
742.124	35586.72
742.464	35627.62
742.804	35527.29
743.143	35569.09
743.483	35580.17
743.823	35663.1
744.162	35646.61
744.502	35829.2
744.841	35750.78
745.181	35941.96
745.52	35923.43
745.86	35889.54
746.199	35896.32
746.538	35842.08
746.877	35866.94
747.216	35720.5
747.556	35654.06
747.895	35590.79
748.234	35371.58
748.573	35197.8
748.911	35213.17
749.25	35194.64
749.589	34760.98
749.928	34779.74
750.267	34655.22
750.605	34456.13
750.944	34442.12
751.283	34050.04
751.621	34182.46
751.96	33671.52
752.298	33690.5
752.636	33575.93
752.975	33447.57
753.313	33179.33
753.651	33312.2
753.989	33112.89
754.327	33114.24
754.666	32894.14
755.004	33130.51
755.342	33100.68
755.679	33006.67
756.017	32921.48
756.355	32975.26
756.693	32965.32
757.031	33142.04
757.368	32980.46
757.706	32989.27
758.044	33022.27
758.381	33078.99
758.719	33083.06
759.056	33108.59
759.394	33074.92
759.731	32940.01
760.068	32930.29
760.405	32758.32
760.743	32646.01
761.08	32805.32
761.417	32621.83
761.754	32448.95
762.091	32492.34
762.428	32329.63
762.765	31982.07
763.102	32112.69
763.438	31801.96
763.775	31590.44
764.112	31509.54
764.449	31399.03
764.785	31250.56
765.122	30959.72
765.458	30765.38
765.795	30509.57
766.131	30501.2
766.467	30321.55
766.804	30001.56
767.14	29916.81
767.476	29927.21
767.812	29809.24
768.148	29795.23
768.485	29712.98
768.821	29409.48
769.157	29421.23
769.492	29383.04
769.828	29381.23
770.164	29151.41
770.5	29319.09
770.836	29279.54
771.171	29122.26
771.507	29223.05
771.842	28991.64
772.178	29172.65
772.513	29077.51
772.849	29139.21
773.184	29016.95
773.519	28958.19
773.855	29015.82
774.19	28790.74
774.525	28736.05
774.86	28760.23
775.195	28704.64
775.53	28551.2
775.865	28413.8
776.2	28105.79
776.535	28013.13
776.87	27914.83
777.205	27726.14
777.539	27660.37
777.874	27596.42
778.209	27220.16
778.543	27236.2
778.878	27046.83
779.212	26864.46
779.547	26627.41
779.881	26734.3
780.215	26436.68
780.55	26457.92
780.884	26191.49
781.218	26021.55
781.552	25865.85
781.886	25789.92
782.22	25518.28
782.554	25516.48
782.888	25375.69
783.222	25248.46
783.556	25071.52
783.889	25184.73
784.223	24898.87
784.557	24887.57
784.89	25006.66
785.224	24968.69
785.557	24810.05
785.891	24822.26
786.224	24841.47
786.558	24963.04
786.891	24692.32
787.224	24634.69
787.557	24648.7
787.891	24634.01
788.224	24705.42
788.557	24683.5
788.89	24672.43
789.223	24580.46
789.556	24496.39
789.888	24475.37
790.221	24415.04
790.554	24307.69
790.887	24281.25
791.219	24209.84
791.552	24009.62
791.884	23874.71
792.217	23792.45
792.549	23690.99
792.882	23534.16
793.214	23300.26
793.546	23349.3
793.879	23068.63
794.211	22847.62
794.543	22869.31
794.875	22693.5
795.207	22754.29
795.539	22490.11
795.871	22497.12
796.203	22244.47
796.535	22089.22
796.867	21905.95
797.198	21908.21
797.53	21906.4
797.862	21603.81
798.193	21791.38
798.525	21580.53
798.856	21667.09
799.188	21355.68
799.519	21281.11
799.85	21190.94
800.182	21220.09
800.513	21263.71
800.844	21187.32
801.175	21307.1
801.506	21325.4
801.837	21250.15
802.168	21215.35
802.499	21212.86
802.83	21098.74
803.161	21122.47
803.491	21100.55
803.822	21176.48
804.153	21185.52
804.483	21065.29
804.814	21098.06
805.145	21061.45
805.475	21072.75
805.805	21008.35
806.136	20954.11
806.466	20927.9
806.796	20817.84
807.126	20704.4
807.457	20632.31
807.787	20579.66
808.117	20438.87
808.447	20431.86
808.777	20472.09
809.107	20271.64
809.436	20196.62
809.766	20071.42
810.096	19997.3
810.426	19823.52
810.755	19816.74
811.085	19688.15
811.414	19526.13
811.744	19405.22
812.073	19361.61
812.403	19144.21
812.732	19085.91
813.061	19082.75
813.39	18852.24
813.719	18798.91
814.049	18951.68
814.378	18870.32
814.707	18791.91
815.036	18823.54
815.365	18654.74
815.693	18525.93
816.022	18577.68
816.351	18540.61
816.68	18424.69
817.008	18539.94
817.337	18405.02
817.665	18416.55
817.994	18405.25
818.322	18419.94
818.651	18342.65
818.979	18384.91
819.307	18532.25
819.636	18513.95
819.964	18384.01
820.292	18551.46
820.62	18511.24
820.948	18449.77
821.276	18537.45
821.604	18504
821.932	18559.82
822.259	18523.21
822.587	18608.41
822.915	18659.71
823.243	18764.34
823.57	18506.94
823.898	18631.46
824.225	18480.73
824.553	18446.61
824.88	18448.41
825.207	18487.73
825.535	18346.72
825.862	18395.76
826.189	18287.51
826.516	18382.2
826.843	18264.01
827.17	18258.14
827.497	18160.29
827.824	18085.48
828.151	18176.56
828.478	18038.03
828.805	18065.6
829.131	17934.3
829.458	17775.66
829.785	17721.65
830.111	17735.66
830.438	17858.37
830.764	17810.92
831.09	17737.25
831.417	17706.06
831.743	17706.06
832.069	17761.88
832.395	17655.44
832.722	17682.33
833.048	17636.46
833.374	17656.12
833.7	17591.26
834.026	17722.33
834.351	17803.01
834.677	17791.26
835.003	17746.96
835.329	17859.73
835.654	17854.76
835.98	17747.87
836.306	17825.6
836.631	17784.7
836.956	17851.37
837.282	17878.26
837.607	17786.74
837.932	17757.13
838.258	17884.13
838.583	17787.19
838.908	17797.58
839.233	17850.24
839.558	17751.03
839.883	17806.85
840.208	17753.52
840.533	17665.83
840.858	17629.23
841.182	17728.43
841.507	17572.96
841.832	17506.29
842.156	17510.36
842.481	17437.59
842.805	17524.82
843.13	17271.5
843.454	17212.97
843.778	17104.72
844.103	16994.89
844.427	17010.03
844.751	16993.31
845.075	16858.62
845.399	16836.7
845.723	16638.29
846.047	16643.94
846.371	16442.14
846.695	16438.97
847.019	16290.5
847.343	16167.34
847.666	16148.59
847.99	15992.43
848.313	15938.42
848.637	15748.15
848.96	15772.78
849.284	15859.78
849.607	15625.66
849.931	15693.68
850.254	15546.12
850.577	15534.59
850.9	15429.51
851.223	15432
851.546	15321.72
851.869	15283.07
852.192	15341.38
852.515	15296.63
852.838	15337.31
853.161	15317.2
853.483	15177.99
853.806	15206.01
854.129	15165.79
854.451	15118.33
854.774	15132.12
855.096	15086.02
855.419	15102.29
855.741	15088.95
856.063	15053.25
856.385	15069.97
856.708	14908.17
857.03	14856.19
857.352	15060.93
857.674	14862.29
857.996	14865
858.318	14784.1
858.64	14826.36
858.961	14684.44
859.283	14659.81
859.605	14584.33
859.926	14495.97
860.248	14384.57
860.57	14497.1
860.891	14382.31
861.212	14355.41
861.534	14226.15
861.855	14192.48
862.176	14178.92
862.498	14157.23
862.819	14040.17
863.14	13937.57
863.461	13891.47
863.782	13856.9
864.103	13784.58
864.424	13664.36
864.745	13730.57
865.065	13662.32
865.386	13490.13
865.707	13370.35
866.027	13484.25
866.348	13432.95
866.668	13400.18
866.989	13398.15
867.309	13263.92
867.63	13343.01
867.95	13360.86
868.27	13211.26
868.59	13272.73
868.91	13265.27
869.23	13240.19
869.55	13171.04
869.87	13287.87
870.19	13271.6
870.51	13345.27
870.83	13356.34
871.15	13247.87
871.469	13331.94
871.789	13345.04
872.109	13332.84
872.428	13278.61
872.748	13348.43
873.067	13371.94
873.386	13385.27
873.706	13420.3
874.025	13351.37
874.344	13324.93
874.663	13430.47
874.982	13402.9
875.301	13289.45
875.62	13335.1
875.939	13241.54
876.258	13321.32
876.577	13251.71
876.896	13211.94
877.214	13174.65
877.533	13135.78
877.852	13100.98
878.17	13140.76
878.489	13073.87
878.807	13056.92
879.125	13021.21
879.444	13092.17
879.762	13002
880.08	12975.34
880.398	12835.45
880.716	12830.03
881.034	12675.68
881.352	12706.87
881.67	12649.02
881.988	12601.79
882.306	12489.47
882.624	12436.82
882.941	12425.07
883.259	12308.69
883.577	12337.16
883.894	12233.21
884.212	12323.15
884.529	12084.51
884.846	12132.87
885.164	12100.56
885.481	12040.9
885.798	12057.85
886.115	11990.96
886.432	11966.55
886.75	11912.31
887.067	11971.52
887.383	11865.08
887.7	11857.17
888.017	11873.22
888.334	11817.4
888.651	11812.43
888.967	11862.15
889.284	11736.27
889.6	11724.75
889.917	11784.18
890.233	11721.81
890.55	11659.67
890.866	11750.96
891.182	11697.4
891.498	11658.99
891.815	11715.48
892.131	11632.1
892.447	11677.74
892.763	11707.8
893.079	11628.48
893.395	11598.2
893.71	11641.81
894.026	11550.06
894.342	11566.11
894.657	11519.78
894.973	11454.92
895.289	11462.61
895.604	11461.93
895.92	11377.64
896.235	11361.82
896.55	11371.99
896.865	11285.89
897.181	11207.02
897.496	11250.41
897.811	11209.51
898.126	11203.41
898.441	11115.5
898.756	11111.88
899.071	11038.66
899.386	10946.01
899.7	10799.8
900.015	10732.01
900.33	10683.65
900.644	10689.52
900.959	10638.68
901.273	10576.98
901.588	10525.46
901.902	10474.16
902.216	10383.09
902.531	10296.76
902.845	10216.77
903.159	10254.28
903.473	10166.6
903.787	10111.46
904.101	10068.75
904.415	10046.37
904.729	9976.77
905.042	9865.59
905.356	9910.11
905.67	9866.49
905.984	9858.13
906.297	9766.61
906.611	9719.38
906.924	9700.39
907.237	9661.53
907.551	9599.83
907.864	9555.77
908.177	9540.17
908.491	9565.93
908.804	9490
909.117	9494.98
909.43	9432.61
909.743	9353.74
910.056	9419.95
910.368	9405.94
910.681	9311.48
910.994	9411.14
911.307	9304.25
911.619	9259.5
911.932	9372.27
912.244	9328.43
912.557	9203.46
912.869	9215.89
913.181	9193.29
913.494	9148.09
913.806	9103.12
914.118	9080.75
914.43	9028.32
914.742	9059.73
915.054	9034.65
915.366	8964.37
915.678	8881.89
915.99	8891.15
916.302	8825.16
916.613	8804.6
916.925	8855.45
917.236	8827.88
917.548	8740.87
917.859	8737.26
918.171	8653.87
918.482	8564.83
918.794	8566.64
919.105	8578.16
919.416	8510.14
919.727	8400.77
920.038	8298.17
920.349	8341.33
920.66	8303.82
920.971	8253.88
921.282	8268.34
921.593	8168.46
921.903	8098.4
922.214	8084.17
922.525	8076.03
922.835	7962.14
923.146	7876.49
923.456	7868.35
923.767	7762.59
924.077	7739.99
924.387	7703.39
924.697	7694.57
925.008	7656.38
925.318	7578.42
925.628	7617.74
925.938	7476.72
926.248	7444.41
926.558	7420
926.867	7396.73
927.177	7298.65
927.487	7362.83
927.796	7274.02
928.106	7271.08
928.416	7237.63
928.725	7188.14
929.034	7169.39
929.344	7156.73
929.653	7188.37
929.962	7102.5
930.271	7121.93
930.581	7124.64
930.89	7081.48
931.199	7035.38
931.508	7036.51
931.817	6982.95
932.125	7017.53
932.434	6996.51
932.743	6953.8
933.051	6947.47
933.36	6977.75
933.669	6962.61
933.977	6896.4
934.286	6872.45
934.594	6869.28
934.902	6808.04
935.21	6760.13
935.519	6751.09
935.827	6743.41
936.135	6685.11
936.443	6671.77
936.751	6650.31
937.059	6719
937.367	6648.05
937.674	6625.67
937.982	6516.75
938.29	6483.08
938.597	6559.46
938.905	6451.21
939.213	6421.84
939.52	6392.91
939.827	6432.01
940.135	6356.75
940.442	6316.08
940.749	6259.81
941.056	6267.49
941.363	6206.7
941.67	6174.61
941.977	6132.58
942.284	6136.19
942.591	6057.33
942.898	6008.06
943.205	5987.5
943.511	6002.19
943.818	5971.91
944.125	5912.02
944.431	5879.93
944.738	5866.37
945.044	5832.7
945.35	5799.93
945.657	5730.56
945.963	5697.79
946.269	5650.33
946.575	5652.59
946.881	5613.04
947.187	5585.02
947.493	5545.7
947.799	5493.5
948.105	5501.41
948.41	5403.56
948.716	5442.88
949.022	5421.41
949.327	5407.63
949.633	5313.17
949.938	5324.69
950.244	5306.61
950.549	5281.75
950.854	5304.35
951.16	5237.24
951.465	5260.74
951.77	5189.78
952.075	5184.13
952.38	5195.2
952.685	5222.77
952.99	5183.68
953.294	5146.39
953.599	5140.06
953.904	5145.94
954.209	5104.81
954.513	5114.75
954.818	5064.36
955.122	5076.34
955.426	5031.36
955.731	5063.91
956.035	4972.61
956.339	5039.95
956.643	4966.28
956.948	4942.55
957.252	4949.79
957.556	4918.37
957.86	4967.41
958.163	4904.59
958.467	4859.84
958.771	4871.14
959.075	4859.62
959.378	4823.91
959.682	4841.54
959.985	4847.87
960.289	4821.65
960.592	4710.24
960.896	4757.93
961.199	4695.55
961.502	4712.05
961.805	4644.03
962.108	4591.38
962.411	4660.75
962.714	4597.7
963.017	4566.74
963.32	4584.82
963.623	4575.56
963.926	4517.25
964.228	4499.4
964.531	4437.03
964.833	4457.82
965.136	4391.61
965.438	4394.55
965.741	4359.97
966.043	4350.93
966.345	4317.49
966.648	4282.46
966.95	4264.83
967.252	4239.3
967.554	4178.05
967.856	4201.1
968.158	4131.5
968.46	4162.24
968.761	4089.24
969.063	4034.1
969.365	4036.36
969.666	3973.99
969.968	3990.49
970.269	3985.06
970.571	3951.85
970.872	3921.34
971.174	3891.28
971.475	3878.17
971.776	3862.36
972.077	3864.84
972.378	3873.2
972.679	3877.04
972.98	3801.34
973.281	3826.2
973.582	3790.49
973.883	3792.53
974.183	3744.17
974.484	3736.03
974.785	3734.9
975.085	3678.63
975.386	3748.91
975.686	3714.56
975.986	3694.22
976.287	3692.19
976.587	3673.89
976.887	3632.76
977.187	3646.99
977.487	3633.44
977.787	3631.85
978.087	3611.29
978.387	3583.04
978.687	3600.67
978.987	3543.49
979.286	3544.62
979.586	3564.06
979.885	3562.48
980.185	3517.51
980.484	3527
980.784	3544.17
981.083	3487.68
981.382	3463.72
981.682	3466.21
981.981	3453.33
982.28	3422.82
982.579	3436.6
982.878	3442.93
983.177	3390.28
983.475	3399.32
983.774	3351.86
984.073	3356.61
984.372	3308.92
984.67	3321.58
984.969	3359.77
985.267	3363.61
985.566	3304.86
985.864	3310.28
986.162	3277.74
986.461	3200.9
986.759	3190.96
987.057	3162.49
987.355	3187.57
987.653	3226.67
987.951	3161.58
988.249	3129.72
988.547	3118.65
988.844	3058.31
989.142	3057.86
989.44	3052.21
989.737	3043.62
990.035	2982.83
990.332	2988.25
990.63	2969.27
990.927	2969.95
991.224	2955.04
991.521	2924.3
991.819	2924.75
992.116	2898.09
992.413	2886.11
992.71	2838.43
993.006	2839.33
993.303	2823.97
993.6	2856.51
993.897	2814.7
994.193	2794.59
994.49	2749.39
994.787	2743.97
995.083	2738.54
995.379	2716.17
995.676	2688.83
995.972	2723.63
996.268	2669.62
996.565	2673.01
996.861	2641.6
997.157	2613.58
997.453	2665.55
997.749	2598.21
998.044	2604.99
998.34	2612.9
998.636	2592.56
998.932	2602.73
999.227	2553.24
999.523	2533.8
999.818	2553.46
1000.114	2482.28
1000.409	2498.32
1000.704	2504.88
1001	2527.02
1001.295	2486.12
1001.59	2490.41
1001.885	2467.14
1002.18	2461.49
1002.475	2437.99
1002.77	2428.95
1003.065	2427.59
1003.359	2404.77
1003.654	2392.79
1003.949	2355.5
1004.243	2381.49
1004.538	2349.4
1004.832	2333.81
1005.127	2352.79
1005.421	2327.71
1005.715	2332.23
1006.009	2334.03
1006.304	2307.82
1006.598	2275.73
1006.892	2285
1007.186	2238.9
1007.48	2259.01
1007.773	2251.32
1008.067	2207.94
1008.361	2202.74
1008.655	2190.08
1008.948	2199.8
1009.242	2161.16
1009.535	2185.79
1009.829	2138.11
1010.122	2115.28
1010.415	2122.74
1010.708	2090.2
1011.001	2083.19
1011.295	2056.98
1011.588	2080.26
1011.881	2033.48
1012.173	2043.19
1012.466	2057.21
1012.759	2021.27
1013.052	1983.76
1013.344	1987.6
1013.637	1984.89
1013.93	1942.63
1014.222	1962.75
1014.514	1912.12
1014.807	1908.06
1015.099	1893.14
1015.391	1899.7
1015.683	1870.77
1015.976	1848.85
1016.268	1851.11
1016.56	1823.99
1016.851	1818.57
1017.143	1836.42
1017.435	1792.13
1017.727	1783.31
1018.018	1771.34
1018.31	1725.24
1018.602	1755.74
1018.893	1749.19
1019.185	1747.38
1019.476	1719.14
1019.767	1688.18
1020.058	1703.32
1020.35	1666.48
1020.641	1671.91
1020.932	1650.21
1021.223	1624.67
1021.514	1619.93
1021.804	1615.64
1022.095	1584.45
1022.386	1583.77
1022.677	1579.93
1022.967	1584
1023.258	1545.35
1023.548	1550.55
1023.839	1565.92
1024.129	1542.64
1024.419	1524.11
1024.709	1505.13
1025	1500.61
1025.29	1491.57
1025.58	1494.73
1025.87	1461.74
1026.16	1480.72
1026.449	1482.76
1026.739	1435.3
1027.029	1442.76
1027.319	1415.41
1027.608	1434.4
1027.898	1428.75
1028.187	1420.39
1028.477	1431.91
1028.766	1394.85
1029.055	1392.59
1029.344	1385.81
1029.634	1368.18
1029.923	1364.12
1030.212	1381.74
1030.501	1357.34
1030.79	1348.98
1031.078	1307.4
1031.367	1316.21
1031.656	1300.84
1031.945	1318.92
1032.233	1286.83
1032.522	1286.83
1032.81	1283.44
1033.099	1276.21
1033.387	1260.62
1033.675	1252.93
1033.963	1264.68
1034.251	1242.09
1034.54	1251.58
1034.828	1226.49
1035.116	1201.41
1035.403	1193.5
1035.691	1202.31
1035.979	1217.23
1036.267	1190.11
1036.554	1185.14
1036.842	1177
1037.129	1146.04
1037.417	1183.56
1037.704	1151.69
1037.992	1117.12
1038.279	1155.53
1038.566	1126.83
1038.853	1126.83
1039.14	1126.83
