Data from red_cardboard_box_FLMS001491_00053.txt Node
Date: Wed Feb 08 11:32:46 GMT 2017
User: dcchb
Spectrometer: FLMS00149
Trigger mode: 0
Integration Time (sec): 2.000000E-2
Scans to average: 10
Electric dark correction enabled: true
Nonlinearity correction enabled: false
Boxcar width: 0
XAxis mode: Wavelengths
Number of Pixels in Spectrum: 2048
>>>>>Begin Spectral Data<<<<<
341.393	-18.06
341.776	-18.06
342.16	-18.06
342.543	-72.98
342.927	-65.07
343.31	-61.68
343.693	-65.97
344.077	-68.68
344.46	-59.65
344.843	-64.84
345.226	-45.86
345.61	-28.91
345.993	-3.6
346.376	-10.83
346.759	8.38
347.142	15.83
347.525	67.36
347.908	56.74
348.291	74.14
348.674	75.94
349.057	111.65
349.44	105.77
349.823	133.8
350.206	149.84
350.588	191.87
350.971	211.76
351.354	221.7
351.737	234.58
352.119	252.44
352.502	263.51
352.884	238.43
353.267	261.02
353.65	307.58
354.032	296.05
354.414	294.02
354.797	293.57
355.179	317.97
355.562	319.55
355.944	304.64
356.326	310.97
356.709	331.3
357.091	320.91
357.473	345.09
357.855	324.07
358.238	329.95
358.62	329.72
359.002	361.36
359.384	334.24
359.766	323.17
360.148	324.75
360.53	339.89
360.912	344.64
361.294	332.89
361.676	330.85
362.057	321.14
362.439	328.37
362.821	315.49
363.203	315.03
363.584	343.73
363.966	340.12
364.348	323.85
364.729	301.7
365.111	323.62
365.493	319.55
365.874	326.56
366.256	299.22
366.637	318.2
367.019	310.97
367.4	306.22
367.781	305.32
368.163	306.22
368.544	307.35
368.925	306.67
369.306	322.04
369.688	310.97
370.069	299.67
370.45	291.53
370.831	307.35
371.212	294.24
371.593	313.45
371.974	306.45
372.355	293.57
372.736	321.14
373.117	305.54
373.498	296.73
373.879	300.35
374.26	306.9
374.641	299.67
375.021	296.96
375.402	309.38
375.783	320.68
376.163	312.1
376.544	324.75
376.925	323.85
377.305	337.18
377.686	330.85
378.066	310.97
378.447	319.78
378.827	317.52
379.208	325.88
379.588	336.28
379.968	344.19
380.349	340.34
380.729	336.05
381.109	329.5
381.489	343.51
381.87	336.73
382.25	320.91
382.63	334.02
383.01	308.48
383.39	366.33
383.77	327.01
384.15	340.57
384.53	338.76
384.91	331.3
385.29	341.7
385.67	343.28
386.049	350.51
386.429	336.95
386.809	341.93
387.189	352.32
387.568	339.44
387.948	338.31
388.328	368.37
388.707	350.29
389.087	355.94
389.466	354.13
389.846	357.52
390.225	352.77
390.605	349.84
390.984	360.68
391.363	355.49
391.743	346.45
392.122	343.28
392.501	343.51
392.881	347.58
393.26	352.77
393.639	356.84
394.018	371.98
394.397	365.88
394.776	352.77
395.155	362.94
395.534	362.04
395.913	362.26
396.292	377.41
396.671	364.52
397.05	362.94
397.429	380.57
397.808	357.29
398.186	396.84
398.565	362.49
398.944	354.13
399.323	382.83
399.701	362.94
400.08	388.93
400.458	377.63
400.837	390.74
401.215	400.68
401.594	395.48
401.972	371.76
402.351	381.47
402.729	383.73
403.107	390.96
403.486	372.43
403.864	388.93
404.242	393.22
404.62	378.76
404.999	414.24
405.377	395.26
405.755	400.91
406.133	404.98
406.511	402.72
406.889	404.52
407.267	413.11
407.645	383.73
408.023	422.15
408.401	416.73
408.779	403.85
409.156	421.02
409.534	410.85
409.912	420.57
410.29	410.4
410.667	414.24
411.045	424.41
411.422	425.54
411.8	432.09
412.178	427.35
412.555	431.64
412.933	431.64
413.31	440.68
413.687	454.01
414.065	441.13
414.442	443.17
414.819	456.73
415.197	454.69
415.574	419.89
415.951	454.69
416.328	447.01
416.705	431.64
417.082	446.33
417.46	449.49
417.837	456.95
418.214	493.56
418.591	459.44
418.967	451.3
419.344	467.12
419.721	465.76
420.098	479.78
420.475	473.9
420.852	488.81
421.228	477.74
421.605	475.71
421.982	464.41
422.358	469.15
422.735	508.25
423.111	486.78
423.488	481.81
423.864	499.21
424.241	500.57
424.617	500.79
424.994	497.63
425.37	501.92
425.746	478.42
426.123	511.19
426.499	482.94
426.875	512.99
427.251	524.52
427.627	512.77
428.003	538.76
428.379	537.4
428.756	506.22
429.132	520.68
429.507	537.18
429.883	531.07
430.259	519.77
430.635	552.77
431.011	545.08
431.387	539.89
431.763	550.06
432.138	549.15
432.514	581.92
432.89	559.1
433.265	589.6
433.641	571.3
434.016	554.35
434.392	564.52
434.767	602.03
435.143	582.82
435.518	591.86
435.894	602.03
436.269	574.91
436.644	606.78
437.02	598.64
437.395	619.66
437.77	614.91
438.145	635.48
438.52	611.52
438.895	629.83
439.271	602.48
439.646	636.61
440.021	626.89
440.395	649.49
440.77	616.95
441.145	633.67
441.52	638.87
441.895	633.44
442.27	655.59
442.645	636.61
443.019	656.27
443.394	628.25
443.769	650.62
444.143	674.35
444.518	681.35
444.892	675.7
445.267	672.31
445.641	666.66
446.016	682.93
446.39	693.56
446.764	661.69
447.139	703.27
447.513	682.03
447.887	678.19
448.262	675.02
448.636	678.87
449.01	721.58
449.384	710.5
449.758	700.79
450.132	687.23
450.506	703.05
450.88	731.29
451.254	721.58
451.628	750.95
452.002	701.01
452.376	713.22
452.75	723.84
453.123	722.03
453.497	750.5
453.871	755.93
454.244	766.55
454.618	760.22
454.992	749.37
455.365	753.89
455.739	783.04
456.112	798.41
456.486	787.56
456.859	788.24
457.232	797.28
457.606	769.94
457.979	783.95
458.352	828.47
458.725	800.22
459.099	834.57
459.472	824.85
459.845	817.17
460.218	830.27
460.591	816.94
460.964	842.93
461.337	875.25
461.71	856.26
462.083	865.53
462.456	880.67
462.829	882.93
463.201	877.05
463.574	870.5
463.947	886.54
464.32	924.96
464.692	922.7
465.065	914.57
465.438	938.07
465.81	938.29
466.183	952.53
466.555	961.34
466.928	933.32
467.3	959.99
467.672	946.88
468.045	964.28
468.417	999.99
468.789	976.94
469.161	1009.71
469.534	1000.44
469.906	1019.65
470.278	1009.25
470.65	1020.1
471.022	1055.81
471.394	1061.91
471.766	1087.67
472.138	1071.17
472.51	1090.15
472.882	1095.8
473.253	1101.91
473.625	1111.4
473.997	1113.43
474.369	1171.06
474.74	1178.06
475.112	1178.74
475.484	1180.77
475.855	1209.47
476.227	1218.29
476.598	1225.52
476.97	1224.16
477.341	1252.64
477.713	1276.82
478.084	1253.09
478.455	1303.03
478.827	1321.79
479.198	1306.19
479.569	1315.91
479.94	1362.46
480.311	1388.45
480.682	1387.77
481.053	1450.82
481.424	1419.19
481.795	1449.47
482.166	1486.53
482.537	1484.27
482.908	1528.34
483.279	1494.89
483.65	1547.77
484.021	1563.59
484.391	1588.9
484.762	1617.6
485.133	1613.76
485.503	1620.31
485.874	1656.69
486.244	1678.61
486.615	1711.83
486.985	1685.62
487.356	1711.38
487.726	1754.32
488.097	1771.72
488.467	1786.18
488.837	1808.78
489.207	1816.24
489.578	1875.22
489.948	1867.76
490.318	1889.68
490.688	1911.38
491.058	1931.94
491.428	1967.65
491.798	1998.38
492.168	2007.64
492.538	2000.41
492.908	2031.83
493.278	2043.35
493.648	2052.62
494.017	2110.47
494.387	2067.08
494.757	2098.26
495.126	2159.05
495.496	2133.52
495.866	2202.89
496.235	2188.66
496.605	2220.75
496.974	2192.27
497.344	2227.53
497.713	2237.7
498.082	2287.19
498.452	2253.29
498.821	2275.66
499.19	2345.72
499.559	2303
499.928	2347.75
500.298	2350.01
500.667	2390.23
501.036	2369.67
501.405	2390.01
501.774	2409.67
502.143	2451.48
502.512	2407.86
502.88	2447.86
503.249	2496.45
503.618	2459.16
503.987	2469.78
504.356	2531.7
504.724	2550
505.093	2548.87
505.462	2550.46
505.83	2583.68
506.199	2604.24
506.567	2613.28
506.936	2660.74
507.304	2654.63
507.672	2652.6
508.041	2663.67
508.409	2706.16
508.777	2712.26
509.145	2722.43
509.514	2723.78
509.882	2787.74
510.25	2757
510.618	2793.39
510.986	2810.11
511.354	2826.83
511.722	2838.58
512.09	2886.49
512.458	2882.65
512.826	2905.25
513.193	2904.8
513.561	2947.51
513.929	2955.64
514.297	3013.95
514.664	3028.18
515.032	3032.48
515.4	3049.65
515.767	3041.74
516.135	3064.11
516.502	3082.87
516.869	3156.54
517.237	3169.65
517.604	3156.54
517.972	3216.2
518.339	3185.24
518.706	3195.86
519.073	3288.74
519.44	3236.77
519.808	3316.54
520.175	3318.8
520.542	3323.99
520.909	3389.98
521.276	3400.38
521.643	3410.32
522.009	3426.14
522.376	3516.53
522.743	3468.17
523.11	3524.44
523.477	3518.57
523.843	3565.57
524.21	3655.51
524.577	3671.1
524.943	3673.14
525.31	3682.4
525.676	3677.66
526.043	3724.21
526.409	3763.76
526.776	3754.94
527.142	3841.04
527.508	3847.6
527.874	3867.48
528.241	3910.19
528.607	3876.97
528.973	3932.79
529.339	3920.59
529.705	4002.17
530.071	3999.91
530.437	4034.71
530.803	4075.39
531.169	4093.24
531.535	4127.14
531.901	4122.62
532.267	4140.47
532.632	4204.88
532.998	4242.61
533.364	4249.62
533.73	4239.22
534.095	4301.37
534.461	4254.37
534.826	4344.31
535.192	4362.61
535.557	4383.85
535.923	4405.77
536.288	4437.86
536.653	4435.15
537.019	4444.42
537.384	4473.12
537.749	4485.77
538.114	4493.23
538.479	4553.79
538.845	4530.06
539.21	4528.03
539.575	4569.61
539.94	4596.28
540.305	4642.38
540.67	4620.91
541.034	4679.44
541.399	4673.11
541.764	4723.51
542.129	4708.14
542.494	4789.72
542.858	4789.72
543.223	4824.97
543.587	4844.86
543.952	4874.01
544.316	4811.87
544.681	4859.32
545.045	4938.87
545.41	4979.77
545.774	4918.75
546.138	4944.52
546.503	5018.87
546.867	4993.33
547.231	5057.96
547.595	5092.31
547.959	5079.88
548.324	5111.29
548.688	5168.92
549.052	5181.35
549.416	5207.56
549.779	5184.96
550.143	5238.97
550.507	5270.84
550.871	5300.44
551.235	5320.33
551.599	5401
551.962	5400.32
552.326	5416.37
552.689	5482.36
553.053	5465.86
553.417	5487.1
553.78	5573.43
554.143	5543.15
554.507	5624.05
554.87	5668.57
555.234	5711.05
555.597	5716.25
555.96	5742.01
556.323	5787.43
556.686	5808.9
557.05	5906.53
557.413	5857.94
557.776	5960.31
558.139	5947.65
558.502	5966.41
558.865	6031.27
559.228	6130.02
559.59	6200.08
559.953	6197.37
560.316	6301.54
560.679	6361.88
561.041	6362.33
561.404	6365.27
561.767	6468.32
562.129	6455.44
562.492	6556.23
562.854	6596.68
563.217	6653.17
563.579	6763.23
563.941	6779.27
564.304	6818.37
564.666	6914.18
565.028	6945.37
565.39	6972.94
565.753	7063.33
566.115	7110.34
566.477	7122.09
566.839	7228.3
567.201	7331.12
567.563	7349.88
567.925	7475.3
568.287	7522.3
568.648	7549.19
569.01	7633.71
569.372	7745.8
569.734	7811.11
570.095	7877.77
570.457	7924.1
570.819	7979.92
571.18	8088.62
571.542	8190.99
571.903	8272.79
572.265	8315.95
572.626	8391.21
572.987	8460.58
573.349	8520.47
573.71	8627.13
574.071	8652.44
574.432	8800.69
574.794	8888.37
575.155	8909.84
575.516	8994.13
575.877	9196.38
576.238	9228.7
576.599	9341.24
576.96	9412.87
577.32	9589.14
577.681	9609.48
578.042	9710.04
578.403	9770.38
578.763	9920.88
579.124	10047.43
579.485	10168.11
579.845	10340.53
580.206	10474.31
580.566	10590.02
580.927	10656.23
581.287	10870.01
581.648	10977.35
582.008	11207.18
582.368	11323.11
582.728	11426.61
583.089	11585.02
583.449	11708.63
583.809	11891
584.169	12123.76
584.529	12218
584.889	12567.82
585.249	12639.46
585.609	12831.54
585.969	13037.64
586.329	13278.31
586.688	13555.36
587.048	13742.25
587.408	13854.57
587.768	14078.06
588.127	14343.37
588.487	14661.55
588.846	14937.25
589.206	15110.35
589.565	15318.03
589.925	15792.14
590.284	15980.38
590.643	16209.76
591.003	16566.36
591.362	16823.07
591.721	17118.43
592.08	17482.94
592.44	17824.18
592.799	18062.14
593.158	18484.05
593.517	18802.46
593.876	19157.25
594.235	19465.04
594.593	19919.26
594.952	20206.94
595.311	20610.55
595.67	20889.18
596.029	21476.06
596.387	21776.84
596.746	22149.49
597.104	22478.97
597.463	22856.14
597.822	23224.04
598.18	23609.79
598.538	23980.85
598.897	24573.38
599.255	24700.16
599.613	25485.22
599.972	25793.69
600.33	26235.26
600.688	26477.96
601.046	26940.32
601.404	27506.86
601.762	27787.31
602.12	28333.05
602.478	28735.98
602.836	29120.83
603.194	29373.03
603.552	29806.69
603.91	30154.7
604.268	30686.89
604.625	30826.1
604.983	31375.01
605.341	31768.22
605.698	32225.83
606.056	32679.38
606.413	32932.26
606.771	33393.26
607.128	33746.7
607.485	33961.38
607.843	34299.68
608.2	34723.39
608.557	35225.08
608.914	35448.57
609.272	35746.64
609.629	36074.09
609.986	36574.65
610.343	36688.54
610.7	37241.75
611.057	37458.92
611.414	37708.85
611.771	38069.3
612.127	38483.52
612.484	38707.02
612.841	38987.46
613.198	38934.81
613.554	39412.76
613.911	39805.52
614.267	39926.42
614.624	39956.03
614.98	40550.13
615.337	40804.36
615.693	40926.17
616.05	41010.91
616.406	41536.55
616.762	41549.66
617.118	41731.35
617.475	41849.54
617.831	42121.62
618.187	42355.51
618.543	42525.22
618.899	42970.41
619.255	42979.9
619.611	43076.4
619.967	43324.98
620.323	43737.4
620.678	43686.78
621.034	43691.75
621.39	43878.86
621.746	44042.25
622.101	44444.04
622.457	44298.51
622.812	44489.92
623.168	44704.6
623.523	44785.5
623.879	45017.81
624.234	44883.81
624.589	45025.5
624.945	45208.77
625.3	45250.12
625.655	45363.57
626.01	45475.43
626.365	45603.33
626.72	45532.38
627.075	45698.93
627.43	45737.79
627.785	45694.41
628.14	45901.18
628.495	46033.83
628.85	46058.69
629.205	46162.42
629.559	46257.55
629.914	46238.57
630.269	46277.89
630.623	46192.02
630.978	46264.33
631.332	46456.42
631.687	46487.38
632.041	46366.48
632.396	46553.37
632.75	46506.14
633.104	46550.43
633.459	46372.58
633.813	46552.91
634.167	46527.83
634.521	46526.02
634.875	46591.11
635.229	46649.86
635.583	46418.91
635.937	46464.56
636.291	46539.36
636.645	46519.47
636.999	46528.96
637.352	46598.56
637.706	46523.99
638.06	46765.56
638.413	46594.95
638.767	46618.45
639.121	46722.4
639.474	46461.84
639.828	46556.08
640.181	46724.89
640.534	46711.78
640.888	46664.55
641.241	46382.98
641.594	46659.8
641.947	46633.82
642.301	46583.87
642.654	46612.8
643.007	46665.45
643.36	46594.04
643.713	46635.62
644.066	46774.6
644.419	46463.65
644.771	46289.64
645.124	45832.03
645.477	45821.63
645.83	45639.72
646.182	45437.92
646.535	45614.18
646.888	45716.55
647.24	45450.34
647.593	45665.25
647.945	45669.1
648.298	45301.42
648.65	45232.72
649.002	45260.52
649.355	45506.61
649.707	45447.41
650.059	45554.75
650.411	46059.82
650.763	46245.13
651.115	46597.88
651.467	46509.3
651.819	46512.01
652.171	46318.57
652.523	46417.55
652.875	46354.73
653.227	46318.57
653.578	46571.9
653.93	46491.45
654.282	46367.16
654.633	46359.47
654.985	46454.61
655.337	46331
655.688	46385.24
656.039	46619.13
656.391	46161.06
656.742	46205.35
657.094	46316.99
657.445	46455.29
657.796	46284.9
658.147	46171.46
658.498	46287.16
658.849	46191.79
659.2	46217.78
659.551	46104.34
659.902	46209.42
660.253	46068.41
660.604	46303.43
660.955	46091.91
661.306	46179.36
661.656	46072.25
662.007	46163.09
662.358	46220.72
662.708	46280.15
663.059	46233.83
663.409	46015.53
663.76	46320.6
664.11	46228.86
664.461	46308.4
664.811	46240.38
665.161	46139.37
665.511	46079.25
665.862	46160.16
666.212	46281.74
666.562	46255.52
666.912	46168.52
667.262	46059.14
667.612	46104.56
667.962	46125.58
668.312	46118.35
668.662	46336.87
669.011	46200.16
669.361	46197.9
669.711	46172.59
670.06	46124.23
670.41	45948.64
670.76	46017.11
671.109	46156.09
671.459	46019.82
671.808	46011.91
672.157	46108.18
672.507	45901.41
672.856	45777.34
673.205	46000.61
673.554	46055.98
673.904	45867.73
674.253	46121.29
674.602	45878.81
674.951	45333.74
675.3	45221.42
675.649	45803.56
675.998	45640.4
676.346	45747.06
676.695	45898.02
677.044	45571.25
677.393	45731.47
677.741	45774.18
678.09	45635.65
678.438	45631.81
678.787	45614.41
679.135	45539.83
679.484	45370.35
679.832	45517.46
680.181	45223.68
680.529	45480.85
680.877	45336.22
681.225	45269.78
681.573	45561.75
681.922	45255.77
682.27	45113.86
682.618	45208.54
682.966	45137.36
683.314	45069.79
683.661	44992.5
684.009	44853.52
684.357	44690.36
684.705	44631.16
685.053	44666.64
685.4	44742.79
685.748	44539.18
686.095	44530.14
686.443	44299.19
686.79	44263.71
687.138	44362.92
687.485	44349.36
687.832	44094.9
688.18	44352.97
688.527	44063.04
688.874	44116.82
689.221	43976.26
689.568	43709.6
689.915	43694.23
690.262	43698.53
690.609	43546.44
690.956	43459.44
691.303	43345.77
691.65	43217.86
691.997	43379.44
692.344	42971.77
692.69	43048.15
693.037	43037.07
693.383	42693.35
693.73	42867.59
694.077	42668.95
694.423	42677.99
694.769	42531.78
695.116	42447.71
695.462	42310.54
695.808	42171.11
696.155	42237.32
696.501	41920.49
696.847	42010.43
697.193	41759.82
697.539	41978.12
697.885	41545.36
698.231	41502.2
698.577	41561.63
698.923	41479.38
699.269	41297.91
699.614	41113.96
699.96	41026.96
700.306	41143.57
700.651	40999.39
700.997	40762.78
701.342	40670.36
701.688	40659.96
702.033	40627.65
702.379	40545.39
702.724	40331.38
703.069	40441.44
703.415	40005.74
703.76	39952.64
704.105	40012.97
704.45	39821.11
704.795	39646.66
705.14	39704.05
705.485	39619.31
705.83	39494.12
706.175	39556.26
706.52	39440.33
706.865	39196.72
707.209	39268.81
707.554	39133
707.899	39222.26
708.243	38853.46
708.588	38890.07
708.932	38708.6
709.277	38727.58
709.621	38672.9
709.966	38425.9
710.31	38523.75
710.654	38143.64
710.998	38146.36
711.342	38254.38
711.687	38165.79
712.031	38001.95
712.375	37855.74
712.719	37946.36
713.063	37912.46
713.407	37927.38
713.75	37650.1
714.094	37787.5
714.438	37538.46
714.782	37569.65
715.125	37401.97
715.469	37520.16
715.812	37258.24
716.156	37121.52
716.499	37181.18
716.843	37208.75
717.186	36877.46
717.53	37091.69
717.873	37063.9
718.216	36906.61
718.559	36772.15
718.902	36576.68
719.246	36579.84
719.589	36597.24
719.932	36514.76
720.275	36427.3
720.617	36411.71
720.96	36229.8
721.303	36382.56
721.646	36361.77
721.989	36005.62
722.331	36324.03
722.674	36030.25
723.016	36209.01
723.359	35947.09
723.701	36075.68
724.044	35920.88
724.386	35655.35
724.729	35807.43
725.071	35814.21
725.413	35764.72
725.755	35648.57
726.097	35496.48
726.439	35392.53
726.782	35405.18
727.124	35585.97
727.465	35303.04
727.807	35229.6
728.149	35193.44
728.491	35116.6
728.833	35184.17
729.175	34910.06
729.516	35054.46
729.858	34989.15
730.199	35087.68
730.541	34858.31
730.882	34860.11
731.224	35015.82
731.565	34717.07
731.906	34795.26
732.248	34703.06
732.589	34663.06
732.93	34507.13
733.271	34467.58
733.612	34433.91
733.953	34598.2
734.294	34394.82
734.635	34304.65
734.976	34433.01
735.317	34242.05
735.658	34272.33
735.999	34219
736.339	34096.07
736.68	34271.2
737.021	34049.06
737.361	34005.22
737.702	34095.84
738.042	33960.25
738.383	33997.99
738.723	33948.5
739.063	33898.56
739.404	33917.09
739.744	33687.72
740.084	33547.83
740.424	33732.23
740.764	33639.81
741.104	33804.32
741.444	33622.41
741.784	33271
742.124	33553.48
742.464	33452.92
742.804	33262.42
743.143	33270.33
743.483	33234.17
743.823	33068.07
744.162	33122.08
744.502	33158.46
744.841	33031.46
745.181	33301.74
745.52	32976.1
745.86	32988.07
746.199	32842.54
746.538	32882.99
746.877	33048.18
747.216	32912.6
747.556	32821.3
747.895	32786.5
748.234	32681.19
748.573	32594.19
748.911	32548.76
749.25	32577.69
749.589	32388.32
749.928	32495.88
750.267	32566.39
750.605	32441.42
750.944	32353.51
751.283	32392.38
751.621	32350.8
751.96	32171.6
752.298	32165.95
752.636	32054.09
752.975	32047.31
753.313	31925.95
753.651	31966.63
753.989	31640.31
754.327	31817.03
754.666	31662.91
755.004	31682.57
755.342	31701.78
755.679	31558.51
756.017	31313.32
756.355	31572.97
756.693	31247.55
757.031	31410.04
757.368	31235.35
757.706	31189.7
758.044	31140.66
758.381	31049.14
758.719	31041.01
759.056	31005.53
759.394	30969.37
759.731	30647.34
760.068	30607.34
760.405	30540.68
760.743	30422.72
761.08	30543.17
761.417	30364.64
761.754	30348.14
762.091	30269.95
762.428	30070.86
762.765	30067.47
763.102	30013.24
763.438	29878.55
763.775	29711.32
764.112	29739.8
764.449	29751.55
764.785	29573.02
765.122	29412.12
765.458	29240.38
765.795	29261.62
766.131	29223.2
766.467	29135.07
766.804	28881.29
767.14	28871.57
767.476	28768.52
767.812	28732.14
768.148	28789.31
768.485	28505.03
768.821	28429.78
769.157	28379.38
769.492	28366.5
769.828	28219.39
770.164	28103.68
770.5	28038.6
770.836	28074.08
771.171	27758.83
771.507	27730.81
771.842	27643.58
772.178	27597.48
772.513	27475.9
772.849	27492.17
773.184	27428.45
773.519	27257.6
773.855	27147.32
774.19	27071.62
774.525	26957.5
774.86	26900.55
775.195	26827.33
775.53	26699.88
775.865	26634.79
776.2	26491.52
776.535	26319.77
776.87	26161.81
777.205	26189.83
777.539	26176.5
777.874	26103.06
778.209	25879.33
778.543	25896.73
778.878	25708.26
779.212	25724.31
779.547	25577.19
779.881	25617.42
780.215	25462.85
780.55	25510.3
780.884	25268.5
781.218	25181.27
781.552	25170.2
781.886	25022.18
782.22	24902.41
782.554	24869.64
782.888	24595.98
783.222	24569.76
783.556	24424.23
783.889	24456.77
784.223	24240.51
784.557	24103.11
784.89	24302.2
785.224	24137.23
785.557	23908.99
785.891	23944.24
786.224	23754.64
786.558	23806.39
786.891	23625.61
787.224	23527.08
787.557	23534.08
787.891	23429
788.224	23457.02
788.557	23407.76
788.89	23153.08
789.223	23147.43
789.556	23040.76
789.888	23030.82
790.221	22842.35
790.554	22729.81
790.887	22856.59
791.219	22639.42
791.552	22691.62
791.884	22543.38
792.217	22569.82
792.549	22420.44
792.882	22232.88
793.214	22098.42
793.546	22231.97
793.879	22029.27
794.211	21941.13
794.543	21988.36
794.875	21858.2
795.207	21882.38
795.539	21820.91
795.871	21768.71
796.203	21580.24
796.535	21474.25
796.867	21462.5
797.198	21382.28
797.53	21344.09
797.862	21245.11
798.193	21275.61
798.525	21111.32
798.856	21083.08
799.188	20880.37
799.519	20877.21
799.85	20689.64
800.182	20815.29
800.513	20700.94
800.844	20557.67
801.175	20620.26
801.506	20608.74
801.837	20568.96
802.168	20464.79
802.499	20424.34
802.83	20230.22
803.161	20237.67
803.491	20217.56
803.822	20121.07
804.153	20030.9
804.483	19902.32
804.814	19881.07
805.145	19944.35
805.475	19884.24
805.805	19735.09
806.136	19747.52
806.466	19802.21
806.796	19624.81
807.126	19561.76
807.457	19479.28
807.787	19419.62
808.117	19339.17
808.447	19420.75
808.777	19363.57
809.107	19315.21
809.436	19233.86
809.766	19209
810.096	19194.31
810.426	19109.79
810.755	19049.68
811.085	18927.65
811.414	19000.42
811.744	18830.93
812.073	18776.47
812.403	18766.75
812.732	18707.77
813.061	18702.35
813.39	18549.81
813.719	18460.77
814.049	18572.18
814.378	18496.7
814.707	18424.61
815.036	18348.91
815.365	18302.58
815.693	18202.25
816.022	18129.25
816.351	18122.02
816.68	18049.48
817.008	18044.74
817.337	17985.3
817.665	17929.71
817.994	17902.59
818.322	17915.48
818.651	17804.74
818.979	17764.07
819.307	17839.77
819.636	17719.32
819.964	17635.93
820.292	17733.33
820.62	17588.25
820.948	17576.28
821.276	17679.55
821.604	17592.09
821.932	17671.41
822.259	17651.98
822.587	17577.63
822.915	17571.08
823.243	17616.27
823.57	17587.57
823.898	17529.95
824.225	17550.29
824.553	17478.65
824.88	17554.35
825.207	17517.07
825.535	17434.36
825.862	17443.85
826.189	17494.92
826.516	17560.91
826.843	17546.67
827.17	17601.59
827.497	17557.29
827.824	17545.77
828.151	17535.82
828.478	17467.13
828.805	17505.32
829.131	17494.47
829.458	17495.6
829.785	17379.9
830.111	17347.35
830.438	17574.69
830.764	17480.23
831.09	17544.41
831.417	17415.6
831.743	17496.5
832.069	17435.04
832.395	17361.59
832.722	17432.78
833.048	17388.26
833.374	17314.36
833.7	17326.11
834.026	17302.84
834.351	17380.35
834.677	17363.17
835.003	17327.92
835.329	17301.93
835.654	17265.32
835.98	17220.13
836.306	17176.29
836.631	17226.68
836.956	17166.34
837.282	17226
837.607	17068.94
837.932	17051.77
838.258	17033.69
838.583	17008.38
838.908	16942.39
839.233	16973.58
839.558	16929.51
839.883	16881.83
840.208	16814.26
840.533	16875.73
840.858	16804.09
841.182	16893.13
841.507	16729.52
841.832	16726.81
842.156	16658.33
842.481	16668.73
842.805	16586.92
843.13	16578.79
843.454	16557.77
843.778	16523.2
844.103	16466.47
844.427	16441.16
844.751	16398.23
845.075	16298.57
845.399	16373.59
845.723	16212.47
846.047	16233.26
846.371	16075.98
846.695	16083.43
847.019	15897.9
847.343	15927.96
847.666	15854.96
847.99	15880.73
848.313	15741.75
848.637	15650.45
848.96	15610.45
849.284	15583.11
849.607	15514.41
849.931	15455.65
850.254	15329.33
850.577	15341.76
850.9	15204.59
851.223	15165.94
851.546	15045.49
851.869	15005.04
852.192	15080.52
852.515	14922.33
852.838	14861.09
853.161	14898.83
853.483	14784.03
853.806	14732.51
854.129	14613.87
854.451	14611.83
854.774	14602.34
855.096	14421.33
855.419	14512.63
855.741	14472.63
856.063	14419.97
856.385	14369.81
856.708	14298.4
857.03	14280.99
857.352	14271.5
857.674	14197.61
857.996	14187.44
858.318	13954.22
858.64	13977.27
858.961	13910.38
859.283	13962.58
859.605	13985.41
859.926	13982.7
860.248	13814.34
860.57	13783.15
860.891	13801.46
861.212	13708.35
861.534	13731.63
861.855	13681.91
862.176	13811.18
862.498	13721.46
862.819	13637.62
863.14	13547.23
863.461	13530.51
863.782	13573.67
864.103	13521.69
864.424	13454.8
864.745	13498.42
865.065	13424.29
865.386	13433.33
865.707	13412.32
866.027	13379.55
866.348	13345.43
866.668	13351.08
866.989	13246.22
867.309	13090.29
867.63	13233.34
867.95	13173
868.27	13175.49
868.59	13169.39
868.91	13166.45
869.23	13154.7
869.55	13042.16
869.87	13036.06
870.19	13035.15
870.51	13066.11
870.83	13066.56
871.15	12977.98
871.469	13001.48
871.789	13024.08
872.109	12951.31
872.428	12858.66
872.748	12909.28
873.067	12958.77
873.386	12849.62
873.706	12836.06
874.025	12742.73
874.344	12857.76
874.663	12826.57
874.982	12773.92
875.301	12750.64
875.62	12668.38
875.939	12711.77
876.258	12688.95
876.577	12618.21
876.896	12648.95
877.214	12610.98
877.533	12656.4
877.852	12601.94
878.17	12540.93
878.489	12578.21
878.807	12551.55
879.125	12533.92
879.444	12476.07
879.762	12459.8
880.08	12429.29
880.398	12433.13
880.716	12399.24
881.034	12271.33
881.352	12290.76
881.67	12295.28
881.988	12298.9
882.306	12258.67
882.624	12311.1
882.941	12178.9
883.259	12192.91
883.577	12147.94
883.894	12068.85
884.212	12003.99
884.529	12003.54
884.846	11987.5
885.164	11954.5
885.481	12040.83
885.798	11938.91
886.115	11838.57
886.432	11835.64
886.75	11839.25
887.067	11859.82
887.383	11766.48
887.7	11772.36
888.017	11726.03
888.334	11723.1
888.651	11662.08
888.967	11627.28
889.284	11594.74
889.6	11545.47
889.917	11495.08
890.233	11503.67
890.55	11395.42
890.866	11401.97
891.182	11324.46
891.498	11352.26
891.815	11362.43
892.131	11284.92
892.447	11274.52
892.763	11188.65
893.079	11240.17
893.395	11164.92
893.71	11138.48
894.026	11134.18
894.342	11103.45
894.657	10993.17
894.973	10966.96
895.289	10941.65
895.604	10928.09
895.92	10884.02
896.235	10802.44
896.55	10870.69
896.865	10774.65
897.181	10742.56
897.496	10739.62
897.811	10683.58
898.126	10654.88
898.441	10644.03
898.756	10628.21
899.071	10574.88
899.386	10548.89
899.7	10460.53
900.015	10453.52
900.33	10364.71
900.644	10310.7
900.959	10316.81
901.273	10283.59
901.588	10266.64
901.902	10184.15
902.216	10170.59
902.531	10146.64
902.845	10132.86
903.159	10018.73
903.473	9991.16
903.787	9945.52
904.101	9925.85
904.415	9967.66
904.729	9942.13
905.042	9867.33
905.356	9886.99
905.67	9825.97
905.984	9749.81
906.297	9765.41
906.611	9671.17
906.924	9595.47
907.237	9587.33
907.551	9582.36
907.864	9467.56
908.177	9519.54
908.491	9517.73
908.804	9403.83
909.117	9335.81
909.43	9322.03
909.743	9281.8
910.056	9275.25
910.368	9204.29
910.681	9190.51
910.994	9172.88
911.307	9141.47
911.619	9054.01
911.932	8993.45
912.244	8969.95
912.557	8983.28
912.869	8840.91
913.181	8899.22
913.494	8907.12
913.806	8825.77
914.118	8715.72
914.43	8677.53
914.742	8707.58
915.054	8570.64
915.366	8632.1
915.678	8582.84
915.99	8583.97
916.302	8543.97
916.613	8500.13
916.925	8428.72
917.236	8404.09
917.548	8338.33
917.859	8352.56
918.171	8263.75
918.482	8278.67
918.794	8220.81
919.105	8188.95
919.416	8180.36
919.727	8188.5
920.038	8086.81
920.349	8014.49
920.66	8028.05
920.971	8012.46
921.282	8017.88
921.593	7887.49
921.903	7894.5
922.214	7858.11
922.525	7833.48
922.835	7786.7
923.146	7782.86
923.456	7737.66
923.767	7671
924.077	7693.15
924.387	7613.37
924.697	7549.87
925.008	7595.07
925.318	7493.15
925.628	7532.7
925.938	7456.77
926.248	7409.76
926.558	7366.83
926.867	7360.27
927.177	7256.32
927.487	7283.44
927.796	7163.89
928.106	7222.2
928.416	7246.38
928.725	7207.96
929.034	7120.05
929.344	7107.4
929.653	7162.09
929.962	7044.12
930.271	7002.32
930.581	6984.24
930.89	6970.9
931.199	6916.89
931.508	6948.53
931.817	6898.82
932.125	6902.88
932.434	6786.28
932.743	6748.31
933.051	6700.18
933.36	6690.91
933.669	6647.75
933.977	6606.62
934.286	6661.76
934.594	6570.01
934.902	6568.2
935.21	6484.36
935.519	6510.8
935.827	6459.96
936.135	6499.05
936.443	6358.94
936.751	6387.19
937.059	6305.61
937.367	6272.62
937.674	6351.03
937.982	6314.88
938.29	6269.68
938.597	6244.6
938.905	6155.78
939.213	6213.18
939.52	6112.85
939.827	6123.92
940.135	6078.05
940.442	6070.59
940.749	6050.93
941.056	6061.1
941.363	5955.11
941.67	6002.57
941.977	5917.82
942.284	5829.01
942.591	5883.48
942.898	5801.67
943.205	5846.19
943.511	5788.34
943.818	5830.82
944.125	5724.16
944.431	5784.72
944.738	5700.43
945.044	5667.44
945.35	5696.36
945.657	5564.16
945.963	5603.03
946.269	5572.07
946.575	5582.92
946.881	5546.53
947.187	5540.43
947.493	5487.55
947.799	5479.87
948.105	5463.6
948.41	5409.59
948.716	5400.55
949.022	5371.62
949.327	5365.52
949.633	5306.09
949.938	5346.31
950.244	5281.01
950.549	5245.75
950.854	5208.01
951.16	5189.48
951.465	5224.06
951.77	5141.35
952.075	5134.12
952.38	5122.37
952.685	5111.97
952.99	5052.99
953.294	5041.46
953.599	5044.85
953.904	5008.7
954.209	4973.44
954.513	4987.68
954.818	4967.57
955.122	4911.3
955.426	4880.11
955.731	4844.41
956.035	4846.67
956.339	4836.05
956.643	4795.37
956.948	4760.11
957.252	4728.7
957.556	4718.99
957.86	4718.31
958.163	4725.77
958.467	4679.44
958.771	4667.69
959.075	4681.02
959.378	4596.05
959.682	4594.02
959.985	4550.4
960.289	4548.82
960.592	4575.71
960.896	4470.63
961.199	4477.86
961.502	4487.58
961.805	4414.14
962.108	4422.04
962.411	4414.59
962.714	4398.54
963.017	4404.19
963.32	4362.16
963.623	4352.67
963.926	4340.01
964.228	4284.2
964.531	4222.5
964.833	4260.92
965.136	4251.88
965.438	4217.3
965.741	4187.02
966.043	4215.27
966.345	4135.95
966.648	4153.13
966.95	4153.35
967.252	4120.36
967.554	4089.62
967.856	4069.51
968.158	4023.86
968.46	4049.63
968.761	4048.04
969.063	4010.98
969.365	3982.51
969.666	3992.9
969.968	3972.79
970.269	3965.79
970.571	3937.09
970.872	3967.59
971.174	3929.85
971.475	3876.52
971.776	3796.75
972.077	3816.64
972.378	3792.68
972.679	3774.38
972.98	3797.43
973.281	3778.45
973.582	3746.81
973.883	3743.87
974.183	3660.71
974.484	3706.81
974.785	3732.12
975.085	3661.61
975.386	3650.77
975.686	3677.43
975.986	3643.53
976.287	3639.69
976.587	3556.76
976.887	3533.48
977.187	3525.57
977.487	3542.75
977.787	3493.48
978.087	3476.53
978.387	3500.94
978.687	3482.18
978.987	3458.68
979.286	3445.12
979.586	3401.28
979.885	3368.74
980.185	3403.31
980.484	3358.8
980.784	3338.91
981.083	3380.49
981.382	3354.95
981.682	3368.97
981.981	3349.08
982.28	3278.57
982.579	3287.16
982.878	3261.17
983.177	3220.27
983.475	3224.11
983.774	3245.8
984.073	3194.96
984.372	3176.65
984.67	3144.11
984.969	3175.75
985.267	3145.69
985.566	3110.21
985.864	3133.72
986.162	3117.22
986.461	3084.23
986.759	3046.94
987.057	3076.54
987.355	3042.19
987.653	2989.99
987.951	3041.52
988.249	3013.04
988.547	2980.5
988.844	2945.93
989.142	2961.29
989.44	2941.18
989.737	2939.6
990.035	2888.3
990.332	2911.58
990.63	2875.42
990.927	2873.16
991.224	2847.85
991.521	2861.63
991.819	2857.57
992.116	2843.78
992.413	2827.51
992.71	2803.56
993.006	2776.21
993.303	2752.48
993.6	2765.59
993.897	2731.24
994.193	2700.51
994.49	2686.27
994.787	2728.76
995.083	2661.19
995.379	2679.49
995.676	2696.21
995.972	2662.54
996.268	2640.4
996.565	2601.75
996.861	2633.84
997.157	2614.18
997.453	2589.1
997.749	2572.6
998.044	2566.5
998.34	2529.44
998.636	2490.34
998.932	2501.87
999.227	2460.29
999.523	2507.29
999.818	2460.06
1000.114	2466.84
1000.409	2453.06
1000.704	2404.92
1001	2438.14
1001.295	2416.45
1001.59	2406.28
1001.885	2427.52
1002.18	2378.26
1002.475	2334.42
1002.77	2345.94
1003.065	2318.6
1003.359	2331.93
1003.654	2267.98
1003.949	2314.98
1004.243	2264.14
1004.538	2249.22
1004.832	2245.38
1005.127	2284.7
1005.421	2218.26
1005.715	2217.81
1006.009	2200.86
1006.304	2190.47
1006.598	2156.12
1006.892	2173.97
1007.186	2156.79
1007.48	2134.42
1007.773	2107.53
1008.067	2107.53
1008.361	2092.84
1008.655	2071.15
1008.948	2074.08
1009.242	2049.45
1009.535	2074.54
1009.829	2057.59
1010.122	2037.25
1010.415	2058.72
1010.708	2026.63
1011.001	2019.17
1011.295	1970.58
1011.588	1995.67
1011.881	1945.95
1012.173	1934.43
1012.466	1944.14
1012.759	1925.16
1013.052	1903.92
1013.344	1922.9
1013.637	1862.34
1013.93	1852.17
1014.222	1851.72
1014.514	1852.17
1014.807	1841.32
1015.099	1848.78
1015.391	1849.01
1015.683	1832.73
1015.976	1833.41
1016.268	1784.15
1016.56	1780.76
1016.851	1764.49
1017.143	1757.48
1017.435	1724.26
1017.727	1719.29
1018.018	1735.79
1018.31	1713.87
1018.602	1701.21
1018.893	1664.15
1019.185	1655.56
1019.476	1675.22
1019.767	1651.5
1020.058	1667.31
1020.35	1632.74
1020.641	1634.55
1020.932	1613.76
1021.223	1592.74
1021.514	1564.94
1021.804	1581.89
1022.095	1559.75
1022.386	1570.59
1022.677	1550.93
1022.967	1510.48
1023.258	1502.12
1023.548	1488.79
1023.839	1513.19
1024.129	1473.42
1024.419	1498.28
1024.709	1482.46
1025	1459.41
1025.29	1446.53
1025.58	1438.62
1025.87	1431.16
1026.16	1425.06
1026.449	1417.83
1026.739	1390.26
1027.029	1432.52
1027.319	1417.15
1027.608	1375.57
1027.898	1374.44
1028.187	1357.04
1028.477	1355.91
1028.766	1337.61
1029.055	1301
1029.344	1329.7
1029.634	1303.26
1029.923	1291.96
1030.212	1291.28
1030.501	1301.45
1030.79	1293.99
1031.078	1275.46
1031.367	1246.08
1031.656	1263.03
1031.945	1248.79
1032.233	1257.61
1032.522	1211.51
1032.81	1228.46
1033.099	1204.28
1033.387	1203.37
1033.675	1223.26
1033.963	1208.8
1034.251	1181.23
1034.54	1174.67
1034.828	1162.24
1035.116	1149.14
1035.403	1139.42
1035.691	1152.07
1035.979	1113.21
1036.267	1107.33
1036.554	1092.87
1036.842	1085.18
1037.129	1097.16
1037.417	1080.66
1037.704	1088.57
1037.992	1088.12
1038.279	1063.94
1038.566	1066.88
1038.853	1066.88
1039.14	1066.88
