Data from red_shiny_book_FLMS001491_00002.txt Node
Date: Wed Feb 08 15:23:33 GMT 2017
User: dcchb
Spectrometer: FLMS00149
Trigger mode: 0
Integration Time (sec): 2.000000E-2
Scans to average: 10
Electric dark correction enabled: true
Nonlinearity correction enabled: false
Boxcar width: 0
XAxis mode: Wavelengths
Number of Pixels in Spectrum: 2048
>>>>>Begin Spectral Data<<<<<
341.393	-11.3
341.776	-11.3
342.16	-11.3
342.543	-55.37
342.927	-43.84
343.31	-65.08
343.693	-80.68
344.077	-65.31
344.46	-58.08
344.843	-61.69
345.226	-40.9
345.61	-26.89
345.993	-14.24
346.376	-13.11
346.759	27.57
347.142	14.69
347.525	35.71
347.908	53.56
348.291	80.68
348.674	94.91
349.057	118.87
349.44	134.46
349.823	162.26
350.206	158.87
350.588	206.1
350.971	218.07
351.354	232.08
351.737	237.51
352.119	254.46
352.502	287.68
352.884	254.23
353.267	291.52
353.65	296.94
354.032	297.39
354.414	320.44
354.797	328.35
355.179	320.22
355.562	332.65
355.944	351.63
356.326	341.91
356.709	348.47
357.091	360.22
357.473	350.5
357.855	348.47
358.238	337.17
358.62	343.27
359.002	361.8
359.384	364.06
359.766	374.23
360.148	368.13
360.53	344.17
360.912	352.53
361.294	348.92
361.676	364.28
362.057	354.11
362.439	362.7
362.821	337.62
363.203	369.93
363.584	341.01
363.966	356.6
364.348	363.15
364.729	323.61
365.111	339.43
365.493	335.36
365.874	341.69
366.256	336.71
366.637	324.51
367.019	339.88
367.4	354.11
367.781	332.87
368.163	326.55
368.544	319.09
368.925	321.35
369.306	341.23
369.688	339.2
370.069	331.97
370.45	324.29
370.831	310.73
371.212	343.04
371.593	340.78
371.974	345.3
372.355	323.16
372.736	335.36
373.117	343.72
373.498	338.07
373.879	326.09
374.26	339.88
374.641	349.37
375.021	333.1
375.402	348.01
375.783	342.36
376.163	365.87
376.544	375.36
376.925	343.72
377.305	367.67
377.686	356.83
378.066	363.15
378.447	359.09
378.827	349.6
379.208	356.6
379.588	362.7
379.968	346.43
380.349	360.89
380.729	367
381.109	367.45
381.489	364.51
381.87	358.41
382.25	374.45
382.63	364.06
383.01	351.63
383.39	405.19
383.77	382.36
384.15	380.78
384.53	375.81
384.91	376.71
385.29	367.9
385.67	376.49
386.049	376.49
386.429	396.37
386.809	381.91
387.189	366.09
387.568	374.45
387.948	401.35
388.328	394.57
388.707	378.52
389.087	375.36
389.466	392.08
389.846	374.23
390.225	414.45
390.605	381.23
390.984	382.81
391.363	390.5
391.743	404.06
392.122	405.64
392.501	401.57
392.881	408.12
393.26	413.77
393.639	395.24
394.018	423.72
394.397	406.54
394.776	419.88
395.155	407.22
395.534	417.16
395.913	436.37
396.292	429.82
396.671	432.08
397.05	403.61
397.429	426.88
397.808	420.55
398.186	427.79
398.565	421.46
398.944	432.53
399.323	444.73
399.701	422.14
400.08	440.89
400.458	427.33
400.837	428.24
401.215	451.06
401.594	451.06
401.972	457.84
402.351	437.73
402.729	454.23
403.107	453.1
403.486	461.68
403.864	459.87
404.242	440.44
404.62	444.73
404.999	451.51
405.377	470.27
405.755	465.3
406.133	488.35
406.511	481.12
406.889	493.09
407.267	482.02
407.645	487.44
408.023	462.13
408.401	480.21
408.779	501.46
409.156	511.85
409.534	518.63
409.912	503.72
410.29	514.11
410.667	527.22
411.045	525.18
411.422	508.24
411.8	503.94
412.178	527.67
412.555	544.17
412.933	534
413.31	539.87
413.687	569.48
414.065	571.06
414.442	578.74
414.819	550.95
415.197	572.41
415.574	558.18
415.951	570.38
416.328	588.69
416.705	581.68
417.082	581.23
417.46	591.62
417.837	611.96
418.214	609.7
418.591	606.99
418.967	640.44
419.344	622.13
419.721	622.81
420.098	627.55
420.475	617.16
420.852	623.94
421.228	634.79
421.605	628.23
421.982	631.4
422.358	648.57
422.735	663.94
423.111	659.42
423.488	703.26
423.864	677.27
424.241	676.14
424.617	686.99
424.994	690.15
425.37	661.23
425.746	673.2
426.123	691.51
426.499	709.59
426.875	715.91
427.251	725.4
427.627	708.91
428.003	738.96
428.379	719.76
428.756	717.27
429.132	725.18
429.507	717.27
429.883	734.67
430.259	734.67
430.635	765.86
431.011	764.27
431.387	796.82
431.763	790.49
432.138	809.7
432.514	810.37
432.89	777.83
433.265	775.35
433.641	814.89
434.016	778.96
434.392	821.67
434.767	814.44
435.143	841.79
435.518	865.97
435.894	844.05
436.269	867.77
436.644	851.73
437.02	897.83
437.395	886.53
437.77	861.67
438.145	865.29
438.52	858.28
438.895	873.42
439.271	895.57
439.646	925.85
440.021	923.14
440.395	941.22
440.77	950.48
441.145	932.86
441.52	945.06
441.895	934.66
442.27	938.96
442.645	923.59
443.019	921.56
443.394	943.7
443.769	951.84
444.143	986.41
444.518	967.43
444.892	980.54
445.267	1006.98
445.641	1014.44
446.016	1014.66
446.39	984.38
446.764	997.26
447.139	1026.41
447.513	979.86
447.887	963.36
448.262	1005.62
448.636	1004.27
449.01	1037.94
449.384	1040.2
449.758	1066.86
450.132	1064.38
450.506	1050.14
450.88	1048.33
451.254	1022.8
451.628	1075.45
452.002	1044.72
452.376	1037.94
452.75	1063.7
453.123	1069.12
453.497	1075.45
453.871	1104.6
454.244	1131.95
454.618	1146.18
454.992	1143.92
455.365	1143.02
455.739	1155.22
456.112	1139.86
456.486	1133.53
456.859	1130.82
457.232	1160.65
457.606	1139.63
457.979	1128.78
458.352	1181.21
458.725	1194.09
459.099	1205.39
459.472	1219.85
459.845	1236.13
460.218	1246.07
460.591	1240.87
460.964	1227.99
461.337	1251.04
461.71	1234.77
462.083	1219.18
462.456	1202.23
462.829	1235.45
463.201	1278.61
463.574	1273.86
463.947	1318.84
464.32	1350.47
464.692	1394.77
465.065	1373.98
465.438	1389.34
465.81	1391.38
466.183	1355.67
466.555	1390.47
466.928	1371.04
467.3	1376.91
467.672	1366.52
468.045	1378.95
468.417	1382.56
468.789	1409.91
469.161	1439.06
469.534	1475.67
469.906	1509.34
470.278	1550.02
470.65	1569.68
471.022	1562.22
471.394	1566.29
471.766	1563.57
472.138	1560.86
472.51	1521.77
472.882	1561.31
473.253	1561.09
473.625	1586.85
473.997	1638.15
474.369	1676.11
474.74	1716.34
475.112	1734.64
475.484	1778.94
475.855	1809.67
476.227	1820.29
476.598	1856
476.97	1816.45
477.341	1840.4
477.713	1835.43
478.084	1803.79
478.455	1844.7
478.827	1851.7
479.198	1895.54
479.569	1943.45
479.94	2033.62
480.311	2066.39
480.682	2154.75
481.053	2183.45
481.424	2193.16
481.795	2218.25
482.166	2258.47
482.537	2186.84
482.908	2223.9
483.279	2214.41
483.65	2233.39
484.021	2240.17
484.391	2308.41
484.762	2316.55
485.133	2367.4
485.503	2453.04
485.874	2520.39
486.244	2606.03
486.615	2688.52
486.985	2700.04
487.356	2717.67
487.726	2674.96
488.097	2711.57
488.467	2686.48
488.837	2673.6
489.207	2694.39
489.578	2717.89
489.948	2707.5
490.318	2752.02
490.688	2836.99
491.058	2918.57
491.428	2997.21
491.798	3072.01
492.168	3163.31
492.538	3202.63
492.908	3242.85
493.278	3248.05
493.648	3241.95
494.017	3202.63
494.387	3134.38
494.757	3138.9
495.126	3136.87
495.496	3115.85
495.866	3167.37
496.235	3214.15
496.605	3313.36
496.974	3352.23
497.344	3453.92
497.713	3515.16
498.082	3549.74
498.452	3622.73
498.821	3650.3
499.19	3600.36
499.559	3628.15
499.928	3606.23
500.298	3565.78
500.667	3499.79
501.036	3467.48
501.405	3469.51
501.774	3455.73
502.143	3536.63
502.512	3557.65
502.88	3663.18
503.249	3720.35
503.618	3808.71
503.987	3866.11
504.356	3913.12
504.724	3916.28
505.093	3936.62
505.462	3921.93
505.83	3874.93
506.199	3852.1
506.567	3823.4
506.936	3731.88
507.304	3733.24
507.672	3724.2
508.041	3723.52
508.409	3803.06
508.777	3809.17
509.145	3922.16
509.514	3988.14
509.882	4075.15
510.25	4151.76
510.618	4206.9
510.986	4212.32
511.354	4216.61
511.722	4218.87
512.09	4112.43
512.458	4032.66
512.826	3999.89
513.193	3958.77
513.561	3910.63
513.929	3869.05
514.297	3934.81
514.664	4023.85
515.032	4040.8
515.4	4125.99
515.767	4234.69
516.135	4333.67
516.502	4357.63
516.869	4487.57
517.237	4436.72
517.604	4448.92
517.972	4453.89
518.339	4364.63
518.706	4355.59
519.073	4268.59
519.44	4183.62
519.808	4164.18
520.175	4115.15
520.542	4139.1
520.909	4158.31
521.276	4181.13
521.643	4309.94
522.009	4382.48
522.376	4525.98
522.743	4593.1
523.11	4693.66
523.477	4762.36
523.843	4754.45
524.21	4831.51
524.577	4794.22
524.943	4730.05
525.31	4721.23
525.676	4636.26
526.043	4558.3
526.409	4537.06
526.776	4554.68
527.142	4512.88
527.508	4550.61
527.874	4654.57
528.241	4739.54
528.607	4859.31
528.973	4960.32
529.339	5098.17
529.705	5219.75
530.071	5288.9
530.437	5384.27
530.803	5427.88
531.169	5368.67
531.535	5321.44
531.901	5233.31
532.267	5185.4
532.632	5169.81
532.998	5071.05
533.364	5041.22
533.73	5002.13
534.095	5026.76
534.461	5090.71
534.826	5211.39
535.192	5281.9
535.557	5386.98
535.923	5568.22
536.288	5696.8
536.653	5823.58
537.019	5864.03
537.384	5933.63
537.749	6000.97
538.114	5924.36
538.479	5902.67
538.845	5846.4
539.21	5751.49
539.575	5653.18
539.94	5566.18
540.305	5572.96
540.67	5514.66
541.034	5546.07
541.399	5605.28
541.764	5652.28
542.129	5730.02
542.494	5867.19
542.858	6048.2
543.223	6172.27
543.587	6293.85
543.952	6401.41
544.316	6477.12
544.681	6520.05
545.045	6476.44
545.41	6503.33
545.774	6461.07
546.138	6386.95
546.503	6261.3
546.867	6146.73
547.231	6057.02
547.595	6015.66
547.959	5937.02
548.324	5998.94
548.688	6020.41
549.052	6013.63
549.416	6139.27
549.779	6278.03
550.143	6398.02
550.507	6611.58
550.871	6671.91
551.235	6758.47
551.599	6857.67
551.962	6893.6
552.326	6886.37
552.689	6829.42
553.053	6747.39
553.417	6733.38
553.78	6643.67
554.143	6498.81
554.507	6431.7
554.87	6312.38
555.234	6354.18
555.597	6200.29
555.96	6252.04
556.323	6330
556.686	6424.46
557.05	6535.65
557.413	6694.74
557.776	6784
558.139	6945.13
558.502	7069.19
558.865	7206.36
559.228	7285.46
559.59	7313.03
559.953	7300.37
560.316	7327.72
560.679	7248.85
561.041	7159.81
561.404	7062.64
561.767	6931.8
562.129	6801.18
562.492	6783.32
562.854	6638.47
563.217	6608.19
563.579	6680.5
563.941	6725.47
564.304	6776.09
564.666	6906.94
565.028	7026.03
565.39	7234.16
565.753	7455.4
566.115	7570.87
566.477	7677.31
566.839	7754.15
567.201	7852.45
567.563	7839.57
567.925	7830.75
568.287	7805.67
568.648	7691.55
569.01	7616.52
569.372	7518.67
569.734	7417.43
570.095	7278.23
570.457	7256.31
570.819	7179.02
571.18	7179.47
571.542	7153.03
571.903	7275.51
572.265	7374.5
572.626	7516.19
572.987	7717.76
573.349	7915.95
573.71	8141.93
574.071	8321.36
574.432	8408.14
574.794	8587.8
575.155	8764.06
575.516	8671.41
575.877	8761.58
576.238	8761.13
576.599	8768.36
576.96	8742.82
577.32	8634.8
577.681	8588.02
578.042	8543.28
578.403	8514.35
578.763	8520.68
579.124	8594.8
579.485	8766.55
579.845	8898.98
580.206	9038.18
580.566	9296.25
580.927	9642.91
581.287	9999.29
581.648	10192.05
582.008	10641.75
582.368	10982.31
582.728	11295.75
583.089	11714.72
583.449	12029.29
583.809	12244.42
584.169	12527.81
584.529	12731.19
584.889	13005.53
585.249	13161.91
585.609	13346.99
585.969	13630.15
586.329	13855.68
586.688	14152.4
587.048	14381.09
587.408	14720.06
587.768	15167.06
588.127	15624.45
588.487	16118.45
588.846	16689.73
589.206	17194.35
589.565	17790.72
589.925	18464.6
590.284	19013.29
590.643	19729.2
591.003	20287.83
591.362	20987.24
591.721	21509.04
592.08	22050.49
592.44	22536.36
592.799	23043.46
593.158	23336.79
593.517	23735.2
593.876	24241.17
594.235	24499.69
594.593	25010.42
594.952	25346.45
595.311	25703.5
595.67	26152.98
596.029	26746.87
596.387	27269.79
596.746	27850.57
597.104	28197.9
597.463	28896.42
597.822	29622.27
598.18	30098.42
598.538	30755.35
598.897	31490.25
599.255	31944.24
599.613	33023.31
599.972	33337.43
600.33	33961.82
600.688	34309.15
601.046	34907.1
601.404	35413.98
601.762	35659.18
602.12	36261.65
602.478	36503.22
602.836	36879.26
603.194	36898.69
603.552	37226.59
603.91	37400.82
604.268	37850.08
604.625	38055.04
604.983	38495.94
605.341	38709.49
605.698	39253.66
606.056	39710.14
606.413	40087.08
606.771	40646.16
607.128	40944.91
607.485	41463.77
607.843	41951.44
608.2	42587.35
608.557	43112.09
608.914	43326.32
609.272	43869.58
609.629	44267.76
609.986	44613.52
610.343	44612.61
610.7	45098.25
611.057	45312.03
611.414	45152.94
611.771	45423.44
612.127	45530.1
612.484	45645.81
612.841	45714.05
613.198	45685.8
613.554	45874.95
613.911	46140.93
614.267	46230.2
614.624	46335.05
614.98	46603.52
615.337	47019.33
615.693	47160.79
616.05	47222.26
616.406	47782.25
616.762	47742.02
617.118	48029.47
617.475	48311.05
617.831	48739.06
618.187	48791.49
618.543	48945.83
618.899	49457.46
619.255	49363.9
619.611	49432.15
619.967	49670.78
620.323	49789.65
620.678	49534.97
621.034	49518.47
621.39	49440.51
621.746	49404.12
622.101	49640.95
622.457	49430.11
622.812	49348.98
623.168	49490.22
623.523	49505.59
623.879	49657.9
624.234	49459.49
624.589	49699.03
624.945	49755.98
625.3	49959.82
625.655	50104.9
626.01	50267.15
626.365	50371.78
626.72	50418.79
627.075	50614.94
627.43	50772
627.785	50855.16
628.14	50958.66
628.495	51033.01
628.85	51062.16
629.205	50954.82
629.559	51176.28
629.914	50940.58
630.269	51053.12
630.623	50838.44
630.978	50715.28
631.332	50659.46
631.687	50739.68
632.041	50541.95
632.396	50527.94
632.75	50232.35
633.104	50315.51
633.459	50238.68
633.813	50278.45
634.167	50216.31
634.521	50307.6
634.875	50332.01
635.229	50381.27
635.583	50322.97
635.937	50462.63
636.291	50533.13
636.645	50666.24
636.999	50624.88
637.352	50813.58
637.706	50628.27
638.06	50854.03
638.413	50826.91
638.767	50742.85
639.121	50781.04
639.474	50584.21
639.828	50603.19
640.181	50618.33
640.534	50352.35
640.888	50214.27
641.241	50038.46
641.594	49991
641.947	50042.75
642.301	49753.49
642.654	49843.89
643.007	49756.88
643.36	49638.47
643.713	49588.75
644.066	49731.57
644.419	49518.02
644.771	49356.89
645.124	49016.34
645.477	49159.39
645.83	48905.38
646.182	48929.11
646.535	49007.3
646.888	49125.26
647.24	49021.08
647.593	49300.85
647.945	49343.34
648.298	49197.8
648.65	49085.94
649.002	49143.57
649.355	49179.5
649.707	48998.71
650.059	49043.91
650.411	49505.36
650.763	49456.55
651.115	49603.44
651.467	49473.28
651.819	49338.82
652.171	48973.85
652.523	48881.43
652.875	48886.62
653.227	48591.04
653.578	48868.32
653.93	48796.46
654.282	48673.3
654.633	48614.09
654.985	48635.78
655.337	48685.95
655.688	48860.86
656.039	48922.56
656.391	48831.48
656.742	49017.47
657.094	49163.68
657.445	49328.87
657.796	49293.85
658.147	49366.39
658.498	49298.14
658.849	49446.38
659.2	49366.84
659.551	49254.52
659.902	49444.12
660.253	49256.33
660.604	49360.28
660.955	49016.11
661.306	49097.01
661.656	48946.28
662.007	48834.42
662.358	48759.17
662.708	48689.12
663.059	48472.85
663.409	48181.33
663.76	48468.56
664.11	48419.07
664.461	48267.43
664.811	48440.99
665.161	48217.26
665.511	48172.52
665.862	48264.72
666.212	48349.01
666.562	48501.55
666.912	48446.64
667.262	48412.06
667.612	48540.64
667.962	48580.64
668.312	48594.88
668.662	48945.15
669.011	48821.99
669.361	48846.63
669.711	48781.99
670.06	48887.53
670.41	48798.72
670.76	48734.54
671.109	48746.51
671.459	48734.09
671.808	48535.22
672.157	48601.89
672.507	48231.05
672.856	48119.19
673.205	48062.92
673.554	48003.71
673.904	47901.34
674.253	47943.15
674.602	47793.77
674.951	47118.08
675.3	47052.1
675.649	47476.04
675.998	47517.17
676.346	47538.19
676.695	47710.84
677.044	47435.14
677.393	47514.68
677.741	47716.71
678.09	47659.31
678.438	47581.57
678.787	47831.96
679.135	47874.9
679.484	47633.55
679.832	47941.79
680.181	47656.6
680.529	47922.13
680.877	47874.67
681.225	47861.79
681.573	48011.84
681.922	47848.23
682.27	47573.21
682.618	47624.06
682.966	47392.43
683.314	47581.57
683.661	47232.2
684.009	46937.75
684.357	46869.5
684.705	46740.24
685.053	46678.09
685.4	46594.48
685.748	46237.43
686.095	46236.07
686.443	46021.84
686.79	45825.24
687.138	45957.21
687.485	45926.02
687.832	45827.04
688.18	45851.68
688.527	45506.37
688.874	45753.37
689.221	45688.52
689.568	45705.69
689.915	45637.9
690.262	45791.34
690.609	45797.89
690.956	45667.73
691.303	45842.41
691.65	45583.89
691.997	45671.79
692.344	45445.81
692.69	45470.67
693.037	45509.09
693.383	45230.22
693.73	45339.82
694.077	45061.87
694.423	45131.02
694.769	44811.93
695.116	44637.47
695.462	44443.58
695.808	44175.34
696.155	44285.16
696.501	43799.98
696.847	43755.69
697.193	43184.4
697.539	43417.39
697.885	43065.31
698.231	42880.23
698.577	42777.63
698.923	42752.32
699.269	42588.94
699.614	42505.55
699.96	42389.17
700.306	42393.69
700.651	42288.61
700.997	42097.42
701.342	42293.35
701.688	42244.09
702.033	42209.29
702.379	42280.47
702.724	42165.67
703.069	42383.52
703.415	41968.84
703.76	42177.2
704.105	42183.3
704.45	41999.57
704.795	41982.4
705.14	41883.87
705.485	41863.08
705.83	41738.56
706.175	41652.92
706.52	41457.67
706.865	41278.69
707.209	41054.29
707.554	41064.91
707.899	40897.46
708.243	40655.65
708.588	40438.48
708.932	40168.89
709.277	39960.76
709.621	39989.23
709.966	39664.72
710.31	39626.3
710.654	39282.81
710.998	39357.84
711.342	39265.63
711.687	39193.09
712.031	38941.8
712.375	39041.69
712.719	39014.34
713.063	39026.32
713.407	39271.06
713.75	39043.49
714.094	39042.14
714.438	39070.39
714.782	39195.13
715.125	38991.07
715.469	39146.77
715.812	39137.5
716.156	39028.13
716.499	38918.75
716.843	39119.65
717.186	38754.69
717.53	39035.58
717.873	39187.22
718.216	38799.88
718.559	38761.01
718.902	38396.73
719.246	38546.56
719.589	38293.46
719.932	38194.02
720.275	38062.5
720.617	37984.99
720.96	37835.62
721.303	37654.83
721.646	37626.58
721.989	37318.34
722.331	37245.8
722.674	37167.84
723.016	37090.1
723.359	36848.07
723.701	36966.26
724.044	36612.6
724.386	36521.75
724.729	36707.28
725.071	36557
725.413	36555.65
725.755	36655.76
726.097	36386.61
726.439	36341.64
726.782	36462.54
727.124	36508.19
727.465	36553.39
727.807	36514.75
728.149	36500.96
728.491	36573.5
728.833	36515.2
729.175	36565.37
729.516	36551.13
729.858	36557.23
730.199	36487.63
730.541	36406.27
730.882	36455.09
731.224	36476.78
731.565	36164.7
731.906	36276.11
732.248	36112.5
732.589	36089.45
732.93	35710.25
733.271	35815.1
733.612	35665.05
733.953	35616.92
734.294	35361.56
734.635	35125.4
734.976	35108
735.317	34951.62
735.658	34912.53
735.999	34821.01
736.339	34679.77
736.68	34764.06
737.021	34572.88
737.361	34412.2
737.702	34649.03
738.042	34450.39
738.383	34350.28
738.723	34517.51
739.063	34407.91
739.404	34517.51
739.744	34499.88
740.084	34388.02
740.424	34448.36
740.764	34463.73
741.104	34724.51
741.444	34465.76
741.784	34406.55
742.124	34594.8
742.464	34607.45
742.804	34583.95
743.143	34595.25
743.483	34619.65
743.823	34425.08
744.162	34451.3
744.502	34453.78
744.841	34361.13
745.181	34462.6
745.52	34188.03
745.86	34208.82
746.199	34031.2
746.538	33934.02
746.877	34021.7
747.216	33815.61
747.556	33628.49
747.895	33603.64
748.234	33288.62
748.573	33305.56
748.911	33239.58
749.25	33068.74
749.589	32870.55
749.928	32855.86
750.267	32848.18
750.605	32687.95
750.944	32527.96
751.283	32376.32
751.621	32410.67
751.96	32234.18
752.298	32282.77
752.636	32264.91
752.975	32159.61
753.313	32081.87
753.651	32233.05
753.989	31994.19
754.327	32239.15
754.666	32118.48
755.004	32120.74
755.342	32190.79
755.679	32241.86
756.017	31991.7
756.355	32202.32
756.693	32137.23
757.031	32189.66
757.368	32037.12
757.706	31907.41
758.044	31943.11
758.381	31913.96
758.719	31699.05
759.056	31883.68
759.394	31594.2
759.731	31490.25
760.068	31379.74
760.405	31213.64
760.743	30966.19
761.08	30960.32
761.417	30711.06
761.754	30660.89
762.091	30437.39
762.428	30320.11
762.765	30143.84
763.102	30105.42
763.438	29824.98
763.775	29639.22
764.112	29646
764.449	29668.37
764.785	29484.2
765.122	29224.32
765.458	29106.35
765.795	29050.31
766.131	28989.07
766.467	29069.74
766.804	28873.59
767.14	28874.72
767.476	28938
767.812	28734.61
768.148	28830.2
768.485	28702.52
768.821	28531.68
769.157	28620.49
769.492	28683.99
769.828	28675.4
770.164	28426.82
770.5	28441.51
770.836	28519.7
771.171	28333.94
771.507	28301.4
771.842	27993.16
772.178	28284.91
772.513	28107.74
772.849	27965.59
773.184	27920.17
773.519	27934.86
773.855	27766.95
774.19	27639.5
774.525	27331.26
774.86	27416.45
775.195	27238.83
775.53	27053.07
775.865	26929.01
776.2	26608.57
776.535	26411.96
776.87	26436.82
777.205	26363.15
777.539	26001.35
777.874	26106.66
778.209	25780.34
778.543	25622.15
778.878	25573.56
779.212	25435.72
779.547	25288.15
779.881	25279.11
780.215	25191.65
780.55	25224.65
780.884	24944.2
781.218	24888.16
781.552	24943.98
781.886	24763.87
782.22	24657.2
782.554	24748.5
782.888	24533.37
783.222	24379.25
783.556	24345.35
783.889	24376.08
784.223	24372.24
784.557	24329.76
784.89	24429.87
785.224	24232.81
785.557	24237.78
785.891	24191
786.224	24217.44
786.558	24132.47
786.891	23988.97
787.224	23874.4
787.557	23888.64
787.891	23821.97
788.224	23820.39
788.557	23764.57
788.89	23648.64
789.223	23616.1
789.556	23433.96
789.888	23243.46
790.221	23172.27
790.554	22975.67
790.887	22988.77
791.219	22877.59
791.552	22789.23
791.884	22480.99
792.217	22495.23
792.549	22387.89
792.882	22283.93
793.214	22076.03
793.546	21986.31
793.879	21782.93
794.211	21725.98
794.543	21760.78
794.875	21592.88
795.207	21562.6
795.539	21526.89
795.871	21475.82
796.203	21284.64
796.535	21128.03
796.867	21077.64
797.198	21128.71
797.53	21195.37
797.862	21072.89
798.193	21091.65
798.525	20960.35
798.856	20959.22
799.188	20929.85
799.519	20886.23
799.85	20837.87
800.182	20893.91
800.513	20799.23
800.844	20642.4
801.175	20813.24
801.506	20840.81
801.837	20817.53
802.168	20656.41
802.499	20677.65
802.83	20523.08
803.161	20439.69
803.491	20491.21
803.822	20469.29
804.153	20403.98
804.483	20136.42
804.814	20121.05
805.145	20195.85
805.475	20019.36
805.805	19927.61
806.136	19971.23
806.466	19815.52
806.796	19596.32
807.126	19629.54
807.457	19523.33
807.787	19400.85
808.117	19342.99
808.447	19093.51
808.777	19274.07
809.107	19060.52
809.436	19029.56
809.766	18998.37
810.096	18844.48
810.426	18712.95
810.755	18707.98
811.085	18710.02
811.414	18667.08
811.744	18534.2
812.073	18482
812.403	18497.37
812.732	18319.97
813.061	18457.82
813.39	18246.3
813.719	18191.16
814.049	18379.63
814.378	18333.53
814.707	18226.64
815.036	18166.98
815.365	18173.53
815.693	18007.21
816.022	18077.94
816.351	18025.29
816.68	18053.54
817.008	18062.8
817.337	17959.3
817.665	18028.23
817.994	18114.55
818.322	18113.65
818.651	18023.25
818.979	18004.72
819.307	17939.64
819.636	17917.04
819.964	17840.43
820.292	17938.29
820.62	17833.43
820.948	17823.71
821.276	17864.39
821.604	17695.35
821.932	17778.29
822.259	17701.91
822.587	17616.71
822.915	17658.07
823.243	17759.99
823.57	17551.63
823.898	17640.89
824.225	17494.91
824.553	17382.14
824.88	17416.04
825.207	17399.54
825.535	17245.87
825.862	17364.52
826.189	17159.77
826.516	17337.4
826.843	17315.25
827.17	17226.89
827.497	17303.5
827.824	17295.36
828.151	17309.38
828.478	17116.16
828.805	17275.25
829.131	17189.38
829.458	17097.18
829.785	17143.05
830.111	17191.41
830.438	17273.44
830.764	17313.9
831.09	17295.82
831.417	17118.87
831.743	17336.95
832.069	17278.87
832.395	17176.95
832.722	17352.09
833.048	17265.99
833.374	17248.59
833.7	17261.24
834.026	17375.81
834.351	17323.61
834.677	17321.13
835.003	17450.39
835.329	17371.97
835.654	17434.8
835.98	17350.73
836.306	17360.67
836.631	17223.95
836.956	17258.53
837.282	17263.05
837.607	17305.76
837.932	17216.27
838.258	17187.34
838.583	17086.1
838.908	16950.51
839.233	17068.25
839.558	16959.78
839.883	17006.33
840.208	16871.65
840.533	16789.84
840.858	16761.59
841.182	16763.85
841.507	16708.71
841.832	16615.38
842.156	16584.42
842.481	16574.03
842.805	16466.23
843.13	16452.67
843.454	16287.03
843.778	16222.62
844.103	16220.14
844.427	16166.35
844.751	16135.62
845.075	16162.96
845.399	15984.44
845.723	15974.27
846.047	15927.72
846.371	15725.01
846.695	15779.7
847.019	15722.3
847.343	15624.9
847.666	15444.57
847.99	15480.04
848.313	15542.42
848.637	15373.83
848.96	15361.63
849.284	15327.51
849.607	15284.57
849.931	15173.84
850.254	15097.68
850.577	15200.5
850.9	15110.56
851.223	15095.87
851.546	15039.6
851.869	14955.31
852.192	15098.59
852.515	14975.65
852.838	14929.78
853.161	14929.1
853.483	14833.96
853.806	14757.8
854.129	14741.99
854.451	14801.64
854.774	14661.08
855.096	14621.99
855.419	14555.78
855.741	14567.07
856.063	14502.67
856.385	14390.36
856.708	14412.05
857.03	14252.51
857.352	14290.92
857.674	14232.85
857.996	14235.11
858.318	14008.67
858.64	14087.77
858.961	13988.11
859.283	13919.18
859.605	13811.84
859.926	13866.08
860.248	13770.03
860.57	13673.54
860.891	13678.96
861.212	13540.43
861.534	13547.44
861.855	13442.36
862.176	13480.1
862.498	13397.16
862.819	13336.6
863.14	13296.83
863.461	13303.6
863.782	13167.11
864.103	13286.2
864.424	13210.05
864.745	13181.35
865.065	13099.54
865.386	13052.09
865.707	13153.55
866.027	13006.89
866.348	13051.86
866.668	13028.13
866.989	13047.79
867.309	12961.02
867.63	13017.96
867.95	13040.56
868.27	12967.34
868.59	13038.75
868.91	12958.08
869.23	13040.34
869.55	13015.03
869.87	13078.53
870.19	13005.53
870.51	13116.04
870.83	13088.47
871.15	12958.98
871.469	12996.72
871.789	13073.33
872.109	12987.68
872.428	12939.09
872.748	12978.42
873.067	12998.98
873.386	13026.78
873.706	12982.94
874.025	12881.24
874.344	12800.12
874.663	12880.34
874.982	12879.66
875.301	12908.59
875.62	12807.8
875.939	12770.06
876.258	12763.28
876.577	12585.21
876.896	12598.31
877.214	12536.17
877.533	12512.89
877.852	12526.68
878.17	12413.23
878.489	12430.41
878.807	12480.35
879.125	12388.15
879.444	12276.97
879.762	12221.6
880.08	12200.81
880.398	12116.29
880.716	12195.39
881.034	12071.32
881.352	12014.83
881.67	12010.53
881.988	11984.09
882.306	11941.83
882.624	11945.22
882.941	11860.25
883.259	11824.55
883.577	11775.74
883.894	11806.24
884.212	11808.73
884.529	11803.08
884.846	11711.1
885.164	11727.15
885.481	11696.64
885.798	11661.39
886.115	11691.67
886.432	11676.76
886.75	11672.24
887.067	11587.27
887.383	11674.95
887.7	11659.35
888.017	11562.86
888.334	11646.93
888.651	11573.03
888.967	11450.55
889.284	11567.38
889.6	11535.74
889.917	11441.06
890.233	11508.62
890.55	11428.4
890.866	11496.42
891.182	11445.12
891.498	11383.43
891.815	11387.5
892.131	11368.97
892.447	11335.97
892.763	11269.31
893.079	11279.48
893.395	11164
893.71	11156.77
894.026	11180.72
894.342	11178.46
894.657	11064.34
894.973	11066.38
895.289	11054.62
895.604	10985.93
895.92	10867.28
896.235	10859.38
896.55	10807.63
896.865	10747.29
897.181	10708.87
897.496	10691.92
897.811	10620.96
898.126	10556.33
898.441	10432.49
898.756	10503.68
899.071	10423
899.386	10412.38
899.7	10268.88
900.015	10183.69
900.33	10078.61
900.644	10122.67
900.959	10142.78
901.273	10069.79
901.588	9991.38
901.902	9937.82
902.216	9912.06
902.531	9891.49
902.845	9769.01
903.159	9759.74
903.473	9789.8
903.787	9718.84
904.101	9623.25
904.415	9705.51
904.729	9604.95
905.042	9529.01
905.356	9548.22
905.67	9560.2
905.984	9542.8
906.297	9528.56
906.611	9439.98
906.924	9480.65
907.237	9440.88
907.551	9323.82
907.864	9308
908.177	9345.07
908.491	9342.35
908.804	9330.6
909.117	9230.94
909.43	9276.59
909.743	9331.96
910.056	9216.03
910.368	9144.17
910.681	9159.99
910.994	9104.39
911.307	9106.43
911.619	9031.17
911.932	9128.57
912.244	8998.63
912.557	8989.59
912.869	8908.92
913.181	8916.6
913.494	8892.42
913.806	8802.25
914.118	8789.37
914.43	8766.78
914.742	8753.67
915.054	8706.66
915.366	8645.2
915.678	8593.67
915.99	8546.89
916.302	8454.24
916.613	8465.77
916.925	8458.53
917.236	8341.02
917.548	8305.54
917.859	8320.23
918.171	8239.56
918.482	8213.57
918.794	8159.11
919.105	8200.69
919.416	7964.54
919.727	8037.75
920.038	7989.17
920.349	7948.72
920.66	7880.47
920.971	7848.61
921.282	7823.07
921.593	7746.46
921.903	7720.47
922.214	7660.36
922.525	7668.5
922.835	7561.16
923.146	7571.55
923.456	7478.67
923.767	7461.72
924.077	7454.95
924.387	7364.1
924.697	7361.16
925.008	7401.16
925.318	7307.15
925.628	7304.44
925.938	7250.43
926.248	7282.52
926.558	7167.04
926.867	7164.56
927.177	7158.23
927.487	7179.02
927.796	7068.74
928.106	7103.99
928.416	7011.57
928.725	7011.57
929.034	7036.2
929.344	6988.52
929.653	7004.79
929.962	6934.73
930.271	6950.33
930.581	6959.37
930.89	6910.1
931.199	6828.07
931.508	6840.72
931.817	6872.59
932.125	6823.78
932.434	6795.53
932.743	6783.32
933.051	6760.73
933.36	6742.87
933.669	6653.38
933.977	6666.94
934.286	6684.8
934.594	6636.66
934.902	6603.67
935.21	6568.64
935.519	6523.9
935.827	6471.69
936.135	6448.64
936.443	6440.06
936.751	6411.81
937.059	6353.96
937.367	6275.32
937.674	6311.92
937.982	6295.65
938.29	6231.93
938.597	6224.92
938.905	6124.81
939.213	6167.97
939.52	6092.27
939.827	6112.16
940.135	6100.4
940.442	6003.68
940.749	5973.85
941.056	5984.25
941.363	5956.91
941.67	5852.5
941.977	5839.85
942.284	5834.65
942.591	5800.53
942.898	5736.12
943.205	5749.23
943.511	5681.88
943.818	5665.61
944.125	5606.86
944.431	5636.91
944.738	5593.98
945.044	5574.54
945.35	5527.76
945.657	5490.93
945.963	5487.09
946.269	5432.85
946.575	5434.89
946.881	5414.77
947.187	5404.6
947.493	5367.54
947.799	5362.12
948.105	5319.41
948.41	5328.45
948.716	5309.92
949.022	5271.5
949.327	5290.71
949.633	5216.36
949.938	5176.36
950.244	5153.99
950.549	5195.34
950.854	5127.1
951.16	5128.23
951.465	5157.6
951.77	5174.78
952.075	5132.75
952.38	5119.87
952.685	5089.81
952.99	5024.5
953.294	5054.78
953.599	5014.56
953.904	4995.35
954.209	5016.37
954.513	4999.87
954.818	4993.54
955.122	4955.58
955.426	4937.5
955.731	4874.9
956.035	4861.12
956.339	4852.75
956.643	4829.03
956.948	4814.11
957.252	4791.96
957.556	4808.46
957.86	4748.8
958.163	4735.02
958.467	4733.66
958.771	4685.07
959.075	4691.63
959.378	4676.04
959.682	4625.64
959.985	4612.76
960.289	4572.76
960.592	4509.03
960.896	4513.78
961.199	4486.44
961.502	4496.15
961.805	4433.1
962.108	4421.58
962.411	4374.8
962.714	4377.74
963.017	4376.16
963.32	4329.6
963.623	4337.06
963.926	4282.6
964.228	4274.92
964.531	4236.95
964.833	4226.78
965.136	4217.97
965.438	4169.38
965.741	4099.78
966.043	4114.02
966.345	4141.13
966.648	4064.3
966.95	4086.9
967.252	4083.96
967.554	4060.91
967.856	4050.97
968.158	3989.27
968.46	3943.63
968.761	3933.68
969.063	3879.45
969.365	3930.97
969.666	3897.98
969.968	3810.52
970.269	3822.27
970.571	3838.54
970.872	3838.54
971.174	3847.81
971.475	3829.28
971.776	3779.34
972.077	3770.52
972.378	3748.6
972.679	3724.2
972.98	3756.96
973.281	3706.34
973.582	3749.51
973.883	3715.38
974.183	3640.81
974.484	3723.07
974.785	3652.56
975.085	3675.61
975.386	3708.6
975.686	3654.59
975.986	3641.03
976.287	3608.49
976.587	3581.6
976.887	3587.02
977.187	3591.54
977.487	3586.35
977.787	3549.51
978.087	3535.5
978.387	3487.37
978.687	3490.98
978.987	3510.19
979.286	3471.55
979.586	3426.8
979.885	3441.94
980.185	3456.63
980.484	3407.37
980.784	3391.55
981.083	3397.65
981.382	3382.96
981.682	3356.75
981.981	3376.18
982.28	3355.17
982.579	3339.8
982.878	3283.3
983.177	3274.26
983.475	3236.75
983.774	3224.1
984.073	3220.48
984.372	3164.21
984.67	3170.54
984.969	3180.48
985.267	3156.3
985.566	3132.57
985.864	3109.52
986.162	3132.57
986.461	3048.51
986.759	3100.94
987.057	3050.77
987.355	3021.16
987.653	2990.88
987.951	2991.11
988.249	2949.98
988.547	3001.28
988.844	2966.48
989.142	2889.64
989.44	2912.69
989.737	2883.54
990.035	2878.57
990.332	2860.94
990.63	2837.89
990.927	2827.27
991.224	2812.36
991.521	2812.81
991.819	2789.31
992.116	2750.21
992.413	2781.4
992.71	2755.86
993.006	2761.96
993.303	2773.71
993.6	2705.92
993.897	2723.77
994.193	2686.71
994.49	2709.99
994.787	2654.17
995.083	2661.62
995.379	2613.49
995.676	2630.21
995.972	2611.46
996.268	2586.82
996.565	2560.16
996.861	2588.18
997.157	2583.89
997.453	2542.53
997.749	2580.05
998.044	2523.55
998.34	2531.01
998.636	2554.28
998.932	2481.06
999.227	2499.37
999.523	2488.07
999.818	2479.48
1000.114	2475.64
1000.409	2446.72
1000.704	2436.77
1001	2441.07
1001.295	2394.06
1001.59	2418.24
1001.885	2437.22
1002.18	2364.68
1002.475	2364.23
1002.77	2362.42
1003.065	2330.79
1003.359	2344.12
1003.654	2341.86
1003.949	2317.68
1004.243	2286.49
1004.538	2311.13
1004.832	2277.23
1005.127	2248.53
1005.421	2223.67
1005.715	2228.19
1006.009	2251.01
1006.304	2219.38
1006.598	2204.91
1006.892	2188.19
1007.186	2180.06
1007.48	2171.47
1007.773	2125.82
1008.067	2170.79
1008.361	2106.39
1008.655	2098.48
1008.948	2099.61
1009.242	2100.06
1009.535	2088.08
1009.829	2035.43
1010.122	2072.94
1010.415	2021.19
1010.708	2020.51
1011.001	2021.19
1011.295	2010.57
1011.588	1961.98
1011.881	1959.04
1012.173	1940.97
1012.466	1948.2
1012.759	1924.7
1013.052	1941.42
1013.344	1893.28
1013.637	1881.08
1013.93	1873.4
1014.222	1857.58
1014.514	1874.53
1014.807	1873.85
1015.099	1844.7
1015.391	1825.71
1015.683	1787.07
1015.976	1777.58
1016.268	1773.06
1016.56	1769.9
1016.851	1771.7
1017.143	1770.35
1017.435	1728.99
1017.727	1696.9
1018.018	1746.17
1018.31	1674.76
1018.602	1674.98
1018.893	1665.72
1019.185	1656
1019.476	1675.44
1019.767	1648.09
1020.058	1608.32
1020.35	1631.37
1020.641	1613.52
1020.932	1621.43
1021.223	1592.73
1021.514	1567.64
1021.804	1539.85
1022.095	1569.22
1022.386	1537.81
1022.677	1571.26
1022.967	1541.65
1023.258	1542.11
1023.548	1506.4
1023.839	1507.08
1024.129	1512.95
1024.419	1488.55
1024.709	1480.64
1025	1477.7
1025.29	1505.95
1025.58	1468.21
1025.87	1430.02
1026.16	1458.04
1026.449	1432.96
1026.739	1400.87
1027.029	1433.86
1027.319	1420.08
1027.608	1397.7
1027.898	1385.05
1028.187	1350.7
1028.477	1394.77
1028.766	1376.69
1029.055	1353.41
1029.344	1345.95
1029.634	1330.36
1029.923	1335.78
1030.212	1295.56
1030.501	1312.28
1030.79	1290.14
1031.078	1276.58
1031.367	1258.72
1031.656	1277.48
1031.945	1261.21
1032.233	1259.4
1032.522	1210.36
1032.81	1223.02
1033.099	1219.63
1033.387	1220.08
1033.675	1225.5
1033.963	1214.43
1034.251	1192.74
1034.54	1193.41
1034.828	1163.59
1035.116	1182.57
1035.403	1152.51
1035.691	1162
1035.979	1140.99
1036.267	1157.94
1036.554	1137.37
1036.842	1134.89
1037.129	1087.43
1037.417	1122.23
1037.704	1090.82
1037.992	1086.07
1038.279	1088.33
1038.566	1053.31
1038.853	1053.31
1039.14	1053.31
