Data from red_shiny_book_FLMS001491_00035.txt Node
Date: Wed Feb 08 15:24:46 GMT 2017
User: dcchb
Spectrometer: FLMS00149
Trigger mode: 0
Integration Time (sec): 2.000000E-2
Scans to average: 10
Electric dark correction enabled: true
Nonlinearity correction enabled: false
Boxcar width: 0
XAxis mode: Wavelengths
Number of Pixels in Spectrum: 2048
>>>>>Begin Spectral Data<<<<<
341.393	-18.26
341.776	-18.26
342.16	-18.26
342.543	-63.91
342.927	-67.07
343.31	-50.35
343.693	-65.72
344.077	-61.88
344.46	-64.81
344.843	-55.78
345.226	-61.42
345.61	0.27
345.993	-7.64
346.376	-26.62
346.759	9.99
347.142	12.02
347.525	44.33
347.908	55.18
348.291	80.72
348.674	93.6
349.057	98.12
349.44	125.01
349.823	151.9
350.206	165.91
350.588	194.84
350.971	234.84
351.354	219.92
351.737	242.75
352.119	260.15
352.502	273.93
352.884	278.23
353.267	291.79
353.65	288.62
354.032	291.33
354.414	327.27
354.797	317.1
355.179	306.93
355.562	329.07
355.944	328.4
356.326	330.66
356.709	356.87
357.091	334.27
357.473	369.98
357.855	354.16
358.238	336.98
358.62	352.8
359.002	345.34
359.384	362.07
359.766	358.9
360.148	341.95
360.53	318.45
360.912	344.44
361.294	346.7
361.676	304.44
362.057	329.98
362.439	332.01
362.821	341.73
363.203	320.26
363.584	340.82
363.966	335.17
364.348	334.72
364.729	320.03
365.111	320.03
365.493	331.11
365.874	323.88
366.256	316.64
366.637	315.29
367.019	333.37
367.4	321.84
367.781	316.42
368.163	316.42
368.544	323.2
368.925	306.47
369.306	331.11
369.688	329.53
370.069	303.09
370.45	327.04
370.831	324.1
371.212	320.49
371.593	311.45
371.974	300.6
372.355	326.36
372.736	301.28
373.117	322.07
373.498	329.98
373.879	325.23
374.26	337.66
374.641	323.2
375.021	312.58
375.402	341.95
375.783	338.56
376.163	334.5
376.544	346.25
376.925	332.46
377.305	347.83
377.686	344.44
378.066	338.79
378.447	341.73
378.827	307.6
379.208	340.15
379.588	355.29
379.968	319.58
380.349	334.27
380.729	332.46
381.109	349.41
381.489	348.51
381.87	334.72
382.25	347.83
382.63	334.5
383.01	350.09
383.39	364.55
383.77	369.3
384.15	346.93
384.53	358.45
384.91	363.42
385.29	351.67
385.67	353.93
386.049	362.74
386.429	350.54
386.809	346.7
387.189	374.72
387.568	353.25
387.948	349.19
388.328	361.16
388.707	350.99
389.087	359.81
389.466	373.59
389.846	369.3
390.225	366.81
390.605	361.16
390.984	361.39
391.363	376.3
391.743	382.18
392.122	379.47
392.501	379.47
392.881	390.54
393.26	367.26
393.639	367.04
394.018	366.36
394.397	391.44
394.776	404.55
395.155	408.85
395.534	396.42
395.913	401.61
396.292	358.9
396.671	377.66
397.05	398.45
397.429	407.26
397.808	390.99
398.186	398.22
398.565	390.54
398.944	403.2
399.323	371.56
399.701	406.13
400.08	390.54
400.458	408.85
400.837	412.91
401.215	407.72
401.594	413.82
401.972	417.66
402.351	405.46
402.729	389.18
403.107	407.94
403.486	387.15
403.864	406.13
404.242	433.03
404.62	415.85
404.999	399.58
405.377	418.79
405.755	408.85
406.133	444.32
406.511	435.74
406.889	447.26
407.267	456.3
407.645	432.35
408.023	441.16
408.401	422.86
408.779	428.51
409.156	449.97
409.534	455.85
409.912	459.92
410.29	451.1
410.667	453.59
411.045	432.57
411.422	454.72
411.8	473.25
412.178	469.18
412.555	467.37
412.933	480.48
413.31	491.78
413.687	479.13
414.065	482.29
414.442	498.79
414.819	520.25
415.197	491.1
415.574	508.05
415.951	515.28
416.328	512.12
416.705	514.61
417.082	522.97
417.46	528.39
417.837	511.89
418.214	531.1
418.591	542.85
418.967	540.37
419.344	538.33
419.721	548.95
420.098	532.46
420.475	550.31
420.852	563.87
421.228	550.31
421.605	557.99
421.982	576.98
422.358	578.78
422.735	579.01
423.111	564.32
423.488	576.75
423.864	587.15
424.241	586.47
424.617	588.05
424.994	577.2
425.37	590.99
425.746	591.44
426.123	613.13
426.499	613.13
426.875	628.95
427.251	586.47
427.627	605.9
428.003	626.47
428.379	609.74
428.756	634.15
429.132	626.24
429.507	645.45
429.883	640.7
430.259	657.43
430.635	648.84
431.011	652.23
431.387	642.96
431.763	656.75
432.138	673.25
432.514	664.66
432.89	676.41
433.265	675.5
433.641	698.56
434.016	682.96
434.392	679.35
434.767	703.98
435.143	700.81
435.518	717.54
435.894	706.24
436.269	724.09
436.644	740.81
437.02	721.83
437.395	710.98
437.77	733.36
438.145	752.56
438.52	758.21
438.895	774.26
439.271	745.33
439.646	764.54
440.021	764.32
440.395	778.78
440.77	752.79
441.145	770.19
441.52	791.21
441.895	779
442.27	786.91
442.645	794.15
443.019	805.67
443.394	809.06
443.769	817.65
444.143	821.94
444.518	839.79
444.892	792.79
445.267	822.17
445.641	815.61
446.016	801.83
446.39	820.13
446.764	812.68
447.139	834.37
447.513	844.09
447.887	835.95
448.262	857.19
448.636	865.33
449.01	839.12
449.384	849.06
449.758	853.81
450.132	854.94
450.506	863.97
450.88	869.62
451.254	846.35
451.628	847.7
452.002	868.95
452.376	888.38
452.75	887.48
453.123	887.02
453.497	898.1
453.871	898.1
454.244	914.14
454.618	906.23
454.992	913.46
455.365	911.43
455.739	924.54
456.112	911.2
456.486	926.12
456.859	950.75
457.232	943.07
457.606	944.88
457.979	968.6
458.352	960.24
458.725	975.16
459.099	968.83
459.472	976.06
459.845	961.15
460.218	960.47
460.591	966.57
460.964	977.87
461.337	979.23
461.71	991.65
462.083	1006.57
462.456	1023.07
462.829	1040.69
463.201	1056.96
463.574	1058.32
463.947	1039.56
464.32	1037.98
464.692	1052.22
465.065	1012.67
465.438	1054.03
465.81	1086.57
466.183	1096.06
466.555	1075.49
466.928	1099.9
467.3	1085.21
467.672	1126.57
468.045	1153.68
468.417	1135.83
468.789	1154.59
469.161	1167.24
469.534	1158.88
469.906	1190.97
470.278	1185.55
470.65	1166.79
471.022	1194.59
471.394	1215.38
471.766	1233.68
472.138	1234.36
472.51	1247.24
472.882	1284.08
473.253	1308.48
473.625	1297.18
473.997	1298.77
474.369	1330.18
474.74	1326.11
475.112	1366.33
475.484	1336.73
475.855	1338.54
476.227	1343.06
476.598	1353.45
476.97	1372.89
477.341	1413.56
477.713	1408.14
478.084	1419.21
478.455	1478.87
478.827	1470.74
479.198	1498.99
479.569	1570.85
479.94	1580.34
480.311	1544.18
480.682	1577.85
481.053	1589.15
481.424	1625.99
481.795	1639.32
482.166	1654.69
482.537	1646.33
482.908	1712.31
483.279	1741.47
483.65	1770.84
484.021	1786.66
484.391	1823.27
484.762	1874.12
485.133	1863.27
485.503	1863.27
485.874	1901.24
486.244	1907.79
486.615	1940.78
486.985	1922.7
487.356	1936.71
487.726	1963.38
488.097	2029.37
488.467	2042.25
488.837	2075.02
489.207	2123.38
489.578	2139.42
489.948	2185.97
490.318	2179.65
490.688	2261.45
491.058	2241.79
491.428	2251.06
491.798	2238.63
492.168	2303.26
492.538	2299.87
492.908	2300.55
493.278	2352.52
493.648	2362.92
494.017	2374.44
494.387	2421.22
494.757	2482.69
495.126	2485.4
495.496	2472.52
495.866	2530.37
496.235	2570.6
496.605	2620.09
496.974	2577.83
497.344	2588.22
497.713	2583.7
498.082	2590.71
498.452	2611.05
498.821	2588.22
499.19	2602.46
499.559	2631.16
499.928	2652.63
500.298	2675.9
500.667	2726.52
501.036	2718.84
501.405	2794.77
501.774	2786.41
502.143	2834.32
502.512	2778.5
502.88	2807.43
503.249	2768.78
503.618	2768.78
503.987	2809.01
504.356	2788.67
504.724	2792.29
505.093	2772.17
505.462	2754.09
505.83	2836.13
506.199	2849.23
506.567	2877.25
506.936	2924.94
507.304	2966.97
507.672	2977.59
508.041	2978.5
508.409	2998.83
508.777	2983.69
509.145	2951.38
509.514	2952.06
509.882	2977.14
510.25	2940.08
510.618	2952.06
510.986	2941.43
511.354	2948.89
511.722	2937.82
512.09	2995.22
512.458	2976.91
512.826	2993.64
513.193	3047.65
513.561	3085.61
513.929	3084.03
514.297	3110.92
514.664	3161.09
515.032	3130.81
515.4	3135.33
515.767	3135.55
516.135	3107.31
516.502	3080.19
516.869	3051.26
517.237	3055.1
517.604	3050.81
517.972	3084.71
518.339	3062.33
518.706	3086.74
519.073	3109.34
519.44	3146.17
519.808	3207.64
520.175	3245.38
520.542	3262.56
520.909	3276.79
521.276	3261.65
521.643	3329.67
522.009	3299.62
522.376	3284.7
522.743	3227.75
523.11	3215.78
523.477	3181.2
523.843	3216.68
524.21	3255.78
524.577	3210.58
524.943	3280.86
525.31	3328.77
525.676	3390.91
526.043	3400.4
526.409	3483.11
526.776	3481.53
527.142	3506.39
527.508	3575.54
527.874	3580.97
528.241	3603.79
528.607	3579.16
528.973	3599.27
529.339	3556.79
529.705	3581.87
530.071	3546.16
530.437	3584.35
530.803	3569.21
531.169	3530.8
531.535	3592.04
531.901	3648.76
532.267	3721.07
532.632	3779.6
532.998	3807.63
533.364	3857.12
533.73	3914.29
534.095	3962.42
534.461	4042.42
534.826	4060.05
535.192	3970.11
535.557	3994.97
535.923	3954.06
536.288	3951.58
536.653	3976.21
537.019	3959.26
537.384	3947.74
537.749	3969.88
538.114	3972.37
538.479	4008.75
538.845	4029.54
539.21	4058.47
539.575	4131.23
539.94	4208.97
540.305	4278.57
540.67	4319.7
541.034	4334.84
541.399	4401.06
541.764	4388.85
542.129	4390.89
542.494	4397.89
542.858	4419.36
543.223	4402.86
543.587	4347.72
543.952	4334.39
544.316	4298.91
544.681	4288.29
545.045	4324.45
545.41	4351.57
545.774	4377.1
546.138	4439.02
546.503	4490.55
546.867	4491.9
547.231	4626.81
547.595	4672.69
547.959	4691.67
548.324	4677.21
548.688	4768.05
549.052	4728.51
549.416	4730.54
549.779	4714.72
550.143	4669.07
550.507	4656.87
550.871	4656.19
551.235	4565.35
551.599	4574.16
551.962	4547.95
552.326	4518.57
552.689	4534.16
553.053	4581.39
553.417	4630.88
553.78	4676.98
554.143	4711.78
554.507	4776.41
554.87	4844.43
555.234	4851.89
555.597	4863.87
555.96	4901.38
556.323	4951.78
556.686	4890.08
557.05	4899.8
557.413	4876.52
557.776	4828.16
558.139	4831.55
558.502	4715.17
558.865	4747.94
559.228	4742.52
559.59	4732.35
559.953	4688.73
560.316	4773.7
560.679	4810.76
561.041	4889.18
561.404	4889.41
561.767	4982.74
562.129	4948.61
562.492	5102.51
562.854	5142.51
563.217	5144.09
563.579	5156.97
563.941	5179.34
564.304	5196.97
564.666	5191.54
565.028	5171.88
565.39	5105.9
565.753	5101.6
566.115	5064.99
566.477	5019.35
566.839	5015.96
567.201	5011.21
567.563	4980.48
567.925	5059.12
568.287	5114.26
568.648	5161.04
569.01	5190.41
569.372	5219.57
569.734	5286.68
570.095	5343.63
570.457	5408.26
570.819	5486.45
571.18	5553.34
571.542	5561.93
571.903	5613.91
572.265	5628.59
572.626	5640.57
572.987	5595.38
573.349	5584.08
573.71	5560.8
574.071	5546.56
574.432	5585.88
574.794	5561.48
575.155	5536.39
575.516	5554.47
575.877	5701.59
576.238	5784.52
576.599	5800.57
576.96	5941.13
577.32	6038.98
577.681	6203.04
578.042	6381.12
578.403	6474.45
578.763	6556.93
579.124	6729.58
579.485	6890.03
579.845	7031.5
580.206	7109.01
580.566	7267.42
580.927	7359.62
581.287	7470.58
581.648	7588.09
582.008	7738.82
582.368	7920.51
582.728	8175.19
583.089	8186.04
583.449	8521.4
583.809	8760.72
584.169	8963.65
584.529	9313.7
584.889	9687.7
585.249	10018.99
585.609	10416.04
585.969	10789.36
586.329	11197.04
586.688	11664.59
587.048	12029.78
587.408	12430
587.768	12852.36
588.127	13296.42
588.487	13668.16
588.846	14133.68
589.206	14423.84
589.565	14816.38
589.925	15295.69
590.284	15652.06
590.643	16012.95
591.003	16510.34
591.362	16993.49
591.721	17316.65
592.08	17776.3
592.44	18344.19
592.799	18958.41
593.158	19420.77
593.517	19916.13
593.876	20536.45
594.235	21054.86
594.593	21560.15
594.952	22119.69
595.311	22713.34
595.67	23252.54
596.029	23942.01
596.387	24448.67
596.746	24990.8
597.104	25336.78
597.463	25713.72
597.822	26317.77
598.18	26595.5
598.538	27108.93
598.897	27612.42
599.255	27750.5
599.613	28573.3
599.972	28799.96
600.33	29331.25
600.688	29623.22
601.046	30208.51
601.404	30803.98
601.762	31201.03
602.12	31819.32
602.478	32265.86
602.836	32775.9
603.194	32951.49
603.552	33555.77
603.91	33917.57
604.268	34512.13
604.625	34893.36
604.983	35395.95
605.341	35657.64
605.698	36248.35
606.056	36552.98
606.413	36836.81
606.771	37205.84
607.128	37453.52
607.485	37714.53
607.843	37867.07
608.2	38402.2
608.557	38680.83
608.914	38705.47
609.272	39069.75
609.629	39388.16
609.986	39988.37
610.343	39876.51
610.7	40572.99
611.057	40689.37
611.414	40910.83
611.771	41173.42
612.127	41727.08
612.484	41892.27
612.841	42393.28
613.198	42408.42
613.554	42702.87
613.911	43228.96
614.267	43283.2
614.624	43456.53
614.98	43713.24
615.337	43840.02
615.693	43910.98
616.05	44033.46
616.406	44394.13
616.762	44342.15
617.118	44494.01
617.475	44418.99
617.831	44655.14
618.187	44838.41
618.543	44952.53
618.899	45028.24
619.255	45323.14
619.611	45313.2
619.967	45573.31
620.323	45888.1
620.678	45632.97
621.034	45862.34
621.39	46058.49
621.746	46154.54
622.101	46566.95
622.457	46446.73
622.812	46684.01
623.168	46860.96
623.523	46950.67
623.879	47072.7
624.234	46896.21
624.589	47146.6
624.945	47062.53
625.3	47197.22
625.655	47100.27
626.01	47070.67
626.365	47163.55
626.72	47110.67
627.075	47102.53
627.43	47014.17
627.785	47055.3
628.14	47138.46
628.495	47140.5
628.85	47183.43
629.205	47127.62
629.559	47420.49
629.914	47341.4
630.269	47545.23
630.623	47450.55
630.978	47510.21
631.332	47657.77
631.687	47859.8
632.041	47679.01
632.396	47945
632.75	47796.3
633.104	47906.81
633.459	47764.21
633.813	47755.85
634.167	47714.04
634.521	47725.57
634.875	47715.4
635.229	47578
635.583	47314.05
635.937	47413.03
636.291	47278.35
636.645	47332.58
636.999	47104.57
637.352	47326.26
637.706	47031.12
638.06	47082.87
638.413	46958.36
638.767	46839.49
639.121	47080.61
639.474	47013.04
639.828	46986.38
640.181	47202.87
640.534	47142.76
640.888	47114.96
641.241	47002.42
641.594	47069.09
641.947	47282.87
642.301	47201.97
642.654	47313.15
643.007	47221.63
643.36	47271.12
643.713	47165.13
644.066	47269.99
644.419	46944.12
644.771	46781.64
645.124	46321.76
645.477	46272.05
645.83	45773.08
646.182	45661.44
646.535	45508.22
646.888	45566.08
647.24	45283.15
647.593	45528.56
647.945	45290.15
648.298	45284.5
648.65	45129.25
649.002	44993.21
649.355	45317.49
649.707	45167.22
650.059	45298.29
650.411	45964.71
650.763	45858.27
651.115	46385.04
651.467	46242.89
651.819	46323.12
652.171	46175.55
652.523	46299.39
652.875	46261.65
653.227	46173.52
653.578	46459.84
653.93	46407.64
654.282	45954.77
654.633	45930.81
654.985	46020.3
655.337	45975.1
655.688	46027.31
656.039	46138.72
656.391	45700.54
656.742	45561.1
657.094	45620.31
657.445	45843.58
657.796	45563.36
658.147	45407.89
658.498	45410.15
658.849	45395.01
659.2	45440.66
659.551	45376.02
659.902	45514.33
660.253	45450.37
660.604	45630.26
660.955	45411.73
661.306	45773.98
661.656	45566.08
662.007	45642.46
662.358	45722.23
662.708	45689.46
663.059	45766.75
663.409	45507.55
663.76	45832.74
664.11	45925.61
664.461	45820.31
664.811	45722
665.161	45679.75
665.511	45516.81
665.862	45550.71
666.212	45632.97
666.562	45524.72
666.912	45301
667.262	45270.26
667.612	45160.66
667.962	45119.31
668.312	45108.91
668.662	45111.85
669.011	45025.53
669.361	45052.19
669.711	44888.81
670.06	44997.28
670.41	44796.38
670.76	44785.98
671.109	45029.14
671.459	44870.05
671.808	44948.01
672.157	45132.19
672.507	44862.37
672.856	44896.71
673.205	45024.85
673.554	45151.62
673.904	45028.46
674.253	45387.78
674.602	45195.24
674.951	44615.82
675.3	44397.07
675.649	45091.06
675.998	44925.19
676.346	44995.24
676.695	45030.27
677.044	44565.65
677.393	44751.41
677.741	44712.99
678.09	44469.16
678.438	44351.42
678.787	44348.71
679.135	44296.05
679.484	44024.2
679.832	44132.44
680.181	43791.66
680.529	43986.23
680.877	43833.92
681.225	43727.03
681.573	44114.59
681.922	43717.54
682.27	43681.15
682.618	43704.88
682.966	43732.9
683.314	43893.13
683.661	43748.95
684.009	43695.62
684.357	43609.29
684.705	43622.4
685.053	43791.89
685.4	43668.72
685.748	43557.77
686.095	43583.3
686.443	43339.24
686.79	43305.8
687.138	43351.44
687.485	43385.57
687.832	43079.36
688.18	43208.62
688.527	42858.58
688.874	42847.5
689.221	42731.8
689.568	42541.3
689.915	42362.32
690.262	42390.79
690.609	42091.82
690.956	41911.48
691.303	41871.48
691.65	41696.12
691.997	41681.43
692.344	41387.2
692.69	41330.26
693.037	41539.74
693.383	41129.13
693.73	41218.39
694.077	41127.32
694.423	41131.62
694.769	41041.9
695.116	41126.64
695.462	40977.72
695.808	40945.63
696.155	41052.3
696.501	40798.74
696.847	40926.2
697.193	40571.4
697.539	40788.57
697.885	40543.16
698.231	40408.92
698.577	40457.28
698.923	40346.78
699.269	40156.27
699.614	39929.61
699.96	39778.43
700.306	39824.08
700.651	39513.13
700.997	39309.07
701.342	39260.03
701.688	39307.48
702.033	39040.37
702.379	38932.8
702.724	38904.33
703.069	38740.27
703.415	38348.19
703.76	38464.12
704.105	38252.37
704.45	38229.32
704.795	37895.77
705.14	37883.34
705.485	37957.46
705.83	37910.01
706.175	37923.79
706.52	37738.26
706.865	37557.25
707.209	37774.87
707.554	37703.46
707.899	37847.86
708.243	37570.58
708.588	37451.26
708.932	37341.66
709.277	37480.41
709.621	37498.27
709.966	37256.69
710.31	37281.55
710.654	37020.76
710.998	37110.03
711.342	37118.84
711.687	36883.59
712.031	36717.95
712.375	36660.32
712.719	36581.68
713.063	36517.5
713.407	36541.45
713.75	36373.32
714.094	36101.47
714.438	36009.49
714.782	36035.25
715.125	35715.94
715.469	35676.17
715.812	35574.02
716.156	35405.44
716.499	35264.43
716.843	35340.13
717.186	35266.23
717.53	35305.55
717.873	35383.74
718.216	35272.79
718.559	35069.85
718.902	34924.1
719.246	35146.69
719.589	35033.25
719.932	34884.1
720.275	34895.17
720.617	35007.48
720.96	35077.31
721.303	34930.42
721.646	34924.77
721.989	34828.28
722.331	35017.2
722.674	34867.6
723.016	34923.42
723.359	34693.37
723.701	34683.65
724.044	34491.11
724.386	34339.48
724.729	34462.64
725.071	34206.37
725.413	34160.95
725.755	34153.72
726.097	34036.66
726.439	33743.56
726.782	33759.38
727.124	33710.57
727.465	33588.31
727.807	33507.86
728.149	33449.33
728.491	33145.39
728.833	33248.66
729.175	33093.18
729.516	33098.16
729.858	33139.74
730.199	33116.91
730.541	32974.99
730.882	32843.02
731.224	33082.34
731.565	32825.85
731.906	33033.07
732.248	33058.83
732.589	32803.47
732.93	32802.12
733.271	32886.86
733.612	32852.96
733.953	32962.79
734.294	32753.08
734.635	32783.36
734.976	32968.67
735.317	32816.35
735.658	32793.08
735.999	32823.81
736.339	32640.99
736.68	32806.19
737.021	32610.71
737.361	32463.14
737.702	32659.97
738.042	32448
738.383	32331.4
738.723	32395.57
739.063	32168.01
739.404	32227.44
739.744	31940.67
740.084	31769.6
740.424	31864.29
740.764	31605.99
741.104	31843.27
741.444	31558.08
741.784	31483.28
742.124	31493.23
742.464	31385.21
742.804	31427.69
743.143	31300.46
743.483	31244.87
743.823	31087.81
744.162	31110.86
744.502	31178.88
744.841	31079.9
745.181	31317.19
745.52	31020.02
745.86	31143.18
746.199	31048.49
746.538	31143.63
746.877	31230.18
747.216	31179.79
747.556	31023.86
747.895	31161.26
748.234	31032.9
748.573	31114.48
748.911	30957.42
749.25	30957.42
749.589	30832.23
749.928	30816.41
750.267	30861.83
750.605	30721.95
750.944	30627.03
751.283	30446.47
751.621	30533.02
751.96	30270.21
752.298	30358.57
752.636	30180.04
752.975	30074.73
753.313	29887.84
753.651	29992.93
753.989	29742.99
754.327	29716.32
754.666	29435.2
755.004	29482.43
755.342	29474.97
755.679	29442.21
756.017	29157.24
756.355	29122.21
756.693	29104.14
757.031	29151.82
757.368	28955.44
757.706	28888.32
758.044	28832.96
758.381	28895.33
758.719	28709.57
759.056	28806.29
759.394	28740.98
759.731	28540.76
760.068	28569.01
760.405	28363.59
760.743	28430.48
761.08	28456.92
761.417	28345.74
761.754	28367.66
762.091	28303.7
762.428	28299.86
762.765	28096.25
763.102	28194.56
763.438	28151.17
763.775	28005.63
764.112	27896.94
764.449	27937.61
764.785	27783.94
765.122	27684.29
765.458	27575.36
765.795	27519.54
766.131	27439.32
766.467	27241.59
766.804	27156.39
767.14	27001.82
767.476	27023.29
767.812	26757.53
768.148	26884.53
768.485	26485.9
768.821	26368.61
769.157	26348.05
769.492	26178.11
769.828	26113.25
770.164	25827.61
770.5	25899.93
770.836	25823.32
771.171	25597.56
771.507	25646.83
771.842	25463.78
772.178	25488.64
772.513	25411.35
772.849	25387.4
773.184	25277.34
773.519	25232.6
773.855	25175.88
774.19	24987.86
774.525	24946.51
774.86	24910.35
775.195	24979.72
775.53	24901.08
775.865	24847.52
776.2	24629
776.535	24541.09
776.87	24604.37
777.205	24427.65
777.539	24201.44
777.874	24359.63
778.209	24162.12
778.543	24225.17
778.878	24057.94
779.212	23998.51
779.547	23963.93
779.881	23846.42
780.215	23669.7
780.55	23839.87
780.884	23626.09
781.218	23422.93
781.552	23441.69
781.886	23188.81
782.22	23108.59
782.554	23052.32
782.888	22730.74
783.222	22746.34
783.556	22609.84
783.889	22528.72
784.223	22383.86
784.557	22252.56
784.89	22224.54
785.224	22071.78
785.557	21975.06
785.891	21971.89
786.224	21842.63
786.558	21886.7
786.891	21661.62
787.224	21615.97
787.557	21445.81
787.891	21516.76
788.224	21540.27
788.557	21556.31
788.89	21299.14
789.223	21505.01
789.556	21242.87
789.888	21172.37
790.221	21124.91
790.554	21106.83
790.887	21049.66
791.219	21005.37
791.552	21004.01
791.884	20968.53
792.217	20861.19
792.549	20834.75
792.882	20752.72
793.214	20629.33
793.546	20695.77
793.879	20528.32
794.211	20366.96
794.543	20467.3
794.875	20478.15
795.207	20422.1
795.539	20274.76
795.871	20218.27
796.203	20043.36
796.535	19864.15
796.867	19812.85
797.198	19778.05
797.53	19793.65
797.862	19645.4
798.193	19520.43
798.525	19449.93
798.856	19431.4
799.188	19279.99
799.519	19106.66
799.85	19100.11
800.182	19151.63
800.513	19012.2
800.844	18792.32
801.175	18946.89
801.506	18895.82
801.837	18681.59
802.168	18699.44
802.499	18567.92
802.83	18445.89
803.161	18530.85
803.491	18439.11
803.822	18501.25
804.153	18389.84
804.483	18313.46
804.814	18224.87
805.145	18324.98
805.475	18258.32
805.805	18170.41
806.136	18153.69
806.466	18227.59
806.796	18223.74
807.126	18062.17
807.457	18043.64
807.787	18097.87
808.117	18082.05
808.447	17969.51
808.777	18001.83
809.107	17882.28
809.436	17853.58
809.766	17812.91
810.096	17754.6
810.426	17697.88
810.755	17713.25
811.085	17625.34
811.414	17595.74
811.744	17408.62
812.073	17449.53
812.403	17428.74
812.732	17249.08
813.061	17250.21
813.39	16979.26
813.719	17005.47
814.049	17125.69
814.378	16943.78
814.707	16880.73
815.036	16892.25
815.365	16694.52
815.693	16546.27
816.022	16633.73
816.351	16429.67
816.68	16408.65
817.008	16493.39
817.337	16357.58
817.665	16335.88
817.994	16344.02
818.322	16376.79
818.651	16193.74
818.979	16106.06
819.307	16267.86
819.636	16191.71
819.964	16080.75
820.292	16217.7
820.62	16118.49
820.948	16131.37
821.276	16227.41
821.604	16210.24
821.932	16161.2
822.259	16253.17
822.587	16170.92
822.915	16135.44
823.243	16315.77
823.57	16180.63
823.898	16171.82
824.225	16149.67
824.553	16184.93
824.88	16236.23
825.207	16338.6
825.535	16226.51
825.862	16225.15
826.189	16305.15
826.516	16208.66
826.843	16272.61
827.17	16283.68
827.497	16176.57
827.824	16269.67
828.151	16290.46
828.478	16249.11
828.805	16289.56
829.131	16132.27
829.458	16148.09
829.785	16023.8
830.111	16029.23
830.438	16132.95
830.764	16026.29
831.09	16057.93
831.417	15995.55
831.743	15974.31
832.069	15934.54
832.395	15918.04
832.722	15843.47
833.048	15874.88
833.374	15809.57
833.7	15721.21
834.026	15782
834.351	15797.59
834.677	15750.36
835.003	15771.38
835.329	15634.21
835.654	15638.5
835.98	15617.48
836.306	15644.15
836.631	15609.12
836.956	15575.45
837.282	15629.69
837.607	15549.01
837.932	15525.51
838.258	15497.94
838.583	15593.53
838.908	15479.18
839.233	15554.21
839.558	15550.37
839.883	15431.05
840.208	15461.56
840.533	15514.89
840.858	15460.88
841.182	15523.25
841.507	15489.8
841.832	15331.16
842.156	15430.6
842.481	15404.84
842.805	15424.72
843.13	15351.05
843.454	15370.71
843.778	15321.9
844.103	15210.72
844.427	15288.91
844.751	15230.15
845.075	15228.57
845.399	15116.48
845.723	15001.68
846.047	15009.82
846.371	14853.44
846.695	14892.31
847.019	14786.55
847.343	14718.07
847.666	14587.68
847.99	14478.53
848.313	14483.73
848.637	14310.63
848.96	14291.87
849.284	14221.36
849.607	14136.85
849.931	14107.47
850.254	13993.12
850.577	13911.09
850.9	13836.06
851.223	13791.77
851.546	13683.07
851.869	13633.36
852.192	13691.89
852.515	13505.22
852.838	13441.95
853.161	13448.5
853.483	13383.42
853.806	13338.67
854.129	13283.08
854.451	13267.04
854.774	13255.06
855.096	13174.84
855.419	13138.68
855.741	13145.69
856.063	13056.2
856.385	13101.62
856.708	13079.47
857.03	12923.32
857.352	13021.39
857.674	13055.07
857.996	12895.97
858.318	12908.63
858.64	12927.61
858.961	12909.99
859.283	12901.17
859.605	12856.65
859.926	12811.91
860.248	12778.46
860.57	12727.84
860.891	12791.12
861.212	12766.49
861.534	12737.33
861.855	12640.39
862.176	12690.78
862.498	12677
862.819	12619.15
863.14	12554.74
863.461	12500.28
863.782	12584.57
864.103	12474.97
864.424	12469.77
864.745	12425.7
865.065	12359.49
865.386	12286.27
865.707	12238.14
866.027	12208.31
866.348	12209.89
866.668	12193.39
866.989	12126.96
867.309	12014.19
867.63	12054.19
867.95	12041.08
868.27	11935.55
868.59	11954.76
868.91	11936
869.23	11927.41
869.55	11805.38
869.87	11872.95
870.19	11849.9
870.51	11840.41
870.83	11828.43
871.15	11778.26
871.469	11733.07
871.789	11676.57
872.109	11704.59
872.428	11689
872.748	11680.41
873.067	11691.94
873.386	11659.17
873.706	11690.81
874.025	11599.96
874.344	11625.73
874.663	11634.76
874.982	11592.73
875.301	11613.07
875.62	11632.96
875.939	11601.55
876.258	11625.73
876.577	11557.25
876.896	11569.91
877.214	11540.08
877.533	11610.58
877.852	11536.46
878.17	11497.59
878.489	11521.1
878.807	11600.42
879.125	11489.23
879.444	11528.78
879.762	11422.11
880.08	11502.79
880.398	11351.38
880.716	11402.45
881.034	11371.95
881.352	11405.62
881.67	11373.98
881.988	11385.28
882.306	11310.25
882.624	11289.01
882.941	11215.57
883.259	11172.86
883.577	11193.87
883.894	11095.57
884.212	11105.74
884.529	11075.68
884.846	11042.24
885.164	10976.25
885.481	10938.29
885.798	10950.26
886.115	10859.42
886.432	10837.05
886.75	10757.27
887.067	10759.31
887.383	10708.01
887.7	10667.78
888.017	10658.29
888.334	10649.48
888.651	10624.17
888.967	10587.33
889.284	10477.28
889.6	10504.4
889.917	10381.69
890.233	10395.48
890.55	10351.86
890.866	10463.04
891.182	10315.7
891.498	10344.18
891.815	10312.77
892.131	10286.33
892.447	10286.1
892.763	10218.08
893.079	10201.36
893.395	10143.28
893.71	10117.97
894.026	10172.43
894.342	10156.61
894.657	10045.65
894.973	10044.98
895.289	10135.37
895.604	10057.63
895.92	9991.42
896.235	9896.96
896.55	10007.69
896.865	9899.67
897.181	9868.94
897.496	9953.23
897.811	9871.2
898.126	9894.02
898.441	9901.48
898.756	9869.61
899.071	9734.7
899.386	9768.37
899.7	9669.84
900.015	9661.48
900.33	9531.77
900.644	9544.65
900.959	9551.66
901.273	9602.95
901.588	9513.24
901.902	9424.65
902.216	9395.73
902.531	9320.02
902.845	9284.77
903.159	9260.82
903.473	9285.67
903.787	9101.05
904.101	9178.33
904.415	9127.94
904.729	9063.53
905.042	8924.1
905.356	9009.07
905.67	8978.79
905.984	8920.03
906.297	8862.63
906.611	8819.47
906.924	8749.42
907.237	8738.8
907.551	8682.53
907.864	8653.15
908.177	8645.69
908.491	8525.92
908.804	8531.12
909.117	8514.17
909.43	8433.27
909.743	8407.5
910.056	8385.36
910.368	8330.9
910.681	8278.69
910.994	8310.78
911.307	8285.7
911.619	8221.97
911.932	8266.04
912.244	8156.44
912.557	8122.31
912.869	8091.36
913.181	8033.5
913.494	8050.45
913.806	7951.47
914.118	8008.65
914.43	7967.97
914.742	8000.51
915.054	7835.54
915.366	7866.5
915.678	7864.92
915.99	7840.51
916.302	7763.23
916.613	7772.49
916.925	7742.44
917.236	7715.09
917.548	7640.75
917.859	7745.15
918.171	7619.96
918.482	7630.12
918.794	7532.73
919.105	7593.74
919.416	7559.62
919.727	7521.65
920.038	7534.99
920.349	7489.34
920.66	7419.51
920.971	7447.76
921.282	7360.3
921.593	7297.03
921.903	7286.86
922.214	7243.24
922.525	7214.09
922.835	7195.56
923.146	7148.78
923.456	7176.8
923.767	7072.17
924.077	7039.41
924.387	7037.15
924.697	6998.5
925.008	6952.18
925.318	6910.6
925.628	6898.62
925.938	6837.15
926.248	6759.86
926.558	6745.18
926.867	6703.37
927.177	6679.19
927.487	6663.14
927.796	6584.95
928.106	6588.34
928.416	6536.14
928.725	6558.29
929.034	6446.65
929.344	6447.33
929.653	6439.42
929.962	6391.51
930.271	6360.1
930.581	6339.54
930.89	6321.01
931.199	6238.75
931.508	6234.68
931.817	6236.04
932.125	6226.09
932.434	6214.34
932.743	6156.72
933.051	6107.45
933.36	6084.4
933.669	6088.24
933.977	6050.96
934.286	6076.27
934.594	6052.09
934.902	6002.82
935.21	5910.17
935.519	5996.04
935.827	5924.86
936.135	5899.1
936.443	5846.44
936.751	5829.72
937.059	5814.35
937.367	5781.81
937.674	5826.1
937.982	5813.22
938.29	5749.72
938.597	5814.35
938.905	5681.93
939.213	5675.6
939.52	5657.29
939.827	5695.71
940.135	5628.82
940.442	5632.89
940.749	5597.86
941.056	5617.75
941.363	5549.05
941.67	5539.33
941.977	5479.67
942.284	5455.94
942.591	5440.8
942.898	5431.31
943.205	5424.76
943.511	5434.93
943.818	5367.13
944.125	5332.11
944.431	5338.43
944.738	5250.53
945.044	5296.85
945.35	5245.78
945.657	5209.85
945.963	5229.51
946.269	5158.32
946.575	5192.22
946.881	5131.21
947.187	5099.34
947.493	5060.7
947.799	4998.78
948.105	4984.77
948.41	4970.76
948.716	4964.43
949.022	4893.7
949.327	4893.7
949.633	4836.75
949.938	4852.12
950.244	4826.36
950.549	4775.28
950.854	4773.02
951.16	4748.39
951.465	4724.66
951.77	4711.56
952.075	4679.02
952.38	4739.13
952.685	4649.64
952.99	4634.5
953.294	4622.07
953.599	4636.76
953.904	4573.93
954.209	4538.91
954.513	4521.73
954.818	4514.27
955.122	4482.86
955.426	4514.5
955.731	4450.55
956.035	4428.85
956.339	4452.35
956.643	4405.12
956.948	4387.5
957.252	4403.32
957.556	4349.53
957.86	4319.93
958.163	4359.48
958.467	4316.09
958.771	4290.55
959.075	4328.29
959.378	4232.93
959.682	4272.47
959.985	4248.74
960.289	4235.41
960.592	4243.77
960.896	4190.44
961.199	4132.36
961.502	4175.98
961.805	4160.16
962.108	4160.61
962.411	4118.13
962.714	4115.64
963.017	4087.62
963.32	4045.13
963.623	4068.18
963.926	4034.74
964.228	4013.27
964.531	4041.52
964.833	3954.97
965.136	3959.49
965.438	3981.18
965.741	3932.82
966.043	3920.17
966.345	3919.26
966.648	3870.45
966.95	3862.09
967.252	3844.46
967.554	3838.36
967.856	3802.2
968.158	3801.3
968.46	3761.98
968.761	3751.36
969.063	3767.4
969.365	3724.24
969.666	3676.33
969.968	3679.04
970.269	3663.45
970.571	3632.26
970.872	3674.52
971.174	3560.4
971.475	3564.69
971.776	3548.65
972.077	3526.28
972.378	3540.97
972.679	3493.06
972.98	3477.24
973.281	3497.58
973.582	3466.62
973.883	3482.44
974.183	3379.16
974.484	3429.1
974.785	3378.48
975.085	3363.34
975.386	3371.71
975.686	3328.09
975.986	3307.53
976.287	3303.23
976.587	3288.54
976.887	3278.15
977.187	3257.81
977.487	3235.44
977.787	3194.31
978.087	3234.31
978.387	3196.34
978.687	3176
978.987	3174.65
979.286	3172.16
979.586	3165.16
979.885	3166.74
980.185	3147.53
980.484	3107.31
980.784	3108.44
981.083	3072.73
981.382	3107.98
981.682	3074.09
981.981	3095.78
982.28	3056.23
982.579	3026.4
982.878	3000.19
983.177	3018.27
983.475	2974.2
983.774	2985.73
984.073	2993.41
984.372	2950.02
984.67	2958.83
984.969	2979.4
985.267	2939.17
985.566	2931.26
985.864	2917.03
986.162	2915.45
986.461	2930.13
986.759	2901.21
987.057	2854.43
987.355	2847.65
987.653	2824.37
987.951	2850.59
988.249	2825.96
988.547	2825.96
988.844	2801.78
989.142	2785.05
989.44	2769.24
989.737	2759.52
990.035	2753.87
990.332	2722
990.63	2701.67
990.927	2676.13
991.224	2711.84
991.521	2703.47
991.819	2638.39
992.116	2636.13
992.413	2663.7
992.71	2599.3
993.006	2595.23
993.303	2579.18
993.6	2582.8
993.897	2578.51
994.193	2577.38
994.49	2547.32
994.787	2522.24
995.083	2507.55
995.379	2482.01
995.676	2491.73
995.972	2452.41
996.268	2465.97
996.565	2397.95
996.861	2432.52
997.157	2412.41
997.453	2408.79
997.749	2376.93
998.044	2368.57
998.34	2375.57
998.636	2327.66
998.932	2355.46
999.227	2301.9
999.523	2318.63
999.818	2284.95
1000.114	2289.25
1000.409	2284.05
1000.704	2246.09
1001	2236.82
1001.295	2261.68
1001.59	2261.68
1001.885	2208.8
1002.18	2195.69
1002.475	2192.3
1002.77	2188.01
1003.065	2180.78
1003.359	2169.25
1003.654	2165.41
1003.949	2155.69
1004.243	2114.56
1004.538	2092.87
1004.832	2094
1005.127	2106.88
1005.421	2085.64
1005.715	2100.1
1006.009	2062.14
1006.304	2070.72
1006.598	2040.89
1006.892	2034.79
1007.186	1969.48
1007.48	2016.49
1007.773	2025.3
1008.067	2001.8
1008.361	1978.52
1008.655	1957.28
1008.948	1959.31
1009.242	1936.94
1009.535	1940.1
1009.829	1927.45
1010.122	1911.63
1010.415	1907.79
1010.708	1885.42
1011.001	1912.76
1011.295	1880.67
1011.588	1868.24
1011.881	1850.62
1012.173	1842.25
1012.466	1832.54
1012.759	1855.59
1013.052	1799.54
1013.344	1812.42
1013.637	1774.68
1013.93	1775.14
1014.222	1762.03
1014.514	1740.11
1014.807	1748.47
1015.099	1739.21
1015.391	1732.2
1015.683	1719.55
1015.976	1714.12
1016.268	1687.68
1016.56	1689.26
1016.851	1678.64
1017.143	1701.01
1017.435	1635.71
1017.727	1616.05
1018.018	1656.72
1018.31	1590.51
1018.602	1596.16
1018.893	1599.32
1019.185	1590.28
1019.476	1581.02
1019.767	1585.54
1020.058	1564.52
1020.35	1531.98
1020.641	1546.22
1020.932	1489.72
1021.223	1484.52
1021.514	1503.73
1021.804	1496.05
1022.095	1476.39
1022.386	1459.89
1022.677	1440.46
1022.967	1461.47
1023.258	1429.61
1023.548	1412.89
1023.839	1425.09
1024.129	1427.35
1024.419	1408.14
1024.709	1380.12
1025	1371.53
1025.29	1353.91
1025.58	1362.72
1025.87	1375.83
1026.16	1336.05
1026.449	1307.8
1026.739	1312.1
1027.029	1334.92
1027.319	1299.44
1027.608	1290.63
1027.898	1299.67
1028.187	1279.78
1028.477	1257.64
1028.766	1264.42
1029.055	1278.43
1029.344	1253.57
1029.634	1231.87
1029.923	1211.54
1030.212	1227.13
1030.501	1218.77
1030.79	1221.71
1031.078	1219.45
1031.367	1185.1
1031.656	1178.54
1031.945	1209.5
1032.233	1185.55
1032.522	1198.65
1032.81	1162.95
1033.099	1145.1
1033.387	1185.1
1033.675	1144.42
1033.963	1124.53
1034.251	1096.28
1034.54	1107.81
1034.828	1135.15
1035.116	1104.42
1035.403	1087.25
1035.691	1080.92
1035.979	1089.05
1036.267	1078.66
1036.554	1062.16
1036.842	1054.25
1037.129	1074.82
1037.417	1065.1
1037.704	1052.22
1037.992	1035.04
1038.279	1026.68
1038.566	1036.17
1038.853	1036.17
1039.14	1036.17
