Data from red_shiny_book_FLMS001491_00069.txt Node
Date: Wed Feb 08 15:25:14 GMT 2017
User: dcchb
Spectrometer: FLMS00149
Trigger mode: 0
Integration Time (sec): 2.000000E-2
Scans to average: 10
Electric dark correction enabled: true
Nonlinearity correction enabled: false
Boxcar width: 0
XAxis mode: Wavelengths
Number of Pixels in Spectrum: 2048
>>>>>Begin Spectral Data<<<<<
341.393	-9.56
341.776	-9.56
342.16	-9.56
342.543	-60.63
342.927	-71.71
343.31	-73.29
343.693	-69.45
344.077	-43.01
344.46	-53.85
344.843	-42.1
345.226	-37.81
345.61	-21.54
345.993	-24.25
346.376	-5.27
346.759	-15.44
347.142	41.06
347.525	40.15
347.908	51.68
348.291	64.56
348.674	81.74
349.057	106.82
349.44	92.81
349.823	144.56
350.206	149.76
350.588	165.35
350.971	205.57
351.354	209.87
351.737	221.39
352.119	231.11
352.502	273.14
352.884	278.79
353.267	281.73
353.65	303.88
354.032	290.32
354.414	313.37
354.797	304.55
355.179	329.64
355.562	321.5
355.944	337.32
356.326	331.9
356.709	347.04
357.091	338.9
357.473	339.36
357.855	342.29
358.238	334.84
358.62	318.57
359.002	350.88
359.384	352.01
359.766	356.08
360.148	342.97
360.53	340.49
360.912	336.64
361.294	339.81
361.676	336.64
362.057	335.74
362.439	343.65
362.821	336.19
363.203	322.86
363.584	317.21
363.966	321.28
364.348	317.89
364.729	319.02
365.111	304.33
365.493	323.76
365.874	323.76
366.256	327.38
366.637	311.33
367.019	332.58
367.4	309.53
367.781	291
368.163	321.73
368.544	318.79
368.925	316.08
369.306	304.55
369.688	308.62
370.069	300.71
370.45	299.13
370.831	304.78
371.212	299.58
371.593	323.76
371.974	305.23
372.355	307.72
372.736	329.86
373.117	306.81
373.498	317.89
373.879	326.25
374.26	328.28
374.641	315.4
375.021	307.04
375.402	317.89
375.783	301.62
376.163	323.99
376.544	314.05
376.925	299.36
377.305	301.62
377.686	325.8
378.066	299.81
378.447	316.31
378.827	316.31
379.208	319.69
379.588	316.08
379.968	326.02
380.349	338.9
380.729	314.05
381.109	330.09
381.489	334.16
381.87	342.75
382.25	319.02
382.63	314.72
383.01	335.06
383.39	353.14
383.77	326.7
384.15	344.1
384.53	334.61
384.91	307.49
385.29	347.04
385.67	342.75
386.049	329.86
386.429	337.1
386.809	345.91
387.189	330.77
387.568	328.51
387.948	338.68
388.328	312.46
388.707	336.42
389.087	333.71
389.466	323.08
389.846	363.54
390.225	342.75
390.605	341.39
390.984	347.94
391.363	343.88
391.743	334.16
392.122	348.17
392.501	365.57
392.881	323.99
393.26	362.18
393.639	365.8
394.018	339.81
394.397	347.72
394.776	367.83
395.155	370.09
395.534	354.72
395.913	336.64
396.292	355.17
396.671	382.52
397.05	327.83
397.429	366.02
397.808	366.25
398.186	386.81
398.565	356.98
398.944	380.71
399.323	370.77
399.701	373.48
400.08	361.05
400.458	372.12
400.837	377.77
401.215	369.86
401.594	372.35
401.972	376.64
402.351	356.53
402.729	397.21
403.107	372.57
403.486	373.7
403.864	377.09
404.242	374.16
404.62	381.84
404.999	385.68
405.377	390.2
405.755	364.67
406.133	392.24
406.511	382.07
406.889	385
407.267	400.82
407.645	383.42
408.023	396.08
408.401	406.02
408.779	404.44
409.156	406.92
409.534	398.34
409.912	409.18
410.29	394.27
410.667	428.62
411.045	399.47
411.422	432.46
411.8	403.99
412.178	426.81
412.555	443.99
412.933	408.96
413.31	418.45
413.687	428.17
414.065	432.91
414.442	433.14
414.819	435.17
415.197	427.94
415.574	436.53
415.951	449.64
416.328	428.62
416.705	465.23
417.082	458.45
417.46	456.41
417.837	473.14
418.214	488.73
418.591	450.54
418.967	460.48
419.344	485.11
419.721	495.06
420.098	488.28
420.475	485.57
420.852	482.85
421.228	460.93
421.605	476.08
421.982	471.78
422.358	510.2
422.735	476.53
423.111	493.7
423.488	514.72
423.864	511.78
424.241	503.42
424.617	505.9
424.994	502.74
425.37	525.79
425.746	478.33
426.123	505.45
426.499	510.2
426.875	515.62
427.251	519.69
427.627	540.93
428.003	529.41
428.379	545.68
428.756	545.9
429.132	549.07
429.507	525.34
429.883	529.18
430.259	542.06
430.635	517.88
431.011	523.76
431.387	545.23
431.763	556.3
432.138	566.24
432.514	554.72
432.89	572.8
433.265	570.31
433.641	592.68
434.016	568.05
434.392	579.35
434.767	578.22
435.143	566.92
435.518	587.71
435.894	593.81
436.269	608.05
436.644	603.53
437.02	607.37
437.395	614.83
437.77	606.47
438.145	626.81
438.52	614.38
438.895	616.64
439.271	623.64
439.646	633.59
440.021	617.31
440.395	619.12
440.77	622.29
441.145	626.58
441.52	638.1
441.895	639.91
442.27	620.25
442.645	653.92
443.019	666.58
443.394	663.19
443.769	667.71
444.143	637.43
444.518	645.34
444.892	656.18
445.267	633.13
445.641	662.51
446.016	695.28
446.39	653.02
446.764	678.78
447.139	690.31
447.513	678.33
447.887	667.71
448.262	683.98
448.636	678.33
449.01	684.21
449.384	676.75
449.758	689.63
450.132	706.35
450.506	673.36
450.88	687.37
451.254	686.47
451.628	712.68
452.002	730.08
452.376	742.73
452.75	716.07
453.123	720.59
453.497	708.84
453.871	734.83
454.244	702.96
454.618	725.33
454.992	711.32
455.365	717.65
455.739	741.15
456.112	726.46
456.486	720.36
456.859	780.47
457.232	740.93
457.606	751.1
457.979	764.2
458.352	737.99
458.725	757.65
459.099	738.44
459.472	751.1
459.845	757.88
460.218	746.35
460.591	771.21
460.964	744.54
461.337	765.11
461.71	803.98
462.083	802.85
462.456	798.55
462.829	782.06
463.201	799.91
463.574	792.9
463.947	778.21
464.32	788.84
464.692	771.89
465.065	797.2
465.438	789.97
465.81	799.46
466.183	829.29
466.555	825.9
466.928	844.43
467.3	829.74
467.672	866.8
468.045	869.74
468.417	838.1
468.789	856.63
469.161	855.27
469.534	862.51
469.906	840.81
470.278	868.61
470.65	872.67
471.022	896.85
471.394	888.27
471.766	910.87
472.138	923.52
472.51	934.37
472.882	942.05
473.253	969.85
473.625	953.35
473.997	954.03
474.369	964.88
474.74	980.47
475.112	953.35
475.484	962.62
475.855	966.91
476.227	959
476.598	1007.13
476.97	1030.18
477.341	1033.57
477.713	1019.56
478.084	1065.66
478.455	1068.15
478.827	1087.58
479.198	1135.27
479.569	1114.25
479.94	1106.57
480.311	1108.15
480.682	1103.63
481.053	1122.16
481.424	1120.58
481.795	1128.94
482.166	1146.34
482.537	1174.14
482.908	1238.31
483.279	1249.39
483.65	1267.24
484.021	1275.38
484.391	1332.1
484.762	1291.87
485.133	1303.4
485.503	1314.7
485.874	1317.18
486.244	1311.31
486.615	1304.98
486.985	1335.71
487.356	1348.59
487.726	1375.71
488.097	1403.28
488.467	1430.85
488.837	1451.87
489.207	1517.4
489.578	1491.64
489.948	1514.47
490.318	1563.05
490.688	1590.62
491.058	1584.97
491.428	1584.97
491.798	1564.63
492.168	1564.63
492.538	1558.31
492.908	1581.13
493.278	1593.56
493.648	1605.99
494.017	1621.13
494.387	1668.36
494.757	1685.53
495.126	1736.83
495.496	1740.22
495.866	1743.39
496.235	1795.81
496.605	1782.48
496.974	1796.72
497.344	1781.8
497.713	1778.64
498.082	1755.14
498.452	1758.98
498.821	1750.39
499.19	1763.5
499.559	1813.44
499.928	1779.09
500.298	1781.13
500.667	1861.58
501.036	1833.33
501.405	1893.21
501.774	1886.21
502.143	1890.28
502.512	1927.79
502.88	1951.52
503.249	1910.84
503.618	1923.95
503.987	1877.39
504.356	1852.76
504.724	1881.69
505.093	1853.44
505.462	1834.91
505.83	1853.67
506.199	1881.01
506.567	1916.94
506.936	1922.82
507.304	1957.17
507.672	1953.1
508.041	1982.48
508.409	1983.15
508.777	2024.96
509.145	2003.04
509.514	1995.36
509.882	1965.3
510.25	1962.36
510.618	1935.02
510.986	1932.31
511.354	1939.09
511.722	1892.53
512.09	1932.08
512.458	1902.93
512.826	1929.6
513.193	1936.15
513.561	1996.94
513.929	1983.61
514.297	2039.2
514.664	2054.79
515.032	2056.37
515.4	2068.8
515.767	2067.67
516.135	2035.13
516.502	2019.09
516.869	2052.3
517.237	1981.57
517.604	1958.75
517.972	1955.13
518.339	1910.39
518.706	1925.98
519.073	1961.01
519.44	1951.29
519.808	1956.04
520.175	1971.63
520.542	2008.92
520.909	2053.66
521.276	2070.38
521.643	2073.1
522.009	2081.91
522.376	2072.19
522.743	2083.04
523.11	2064.06
523.477	2040.33
523.843	2041.68
524.21	2044.17
524.577	2011.18
524.943	2018.86
525.31	1964.85
525.676	1989.71
526.043	2027.45
526.409	2052.08
526.776	2078.29
527.142	2134.11
527.508	2119.87
527.874	2191.74
528.241	2213.88
528.607	2210.72
528.973	2285.97
529.339	2251.4
529.705	2272.86
530.071	2253.2
530.437	2253.88
530.803	2238.51
531.169	2194.9
531.535	2192.19
531.901	2156.93
532.267	2182.47
532.632	2182.24
532.998	2200.32
533.364	2279.42
533.73	2272.19
534.095	2329.81
534.461	2381.34
534.826	2415.23
535.192	2468.57
535.557	2478.96
535.923	2469.92
536.288	2537.49
536.653	2544.95
537.019	2503.14
537.384	2488.9
537.749	2468.34
538.114	2453.88
538.479	2434.89
538.845	2409.81
539.21	2398.51
539.575	2426.31
539.94	2419.53
540.305	2491.39
540.67	2495.68
541.034	2524.61
541.399	2597.6
541.764	2652.97
542.129	2684.83
542.494	2714.66
542.858	2722.8
543.223	2727.99
543.587	2792.62
543.952	2765.96
544.316	2781.55
544.681	2751.04
545.045	2702.46
545.41	2710.14
545.774	2686.19
546.138	2686.86
546.503	2697.03
546.867	2672.18
547.231	2675.34
547.595	2694.55
547.959	2700.2
548.324	2731.83
548.688	2786.97
549.052	2802.79
549.416	2822.45
549.779	2887.09
550.143	2885.05
550.507	2932.73
550.871	2919.85
551.235	2923.02
551.599	2892.28
551.962	2876.92
552.326	2868.33
552.689	2843.7
553.053	2780.65
553.417	2760.99
553.78	2721.44
554.143	2732.74
554.507	2719.86
554.87	2681.89
555.234	2708.78
555.597	2732.29
555.96	2767.31
556.323	2780.87
556.686	2824.49
557.05	2873.53
557.413	2914.43
557.776	2961.43
558.139	2962.56
558.502	2991.94
558.865	2961.89
559.228	2977.03
559.59	2956.46
559.953	2918.27
560.316	2933.64
560.679	2887.76
561.041	2849.57
561.404	2802.34
561.767	2816.35
562.129	2767.77
562.492	2796.69
562.854	2795.56
563.217	2779.52
563.579	2817.26
563.941	2840.53
564.304	2919.4
564.666	2993.75
565.028	2980.64
565.39	3067.65
565.753	3084.59
566.115	3109.45
566.477	3106.51
566.839	3094.99
567.201	3145.61
567.563	3109.68
567.925	3093.86
568.287	3084.14
568.648	3006.86
569.01	2974.77
569.372	2981.32
569.734	3009.12
570.095	2935.45
570.457	2936.58
570.819	2966.63
571.18	2996.46
571.542	3040.08
571.903	3073.07
572.265	3124.59
572.626	3208.21
572.987	3220.18
573.349	3261.31
573.71	3383.34
574.071	3398.71
574.432	3443.45
574.794	3494.53
575.155	3555.99
575.516	3551.02
575.877	3581.53
576.238	3595.32
576.599	3635.77
576.96	3628.53
577.32	3644.35
577.681	3677.57
578.042	3733.16
578.403	3718.7
578.763	3774.29
579.124	3900.39
579.485	4017.45
579.845	4108.97
580.206	4240.04
580.566	4411.56
580.927	4558.68
581.287	4738.11
581.648	4942.4
582.008	5167.25
582.368	5358.88
582.728	5526.56
583.089	5741.25
583.449	5984.4
583.809	6189.37
584.169	6418.74
584.529	6506.65
584.889	6860.77
585.249	6955
585.609	7213.98
585.969	7523.12
586.329	7706.62
586.688	8040.4
587.048	8340.95
587.408	8605.35
587.768	8945
588.127	9330.08
588.487	9621.82
588.846	10084.64
589.206	10381.13
589.565	10778.63
589.925	11264.04
590.284	11687.08
590.643	12262.43
591.003	12573.61
591.362	13136.76
591.721	13470.54
592.08	13893.35
592.44	14417.86
592.799	14785.76
593.158	15188
593.517	15571.05
593.876	16040.41
594.235	16347.07
594.593	16818.7
594.952	17102.08
595.311	17467.27
595.67	17973.02
596.029	18478.77
596.387	18817.97
596.746	19308.12
597.104	19579.75
597.463	20042.11
597.822	20645.04
598.18	21072.6
598.538	21434.39
598.897	22084.09
599.255	22372
599.613	23039.32
599.972	23357.51
600.33	23851.73
600.688	24208.56
601.046	24807.64
601.404	25212.15
601.762	25518.81
602.12	26000.38
602.478	26452.34
602.836	26636.97
603.194	26947.7
603.552	27182.94
603.91	27474.46
604.268	27894.11
604.625	28028.12
604.983	28494.55
605.341	28672.4
605.698	29129.11
606.056	29415.2
606.413	29690.22
606.771	30128.4
607.128	30546.92
607.485	30697.88
607.843	31135.16
608.2	31471.64
608.557	31813.78
608.914	31984.85
609.272	32456.03
609.629	32940.53
609.986	33213.52
610.343	33255.55
610.7	33735.09
611.057	33919.94
611.414	34183.21
611.771	34344.79
612.127	34641.73
612.484	34689.19
612.841	34947.71
613.198	35016.41
613.554	35081.49
613.911	35516.74
614.267	35534.81
614.624	35609.39
614.98	35777.07
615.337	36236.94
615.693	36151.52
616.05	36316.26
616.406	36742.01
616.762	36763.26
617.118	36900.65
617.475	37119.41
617.831	37341.55
618.187	37659.96
618.543	37765.26
618.899	38004.81
619.255	38108.08
619.611	38467.17
619.967	38515.53
620.323	38675.75
620.678	38680.95
621.034	38756.42
621.39	38713.04
621.746	38717.1
622.101	39268.95
622.457	38913.26
622.812	38973.82
623.168	39204.55
623.523	39182.85
623.879	39287.03
624.234	39192.8
624.589	39304.43
624.945	39333.13
625.3	39521.6
625.655	39380.36
626.01	39556.4
626.365	39687.47
626.72	39645.67
627.075	39690.86
627.43	39887.24
627.785	39787.81
628.14	40105.54
628.495	40170.62
628.85	40038.2
629.205	40174.92
629.559	40438.19
629.914	40288.14
630.269	40438.64
630.623	40324.29
630.978	40357.96
631.332	40504.85
631.687	40550.73
632.041	40276.38
632.396	40382.14
632.75	40265.54
633.104	40287.46
633.459	39974.47
633.813	39989.39
634.167	40061.7
634.521	39993.45
634.875	39981.48
635.229	39851.99
635.583	39790.75
635.937	39937.18
636.291	39725.44
636.645	39958.2
636.999	39866.68
637.352	40113.68
637.706	39813.57
638.06	40202.04
638.413	40083.4
638.767	40008.59
639.121	40113.45
639.474	39879.11
639.828	39947.58
640.181	40089.04
640.534	40128.14
640.888	39994.58
641.241	39884.08
641.594	39886.79
641.947	40131.98
642.301	39855.6
642.654	39869.39
643.007	39787.81
643.36	39654.25
643.713	39580.36
644.066	39728.15
644.419	39418.33
644.771	39028.96
645.124	38685.92
645.477	38622.64
645.83	38372.25
646.182	38161.64
646.535	38219.72
646.888	38368.19
647.24	38122.32
647.593	38434.63
647.945	38343.33
648.298	38272.37
648.65	38317.57
649.002	38204.8
649.355	38379.94
649.707	38318.02
650.059	38485.7
650.411	38970.43
650.763	38975.4
651.115	39327.93
651.467	39290.42
651.819	39185.79
652.171	38972.46
652.523	38929.08
652.875	38944.44
653.227	38723.2
653.578	39003.65
653.93	38816.08
654.282	38653.6
654.633	38404.34
654.985	38523.66
655.337	38573.15
655.688	38478.92
656.039	38670.1
656.391	38254.74
656.742	38270.79
657.094	38402.99
657.445	38485.7
657.796	38453.38
658.147	38306.94
658.498	38340.39
658.849	38421.74
659.2	38489.31
659.551	38305.14
659.902	38646.37
660.253	38544.23
660.604	38613.15
660.955	38463.78
661.306	38649.76
661.656	38613.6
662.007	38586.03
662.358	38494.28
662.708	38617.67
663.059	38458.58
663.409	38292.71
663.76	38416.55
664.11	38471.91
664.461	38414.51
664.811	38368.64
665.161	38219.49
665.511	38083
665.862	38068.31
666.212	38128.42
666.562	38150.34
666.912	37925.49
667.262	37973.17
667.612	38013.39
667.962	37878.48
668.312	37809.33
668.662	37986.28
669.011	37904.24
669.361	37970.46
669.711	37977.91
670.06	37927.97
670.41	37753.51
670.76	37778.37
671.109	38004.35
671.459	37910.35
671.808	37879.39
672.157	38061.98
672.507	37926.16
672.856	37900.63
673.205	38014.07
673.554	38002.32
673.904	37990.57
674.253	38082.54
674.602	37888.65
674.951	37389
675.3	37220.19
675.649	37768.88
675.998	37718.49
676.346	37681.2
676.695	37613.4
677.044	37310.36
677.393	37365.5
677.741	37428.78
678.09	37143.81
678.438	37146.75
678.787	37212.96
679.135	37173.19
679.484	36984.95
679.832	37007.09
680.181	36873.54
680.529	36987.43
680.877	36793.54
681.225	36953.31
681.573	37150.59
681.922	36765.74
682.27	36786.98
682.618	36839.19
682.966	36984.72
683.314	36928.68
683.661	36871.28
684.009	36748.34
684.357	36546.77
684.705	36670.15
685.053	36740.88
685.4	36702.92
685.748	36576.37
686.095	36554.45
686.443	36452.08
686.79	36217.73
687.138	36379.09
687.485	36232.87
687.832	36039.66
688.18	35915.14
688.527	35876.73
688.874	35803.96
689.221	35613
689.568	35451.88
689.915	35279.91
690.262	35410.52
690.609	35296.85
690.956	35143.19
691.303	35127.14
691.65	34851.44
691.997	34990.65
692.344	34631.34
692.69	34815.06
693.037	34773.93
693.383	34586.82
693.73	34620.26
694.077	34427.95
694.423	34517.67
694.769	34394.96
695.116	34416.65
695.462	34384.56
695.808	34255.07
696.155	34366.48
696.501	34175.53
696.847	34179.6
697.193	33909.09
697.539	34086.94
697.885	33842.66
698.231	33727.86
698.577	33660.29
698.923	33577.8
699.269	33512.49
699.614	33166.29
699.96	33114.99
700.306	33063.24
700.651	32831.83
700.997	32785.73
701.342	32825.73
701.688	32629.81
702.033	32476.36
702.379	32369.93
702.724	32412.64
703.069	32489.24
703.415	31945.08
703.76	31919.54
704.105	32092.87
704.45	31885.64
704.795	31867.57
705.14	31711.64
705.485	31749.38
705.83	31671.86
706.175	31730.62
706.52	31551.64
706.865	31508.93
707.209	31578.31
707.554	31421.02
707.899	31532.21
708.243	31405.21
708.588	31353
708.932	31279.78
709.277	31112.78
709.621	31235.04
709.966	30939.45
710.31	31028.04
710.654	30804.77
710.998	30738.56
711.342	30928.83
711.687	30737.2
712.031	30526.81
712.375	30379.7
712.719	30534.04
713.063	30281.39
713.407	30409.53
713.75	30165.92
714.094	30104.67
714.438	29961.4
714.782	29846.83
715.125	29793.95
715.469	29839.82
715.812	29610.9
716.156	29511.7
716.499	29562.77
716.843	29465.82
717.186	29338.37
717.53	29519.61
717.873	29430.34
718.216	29324.36
718.559	29248.65
718.902	29110.8
719.246	29362.55
719.589	29283.91
719.932	29122.33
720.275	29202.55
720.617	29037.81
720.96	29099.73
721.303	29080.52
721.646	29075.32
721.989	28961.65
722.331	28996.23
722.674	29008.66
723.016	28898.6
723.359	28840.3
723.701	28933.63
724.044	28744.03
724.386	28495.9
724.729	28650.7
725.071	28527.77
725.413	28501.55
725.755	28403.25
726.097	28387.21
726.439	28130.26
726.782	28097.04
727.124	28192.18
727.465	28072.19
727.807	27744.74
728.149	27819.99
728.491	27815.24
728.833	27864.51
729.175	27737.05
729.516	27670.39
729.858	27559.66
730.199	27565.08
730.541	27461.13
730.882	27496.16
731.224	27544.06
731.565	27361.92
731.906	27410.73
732.248	27345.2
732.589	27380.23
732.93	27264.07
733.271	27327.8
733.612	27281.02
733.953	27279.44
734.294	27223.85
734.635	27288.48
734.976	27401.92
735.317	27263.17
735.658	27254.13
735.999	27267.24
736.339	27174.36
736.68	27233.79
737.021	27065.21
737.361	26938.66
737.702	27121.25
738.042	26964.19
738.383	26939.11
738.723	27010.97
739.063	26792.22
739.404	26785.21
739.744	26768.04
740.084	26597.87
740.424	26606.91
740.764	26592.45
741.104	26563.07
741.444	26346.81
741.784	26347.71
742.124	26356.98
742.464	26246.02
742.804	26144.78
743.143	26118.56
743.483	26072.01
743.823	25886.48
744.162	25803.54
744.502	25948.63
744.841	25833.15
745.181	25839.7
745.52	25709.31
745.86	26001.05
746.199	25760.61
746.538	25801.51
746.877	25805.58
747.216	25872.92
747.556	25751.57
747.895	25758.12
748.234	25604.91
748.573	25679.71
748.911	25696.2
749.25	25683.1
749.589	25518.81
749.928	25621.4
750.267	25626.83
750.605	25466.6
750.944	25512.48
751.283	25340.51
751.621	25465.93
751.96	25215.09
752.298	25209.66
752.636	25197.46
752.975	25078.37
753.313	24991.59
753.651	24883.34
753.989	24801.09
754.327	24895.77
754.666	24525.61
755.004	24600.64
755.342	24689.45
755.679	24552.96
756.017	24461.66
756.355	24420.08
756.693	24181.44
757.031	24324.71
757.368	24104.38
757.706	24009.47
758.044	23869.81
758.381	24127.2
758.719	23854.44
759.056	23881.11
759.394	23740.77
759.731	23656.03
760.068	23649.93
760.405	23658.74
760.743	23573.32
761.08	23575.81
761.417	23505.98
761.754	23479.09
762.091	23427.34
762.428	23337.85
762.765	23229.83
763.102	23292.2
763.438	23185.53
763.775	23123.39
764.112	23074.58
764.449	23178.08
764.785	23040.45
765.122	23014.24
765.458	22935.6
765.795	22749.84
766.131	22851.76
766.467	22714.36
766.804	22571.54
767.14	22480.24
767.476	22457.87
767.812	22396.4
768.148	22435.05
768.485	22186.46
768.821	21980.37
769.157	22042.51
769.492	22009.97
769.828	21896.75
770.164	21581.06
770.5	21618.34
770.836	21588.51
771.171	21376.32
771.507	21471.68
771.842	21191.91
772.178	21151.69
772.513	21117.34
772.849	20941.53
773.184	20948.08
773.519	20933.84
773.855	20839.83
774.19	20680.29
774.525	20633.06
774.86	20587.64
775.195	20616.11
775.53	20532.27
775.865	20381.54
776.2	20353.52
776.535	20138.83
776.87	20186.29
777.205	20144.03
777.539	20093.41
777.874	20100.87
778.209	19959.18
778.543	19895
778.878	19916.02
779.212	19945.85
779.547	19779.3
779.881	19843.48
780.215	19621.56
780.55	19704.95
780.884	19503.15
781.218	19512.18
781.552	19422.02
781.886	19353.77
782.22	19334.11
782.554	19138.86
782.888	19028.13
783.222	18916.04
783.556	18975.25
783.889	18877.85
784.223	18677.86
784.557	18643.73
784.89	18678.08
785.224	18460.91
785.557	18481.25
785.891	18326.68
786.224	18174.82
786.558	18266.79
786.891	18011.21
787.224	17948.61
787.557	17962.62
787.891	17855.05
788.224	17850.31
788.557	17875.17
788.89	17713.36
789.223	17686.92
789.556	17605.79
789.888	17488.51
790.221	17563.99
790.554	17343.2
790.887	17341.39
791.219	17272.47
791.552	17334.61
791.884	17251.68
792.217	17170.1
792.549	17229.76
792.882	16911.8
793.214	16933.5
793.546	17057.11
793.879	16866.15
794.211	16751.13
794.543	16841.75
794.875	16897.11
795.207	16956.55
795.539	16697.12
795.871	16807.85
796.203	16665.03
796.535	16458.48
796.867	16525.6
797.198	16506.39
797.53	16470
797.862	16398.59
798.193	16339.16
798.525	16322.21
798.856	16282.44
799.188	16013.75
799.519	16061.65
799.85	16045.61
800.182	15896.46
800.513	15884.94
800.844	15725.17
801.175	15818.27
801.506	15732.17
801.837	15734.43
802.168	15606.98
802.499	15577.6
802.83	15334.67
803.161	15397.72
803.491	15435.46
803.822	15279.08
804.153	15271.17
804.483	15195.46
804.814	15095.35
805.145	15074.79
805.475	15030.49
805.805	14974.9
806.136	14980.33
806.466	14989.82
806.796	14942.59
807.126	14741.24
807.457	14832.76
807.787	14738.52
808.117	14681.13
808.447	14756.6
808.777	14828.01
809.107	14742.82
809.436	14628.92
809.766	14572.2
810.096	14595.03
810.426	14604.29
810.755	14550.28
811.085	14561.81
811.414	14509.83
811.744	14470.06
812.073	14431.87
812.403	14413.79
812.732	14309.61
813.061	14337.41
813.39	14312.77
813.719	14202.49
814.049	14317.07
814.378	14191.65
814.707	14185.55
815.036	14062.61
815.365	13990.07
815.693	13942.39
816.022	13921.82
816.351	13825.78
816.68	13709.17
817.008	13778.1
817.337	13652
817.665	13688.83
817.994	13723.64
818.322	13656.75
818.651	13617.2
818.979	13571.78
819.307	13518.44
819.636	13480.93
819.964	13435.51
820.292	13397.54
820.62	13452.01
820.948	13342.86
821.276	13412.01
821.604	13278.68
821.932	13281.16
822.259	13345.57
822.587	13297.21
822.915	13226.7
823.243	13270.31
823.57	13339.47
823.898	13341.5
824.225	13240.26
824.553	13267.6
824.88	13312.12
825.207	13338.11
825.535	13358
825.862	13386.92
826.189	13248.39
826.516	13345.12
826.843	13419.92
827.17	13332.23
827.497	13439.8
827.824	13404.32
828.151	13361.39
828.478	13358.22
828.805	13423.53
829.131	13350.76
829.458	13343.76
829.785	13376.75
830.111	13405.9
830.438	13436.19
830.764	13318.68
831.09	13409.75
831.417	13286.13
831.743	13422.85
832.069	13429.63
832.395	13318.22
832.722	13329.75
833.048	13305.57
833.374	13239.13
833.7	13198.9
834.026	13241.16
834.351	13244.55
834.677	13225.57
835.003	13227.38
835.329	13198
835.654	13185.35
835.98	13095.86
836.306	13023.54
836.631	12977.22
836.956	13118.91
837.282	12968.63
837.607	12911
837.932	12876.65
838.258	12945.8
838.583	12909.87
838.908	12892.92
839.233	12830.33
839.558	12804.56
839.883	12720.05
840.208	12792.59
840.533	12639.15
840.858	12769.99
841.182	12657
841.507	12627.85
841.832	12636.43
842.156	12621.74
842.481	12600.73
842.805	12565.47
843.13	12587.17
843.454	12574.06
843.778	12477.12
844.103	12499.94
844.427	12391.69
844.751	12503.78
845.075	12411.35
845.399	12370.45
845.723	12337.91
846.047	12357.12
846.371	12313.5
846.695	12221.08
847.019	12191.93
847.343	12161.64
847.666	12110.35
847.99	12130.46
848.313	12092.72
848.637	11959.84
848.96	11977.69
849.284	11924.14
849.607	11803.46
849.931	11819.73
850.254	11669.91
850.577	11649.34
850.9	11593.52
851.223	11622.67
851.546	11507.2
851.869	11452.74
852.192	11482.57
852.515	11365.96
852.838	11379.97
853.161	11283.7
853.483	11215.91
853.806	11184.49
854.129	11217.04
854.451	11118.73
854.774	11035.12
855.096	11039.64
855.419	10964.39
855.741	10829.48
856.063	10875.58
856.385	10794.22
856.708	10744.51
857.03	10802.13
857.352	10782.24
857.674	10710.16
857.996	10741.57
858.318	10645.3
858.64	10590.16
858.961	10571.18
859.283	10560.1
859.605	10518.3
859.926	10538.86
860.248	10476.94
860.57	10441.69
860.891	10469.94
861.212	10374.57
861.534	10439.88
861.855	10381.35
862.176	10361.01
862.498	10375.93
862.819	10324.18
863.14	10335.48
863.461	10302.26
863.782	10347.68
864.103	10319.43
864.424	10245.76
864.745	10296.16
865.065	10242.82
865.386	10193.56
865.707	10235.82
866.027	10174.58
866.348	10259.32
866.668	10244.18
866.989	10201.47
867.309	10122.15
867.63	10093.9
867.95	10201.92
868.27	10059.1
868.59	10155.14
868.91	10055.26
869.23	10001.93
869.55	10041.47
869.87	10093.9
870.19	10003.96
870.51	10055.71
870.83	9986.56
871.15	9873.79
871.469	9997.41
871.789	9944.53
872.109	9868.82
872.428	9799.67
872.748	9833.57
873.067	9787.24
873.386	9788.82
873.706	9790.18
874.025	9707.02
874.344	9703.4
874.663	9662.73
874.982	9571.66
875.301	9602.16
875.62	9610.3
875.939	9584.99
876.258	9519
876.577	9493.69
876.896	9516.74
877.214	9541.6
877.533	9462.51
877.852	9462.96
878.17	9498.44
878.489	9472.22
878.807	9403.98
879.125	9430.64
879.444	9416.4
879.762	9383.41
880.08	9329.18
880.398	9346.12
880.716	9366.01
881.034	9378.44
881.352	9278.33
881.67	9253.02
881.988	9289.85
882.306	9344.32
882.624	9236.75
882.941	9204.89
883.259	9203.3
883.577	9167.15
883.894	9220.93
884.212	9140.03
884.529	9173.47
884.846	9112.91
885.164	9149.75
885.481	9062.97
885.798	9128.05
886.115	9026.13
886.432	9080.59
886.75	9042.18
887.067	9035.85
887.383	8997.88
887.7	9064.78
888.017	8973.25
888.334	8975.06
888.651	8995.4
888.967	8916.76
889.284	8867.04
889.6	8884.67
889.917	8838.57
890.233	8797.89
890.55	8727.84
890.866	8763.77
891.182	8768.06
891.498	8758.12
891.815	8694.39
892.131	8679.25
892.447	8585.69
892.763	8549.08
893.079	8556.31
893.395	8487.39
893.71	8501.4
894.026	8468.63
894.342	8389.77
894.657	8339.6
894.973	8328.52
895.289	8378.24
895.604	8297.79
895.92	8189.09
896.235	8224.35
896.55	8189.09
896.865	8195.87
897.181	8132.14
897.496	8093.73
897.811	8046.05
898.126	8070.68
898.441	8100.06
898.756	7985.48
899.071	7995.43
899.386	7985.03
899.7	7861.64
900.015	7885.82
900.33	7801.08
900.644	7795.66
900.959	7820.74
901.273	7800.4
901.588	7726.28
901.902	7678.37
902.216	7691.7
902.531	7683.57
902.845	7625.72
903.159	7657.36
903.473	7620.75
903.787	7600.63
904.101	7569.9
904.415	7560.86
904.729	7519.51
905.042	7449.23
905.356	7460.98
905.67	7425.72
905.984	7413.75
906.297	7446.74
906.611	7381.88
906.924	7322
907.237	7319.96
907.551	7327.65
907.864	7317.25
908.177	7267.76
908.491	7260.08
908.804	7192.51
909.117	7142.57
909.43	7103.25
909.743	7086.52
910.056	7099.86
910.368	7057.37
910.681	7037.26
910.994	7010.14
911.307	6971.27
911.619	6945.96
911.932	6896.02
912.244	6778.96
912.557	6820.77
912.869	6820.77
913.181	6737.61
913.494	6771.73
913.806	6693.54
914.118	6623.26
914.43	6643.82
914.742	6609.25
915.054	6566.76
915.366	6494
915.678	6482.92
915.99	6481.11
916.302	6460.32
916.613	6446.99
916.925	6390.04
917.236	6390.95
917.548	6354.11
917.859	6393.21
918.171	6283.38
918.482	6238.86
918.794	6235.02
919.105	6164.06
919.416	6165.64
919.727	6133.33
920.038	6155.02
920.349	6158.19
920.66	6060.11
920.971	6086.55
921.282	5997.96
921.593	5985.99
921.903	5981.24
922.214	5953.45
922.525	5903.73
922.835	5901.92
923.146	5881.58
923.456	5820.12
923.767	5857.18
924.077	5858.08
924.387	5836.39
924.697	5824.41
925.008	5811.3
925.318	5754.81
925.628	5677.97
925.938	5695.6
926.248	5675.71
926.558	5664.41
926.867	5631.87
927.177	5594.13
927.487	5608.82
927.796	5549.39
928.106	5525.43
928.416	5484.08
928.725	5500.8
929.034	5431.42
929.344	5473.23
929.653	5439.56
929.962	5396.4
930.271	5382.84
930.581	5343.52
930.89	5340.81
931.199	5320.02
931.508	5322.5
931.817	5289.96
932.125	5264.2
932.434	5249.96
932.743	5209.28
933.051	5160.47
933.36	5121.15
933.669	5117.53
933.977	5138.55
934.286	5086.8
934.594	5054.49
934.902	5025.79
935.21	5019.46
935.519	4999.8
935.827	4971.55
936.135	4973.36
936.443	4884.09
936.751	4861.5
937.059	4872.12
937.367	4858.33
937.674	4830.99
937.982	4787.6
938.29	4787.83
938.597	4755.28
938.905	4706.47
939.213	4726.36
939.52	4656.3
939.827	4694.72
940.135	4645.23
940.442	4626.7
940.749	4629.64
941.056	4610.43
941.363	4570.88
941.67	4528.85
941.977	4548.06
942.284	4480.72
942.591	4492.47
942.898	4501.51
943.205	4462.18
943.511	4432.13
943.818	4385.8
944.125	4387.61
944.431	4396.42
944.738	4383.54
945.044	4374.05
945.35	4296.99
945.657	4311
945.963	4301.29
946.269	4276.43
946.575	4346.03
946.881	4228.29
947.187	4241.85
947.493	4216.77
947.799	4225.81
948.105	4184.45
948.41	4122.76
948.716	4173.83
949.022	4101.29
949.327	4149.65
949.633	4103.32
949.938	4110.56
950.244	4114.4
950.549	4054.51
950.854	4036.43
951.16	4009.32
951.465	4038.24
951.77	4007.06
952.075	4013.38
952.38	3993.72
952.685	3958.24
952.99	3917.34
953.294	3939.49
953.599	3916.44
953.904	3876.21
954.209	3849.32
954.513	3855.87
954.818	3859.26
955.122	3751.24
955.426	3811.35
955.731	3780.17
956.035	3747.4
956.339	3762.54
956.643	3779.04
956.948	3669.44
957.252	3668.53
957.556	3695.2
957.86	3659.27
958.163	3679.83
958.467	3613.39
958.771	3626.95
959.075	3583.79
959.378	3591.25
959.682	3546.28
959.985	3562.32
960.289	3525.49
960.592	3515.77
960.896	3500.63
961.199	3483.68
961.502	3501.98
961.805	3424.47
962.108	3435.09
962.411	3420.4
962.714	3356
963.017	3393.29
963.32	3395.32
963.623	3332.5
963.926	3315.1
964.228	3330.24
964.531	3318.49
964.833	3327.75
965.136	3286.17
965.438	3245.72
965.741	3233.97
966.043	3255.44
966.345	3214.08
966.648	3257.47
966.95	3194.65
967.252	3166.17
967.554	3157.59
967.856	3165.72
968.158	3131.37
968.46	3115.1
968.761	3140.86
969.063	3108.32
969.365	3108.77
969.666	3093.86
969.968	3069.45
970.269	3069.23
970.571	3065.61
970.872	3043.47
971.174	2991.49
971.475	2983.35
971.776	3007.53
972.077	3010.92
972.378	2935.22
972.679	2958.95
972.98	2967.99
973.281	2940.42
973.582	2933.41
973.883	2935.45
974.183	2915.11
974.484	2914.2
974.785	2848.67
975.085	2887.99
975.386	2854.54
975.686	2866.29
975.986	2842.79
976.287	2830.14
976.587	2807.99
976.887	2790.59
977.187	2807.31
977.487	2813.64
977.787	2762.79
978.087	2776.81
978.387	2720.08
978.687	2779.52
978.987	2722.8
979.286	2688.9
979.586	2704.04
979.885	2708.78
980.185	2636.92
980.484	2658.39
980.784	2648.9
981.083	2642.8
981.382	2610.48
981.682	2597.83
981.981	2568.9
982.28	2598.73
982.579	2620.43
982.878	2576.13
983.177	2533.2
983.475	2563.25
983.774	2495.91
984.073	2531.61
984.372	2505.4
984.67	2497.72
984.969	2453.65
985.267	2497.94
985.566	2450.26
985.864	2432.86
986.162	2425.18
986.461	2374.56
986.759	2413.88
987.057	2364.61
987.355	2358.51
987.653	2370.49
987.951	2349.7
988.249	2357.38
988.547	2328.23
988.844	2328.91
989.142	2300.43
989.44	2327.1
989.737	2257.05
990.035	2296.14
990.332	2279.42
990.63	2259.08
990.927	2268.34
991.224	2240.32
991.521	2250.04
991.819	2198.97
992.116	2235.35
992.413	2200.55
992.71	2177.05
993.006	2195.8
993.303	2170.72
993.6	2172.08
993.897	2143.83
994.193	2179.31
994.49	2092.08
994.787	2126.65
995.083	2099.99
995.379	2096.6
995.676	2102.02
995.972	2114
996.268	2082.59
996.565	2052.53
996.861	2024.96
997.157	2048.92
997.453	2067.45
997.749	2050.72
998.044	2019.76
998.34	2025.41
998.636	2025.64
998.932	2014.57
999.227	1954.45
999.523	1968.47
999.818	1943.83
1000.114	1967.34
1000.409	1955.13
1000.704	1961.46
1001	1923.04
1001.295	1922.14
1001.59	1916.04
1001.885	1904.51
1002.18	1896.15
1002.475	1856.15
1002.77	1845.3
1003.065	1842.37
1003.359	1875.13
1003.654	1841.91
1003.949	1828.58
1004.243	1840.78
1004.538	1806.66
1004.832	1833.1
1005.127	1810.28
1005.421	1801.24
1005.715	1780.67
1006.009	1778.64
1006.304	1750.62
1006.598	1765.53
1006.892	1755.59
1007.186	1735.93
1007.48	1741.35
1007.773	1708.81
1008.067	1709.04
1008.361	1662.26
1008.655	1714.91
1008.948	1662.48
1009.242	1644.63
1009.535	1651.41
1009.829	1645.99
1010.122	1631.3
1010.415	1601.47
1010.708	1570.06
1011.001	1609.83
1011.295	1574.13
1011.588	1567.57
1011.881	1567.35
1012.173	1550.62
1012.466	1580.9
1012.759	1527.57
1013.052	1542.71
1013.344	1540.68
1013.637	1520.12
1013.93	1490.29
1014.222	1511.53
1014.514	1521.02
1014.807	1461.59
1015.099	1474.92
1015.391	1455.71
1015.683	1460.68
1015.976	1467.24
1016.268	1455.48
1016.56	1450.51
1016.851	1400.8
1017.143	1423.17
1017.435	1396.73
1017.727	1394.92
1018.018	1399.89
1018.31	1374.36
1018.602	1389.27
1018.893	1377.75
1019.185	1354.92
1019.476	1333
1019.767	1326.9
1020.058	1324.41
1020.35	1340.91
1020.641	1290.97
1020.932	1291.65
1021.223	1287.35
1021.514	1280.8
1021.804	1292.78
1022.095	1267.69
1022.386	1274.47
1022.677	1284.19
1022.967	1250.29
1023.258	1247.81
1023.548	1238.54
1023.839	1218.43
1024.129	1231.99
1024.419	1221.37
1024.709	1208.71
1025	1162.61
1025.29	1175.04
1025.58	1187.69
1025.87	1192.89
1026.16	1188.82
1026.449	1184.31
1026.739	1173.01
1027.029	1164.42
1027.319	1164.87
1027.608	1167.13
1027.898	1113.8
1028.187	1120.13
1028.477	1104.76
1028.766	1107.7
1029.055	1115.38
1029.344	1088.49
1029.634	1091.43
1029.923	1073.35
1030.212	1066.79
1030.501	1070.18
1030.79	1058.43
1031.078	1039.22
1031.367	1045.55
1031.656	1049.17
1031.945	1032.9
1032.233	1034.48
1032.522	1028.38
1032.81	1029.73
1033.099	991.99
1033.387	999.23
1033.675	1013.24
1033.963	983.86
1034.251	989.73
1034.54	970.75
1034.828	965.33
1035.116	969.17
1035.403	967.36
1035.691	940.92
1035.979	960.81
1036.267	938.66
1036.554	917.87
1036.842	932.79
1037.129	894.82
1037.417	902.05
1037.704	880.13
1037.992	906.35
1038.279	920.13
1038.566	906.8
1038.853	906.8
1039.14	906.8
