Data from red_shiny_book_FLMS001491_00053.txt Node
Date: Wed Feb 08 15:25:02 GMT 2017
User: dcchb
Spectrometer: FLMS00149
Trigger mode: 0
Integration Time (sec): 2.000000E-2
Scans to average: 10
Electric dark correction enabled: true
Nonlinearity correction enabled: false
Boxcar width: 0
XAxis mode: Wavelengths
Number of Pixels in Spectrum: 2048
>>>>>Begin Spectral Data<<<<<
341.393	-5.97
341.776	-5.97
342.16	-5.97
342.543	-65.41
342.927	-73.32
343.31	-78.51
343.693	-91.62
344.077	-66.09
344.46	-62.24
344.843	-37.61
345.226	-37.39
345.61	-38.74
345.993	-7.1
346.376	-7.33
346.759	9.84
347.142	53.01
347.525	36.06
347.908	36.28
348.291	85.55
348.674	92.33
349.057	113.57
349.44	98.2
349.823	147.24
350.206	153.8
350.588	192.21
350.971	188.6
351.354	229.05
351.737	260.46
352.119	243.96
352.502	253.91
352.884	283.28
353.267	293.9
353.65	291.64
354.032	308.59
354.414	332.32
354.797	325.54
355.179	340.01
355.562	317.18
355.944	341.59
356.326	324.19
356.709	342.49
357.091	327.8
357.473	364.19
357.855	358.76
358.238	343.62
358.62	340.23
359.002	338.42
359.384	351.76
359.766	360.34
360.148	340.68
360.53	350.4
360.912	339.78
361.294	346.33
361.676	349.5
362.057	356.73
362.439	368.25
362.821	343.85
363.203	343.39
363.584	322.83
363.966	326.45
364.348	351.76
364.729	350.17
365.111	329.84
365.493	324.64
365.874	344.98
366.256	341.59
366.637	336.16
367.019	342.04
367.4	338.42
367.781	345.2
368.163	347.69
368.544	308.59
368.925	327.12
369.306	344.98
369.688	324.19
370.069	323.96
370.45	339.1
370.831	322.38
371.212	341.81
371.593	333.23
371.974	326.9
372.355	347.69
372.736	331.87
373.117	334.13
373.498	343.17
373.879	333.45
374.26	339.55
374.641	315.83
375.021	336.84
375.402	337.29
375.783	320.8
376.163	339.78
376.544	349.5
376.925	351.08
377.305	349.72
377.686	332.55
378.066	348.59
378.447	357.41
378.827	371.42
379.208	362.38
379.588	361.25
379.968	361.47
380.349	359.21
380.729	353.34
381.109	360.12
381.489	386.33
381.87	357.41
382.25	348.14
382.63	373.22
383.01	366.67
383.39	371.19
383.77	369.61
384.15	372.32
384.53	364.86
384.91	381.81
385.29	374.58
385.67	371.42
386.049	384.3
386.429	390.63
386.809	382.26
387.189	378.2
387.568	397.4
387.948	409.61
388.328	395.37
388.707	418.42
389.087	379.33
389.466	393.11
389.846	398.53
390.225	408.93
390.605	406.9
390.984	403.05
391.363	389.27
391.743	408.93
392.122	384.52
392.501	403.28
392.881	409.83
393.26	433.34
393.639	431.08
394.018	417.29
394.397	430.85
394.776	435.37
395.155	428.36
395.534	431.75
395.913	427.46
396.292	428.14
396.671	448.7
397.05	446.67
397.429	442.83
397.808	444.18
398.186	436.95
398.565	443.96
398.944	438.53
399.323	450.06
399.701	471.53
400.08	453
400.458	468.59
400.837	464.97
401.215	464.97
401.594	464.97
401.972	447.57
402.351	439.44
402.729	489.61
403.107	480.57
403.486	505.42
403.864	495.71
404.242	470.62
404.62	492.32
404.999	476.95
405.377	507.23
405.755	474.24
406.133	491.64
406.511	488.25
406.889	479.66
407.267	525.76
407.645	510.17
408.023	529.6
408.401	534.12
408.779	525.99
409.156	541.13
409.534	527.12
409.912	536.84
410.29	545.65
410.667	535.25
411.045	549.72
411.422	543.62
411.8	547.23
412.178	580.9
412.555	595.14
412.933	570.73
413.31	591.75
413.687	587.46
414.065	590.17
414.442	587.68
414.819	590.62
415.197	593.33
415.574	602.15
415.951	651.41
416.328	652.77
416.705	653.22
417.082	625.42
417.46	646.44
417.837	632.88
418.214	609.6
418.591	667
418.967	646.21
419.344	669.94
419.721	664.06
420.098	683.05
420.475	709.94
420.852	704.06
421.228	680.11
421.605	698.64
421.982	682.82
422.358	695.02
422.735	690.05
423.111	726.66
423.488	714.46
423.864	726.21
424.241	745.42
424.617	759.88
424.994	741.12
425.37	752.65
425.746	762.82
426.123	738.41
426.499	731.63
426.875	750.39
427.251	772.54
427.627	759.88
428.003	829.03
428.379	816.83
428.756	817.73
429.132	802.82
429.507	838.98
429.883	845.08
430.259	856.38
430.635	816.15
431.011	815.25
431.387	845.98
431.763	836.94
432.138	854.12
432.514	887.79
432.89	867
433.265	919.2
433.641	934.11
434.016	896.83
434.392	934.11
434.767	909.03
435.143	902.25
435.518	904.51
435.894	907.67
436.269	934.11
436.644	961.68
437.02	993.77
437.395	982.47
437.77	1013.66
438.145	1008.46
438.52	1048.24
438.895	1022.93
439.271	979.76
439.646	1027.22
440.021	1005.98
440.395	1003.26
440.77	997.62
441.145	1022.47
441.52	1072.87
441.895	1082.13
442.27	1095.01
442.645	1085.97
443.019	1107.44
443.394	1109.02
443.769	1079.87
444.143	1084.17
444.518	1099.76
444.892	1075.35
445.267	1085.3
445.641	1110.83
446.016	1099.53
446.39	1126.88
446.764	1158.06
447.139	1196.93
447.513	1189.25
447.887	1185.18
448.262	1168.91
448.636	1162.36
449.01	1168.01
449.384	1148.57
449.758	1117.16
450.132	1151.51
450.506	1171.62
450.88	1183.6
451.254	1241.9
451.628	1247.78
452.002	1259.3
452.376	1248.46
452.75	1271.05
453.123	1270.83
453.497	1249.36
453.871	1230.38
454.244	1233.09
454.618	1252.75
454.992	1267.44
455.365	1262.92
455.739	1306.99
456.112	1352.18
456.486	1353.54
456.859	1389.47
457.232	1419.07
457.606	1389.24
457.979	1372.07
458.352	1378.62
458.725	1351.73
459.099	1332.3
459.472	1349.92
459.845	1371.39
460.218	1398.06
460.591	1427.43
460.964	1430.6
461.337	1469.92
461.71	1505.4
462.083	1542.46
462.456	1578.39
462.829	1513.31
463.201	1523.48
463.574	1501.78
463.947	1499.97
464.32	1503.82
464.692	1491.61
465.065	1501.56
465.438	1545.17
465.81	1589.46
466.183	1624.04
466.555	1681.89
466.928	1717.37
467.3	1716.47
467.672	1752.4
468.045	1772.28
468.417	1733.87
468.789	1677.82
469.161	1661.33
469.534	1702.91
469.906	1686.86
470.278	1721.21
470.65	1752.62
471.022	1793.07
471.394	1839.85
471.766	1892.51
472.138	1958.49
472.51	1995.55
472.882	2038.49
473.253	2009.57
473.625	2032.16
473.997	2014.54
474.369	1960.08
474.74	1957.59
475.112	1976.35
475.484	2013.63
475.855	2036.91
476.227	2078.26
476.598	2146.06
476.97	2222.22
477.341	2353.06
477.713	2384.25
478.084	2405.26
478.455	2417.24
478.827	2417.46
479.198	2431.93
479.569	2414.07
479.94	2430.35
480.311	2371.82
480.682	2398.26
481.053	2415.2
481.424	2483.9
481.795	2532.26
482.166	2643
482.537	2717.34
482.908	2827.4
483.279	2943.33
483.65	3030.56
484.021	3021.06
484.391	3060.39
484.762	3022.65
485.133	2939.03
485.503	2954.85
485.874	2953.04
486.244	2932.25
486.615	2941.74
486.985	2995.75
487.356	3128.41
487.726	3208.86
488.097	3345.58
488.467	3420.83
488.837	3570.43
489.207	3631.67
489.578	3691.1
489.948	3706.24
490.318	3720.03
490.688	3661.05
491.058	3612.01
491.428	3560.71
491.798	3545.12
492.168	3580.6
492.538	3553.25
492.908	3636.64
493.278	3750.99
493.648	3889.74
494.017	3946.46
494.387	4115.5
494.757	4190.53
495.126	4311.88
495.496	4318.88
495.866	4341.03
496.235	4315.27
496.605	4248.83
496.974	4182.39
497.344	4116.4
497.713	4043.18
498.082	4063.75
498.452	4051.09
498.821	4148.27
499.19	4211.54
499.559	4348.04
499.928	4461.03
500.298	4592.55
500.667	4678.87
501.036	4785.09
501.405	4844.07
501.774	4778.76
502.143	4749.83
502.512	4689.72
502.88	4654.92
503.249	4522.04
503.618	4487.01
503.987	4422.84
504.356	4378.77
504.724	4400.69
505.093	4504.19
505.462	4582.83
505.83	4691.76
506.199	4860.11
506.567	5045.42
506.936	5097.39
507.304	5226.88
507.672	5229.59
508.041	5201.12
508.409	5150.95
508.777	5063.27
509.145	5046.1
509.514	4918.42
509.882	4807.91
510.25	4745.09
510.618	4746.22
510.986	4794.35
511.354	4866.67
511.722	4946.89
512.09	5117.28
512.458	5232.76
512.826	5389.14
513.193	5446.54
513.561	5560.21
513.929	5632.3
514.297	5624.84
514.664	5625.74
515.032	5534.44
515.4	5441.79
515.767	5272.3
516.135	5156.15
516.502	5062.82
516.869	5077.73
517.237	5088.58
517.604	5072.54
517.972	5192.98
518.339	5370.61
518.706	5437.95
519.073	5672.97
519.44	5838.84
519.808	5943.25
520.175	5995
520.542	6045.84
520.909	6052.4
521.276	5987.31
521.643	5942.12
522.009	5816.7
522.376	5767.21
522.743	5588.45
523.11	5512.75
523.477	5487.21
523.843	5499.42
524.21	5581.22
524.577	5737.38
524.943	5853.08
525.31	6037.93
525.676	6226.4
526.043	6376.23
526.409	6498.71
526.776	6659.84
527.142	6738.71
527.508	6802.89
527.874	6731.48
528.241	6652.61
528.607	6498.71
528.973	6412.61
529.339	6213.07
529.705	6165.39
530.071	6112.06
530.437	6114.09
530.803	6148.67
531.169	6267.98
531.535	6324.93
531.901	6585.49
532.267	6767.41
532.632	7030.45
532.998	7178.7
533.364	7344.11
533.73	7500.72
534.095	7593.15
534.461	7606.25
534.826	7517.9
535.192	7399.03
535.557	7336.66
535.923	7170.56
536.288	6949.1
536.653	6931.24
537.019	6823
537.384	6825.71
537.749	6816.22
538.114	6896.89
538.479	7104.35
538.845	7281.07
539.21	7410.33
539.575	7622.98
539.94	7893.25
540.305	8041.72
540.67	8167.37
541.034	8336.63
541.399	8334.15
541.764	8303.64
542.129	8240.59
542.494	8143.87
542.858	7983.42
543.223	7789.3
543.587	7632.92
543.952	7564.22
544.316	7473.38
544.681	7419.82
545.045	7497.56
545.41	7573.94
545.774	7795.63
546.138	7935.29
546.503	8201.49
546.867	8384.99
547.231	8617.08
547.595	8780.91
547.959	8887.58
548.324	8995.82
548.688	9041.25
549.052	8958.31
549.416	8877.86
549.779	8720.35
550.143	8606
550.507	8385.22
550.871	8201.95
551.235	8100.25
551.599	7962.86
551.962	7856.64
552.326	7869.52
552.689	8046.47
553.053	8118.78
553.417	8222.28
553.78	8536.4
554.143	8786.34
554.507	8997.86
554.87	9236.27
555.234	9358.53
555.597	9424.29
555.96	9475.36
556.323	9482.14
556.686	9437.85
557.05	9251.41
557.413	9165.31
557.776	8950.63
558.139	8780.46
558.502	8597.19
558.865	8476.06
559.228	8362.17
559.59	8413.92
559.953	8312.9
560.316	8596.51
560.679	8621.14
561.041	8919.89
561.404	9064.75
561.767	9298.19
562.129	9506.54
562.492	9836.03
562.854	9995.34
563.217	10036.7
563.579	10100.65
563.941	10237.37
564.304	10118.28
564.666	10057.49
565.028	9909.92
565.39	9755.58
565.753	9589.71
566.115	9349.26
566.477	9238.53
566.839	9045.09
567.201	8977.97
567.563	8980.23
567.925	9132.77
568.287	9227
568.648	9433.1
569.01	9612.76
569.372	9900.66
569.734	10015.01
570.095	10399.63
570.457	10583.8
570.819	10743.35
571.18	10932.04
571.542	11003.68
571.903	11005.04
572.265	11010.46
572.626	10936.34
572.987	10727.08
573.349	10597.36
573.71	10464.71
574.071	10232.17
574.432	10038.51
574.794	9992.41
575.155	9927.1
575.516	9923.93
575.877	9974.78
576.238	10201.21
576.599	10453.41
576.96	10664.48
577.32	11017.69
577.681	11377.46
578.042	11649.31
578.403	12000.26
578.763	12416.52
579.124	12677.53
579.485	12874.59
579.845	13079.78
580.206	13118.43
580.566	13131.76
580.927	13142.15
581.287	13215.37
581.648	13161.36
582.008	13202.72
582.368	13169.95
582.728	13166.11
583.089	13289.95
583.449	13465.08
583.809	13788.47
584.169	14015.58
584.529	14354.1
584.889	15048.54
585.249	15368.76
585.609	16100.95
585.969	16786.8
586.329	17413.68
586.688	18103.38
587.048	18671.5
587.408	19238.49
587.768	19967.06
588.127	20306.03
588.487	20760.49
588.846	21306.91
589.206	21449.96
589.565	21727.01
589.925	22101.92
590.284	22260.78
590.643	22592.98
591.003	23038.84
591.362	23316.8
591.721	23549.56
592.08	24071.81
592.44	24704.34
592.799	25169.41
593.158	25739.79
593.517	26554.23
593.876	27313.53
594.235	27935.66
594.593	28821.97
594.952	29699.01
595.311	30432.32
595.67	31121.12
596.029	31928.33
596.387	32503.23
596.746	33235.86
597.104	33641.95
597.463	34050.31
597.822	34686.45
598.18	34921.92
598.538	35088.7
598.897	35551.06
599.255	35403.04
599.613	36247.31
599.972	36371.15
600.33	36785.83
600.688	36825.6
601.046	37483.44
601.404	38111.44
601.762	38433.69
602.12	39281.35
602.478	39835.46
602.836	40433.64
603.194	40764.48
603.552	41636.32
603.91	42038.34
604.268	42803.3
604.625	43421.13
604.983	43900.44
605.341	44213.43
605.698	44748.78
606.056	45089.79
606.413	45340.4
606.771	45657.91
607.128	45877.34
607.485	45822.65
607.843	45829.88
608.2	46232.58
608.557	46434.16
608.914	46271.23
609.272	46623.31
609.629	46729.97
609.986	47096.97
610.343	47146.01
610.7	47689.95
611.057	47858.3
611.414	48147.11
611.771	48499.19
612.127	48876.36
612.484	49320.64
612.841	49676.34
613.198	49835.43
613.554	50041.3
613.911	50674.5
614.267	50727.38
614.624	50884.21
614.98	51151.78
615.337	51481.94
615.693	51470.86
616.05	51368.04
616.406	51563.74
616.762	51447.81
617.118	51419.34
617.475	51351.55
617.831	51468.83
618.187	51478.1
618.543	51477.87
618.899	51604.19
619.255	51483.29
619.611	51625.44
619.967	51709.05
620.323	51840.12
620.678	51861.36
621.034	51941.13
621.39	52152.43
621.746	52369.82
622.101	52799.64
622.457	52648.91
622.812	52955.34
623.168	53245.73
623.523	53366.18
623.879	53470.36
624.234	53428.1
624.589	53477.37
624.945	53624.93
625.3	53705.83
625.655	53533.63
626.01	53592.62
626.365	53497.93
626.72	53340.19
627.075	53250.25
627.43	53188.79
627.785	53104.04
628.14	53056.81
628.495	53017.26
628.85	52922.13
629.205	52864.95
629.559	53094.1
629.914	52997.6
630.269	53058.17
630.623	53088.9
630.978	53195.79
631.332	53330.02
631.687	53573.86
632.041	53573.86
632.396	53731.82
632.75	53753.52
633.104	53911.93
633.459	53896.56
633.813	53930.46
634.167	53965.04
634.521	53914.42
634.875	54053.4
635.229	53797.36
635.583	53611.37
635.937	53562.33
636.291	53474.88
636.645	53434.65
636.999	53226.3
637.352	53213.42
637.706	52831.05
638.06	52904.5
638.413	52824.95
638.767	52580.89
639.121	52659.08
639.474	52419.31
639.828	52517.62
640.181	52646.2
640.534	52636.03
640.888	52696.37
641.241	52689.82
641.594	52897.27
641.947	53104.27
642.301	53144.04
642.654	53273.98
643.007	53360.76
643.36	53327.54
643.713	53417.93
644.066	53485.27
644.419	53388.78
644.771	53154.44
645.124	52795.58
645.477	52707.44
645.83	52460.44
646.182	52202.6
646.535	52083.28
646.888	51998.99
647.24	51725.77
647.593	51827.24
647.945	51607.36
648.298	51452.33
648.65	51193.36
649.002	51102.51
649.355	51202.62
649.707	51065.45
650.059	51105
650.411	51595.15
650.763	51725.77
651.115	52115.59
651.467	52029.95
651.819	52155.14
652.171	52229.26
652.523	52179.77
652.875	52306.32
653.227	52318.75
653.578	52528.46
653.93	52593.77
654.282	52512.87
654.633	52561.68
654.985	52554.9
655.337	52578.63
655.688	52462.93
656.039	52605.98
656.391	52254.57
656.742	52202.37
657.094	52151.07
657.445	52118.3
657.796	51890.29
658.147	51634.48
658.498	51606.68
658.849	51572.78
659.2	51450.3
659.551	51330.98
659.902	51353.81
660.253	51308.61
660.604	51425.67
660.955	51260.02
661.306	51439.68
661.656	51325.11
662.007	51474.03
662.358	51544.99
662.708	51587.25
663.059	51710.41
663.409	51731.2
663.76	52101.13
664.11	52187.46
664.461	52267.68
664.811	52249.15
665.161	52274.01
665.511	52145.2
665.862	52222.26
666.212	52285.98
666.562	52136.61
666.912	52055.26
667.262	51957.41
667.612	51812.1
667.962	51734.36
668.312	51582.5
668.662	51575.72
669.011	51358.55
669.361	51182.96
669.711	51074.49
670.06	50872.24
670.41	50821.16
670.76	50703.65
671.109	50909.3
671.459	50701.84
671.808	50699.81
672.157	50770.54
672.507	50742.3
672.856	50782.52
673.205	50940.48
673.554	51160.36
673.904	50958.34
674.253	51375.27
674.602	51446.91
674.951	51012.35
675.3	50936.87
675.649	51506.34
675.998	51581.6
676.346	51558.77
676.695	51679.67
677.044	51434.03
677.393	51567.81
677.741	51546.12
678.09	51356.52
678.438	51182.06
678.787	51152
679.135	51098.22
679.484	50717.44
679.832	50648.51
680.181	50391.12
680.529	50377.79
680.877	50170.79
681.225	50022.54
681.573	50163.1
681.922	49747.29
682.27	49608.99
682.618	49712.27
682.966	49566.06
683.314	49830.23
683.661	49637.69
684.009	49583.68
684.357	49664.36
684.705	49710.46
685.053	49891.47
685.4	49929.21
685.748	49851.02
686.095	49949.55
686.443	49842.21
686.79	50134.4
687.138	50118.36
687.485	50169.88
687.832	50171.92
688.18	50126.72
688.527	49866.16
688.874	49923.79
689.221	49942.99
689.568	49537.58
689.915	49487.41
690.262	49409.45
690.609	49236.12
690.956	49040.65
691.303	48989.8
691.65	48612.41
691.997	48361.12
692.344	48099.88
692.69	47848.13
693.037	47906.44
693.383	47384.87
693.73	47583.96
694.077	47189.39
694.423	47153.01
694.769	47005.44
695.116	47071.66
695.462	47016.52
695.808	46979.23
696.155	47002.51
696.501	46867.37
696.847	47101.71
697.193	46748.95
697.539	47048.38
697.885	47023.52
698.231	46869.63
698.577	47056.06
698.923	47068.27
699.269	46979.91
699.614	46882.06
699.96	46842.06
700.306	46915.73
700.651	46681.16
700.997	46707.83
701.342	46649.3
701.688	46379.47
702.033	46150.1
702.379	46117.11
702.724	45783.33
703.069	45825.14
703.415	45181.09
703.76	45127.75
704.105	45047.3
704.45	44667.65
704.795	44353.54
705.14	44146.76
705.485	44069.25
705.83	43903.83
706.175	43765.53
706.52	43582.03
706.865	43536.84
707.209	43516.5
707.554	43385.65
707.899	43532.77
708.243	43450.28
708.588	43519.66
708.932	43282.6
709.277	43420.91
709.621	43544.97
709.966	43372.09
710.31	43584.74
710.654	43391.3
710.998	43477.18
711.342	43621.58
711.687	43556.27
712.031	43608.7
712.375	43356.05
712.719	43417.74
713.063	43273.79
713.407	43543.16
713.75	43313.34
714.094	43275.15
714.438	42872.45
714.782	42908.6
715.125	42489.41
715.469	42459.8
715.812	42215.51
716.156	41952.02
716.499	41857.56
716.843	41709.99
717.186	41374.63
717.53	41437.91
717.873	41198.59
718.216	40959.28
718.559	40823.01
718.902	40431.61
719.246	40745.95
719.589	40542.56
719.932	40403.13
720.275	40508.89
720.617	40332.4
720.96	40409.23
721.303	40497.37
721.646	40744.59
721.989	40515.45
722.331	40817.58
722.674	40696.46
723.016	40777.59
723.359	40779.17
723.701	40836.34
724.044	40722.22
724.386	40662.11
724.729	41023.23
725.071	40783.24
725.413	40696.01
725.755	40717.47
726.097	40611.04
726.439	40288.56
726.782	40354.09
727.124	40565.84
727.465	40039.07
727.807	39979.19
728.149	39755.69
728.491	39646.54
728.833	39561.12
729.175	39222.37
729.516	39100.79
729.858	38931.53
730.199	38795.94
730.541	38570.19
730.882	38588.27
731.224	38627.36
731.565	38164.1
731.906	38175.62
732.248	38266.24
732.589	38030.54
732.93	38113.25
733.271	38086.36
733.612	38019.24
733.953	38184.43
734.294	37986.7
734.635	38007.49
734.976	38244.77
735.317	38096.75
735.658	38058.79
735.999	38232.79
736.339	38339.68
736.68	38444.09
737.021	38402.28
737.361	38303.07
737.702	38638.21
738.042	38571.54
738.383	38471.88
738.723	38640.69
739.063	38313.24
739.404	38361.83
739.744	38360.47
740.084	38245.45
740.424	38167.49
740.764	38129.52
741.104	38157.09
741.444	37812.92
741.784	37473.49
742.124	37528.41
742.464	37382.2
742.804	37091.13
743.143	37009.32
743.483	36852.94
743.823	36575.44
744.162	36497.25
744.502	36416.12
744.841	36294.54
745.181	36403.69
745.52	36090.03
745.86	36181.77
746.199	36015.45
746.538	35867.21
746.877	35972.97
747.216	36187.88
747.556	35836.25
747.895	35996.24
748.234	35916.7
748.573	36053.87
748.911	35977.49
749.25	36167.76
749.589	36187.88
749.928	36105.62
750.267	36266.52
750.605	36264.94
750.944	36252.96
751.283	36098.84
751.621	36269.23
751.96	36108.1
752.298	36160.98
752.636	36288.66
752.975	35959.41
753.313	35921.89
753.651	36089.35
753.989	35611.17
754.327	35717.38
754.666	35338.41
755.004	35430.16
755.342	35226.77
755.679	35170.05
756.017	34744.52
756.355	34599.44
756.693	34515.83
757.031	34495.04
757.368	34230.64
757.706	34021.83
758.044	33805.79
758.381	33892.8
758.719	33589.53
759.056	33553.14
759.394	33328.52
759.731	33018.92
760.068	33026.38
760.405	32867.74
760.743	32751.13
761.08	32881.3
761.417	32636.11
761.754	32648.31
762.091	32782.54
762.428	32759.04
762.765	32701.64
763.102	32888.3
763.438	32668.42
763.775	32671.13
764.112	32813.73
764.449	32917.45
764.785	32799.04
765.122	32550.91
765.458	32519.27
765.795	32657.8
766.131	32520.4
766.467	32636.33
766.804	32395.66
767.14	32434.08
767.476	32386.17
767.812	32247.41
768.148	32218.04
768.485	32008.1
768.821	31804.49
769.157	31845.62
769.492	31531.05
769.828	31568.34
770.164	31133.09
770.5	31011.97
770.836	30872.08
771.171	30635.25
771.507	30423.96
771.842	30121.59
772.178	30161.82
772.513	29900.36
772.849	29740.59
773.184	29566.81
773.519	29421.73
773.855	29256.08
774.19	29001.62
774.525	29024.22
774.86	29016.31
775.195	28884.57
775.53	28803.66
775.865	28760.5
776.2	28354.41
776.535	28305.6
776.87	28355.99
777.205	28213.17
777.539	28246.62
777.874	28303.56
778.209	28028.32
778.543	28179.73
778.878	28121.65
779.212	28097.92
779.547	28039.62
779.881	28224.92
780.215	28106.28
780.55	28196
780.884	28019.5
781.218	27908.32
781.552	28074.42
781.886	27932.5
782.22	27674.43
782.554	27624.03
782.888	27432.4
783.222	27305.4
783.556	27231.73
783.889	27096.59
784.223	26852.08
784.557	26676.94
784.89	26691.85
785.224	26570.5
785.557	26380.68
785.891	26255.03
786.224	26143.62
786.558	25988.82
786.891	25681.94
787.224	25555.16
787.557	25322.4
787.891	25292.34
788.224	25291.21
788.557	25210.54
788.89	25039.69
789.223	24975.74
789.556	24723.54
789.888	24640.84
790.221	24536.43
790.554	24380.5
790.887	24453.04
791.219	24296.66
791.552	24324.69
791.884	24217.34
792.217	24156.33
792.549	24070.23
792.882	23938.48
793.214	24053.73
793.546	24030.68
793.879	23860.52
794.211	23796.34
794.543	23972.6
794.875	23803.34
795.207	24102.77
795.539	23907.97
795.871	23955.66
796.203	23755.66
796.535	23711.82
796.867	23722.44
797.198	23631.6
797.53	23652.61
797.862	23526.97
798.193	23609.45
798.525	23398.38
798.856	23432.28
799.188	23147.09
799.519	23097.82
799.85	23037.04
800.182	22919.52
800.513	22719.76
800.844	22595.24
801.175	22712.3
801.506	22518.41
801.837	22406.77
802.168	22239.54
802.499	22226.21
802.83	21974.92
803.161	21833.45
803.491	21771.53
803.822	21721.82
804.153	21542.84
804.483	21381.26
804.814	21317.76
805.145	21195.95
805.475	21192.11
805.805	21162.96
806.136	21054.49
806.466	20989.18
806.796	21021.72
807.126	20743.54
807.457	20889.52
807.787	20786.02
808.117	20747.6
808.447	20719.58
808.777	20747.15
809.107	20634.84
809.436	20746.02
809.766	20875.51
810.096	20699.24
810.426	20633.71
810.755	20754.61
811.085	20690.43
811.414	20730.2
811.744	20602.52
812.073	20578.34
812.403	20682.07
812.732	20560.04
813.061	20568.17
813.39	20489.76
813.719	20553.03
814.049	20579.02
814.378	20506.48
814.707	20299.25
815.036	20372.47
815.365	20308.07
815.693	20071.24
816.022	20024.69
816.351	19977.45
816.68	19871.24
817.008	19842.09
817.337	19668.76
817.665	19556.22
817.994	19546.73
818.322	19501.54
818.651	19440.52
818.979	19243.01
819.307	19278.94
819.636	19105.16
819.964	18993.3
820.292	19061.32
820.62	18832.17
820.948	18866.98
821.276	18898.39
821.604	18676.92
821.932	18734.1
822.259	18699.52
822.587	18634.44
822.915	18640.54
823.243	18771.61
823.57	18576.81
823.898	18731.84
824.225	18626.3
824.553	18667.43
824.88	18640.31
825.207	18786.53
825.535	18700.88
825.862	18798.05
826.189	18818.84
826.516	18979.52
826.843	19043.02
827.17	19096.57
827.497	18946.97
827.824	19049.34
828.151	19138.61
828.478	19199.17
828.805	19296.34
829.131	19137.48
829.458	19218.38
829.785	19116.23
830.111	19364.82
830.438	19378.6
830.764	19370.92
831.09	19351.71
831.417	19201.88
831.743	19282.33
832.069	19291.37
832.395	19194.65
832.722	19240.07
833.048	19096.35
833.374	19192.84
833.7	19026.52
834.026	19065.61
834.351	18974.54
834.677	18919.18
835.003	18922.79
835.329	18810.71
835.654	18695.45
835.98	18634.21
836.306	18561.45
836.631	18436.7
836.956	18446.65
837.282	18389.47
837.607	18203.04
837.932	18210.27
838.258	18078.52
838.583	18097.5
838.908	17954.68
839.233	18023.16
839.558	17985.87
839.883	17869.49
840.208	17724.86
840.533	17762.15
840.858	17811.18
841.182	17893.67
841.507	17823.61
841.832	17753.33
842.156	17723.73
842.481	17817.96
842.805	17725.08
843.13	17760.11
843.454	17864.06
843.778	17642.15
844.103	17730.06
844.427	17793.11
844.751	17754.01
845.075	17856.15
845.399	17770.73
845.723	17646.67
846.047	17601.02
846.371	17631.3
846.695	17675.37
847.019	17583.85
847.343	17521.7
847.666	17448.03
847.99	17383.85
848.313	17418.88
848.637	17258.2
848.96	17235.61
849.284	17188.15
849.607	16994.93
849.931	16932.11
850.254	16796.97
850.577	16820.7
850.9	16700.25
851.223	16635.62
851.546	16593.82
851.869	16384.78
852.192	16441.95
852.515	16309.3
852.838	16173.26
853.161	16192.24
853.483	16003.32
853.806	15877.68
854.129	15881.07
854.451	15716.32
854.774	15679.49
855.096	15480.4
855.419	15427.97
855.741	15478.36
856.063	15293.96
856.385	15229.11
856.708	15182.55
857.03	15076.34
857.352	15010.35
857.674	15054.65
857.996	14900.75
858.318	14868.66
858.64	14887.65
858.961	14849.68
859.283	14820.08
859.605	14693.07
859.926	14702.34
860.248	14741.43
860.57	14655.79
860.891	14808.1
861.212	14692.17
861.534	14686.07
861.855	14707.54
862.176	14676.8
862.498	14655.79
862.819	14644.94
863.14	14674.54
863.461	14652.62
863.782	14734.2
864.103	14697.59
864.424	14666.18
864.745	14732.17
865.065	14572.4
865.386	14662.34
865.707	14629.35
866.027	14710.47
866.348	14610.36
866.668	14648.78
866.989	14586.18
867.309	14498.95
867.63	14582.34
867.95	14594.32
868.27	14484.49
868.59	14532.85
868.91	14346.42
869.23	14337.15
869.55	14258.96
869.87	14365.85
870.19	14272.97
870.51	14299.19
870.83	14263.25
871.15	14164.05
871.469	14097.61
871.789	14057.16
872.109	14027.1
872.428	13952.3
872.748	13901.23
873.067	13932.87
873.386	13833.21
873.706	13755.47
874.025	13562.48
874.344	13603.84
874.663	13566.55
874.982	13532.2
875.301	13482.94
875.62	13446.55
875.939	13448.81
876.258	13446.33
876.577	13359.1
876.896	13269.61
877.214	13233.45
877.533	13217.18
877.852	13209.95
878.17	13237.97
878.489	13258.76
878.807	13238.88
879.125	13246.11
879.444	13219.67
879.762	13181.02
880.08	13234.13
880.398	13104.42
880.716	13131.99
881.034	13217.41
881.352	13181.25
881.67	13180.12
881.988	13167.46
882.306	13136.05
882.624	13084.53
882.941	13164.98
883.259	13137.18
883.577	13129.27
883.894	13155.04
884.212	13137.63
884.529	13202.27
884.846	13181.93
885.164	13092.44
885.481	13085.21
885.798	13133.57
886.115	13053.57
886.432	13069.61
886.75	13042.72
887.067	13012.67
887.383	12893.57
887.7	12945.78
888.017	12877.3
888.334	12869.62
888.651	12822.39
888.967	12779.45
889.284	12686.12
889.6	12713.47
889.917	12554.37
890.233	12519.12
890.55	12445.68
890.866	12391.89
891.182	12319.13
891.498	12290.43
891.815	12202.74
892.131	12122.97
892.447	12117.55
892.763	12039.81
893.079	11957.1
893.395	11916.2
893.71	11943.99
894.026	11757.56
894.342	11751.68
894.657	11658.58
894.973	11647.73
895.289	11663.32
895.604	11573.83
895.92	11478.24
896.235	11384.01
896.55	11506.94
896.865	11415.19
897.181	11344.91
897.496	11364.35
897.811	11297.46
898.126	11311.02
898.441	11315.08
898.756	11231.02
899.071	11165.26
899.386	11183.56
899.7	11141.98
900.015	11108.31
900.33	10975.21
900.644	11011.14
900.959	11019.05
901.273	11049.55
901.588	10963.45
901.902	10975.88
902.216	10942.21
902.531	10905.15
902.845	10894.98
903.159	10894.08
903.473	10805.94
903.787	10839.16
904.101	10707.64
904.415	10826.06
904.729	10688.21
905.042	10675.33
905.356	10662.22
905.67	10673.52
905.984	10722.11
906.297	10644.59
906.611	10589.45
906.924	10578.61
907.237	10527.53
907.551	10531.38
907.864	10461.77
908.177	10394.88
908.491	10457.71
908.804	10306.75
909.117	10331.61
909.43	10201.21
909.743	10107.66
910.056	10057.26
910.368	10079.86
910.681	10008
910.994	9911.73
911.307	9852.98
911.619	9754.67
911.932	9803.26
912.244	9684.84
912.557	9660.44
912.869	9520.78
913.181	9514.23
913.494	9446.88
913.806	9415.02
914.118	9335.25
914.43	9218.42
914.742	9235.14
915.054	9218.87
915.366	9127.34
915.678	9014.81
915.99	9000.79
916.302	8904.3
916.613	8950.4
916.925	8879.22
917.236	8850.52
917.548	8755.6
917.859	8820.01
918.171	8722.38
918.482	8719.9
918.794	8654.14
919.105	8633.8
919.416	8585.21
919.727	8630.63
920.038	8547.7
920.349	8519.68
920.66	8486.01
920.971	8507.25
921.282	8508.38
921.593	8461.6
921.903	8454.59
922.214	8387.25
922.525	8409.4
922.835	8338.89
923.146	8309.06
923.456	8247.59
923.767	8250.98
924.077	8352.22
924.387	8279.91
924.697	8194.94
925.008	8205.56
925.318	8228.39
925.628	8267.25
925.938	8161.95
926.248	8096.86
926.558	8103.64
926.867	8067.71
927.177	7993.36
927.487	8031.33
927.796	7915.85
928.106	7911.11
928.416	7806.25
928.725	7878.79
929.034	7834.27
929.344	7827.27
929.653	7769.64
929.962	7692.81
930.271	7688.74
930.581	7613.03
930.89	7603.54
931.199	7517.67
931.508	7517.9
931.817	7432.25
932.125	7425.24
932.434	7344.79
932.743	7306.15
933.051	7293.27
933.36	7269.77
933.669	7161.07
933.977	7116.1
934.286	7082.2
934.594	7107.96
934.902	7047.85
935.21	6946.61
935.519	6926.72
935.827	6946.61
936.135	6876.78
936.443	6811.25
936.751	6764.47
937.059	6747.07
937.367	6667.07
937.674	6654.42
937.982	6583
938.29	6550.01
938.597	6546.62
938.905	6483.57
939.213	6467.53
939.52	6463.01
939.827	6419.62
940.135	6375.33
940.442	6376.23
940.749	6340.53
941.056	6359.96
941.363	6308.21
941.67	6325.61
941.977	6256.01
942.284	6271.83
942.591	6227.53
942.898	6217.82
943.205	6217.36
943.511	6190.47
943.818	6176.46
944.125	6169.23
944.431	6191.6
944.738	6141.21
945.044	6111.38
945.35	6108.44
945.657	6078.39
945.963	6063.24
946.269	6056.69
946.575	6087.2
946.881	6051.72
947.187	6000.2
947.493	6016.47
947.799	5970.37
948.105	5962.91
948.41	5919.29
948.716	5863.7
949.022	5861.67
949.327	5855.11
949.633	5782.12
949.938	5767.21
950.244	5772.4
950.549	5709.81
950.854	5704.38
951.16	5715.23
951.465	5684.72
951.77	5648.57
952.075	5587.55
952.38	5564.95
952.685	5562.47
952.99	5529.93
953.294	5543.48
953.599	5457.61
953.904	5450.61
954.209	5380.32
954.513	5419.87
954.818	5286.32
955.122	5338.52
955.426	5235.02
955.731	5300.1
956.035	5241.35
956.339	5168.35
956.643	5218.75
956.948	5123.38
957.252	5114.79
957.556	5075.93
957.86	5050.39
958.163	5011.52
958.467	4988.02
958.771	4969.94
959.075	4913.67
959.378	4885.42
959.682	4920.22
959.985	4840.68
960.289	4797.97
960.592	4799.55
960.896	4766.33
961.199	4720.91
961.502	4728.59
961.805	4658.99
962.108	4703.05
962.411	4629.61
962.714	4599.1
963.017	4641.36
963.32	4637.52
963.623	4583.28
963.926	4585.77
964.228	4545.77
964.531	4568.14
964.833	4531.99
965.136	4532.89
965.438	4503.29
965.741	4487.69
966.043	4475.72
966.345	4431.42
966.648	4432.55
966.95	4463.29
967.252	4397.07
967.554	4411.31
967.856	4376.96
968.158	4391.65
968.46	4349.39
968.761	4373.35
969.063	4356.85
969.365	4296.96
969.666	4334.93
969.968	4291.09
970.269	4248.38
970.571	4258.77
970.872	4264.2
971.174	4251.31
971.475	4203.18
971.776	4248.6
972.077	4183.07
972.378	4139.45
972.679	4179
972.98	4179.68
973.281	4075.27
973.582	4118.44
973.883	4114.14
974.183	4080.7
974.484	4086.57
974.785	4048.16
975.085	4042.28
975.386	4055.39
975.686	3964.54
975.986	3910.76
976.287	3937.42
976.587	3883.41
976.887	3874.83
977.187	3892
977.487	3842.29
977.787	3830.53
978.087	3810.87
978.387	3759.58
978.687	3762.06
978.987	3732.23
979.286	3729.07
979.586	3670.09
979.885	3657.21
980.185	3674.83
980.484	3581.73
980.784	3621.5
981.083	3590.09
981.382	3539.7
981.682	3542.86
981.981	3518.45
982.28	3507.15
982.579	3474.16
982.878	3513.93
983.177	3429.19
983.475	3431
983.774	3415.63
984.073	3390.09
984.372	3366.14
984.67	3349.19
984.969	3341.28
985.267	3309.87
985.566	3296.09
985.864	3270.1
986.162	3268.74
986.461	3249.99
986.759	3238.23
987.057	3200.49
987.355	3217.44
987.653	3213.6
987.951	3213.83
988.249	3205.69
988.547	3157.56
988.844	3106.26
989.142	3121.17
989.44	3082.76
989.737	3111.01
990.035	3092.02
990.332	3089.76
990.63	3083.44
990.927	3045.02
991.224	3067.39
991.521	3093.15
991.819	3060.84
992.116	3035.08
992.413	3040.5
992.71	3013.16
993.006	3021.29
993.303	2997.11
993.6	3005.02
993.897	3009.54
994.193	2981.74
994.49	3000.73
994.787	2964.79
995.083	2908.3
995.379	2920.5
995.676	2873.5
995.972	2889.99
996.268	2875.08
996.565	2887.28
996.861	2842.99
997.157	2834.63
997.453	2826.04
997.749	2832.6
998.044	2789.21
998.34	2793.05
998.636	2775.65
998.932	2760.73
999.227	2741.75
999.523	2717.34
999.818	2755.53
1000.114	2701.75
1000.409	2703.56
1000.704	2691.81
1001	2622.43
1001.295	2613.17
1001.59	2595.31
1001.885	2613.84
1002.18	2592.38
1002.475	2537.91
1002.77	2582.21
1003.065	2506.28
1003.359	2518.7
1003.654	2516.22
1003.949	2504.02
1004.243	2489.78
1004.538	2457.46
1004.832	2411.59
1005.127	2384.47
1005.421	2403.91
1005.715	2386.51
1006.009	2383.57
1006.304	2344.92
1006.598	2314.64
1006.892	2297.92
1007.186	2282.78
1007.48	2287.98
1007.773	2285.04
1008.067	2254.08
1008.361	2231.25
1008.655	2212.27
1008.948	2243.01
1009.242	2186.06
1009.535	2193.97
1009.829	2157.81
1010.122	2151.71
1010.415	2116.91
1010.708	2106.51
1011.001	2140.86
1011.295	2097.25
1011.588	2101.99
1011.881	2054.76
1012.173	2052.5
1012.466	2023.35
1012.759	2006.85
1013.052	2020.64
1013.344	2014.09
1013.637	2013.63
1013.93	2001.66
1014.222	1989.68
1014.514	1960.3
1014.807	1939.06
1015.099	1956.91
1015.391	1937.25
1015.683	1936.12
1015.976	1928.21
1016.268	1938.61
1016.56	1900.87
1016.851	1887.99
1017.143	1914.2
1017.435	1880.53
1017.727	1856.8
1018.018	1866.52
1018.31	1860.42
1018.602	1823.13
1018.893	1807.31
1019.185	1815.9
1019.476	1806.18
1019.767	1796.24
1020.058	1790.59
1020.35	1769.8
1020.641	1759.4
1020.932	1712.4
1021.223	1757.37
1021.514	1732.51
1021.804	1708.33
1022.095	1692.29
1022.386	1703.59
1022.677	1673.98
1022.967	1706.07
1023.258	1655.9
1023.548	1624.72
1023.839	1645.06
1024.129	1636.92
1024.419	1596.92
1024.709	1619.52
1025	1584.72
1025.29	1594.44
1025.58	1565.74
1025.87	1574.77
1026.16	1553.98
1026.449	1518.05
1026.739	1522.8
1027.029	1516.02
1027.319	1504.95
1027.608	1508.79
1027.898	1489.81
1028.187	1470.14
1028.477	1430.37
1028.766	1434.44
1029.055	1423.14
1029.344	1429.69
1029.634	1424.72
1029.923	1414.55
1030.212	1436.7
1030.501	1389.7
1030.79	1361
1031.078	1377.72
1031.367	1354.67
1031.656	1349.24
1031.945	1344.95
1032.233	1327.32
1032.522	1280.09
1032.81	1301.79
1033.099	1289.81
1033.387	1268.57
1033.675	1225.18
1033.963	1269.92
1034.251	1232.86
1034.54	1266.31
1034.828	1225.41
1035.116	1199.19
1035.403	1206.65
1035.691	1205.52
1035.979	1210.94
1036.267	1185.41
1036.554	1162.13
1036.842	1169.81
1037.129	1182.92
1037.417	1163.94
1037.704	1158.51
1037.992	1130.27
1038.279	1118.29
1038.566	1114.67
1038.853	1114.67
1039.14	1114.67
