Data from red_shiny_book_FLMS001491_00029.txt Node
Date: Wed Feb 08 15:24:38 GMT 2017
User: dcchb
Spectrometer: FLMS00149
Trigger mode: 0
Integration Time (sec): 2.000000E-2
Scans to average: 10
Electric dark correction enabled: true
Nonlinearity correction enabled: false
Boxcar width: 0
XAxis mode: Wavelengths
Number of Pixels in Spectrum: 2048
>>>>>Begin Spectral Data<<<<<
341.393	-21.43
341.776	-21.43
342.16	-21.43
342.543	-38.6
342.927	-57.36
343.31	-58.94
343.693	-80.86
344.077	-60.75
344.46	-66.85
344.843	-47.19
345.226	-29.56
345.61	-40.18
345.993	-33.86
346.376	-17.36
346.759	26.03
347.142	21.74
347.525	48.63
347.908	49.08
348.291	79.14
348.674	98.57
349.057	112.36
349.44	141.28
349.823	145.35
350.206	156.2
350.588	215.63
350.971	222.64
351.354	219.7
351.737	249.75
352.119	268.96
352.502	260.37
352.884	284.78
353.267	283.42
353.65	295.4
354.032	318
354.414	309.19
354.797	313.48
355.179	346.7
355.562	332.46
355.944	327.49
356.326	334.72
356.709	350.54
357.091	331.79
357.473	349.64
357.855	357.55
358.238	337.21
358.62	369.07
359.002	354.38
359.384	342.86
359.766	343.08
360.148	365.68
360.53	346.7
360.912	350.54
361.294	333.59
361.676	335.63
362.057	321.84
362.439	348.06
362.821	324.78
363.203	327.94
363.584	352.12
363.966	316.87
364.348	351.45
364.729	315.51
365.111	320.26
365.493	325.01
365.874	317.55
366.256	322.29
366.637	324.78
367.019	322.07
367.4	315.74
367.781	300.6
368.163	336.3
368.544	311.67
368.925	311.45
369.306	314.61
369.688	315.29
370.069	307.83
370.45	312.35
370.831	315.29
371.212	334.72
371.593	323.2
371.974	313.03
372.355	311.9
372.736	342.41
373.117	338.79
373.498	329.98
373.879	351.22
374.26	328.62
374.641	325.91
375.021	346.7
375.402	329.3
375.783	311.45
376.163	332.24
376.544	360.71
376.925	357.32
377.305	338.79
377.686	345.57
378.066	321.62
378.447	339.24
378.827	353.25
379.208	334.27
379.588	370.65
379.968	350.99
380.349	331.56
380.729	349.41
381.109	317.32
381.489	346.02
381.87	359.58
382.25	351.22
382.63	358
383.01	349.64
383.39	333.82
383.77	337.66
384.15	355.06
384.53	348.73
384.91	346.7
385.29	334.04
385.67	355.29
386.049	380.15
386.429	389.86
386.809	380.37
387.189	368.17
387.568	379.47
387.948	389.18
388.328	382.63
388.707	385.34
389.087	371.78
389.466	392.8
389.846	367.26
390.225	389.18
390.605	378.56
390.984	388.28
391.363	393.93
391.743	393.25
392.122	389.86
392.501	398
392.881	416.53
393.26	388.05
393.639	396.42
394.018	401.39
394.397	396.19
394.776	392.8
395.155	420.37
395.534	402.74
395.913	394.38
396.292	409.98
396.671	415.62
397.05	431.44
397.429	422.18
397.808	412.69
398.186	399.81
398.565	412.23
398.944	430.31
399.323	405
399.701	412.23
400.08	422.18
400.458	448.39
400.837	422.4
401.215	428.05
401.594	421.05
401.972	446.13
402.351	418.11
402.729	430.54
403.107	447.26
403.486	437.32
403.864	439.35
404.242	478.67
404.62	460.82
404.999	466.02
405.377	467.6
405.755	489.3
406.133	475.96
406.511	459.92
406.889	462.18
407.267	476.64
407.645	476.87
408.023	478.9
408.401	499.24
408.779	483.87
409.156	494.49
409.534	512.8
409.912	485
410.29	502.63
410.667	513.25
411.045	522.74
411.422	514.38
411.8	537.43
412.178	552.8
412.555	574.49
412.933	548.05
413.31	560.71
413.687	549.18
414.065	546.24
414.442	565.23
414.819	557.99
415.197	555.28
415.574	592.57
415.951	588.05
416.328	586.47
416.705	604.09
417.082	600.25
417.46	620.59
417.837	605.45
418.214	605.68
418.591	612.23
418.967	601.83
419.344	616.98
419.721	624.88
420.098	606.58
420.475	648.16
420.852	675.96
421.228	667.6
421.605	664.88
421.982	657.43
422.358	674.6
422.735	667.37
423.111	650.42
423.488	660.14
423.864	703.3
424.241	684.32
424.617	687.71
424.994	715.96
425.37	699.01
425.746	725
426.123	725.67
426.499	711.66
426.875	710.53
427.251	712.11
427.627	770.87
428.003	765.45
428.379	788.27
428.756	762.28
429.132	791.66
429.507	807.93
429.883	799.8
430.259	802.96
430.635	785.56
431.011	777.88
431.387	772
431.763	775.84
432.138	784.65
432.514	818.78
432.89	841.38
433.265	848.61
433.641	881.83
434.016	891.77
434.392	907.59
434.767	867.14
435.143	868.49
435.518	856.74
435.894	903.75
436.269	894.03
436.644	926.12
437.02	944.42
437.395	938.1
437.77	964.99
438.145	984.65
438.52	998.66
438.895	988.49
439.271	968.6
439.646	960.47
440.021	971.32
440.395	993.24
440.77	975.84
441.145	983.29
441.52	1020.58
441.895	1063.52
442.27	1051.77
442.645	1051.31
443.019	1041.82
443.394	1058.09
443.769	1059
444.143	1016.74
444.518	1007.47
444.892	1046.79
445.267	1019.45
445.641	1076.17
446.016	1080.01
446.39	1107.13
446.764	1109.84
447.139	1121.14
447.513	1139
447.887	1128.6
448.262	1125.21
448.636	1111.43
449.01	1101.26
449.384	1109.62
449.758	1068.94
450.132	1109.39
450.506	1152.1
450.88	1150.52
451.254	1190.75
451.628	1214.7
452.002	1199.78
452.376	1212.67
452.75	1230.97
453.123	1211.99
453.497	1199.33
453.871	1174.47
454.244	1201.37
454.618	1199.33
454.992	1232.1
455.365	1233.68
455.739	1269.16
456.112	1292.66
456.486	1316.39
456.859	1345.32
457.232	1352.32
457.606	1364.98
457.979	1333.11
458.352	1346.22
458.725	1281.14
459.099	1333.34
459.472	1324.53
459.845	1335.15
460.218	1386.9
460.591	1401.59
460.964	1445.65
461.337	1452.43
461.71	1510.06
462.083	1545.99
462.456	1520
462.829	1448.82
463.201	1491.98
463.574	1464.86
463.947	1501.47
464.32	1449.72
464.692	1492.66
465.065	1506.9
465.438	1540.11
465.81	1589.61
466.183	1648.13
466.555	1644.74
466.928	1722.48
467.3	1686.33
467.672	1709.6
468.045	1693.56
468.417	1700.34
468.789	1676.83
469.161	1640.68
469.534	1677.06
469.906	1706.44
470.278	1748.92
470.65	1755.02
471.022	1834.12
471.394	1926.32
471.766	1949.14
472.138	1978.75
472.51	2001.35
472.882	2023.04
473.253	1971.74
473.625	1953.21
473.997	1956.6
474.369	1966.09
474.74	1956.6
475.112	2020.1
475.484	2058.75
475.855	2103.49
476.227	2145.3
476.598	2268.68
476.97	2296.03
477.341	2386.19
477.713	2381.45
478.084	2387.32
478.455	2458.28
478.827	2409.92
479.198	2411.28
479.569	2340.77
479.94	2374.22
480.311	2383.03
480.682	2457.6
481.053	2496.25
481.424	2636.81
481.795	2706.41
482.166	2758.61
482.537	2837.93
482.908	2948.21
483.279	2979.85
483.65	2971.49
484.021	3013.97
484.391	2985.05
484.762	2933.3
485.133	2933.07
485.503	2913.64
485.874	2956.35
486.244	3003.13
486.615	3074.31
486.985	3155.44
487.356	3280.63
487.726	3399.5
488.097	3564.02
488.467	3609.44
488.837	3697.12
489.207	3684.69
489.578	3692.6
489.948	3611.7
490.318	3612.15
490.688	3563.11
491.058	3573.51
491.428	3561.53
491.798	3626.61
492.168	3710.23
492.538	3768.53
492.908	3910
493.278	4026.83
493.648	4105.02
494.017	4209.88
494.387	4285.35
494.757	4366.48
495.126	4394.5
495.496	4316.99
495.866	4278.8
496.235	4262.3
496.605	4160.84
496.974	4077.22
497.344	4106.83
497.713	4134.85
498.082	4242.87
498.452	4304.56
498.821	4466.37
499.19	4563.09
499.559	4698
499.928	4790.88
500.298	4889.86
500.667	4943.42
501.036	4889.63
501.405	4828.84
501.774	4784.55
502.143	4682.41
502.512	4649.64
502.88	4597.44
503.249	4553.59
503.618	4542.52
503.987	4639.24
504.356	4709.98
504.724	4804.44
505.093	4901.38
505.462	5036.52
505.83	5182.28
506.199	5283.97
506.567	5304.31
506.936	5355.83
507.304	5363.52
507.672	5294.37
508.041	5222.28
508.409	5064.09
508.777	4999.91
509.145	4937.77
509.514	4881.04
509.882	4944.55
510.25	4993.81
510.618	5100.93
510.986	5248.94
511.354	5418.43
511.722	5533.23
512.09	5640.57
512.458	5734.81
512.826	5814.58
513.193	5792.21
513.561	5773.9
513.929	5648.93
514.297	5637.86
514.664	5509.95
515.032	5427.02
515.4	5302.28
515.767	5287.36
516.135	5271.77
516.502	5324.65
516.869	5500.91
517.237	5547.47
517.604	5686.9
517.972	5950.62
518.339	6041.24
518.706	6217.28
519.073	6213.21
519.44	6302.25
519.808	6290.95
520.175	6230.39
520.542	6165.08
520.909	6013.44
521.276	5882.37
521.643	5787.46
522.009	5705.66
522.376	5678.54
522.743	5723.96
523.11	5784.07
523.477	5918.08
523.843	6147.68
524.21	6318.52
524.577	6488.01
524.943	6633.54
525.31	6800.54
525.676	6941.33
526.043	6978.62
526.409	6950.37
526.776	6934.55
527.142	6794.21
527.508	6670.15
527.874	6604.84
528.241	6456.14
528.607	6334.79
528.973	6414.11
529.339	6408.69
529.705	6509.25
530.071	6622.02
530.437	6743.59
530.803	6946.75
531.169	7145.17
531.535	7380.87
531.901	7537.92
532.267	7673.06
532.632	7817.01
532.998	7882.1
533.364	7825.37
533.73	7671.03
534.095	7665.38
534.461	7425.38
534.826	7272.85
535.192	7126.86
535.557	7084.83
535.923	7020.42
536.288	7065.85
536.653	7209.12
537.019	7373.18
537.384	7510.58
537.749	7769.1
538.114	7977.46
538.479	8185.82
538.845	8406.83
539.21	8459.93
539.575	8530.67
539.94	8551.91
540.305	8544.68
540.67	8404.12
541.034	8281.41
541.399	8127.96
541.764	7974.3
542.129	7848.42
542.494	7751.93
542.858	7712.16
543.223	7715.09
543.587	7768.43
543.952	7861.98
544.316	8080.06
544.681	8217.91
545.045	8455.87
545.41	8771.11
545.774	8903.99
546.138	9019.69
546.503	9155.73
546.867	9205.9
547.231	9211.1
547.595	9182.4
547.959	9013.82
548.324	8831.45
548.688	8604.79
549.052	8532.7
549.416	8306.49
549.779	8193.05
550.143	8196.66
550.507	8245.93
550.871	8157.34
551.235	8377.45
551.599	8530.89
551.962	8718.46
552.326	8844.1
552.689	9163.19
553.053	9236.64
553.417	9451.32
553.78	9617.64
554.143	9659
554.507	9708.49
554.87	9700.35
555.234	9529.28
555.597	9323.41
555.96	9113.25
556.323	8998
556.686	8787.38
557.05	8687.27
557.413	8609.99
557.776	8578.57
558.139	8563.43
558.502	8692.47
558.865	8789.19
559.228	8976.3
559.59	9209.29
559.953	9408.61
560.316	9679.34
560.679	9941.7
561.041	10169.27
561.404	10271.41
561.767	10297.17
562.129	10165.2
562.492	10252.65
562.854	10033
563.217	9847.69
563.579	9628.49
563.941	9566.12
564.304	9362.51
564.666	9272.34
565.028	9117.54
565.39	9096.3
565.753	9168.39
566.115	9223.53
566.477	9472.79
566.839	9599.56
567.201	9805.89
567.563	10032.32
567.925	10352.31
568.287	10500.11
568.648	10707.56
569.01	10862.81
569.372	11017.38
569.734	10957.49
570.095	10932.41
570.457	10835.92
570.819	10757.73
571.18	10522.25
571.542	10402.71
571.903	10250.85
572.265	10075.26
572.626	9923.62
572.987	9838.88
573.349	9805.21
573.71	9918.2
574.071	10044.07
574.432	10211.53
574.794	10540.1
575.155	10729.25
575.516	10965.86
575.877	11301.89
576.238	11537.14
576.599	11980.07
576.96	12080.18
577.32	12312.94
577.681	12347.06
578.042	12380.06
578.403	12308.42
578.763	12330.79
579.124	12174.19
579.485	12061.65
579.845	11983
580.206	11844.93
580.566	11865.72
580.927	11830.24
581.287	11922.44
581.648	12075.88
582.008	12401.75
582.368	12787.28
582.728	13125.8
583.089	13494.6
583.449	13953.35
583.809	14599.43
584.169	15054.11
584.529	15553.76
584.889	16160.3
585.249	16441.64
585.609	16906.49
585.969	17396.65
586.329	17644.55
586.688	17955.5
587.048	18122.5
587.408	18419.22
587.768	18605.2
588.127	18744.86
588.487	18988.92
588.846	19339.87
589.206	19603.14
589.565	19947.31
589.925	20446.06
590.284	20774.19
590.643	21420.72
591.003	22157.43
591.362	22845.32
591.721	23502.7
592.08	24141.33
592.44	25006.16
592.799	25742.19
593.158	26357.99
593.517	27041.82
593.876	27728.13
594.235	28206.31
594.593	28805.84
594.952	29224.36
595.311	29585.03
595.67	30002.87
596.029	30271.56
596.387	30741.38
596.746	30986.35
597.104	30974.82
597.463	31462.72
597.822	31841.01
598.18	32032.42
598.538	32643.93
598.897	33330.69
599.255	33508.31
599.613	34715.51
599.972	35081.61
600.33	35936.05
600.688	36463.04
601.046	37162.46
601.404	37951.36
601.762	38446.26
602.12	39298.9
602.478	39826.57
602.836	40378.64
603.194	40541.8
603.552	40908.35
603.91	40993.54
604.268	41434.43
604.625	41477.14
604.983	41851.37
605.341	41828.32
605.698	42254.52
606.056	42333.17
606.413	42433.28
606.771	42714.17
607.128	42950.33
607.485	43173.14
607.843	43504.21
608.2	44082.05
608.557	44604.52
608.914	44820.33
609.272	45458.06
609.629	45915.9
609.986	46478.59
610.343	46762.88
610.7	47371.9
611.057	47677.66
611.414	47840.14
611.771	48295.72
612.127	48430.63
612.484	48586.34
612.841	48800.79
613.198	48697.07
613.554	48784.97
613.911	49009.6
614.267	48882.37
614.624	48805.31
614.98	48965.99
615.337	49034.01
615.693	48930.96
616.05	49022.71
616.406	49274.45
616.762	49209.82
617.118	49365.07
617.475	49416.6
617.831	49850.26
618.187	50072.17
618.543	50432.16
618.899	50795.32
619.255	50797.8
619.611	51121.18
619.967	51382.87
620.323	51594.84
620.678	51599.14
621.034	51586.03
621.39	51701.28
621.746	51850.2
622.101	52109.18
622.457	51874.16
622.812	51895.18
623.168	51900.6
623.523	51809.08
623.879	51857.66
624.234	51517.56
624.589	51608.4
624.945	51548.97
625.3	51520.5
625.655	51519.37
626.01	51571.12
626.365	51511.23
626.72	51571.34
627.075	51588.74
627.43	51827.38
627.785	51878.23
628.14	52094.49
628.495	52253.58
628.85	52345.78
629.205	52425.78
629.559	52719.56
629.914	52687.47
630.269	52729.05
630.623	52763.85
630.978	52766.56
631.332	52934.02
631.687	52936.73
632.041	52677.08
632.396	52728.83
632.75	52501.94
633.104	52431.66
633.459	52211.32
633.813	52158.9
634.167	51920.94
634.521	51957.32
634.875	51881.39
635.229	51835.97
635.583	51454.28
635.937	51593.94
636.291	51586.26
636.645	51686.37
636.999	51771.11
637.352	51871.9
637.706	51819.02
638.06	52046.36
638.413	52098.79
638.767	52123.19
639.121	52360.25
639.474	52252.68
639.828	52312.57
640.181	52390.76
640.534	52505.55
640.888	52443.18
641.241	52252.45
641.594	52335.16
641.947	52297.2
642.301	52110.99
642.654	52101.5
643.007	51949.64
643.36	51731.34
643.713	51580.38
644.066	51547.16
644.419	51236.21
644.771	50860.4
645.124	50649.78
645.477	50505.38
645.83	50237.14
646.182	50038.73
646.535	49966.86
646.888	50082.79
647.24	49962.12
647.593	50280.08
647.945	50268.1
648.298	50241.89
648.65	50339.74
649.002	50419.73
649.355	50682.33
649.707	50715.32
650.059	50986.5
650.411	51406.83
650.763	51483.66
651.115	51764.33
651.467	51529.76
651.819	51468.07
652.171	51356.88
652.523	51341.74
652.875	51195.98
653.227	51013.62
653.578	51122.54
653.93	50803.45
654.282	50599.39
654.633	50388.77
654.985	50417.25
655.337	50230.81
655.688	50122.79
656.039	50331.6
656.391	50024.72
656.742	50035.34
657.094	50194.88
657.445	50265.16
657.796	50299.51
658.147	50293.64
658.498	50410.69
658.849	50619.95
659.2	50581.09
659.551	50695.21
659.902	50906.73
660.253	50879.38
660.604	51001.87
660.955	50974.07
661.306	51079.6
661.656	51048.19
662.007	50950.57
662.358	51049.55
662.708	50861.08
663.059	50757.13
663.409	50463.35
663.76	50721.42
664.11	50426.97
664.461	50425.84
664.811	50174.54
665.161	50099.74
665.511	49824.72
665.862	49795.8
666.212	49870.14
666.562	49712.41
666.912	49675.35
667.262	49585.63
667.612	49591.05
667.962	49663.6
668.312	49646.65
668.662	49901.33
669.011	49869.69
669.361	50019.52
669.711	50118.27
670.06	50193.98
670.41	50214.09
670.76	50382.67
671.109	50491.6
671.459	50556.23
671.808	50522.56
672.157	50631.71
672.507	50445.5
672.856	50454.99
673.205	50389
673.554	50520.97
673.904	50326.63
674.253	50509.45
674.602	50125.73
674.951	49578.85
675.3	49138.19
675.649	49760.32
675.998	49589.02
676.346	49377.28
676.695	49422.7
677.044	48978.42
677.393	49108.13
677.741	49073.1
678.09	48842.15
678.438	48761.92
678.787	48841.7
679.135	48958.98
679.484	48637.86
679.832	48887.57
680.181	48897.51
680.529	49012.54
680.877	48969.38
681.225	49085.08
681.573	49462.47
681.922	49307.67
682.27	49291.4
682.618	49428.35
682.966	49418.63
683.314	49514.67
683.661	49569.36
684.009	49370.27
684.357	49320.1
684.705	49229.71
685.053	49124.17
685.4	49023.84
685.748	48737.74
686.095	48685.09
686.443	48264.31
686.79	48148.83
687.138	48240.58
687.485	47928.27
687.832	47623.87
688.18	47650.09
688.527	47248.29
688.874	47007.85
689.221	47090.78
689.568	46945.7
689.915	46890.11
690.262	46944.8
690.609	46711.13
690.956	46765.59
691.303	46899.83
691.65	46660.28
691.997	46782.09
692.344	46679.94
692.69	46824.12
693.037	46850.34
693.383	46645.6
693.73	46990.45
694.077	46850.79
694.423	46908.87
694.769	46863.44
695.116	46791.13
695.462	46839.49
695.808	46741.86
696.155	46649.66
696.501	46400.86
696.847	46215.78
697.193	45912.06
697.539	45888.1
697.885	45460.77
698.231	45299.42
698.577	45108.91
698.923	44993.21
699.269	44576.05
699.614	44411.98
699.96	44054.48
700.306	44034.59
700.651	43878.89
700.997	43574.26
701.342	43439.13
701.688	43429.18
702.033	43409.07
702.379	43385.34
702.724	43203.2
703.069	43491.78
703.415	43062.64
703.76	43206.36
704.105	43344.44
704.45	43330.65
704.795	43274.16
705.14	43278.9
705.485	43359.81
705.83	43192.58
706.175	43542.17
706.52	43273.93
706.865	43287.94
707.209	43294.05
707.554	43228.51
707.899	43230.77
708.243	42922.3
708.588	42877.56
708.932	42708.07
709.277	42417.23
709.621	42359.61
709.966	41945.38
710.31	42038.03
710.654	41627.2
710.998	41513.3
711.342	41375.45
711.687	41169.36
712.031	40866.54
712.375	40656.37
712.719	40799.65
713.063	40592.87
713.407	40502.48
713.75	40328.47
714.094	40391.07
714.438	40207.57
714.782	40240.11
715.125	40187.01
715.469	40212.32
715.812	40071.31
716.156	40093
716.499	40094.36
716.843	40326.67
717.186	40146.11
717.53	40450.05
717.873	40499.54
718.216	40385.42
718.559	40321.02
718.902	40236.05
719.246	40341.35
719.589	40209.83
719.932	40191.3
720.275	40165.99
720.617	40194.69
720.96	40064.07
721.303	40043.28
721.646	39963.29
721.989	39697.53
722.331	39738.66
722.674	39326.01
723.016	39156.53
723.359	39141.61
723.701	38933.48
724.044	38658.69
724.386	38382.08
724.729	38461.4
725.071	38165.14
725.413	38058.7
725.755	37922.21
726.097	37841.76
726.439	37601.54
726.782	37599.96
727.124	37700.52
727.465	37442.9
727.807	37465.95
728.149	37451.71
728.491	37383.47
728.833	37513.18
729.175	37471.83
729.516	37541.88
729.858	37651.26
730.199	37832.04
730.541	37874.53
730.882	37833.85
731.224	38051.02
731.565	37874.75
731.906	38025.26
732.248	38126.5
732.589	37857.8
732.93	37882.44
733.271	37785.04
733.612	37867.97
733.953	37732.38
734.294	37536.46
734.635	37531.71
734.976	37412.17
735.317	37091.04
735.658	37045.4
735.999	37095.56
736.339	36735.8
736.68	36787.32
737.021	36521.57
737.361	36235.47
737.702	36256.04
738.042	36014.69
738.383	36002.94
738.723	35875.71
739.063	35585.1
739.404	35842.72
739.744	35567.69
740.084	35379.45
740.424	35470.52
740.764	35437.3
741.104	35550.29
741.444	35413.57
741.784	35501.71
742.124	35657.64
742.464	35524.98
742.804	35632.1
743.143	35527.47
743.483	35718.88
743.823	35649.05
744.162	35651.31
744.502	35956.84
744.841	35734.92
745.181	36013.11
745.52	35901.92
745.86	35898.76
746.199	35979.21
746.538	35748.71
746.877	35832.32
747.216	35758.65
747.556	35657.18
747.895	35571.08
748.234	35362.73
748.573	35306.46
748.911	35166.35
749.25	34962.29
749.589	34805.91
749.928	34817.21
750.267	34595.29
750.605	34522.3
750.944	34322.08
751.283	34007.74
751.621	34016.1
751.96	33828.76
752.298	33711.02
752.636	33646.62
752.975	33546.73
753.313	33217.25
753.651	33383.8
753.989	33196.68
754.327	33139.74
754.666	32873.08
755.004	33147.65
755.342	33107.65
755.679	33067.87
756.017	32930.48
756.355	33000.76
756.693	32993.75
757.031	33139.96
757.368	33009.34
757.706	33178.15
758.044	33046.41
758.381	33073.97
758.719	32974.32
759.056	33033.52
759.394	33105.16
759.731	32993.07
760.068	32985.39
760.405	32819.29
760.743	32707.88
761.08	32771.16
761.417	32540.66
761.754	32501.33
762.091	32409.36
762.428	32348.57
762.765	32066.32
763.102	31961.01
763.438	31739.77
763.775	31546.33
764.112	31536.61
764.449	31449.16
764.785	31237.41
765.122	30970.75
765.458	30745.22
765.795	30733.92
766.131	30454.61
766.467	30283.99
766.804	30216.87
767.14	29990.21
767.476	29860.05
767.812	29905.24
768.148	29792.48
768.485	29571.47
768.821	29471.81
769.157	29367.18
769.492	29330.34
769.828	29411.47
770.164	29127.41
770.5	29281.31
770.836	29286.73
771.171	29136.9
771.507	29207.18
771.842	29162.89
772.178	29120.18
772.513	29111.82
772.849	29142.33
773.184	28994.31
773.519	29002.44
773.855	28959.73
774.19	28848.32
774.525	28707.54
774.86	28723.58
775.195	28678.61
775.53	28637.93
775.865	28385.74
776.2	28165.86
776.535	28027.55
776.87	27981.23
777.205	27737.62
777.539	27578.98
777.874	27591.63
778.209	27335.14
778.543	27251.98
778.878	26878.66
779.212	26894.93
779.547	26596.63
779.881	26707.81
780.215	26449.97
780.55	26505.11
780.884	26139.69
781.218	26094.05
781.552	26013.14
781.886	25753.94
782.22	25673.94
782.554	25510.78
782.888	25341.97
783.222	25279.38
783.556	25090
783.889	25207.52
784.223	25076.22
784.557	25017.24
784.89	25146.5
785.224	24835.32
785.557	24875.32
785.891	24910.57
786.224	24736.57
786.558	24822.67
786.891	24628.32
787.224	24768.43
787.557	24684.59
787.891	24710.35
788.224	24740.86
788.557	24680.52
788.89	24713.06
789.223	24609.11
789.556	24440.98
789.888	24453.64
790.221	24418.38
790.554	24221.55
790.887	24173.19
791.219	24110.14
791.552	24081.22
791.884	23897.04
792.217	23796.7
792.549	23745.18
792.882	23619.08
793.214	23347.9
793.546	23260.45
793.879	23084.63
794.211	22819.33
794.543	22884.86
794.875	22639
795.207	22747.01
795.539	22487.81
795.871	22454.37
796.203	22117.2
796.535	22134.6
796.867	22022.74
797.198	22006.92
797.53	21850.54
797.862	21654.61
798.193	21637.44
798.525	21505.24
798.856	21571
799.188	21330.33
799.519	21260.5
799.85	21303.89
800.182	21361.97
800.513	21299.6
800.844	21094.18
801.175	21354.96
801.506	21289.88
801.837	21222.76
802.168	21356.54
802.499	21224.57
802.83	21062.99
803.161	21055.31
803.491	21201.29
803.822	21209.88
804.153	21145.48
804.483	21060.51
804.814	20940.51
805.145	21113.61
805.475	21038.59
805.805	20969.21
806.136	20858.03
806.466	20951.36
806.796	20906.16
807.126	20774.86
807.457	20733.28
807.787	20596.56
808.117	20565.15
808.447	20407.19
808.777	20426.62
809.107	20254.43
809.436	20173.52
809.766	20215.1
810.096	19973.75
810.426	19841.33
810.755	19881.55
811.085	19740.77
811.414	19599.98
811.744	19315.24
812.073	19327.22
812.403	19275.02
812.732	19139.88
813.061	19024.63
813.39	18893.56
813.719	18850.85
814.049	18962.71
814.378	18839.55
814.707	18874.57
815.036	18728.82
815.365	18648.37
815.693	18515.71
816.022	18606.78
816.351	18484.98
816.68	18444.08
817.008	18521.36
817.337	18342.38
817.665	18364.98
817.994	18535.83
818.322	18489.5
818.651	18391.2
818.979	18296.74
819.307	18482.04
819.636	18404.3
819.964	18347.81
820.292	18451.53
820.62	18484.3
820.948	18519.78
821.276	18543.51
821.604	18381.48
821.932	18527.01
822.259	18581.25
822.587	18661.02
822.915	18532.21
823.243	18684.97
823.57	18523.4
823.898	18566.33
824.225	18546.22
824.553	18476.84
824.88	18492.44
825.207	18467.13
825.535	18457.86
825.862	18486.56
826.189	18269.17
826.516	18332.67
826.843	18305.32
827.17	18268.26
827.497	18290.18
827.824	18139.45
828.151	18120.7
828.478	18055.16
828.805	18053.35
829.131	18036.4
829.458	17858.56
829.785	17681.84
830.111	17808.39
830.438	17799.8
830.764	17857.65
831.09	17742.85
831.417	17652.69
831.743	17799.57
832.069	17685.45
832.395	17628.73
832.722	17715.96
833.048	17707.37
833.374	17608.39
833.7	17719.58
834.026	17735.85
834.351	17758.45
834.677	17781.04
835.003	17818.1
835.329	17840.93
835.654	17823.08
835.98	17776.3
836.306	17799.35
836.631	17852.45
836.956	17924.77
837.282	17862.62
837.607	17800.93
837.932	17811.78
838.258	17907.59
838.583	17884.77
838.908	17885.22
839.233	17820.82
839.558	17836.18
839.883	17708.73
840.208	17699.92
840.533	17658.56
840.858	17662.18
841.182	17673.48
841.507	17677.54
841.832	17456.08
842.156	17530.65
842.481	17391.68
842.805	17309.19
843.13	17259.25
843.454	17285.69
843.778	17165.01
844.103	17040.95
844.427	16985.58
844.751	17009.09
845.075	16891.12
845.399	16815.87
845.723	16707.4
846.047	16611.58
846.371	16493.39
846.695	16441.19
847.019	16316
847.343	16261.76
847.666	16141.31
847.99	16036.91
848.313	16027.19
848.637	15797.37
848.96	15782
849.284	15761.66
849.607	15642.57
849.931	15664.49
850.254	15562.57
850.577	15485.28
850.9	15417.26
851.223	15396.47
851.546	15362.58
851.869	15313.76
852.192	15390.82
852.515	15323.03
852.838	15309.47
853.161	15213.65
853.483	15186.08
853.806	15200.77
854.129	15084.17
854.451	15187.44
854.774	15129.59
855.096	15090.27
855.419	15062.02
855.741	15128.91
856.063	14958.97
856.385	14952.42
856.708	14962.36
857.03	14911.51
857.352	14979.54
857.674	14860.44
857.996	14866.32
858.318	14775.25
858.64	14768.92
858.961	14738.86
859.283	14639.66
859.605	14585.87
859.926	14542.48
860.248	14426.1
860.57	14417.97
860.891	14452.54
861.212	14324.64
861.534	14270.18
861.855	14169.16
862.176	14170.52
862.498	14023.18
862.819	13956.29
863.14	13933.24
863.461	13879.45
863.782	13822.96
864.103	13796.06
864.424	13732.34
864.745	13823.41
865.065	13599.46
865.386	13592.23
865.707	13504.32
866.027	13488.28
866.348	13502.74
866.668	13403.76
866.989	13390.88
867.309	13320.37
867.63	13375.51
867.95	13336.87
868.27	13292.35
868.59	13268.17
868.91	13240.15
869.23	13300.71
869.55	13210.99
869.87	13334.16
870.19	13308.84
870.51	13353.59
870.83	13330.54
871.15	13309.52
871.469	13311.78
871.789	13366.24
872.109	13312.01
872.428	13274.04
872.748	13404.21
873.067	13396.98
873.386	13403.31
873.706	13406.7
874.025	13338.9
874.344	13274.27
874.663	13436.98
874.982	13397.2
875.301	13427.71
875.62	13250.32
875.939	13363.98
876.258	13213.71
876.577	13232.69
876.896	13266.36
877.214	13194.05
877.533	13166.7
877.852	13028.17
878.17	13168.96
878.489	13117.89
878.807	13051.68
879.125	13012.13
879.444	12983.66
879.762	12917.44
880.08	12968.97
880.398	12849.2
880.716	12751.35
881.034	12688.52
881.352	12716.54
881.67	12637.68
881.988	12623.67
882.306	12572.82
882.624	12482.2
882.941	12363.11
883.259	12325.14
883.577	12299.15
883.894	12217.35
884.212	12160.17
884.529	12207.41
884.846	12070.01
885.164	12157.01
885.481	12157.69
885.798	12087.18
886.115	11954.76
886.432	11906.85
886.75	11934.87
887.067	11985.26
887.383	11894.42
887.7	11888.09
888.017	11832.95
888.334	11879.5
888.651	11848.32
888.967	11857.81
889.284	11710.24
889.6	11691.71
889.917	11672.05
890.233	11762.22
890.55	11726.51
890.866	11740.3
891.182	11666.85
891.498	11678.61
891.815	11638.38
892.131	11695.33
892.447	11613.07
892.763	11587.76
893.079	11624.14
893.395	11622.56
893.71	11577.37
894.026	11625.95
894.342	11543.69
894.657	11530.13
894.973	11437.71
895.289	11510.02
895.604	11541.21
895.92	11391.16
896.235	11294.21
896.55	11372.4
896.865	11331.5
897.181	11226.19
897.496	11290.37
897.811	11220.31
898.126	11208.11
898.441	11109.13
898.756	11089.02
899.071	11073.42
899.386	10941.9
899.7	10881.79
900.015	10830.04
900.33	10696.94
900.644	10619.2
900.959	10658.97
901.273	10588.24
901.588	10483.83
901.902	10481.57
902.216	10383.95
902.531	10357.74
902.845	10273.9
903.159	10193.22
903.473	10135.37
903.787	10149.15
904.101	10043.17
904.415	10006.56
904.729	9902.38
905.042	9894.7
905.356	9949.39
905.67	9827.13
905.984	9813.34
906.297	9830.07
906.611	9717.3
906.924	9731.76
907.237	9693.12
907.551	9627.13
907.864	9560.92
908.177	9547.81
908.491	9615.61
908.804	9489.51
909.117	9490.64
909.43	9441.83
909.743	9374.26
910.056	9343.75
910.368	9438.66
910.681	9457.19
910.994	9367.71
911.307	9355.05
911.619	9344.66
911.932	9327.71
912.244	9222.4
912.557	9277.54
912.869	9195.96
913.181	9197.31
913.494	9175.17
913.806	9094.04
914.118	9046.81
914.43	9030.77
914.742	8989.86
915.054	8950.32
915.366	8951.22
915.678	8927.04
915.99	8849.08
916.302	8841.84
916.613	8853.37
916.925	8866.02
917.236	8825.35
917.548	8737.89
917.859	8722.3
918.171	8670.32
918.482	8571.34
918.794	8547.16
919.105	8530.89
919.416	8423.32
919.727	8410.22
920.038	8374.06
920.349	8314.4
920.66	8308.98
920.971	8310.11
921.282	8201.41
921.593	8173.39
921.903	8154.4
922.214	8036.67
922.525	7991.92
922.835	7963
923.146	7865.82
923.456	7871.25
923.767	7787.86
924.077	7780.63
924.387	7691.59
924.697	7635.77
925.008	7635.77
925.318	7640.07
925.628	7546.51
925.938	7480.98
926.248	7414.99
926.558	7421.54
926.867	7382.67
927.177	7319.85
927.487	7303.58
927.796	7276.24
928.106	7219.97
928.416	7217.71
928.725	7201.21
929.034	7124.37
929.344	7168.67
929.653	7188.1
929.962	7097.93
930.271	7094.77
930.581	7030.37
930.89	7024.49
931.199	7056.58
931.508	7052.96
931.817	7022.68
932.125	6945.17
932.434	7003.7
932.743	6959.41
933.051	6944.72
933.36	6877.15
933.669	6931.39
933.977	6842.35
934.286	6861.1
934.594	6845.51
934.902	6756.7
935.21	6785.63
935.519	6776.14
935.827	6768.68
936.135	6696.82
936.443	6692.97
936.751	6665.63
937.059	6621.34
937.367	6613.43
937.674	6562.13
937.982	6553.09
938.29	6485.07
938.597	6462.47
938.905	6467.22
939.213	6438.07
939.52	6375.69
939.827	6401.46
940.135	6417.27
940.442	6336.37
940.749	6303.15
941.056	6249.37
941.363	6158.75
941.67	6212.76
941.977	6157.85
942.284	6078.98
942.591	6068.13
942.898	6051.41
943.205	6026.32
943.511	5988.81
943.818	5948.13
944.125	5905.2
944.431	5879.89
944.738	5810.74
945.044	5836.5
945.35	5780.23
945.657	5742.49
945.963	5715.82
946.269	5671.08
946.575	5636.05
946.881	5598.77
947.187	5577.07
947.493	5511.76
947.799	5569.16
948.105	5480.8
948.41	5411.2
948.716	5477.86
949.022	5395.15
949.327	5365.55
949.633	5308.83
949.938	5347.7
950.244	5292.56
950.549	5306.57
950.854	5230.41
951.16	5187.02
951.465	5309.51
951.77	5187.02
952.075	5251.88
952.38	5136.4
952.685	5168.04
952.99	5174.6
953.294	5206.69
953.599	5129.63
953.904	5102.06
954.209	5106.57
954.513	5134.37
954.818	5075.84
955.122	5040.36
955.426	5025.67
955.731	5001.94
956.035	5057.31
956.339	4981.38
956.643	5046.46
956.948	4969.4
957.252	4967.37
957.556	4971.66
957.86	4942.74
958.163	4961.27
958.467	4894.15
958.771	4909.74
959.075	4857.09
959.378	4828.62
959.682	4857.99
959.985	4801.72
960.289	4820.93
960.592	4775.06
960.896	4712.23
961.199	4737.09
961.502	4703.42
961.805	4662.07
962.108	4664.33
962.411	4648.06
962.714	4610.99
963.017	4568.28
963.32	4577.1
963.623	4532.35
963.926	4561.05
964.228	4467.72
964.531	4454.84
964.833	4470.43
965.136	4408.51
965.438	4420.49
965.741	4397.67
966.043	4310.21
966.345	4245.81
966.648	4314.51
966.95	4264.56
967.252	4275.64
967.554	4187.73
967.856	4174.85
968.158	4157.67
968.46	4135.3
968.761	4095.08
969.063	4090.33
969.365	4055.75
969.666	4027.96
969.968	4060.27
970.269	3978.47
970.571	3961.75
970.872	3946.83
971.174	3902.76
971.475	3933.5
971.776	3898.02
972.077	3863.22
972.378	3845.14
972.679	3866.61
972.98	3831.81
973.281	3785.03
973.582	3801.75
973.883	3757.01
974.183	3747.74
974.484	3699.83
974.785	3734.86
975.085	3781.86
975.386	3730.11
975.686	3708.19
975.986	3691.92
976.287	3644.69
976.587	3612.15
976.887	3661.19
977.187	3617.12
977.487	3630
977.787	3559.72
978.087	3622.09
978.387	3592.04
978.687	3611.25
978.987	3561.08
979.286	3573.73
979.586	3552.94
979.885	3504.36
980.185	3500.97
980.484	3524.02
980.784	3494.19
981.083	3506.39
981.382	3453.28
981.682	3467.52
981.981	3454.64
982.28	3427.97
982.579	3387.75
982.878	3413.51
983.177	3405.6
983.475	3383.68
983.774	3352.04
984.073	3336.45
984.372	3337.36
984.67	3311.37
984.969	3350.69
985.267	3333.06
985.566	3264.36
985.864	3246.51
986.162	3249.45
986.461	3216.68
986.759	3242.22
987.057	3206.51
987.355	3161.09
987.653	3131.03
987.951	3145.27
988.249	3156.8
988.547	3130.36
988.844	3098.49
989.142	3063.01
989.44	3065.5
989.737	3046.74
990.035	2992.73
990.332	2997.25
990.63	2934.43
990.927	2981.66
991.224	2935.78
991.521	2931.04
991.819	2900.76
992.116	2901.89
992.413	2866.86
992.71	2886.97
993.006	2873.19
993.303	2855.56
993.6	2813.75
993.897	2806.52
994.193	2830.48
994.49	2769.24
994.787	2732.17
995.083	2734.89
995.379	2692.4
995.676	2685.62
995.972	2667.09
996.268	2670.71
996.565	2644.49
996.861	2639.75
997.157	2626.41
997.453	2639.52
997.749	2617.6
998.044	2597.49
998.34	2620.76
998.636	2561.1
998.932	2559.75
999.227	2531.95
999.523	2548.22
999.818	2570.6
1000.114	2526.3
1000.409	2518.85
1000.704	2548.68
1001	2508.9
1001.295	2484.04
1001.59	2464.61
1001.885	2451.73
1002.18	2493.76
1002.475	2448.57
1002.77	2422.8
1003.065	2424.16
1003.359	2381
1003.654	2391.62
1003.949	2369.92
1004.243	2355.91
1004.538	2354.1
1004.832	2362.47
1005.127	2354.1
1005.421	2323.15
1005.715	2324.95
1006.009	2280.66
1006.304	2316.59
1006.598	2315.46
1006.892	2292.19
1007.186	2270.27
1007.48	2257.61
1007.773	2226.2
1008.067	2223.49
1008.361	2184.39
1008.655	2214.22
1008.948	2189.36
1009.242	2175.13
1009.535	2143.94
1009.829	2134.68
1010.122	2152.08
1010.415	2101.91
1010.708	2116.6
1011.001	2060.78
1011.295	2069.14
1011.588	2054.9
1011.881	2037.05
1012.173	2038.18
1012.466	2017.16
1012.759	2033.89
1013.052	1996.15
1013.344	2000.44
1013.637	1946.66
1013.93	1949.14
1014.222	1932.42
1014.514	1933.1
1014.807	1901.69
1015.099	1891.52
1015.391	1911.4
1015.683	1870.73
1015.976	1849.03
1016.268	1861.46
1016.56	1858.75
1016.851	1821.24
1017.143	1793.22
1017.435	1814.46
1017.727	1798.87
1018.018	1748.7
1018.31	1741.01
1018.602	1752.31
1018.893	1744.63
1019.185	1701.92
1019.476	1667.12
1019.767	1695.14
1020.058	1702.82
1020.35	1671.64
1020.641	1653.78
1020.932	1641.81
1021.223	1614.69
1021.514	1628.47
1021.804	1602.49
1022.095	1601.36
1022.386	1569.49
1022.677	1568.81
1022.967	1552.54
1023.258	1578.76
1023.548	1565.42
1023.839	1522.94
1024.129	1512.32
1024.419	1507.35
1024.709	1511.42
1025	1512.09
1025.29	1499.89
1025.58	1479.33
1025.87	1475.71
1026.16	1493.79
1026.449	1469.16
1026.739	1479.1
1027.029	1468.93
1027.319	1446.11
1027.608	1397.29
1027.898	1400.46
1028.187	1393.23
1028.477	1419.67
1028.766	1396.16
1029.055	1389.38
1029.344	1396.39
1029.634	1361.81
1029.923	1358.65
1030.212	1344.64
1030.501	1341.7
1030.79	1343.74
1031.078	1320.69
1031.367	1318.88
1031.656	1312.55
1031.945	1282.49
1032.233	1297.18
1032.522	1284.08
1032.81	1270.97
1033.099	1248.37
1033.387	1233.68
1033.675	1291.08
1033.963	1251.31
1034.251	1232.55
1034.54	1232.33
1034.828	1226.22
1035.116	1218.99
1035.403	1216.73
1035.691	1187.36
1035.979	1174.02
1036.267	1178.09
1036.554	1201.37
1036.842	1164.31
1037.129	1150.52
1037.417	1136.96
1037.704	1138.54
1037.992	1136.06
1038.279	1110.52
1038.566	1132.89
1038.853	1132.89
1039.14	1132.89
