Data from red_shiny_book_FLMS001491_00061.txt Node
Date: Wed Feb 08 15:25:12 GMT 2017
User: dcchb
Spectrometer: FLMS00149
Trigger mode: 0
Integration Time (sec): 2.000000E-2
Scans to average: 10
Electric dark correction enabled: true
Nonlinearity correction enabled: false
Boxcar width: 0
XAxis mode: Wavelengths
Number of Pixels in Spectrum: 2048
>>>>>Begin Spectral Data<<<<<
341.393	-12.56
341.776	-12.56
342.16	-12.56
342.543	-55.72
342.927	-63.85
343.31	-81.25
343.693	-66.57
344.077	-73.12
344.46	-66.79
344.843	-56.4
345.226	-40.13
345.61	-20.01
345.993	-32.44
346.376	6.88
346.759	13.21
347.142	19.53
347.525	52.07
347.908	83.49
348.291	77.61
348.674	88.46
349.057	95.46
349.44	139.53
349.823	144.28
350.206	166.65
350.588	189.47
350.971	228.12
351.354	214.78
351.737	250.94
352.119	260.43
352.502	255.23
352.884	269.47
353.267	289.13
353.65	286.65
354.032	294.1
354.414	309.7
354.797	312.86
355.179	338.85
355.562	319.19
355.944	336.36
356.326	302.69
356.709	332.07
357.091	343.37
357.473	354.21
357.855	341.33
358.238	343.37
358.62	345.63
359.002	344.27
359.384	338.85
359.766	354.21
360.148	351.28
360.53	337.94
360.912	349.24
361.294	325.97
361.676	335.68
362.057	332.97
362.439	328.9
362.821	314.89
363.203	320.99
363.584	320.99
363.966	326.87
364.348	310.15
364.729	311.5
365.111	302.69
365.493	332.07
365.874	323.25
366.256	307.66
366.637	332.29
367.019	306.08
367.4	302.24
367.781	292.07
368.163	320.54
368.544	310.37
368.925	321.9
369.306	304.27
369.688	325.97
370.069	316.02
370.45	317.38
370.831	313.99
371.212	319.64
371.593	305.85
371.974	309.92
372.355	302.24
372.736	312.86
373.117	326.87
373.498	310.83
373.879	310.83
374.26	325.51
374.641	298.4
375.021	311.73
375.402	324.16
375.783	303.82
376.163	303.37
376.544	319.64
376.925	308.79
377.305	317.38
377.686	320.09
378.066	328.9
378.447	336.81
378.827	319.19
379.208	316.7
379.588	319.19
379.968	311.28
380.349	327.77
380.729	325.74
381.109	320.77
381.489	332.97
381.87	332.29
382.25	329.81
382.63	335.91
383.01	330.26
383.39	322.35
383.77	335.46
384.15	322.35
384.53	321.67
384.91	345.4
385.29	332.75
385.67	350.82
386.049	345.85
386.429	329.81
386.809	358.51
387.189	336.36
387.568	341.78
387.948	335.91
388.328	357.83
388.707	361.45
389.087	351.05
389.466	353.08
389.846	346.08
390.225	342.46
390.605	358.06
390.984	371.39
391.363	342.91
391.743	344.27
392.122	363.03
392.501	348.34
392.881	379.52
393.26	349.92
393.639	363.93
394.018	344.72
394.397	373.42
394.776	362.8
395.155	360.32
395.534	368.9
395.913	369.58
396.292	344.04
396.671	342.46
397.05	360.54
397.429	372.74
397.808	375
398.186	367.09
398.565	360.32
398.944	369.81
399.323	368
399.701	355.8
400.08	368.68
400.458	365.51
400.837	390.6
401.215	386.98
401.594	358.51
401.972	371.39
402.351	373.87
402.729	385.63
403.107	381.78
403.486	391.73
403.864	388.34
404.242	378.39
404.62	381.56
404.999	370.94
405.377	370.26
405.755	393.08
406.133	377.49
406.511	369.13
406.889	407.09
407.267	403.03
407.645	411.84
408.023	382.01
408.401	407.09
408.779	404.38
409.156	402.8
409.534	398.05
409.912	403.03
410.29	403.48
410.667	419.52
411.045	410.94
411.422	424.95
411.8	412.52
412.178	428.11
412.555	402.12
412.933	438.73
413.31	421.56
413.687	428.56
414.065	437.38
414.442	447.32
414.819	434.21
415.197	437.6
415.574	433.76
415.951	439.64
416.328	450.03
416.705	433.08
417.082	459.07
417.46	449.8
417.837	461.56
418.214	479.18
418.591	479.41
418.967	457.71
419.344	478.5
419.721	491.16
420.098	468.11
420.475	473.31
420.852	479.41
421.228	484.61
421.605	509.69
421.982	494.32
422.358	510.82
422.735	488.67
423.111	497.49
423.488	489.35
423.864	490.48
424.241	495.45
424.617	509.69
424.994	510.59
425.37	514.44
425.746	505.17
426.123	493.65
426.499	519.63
426.875	525.06
427.251	538.62
427.627	517.37
428.003	531.61
428.379	540.65
428.756	520.99
429.132	544.27
429.507	541.78
429.883	539.07
430.259	513.53
430.635	541.1
431.011	546.3
431.387	537.94
431.763	572.06
432.138	567.77
432.514	577.48
432.89	567.32
433.265	578.39
433.641	575
434.016	570.03
434.392	576.13
434.767	600.08
435.143	586.3
435.518	605.51
435.894	575.45
436.269	605.96
436.644	603.7
437.02	622.91
437.395	607.09
437.77	598.73
438.145	599.41
438.52	583.13
438.895	624.04
439.271	629.69
439.646	630.59
440.021	620.87
440.395	623.13
440.77	615.9
441.145	621.33
441.52	656.58
441.895	625.85
442.27	659.52
442.645	651.83
443.019	659.74
443.394	662.23
443.769	644.15
444.143	676.92
444.518	653.42
444.892	653.19
445.267	645.51
445.641	681.89
446.016	673.53
446.39	670.82
446.764	677.6
447.139	682.57
447.513	661.78
447.887	669.46
448.262	682.11
448.636	676.92
449.01	658.39
449.384	689.35
449.758	678.5
450.132	702.91
450.506	704.49
450.88	677.82
451.254	706.97
451.628	706.52
452.002	711.49
452.376	720.08
452.75	713.53
453.123	716.01
453.497	714.88
453.871	687.99
454.244	692.51
454.618	711.49
454.992	727.99
455.365	705.62
455.739	728.67
456.112	734.09
456.486	751.72
456.859	737.48
457.232	756.01
457.606	746.29
457.979	744.71
458.352	744.26
458.725	739.29
459.099	730.25
459.472	753.53
459.845	764.6
460.218	758.27
460.591	799.63
460.964	751.94
461.337	784.71
461.71	775.9
462.083	805.28
462.456	802.34
462.829	791.26
463.201	783.13
463.574	769.34
463.947	783.36
464.32	766.86
464.692	787.42
465.065	796.69
465.438	807.99
465.81	805.05
466.183	824.94
466.555	843.01
466.928	849.12
467.3	856.57
467.672	883.01
468.045	852.51
468.417	861.55
468.789	877.82
469.161	861.55
469.534	869
469.906	852.28
470.278	847.99
470.65	893.18
471.022	891.37
471.394	885.5
471.766	909.45
472.138	932.73
472.51	931.15
472.882	952.84
473.253	972.05
473.625	964.59
473.997	970.92
474.369	945.38
474.74	965.72
475.112	959.85
475.484	987.64
475.855	966.63
476.227	972.5
476.598	990.81
476.97	1022.22
477.341	1050.47
477.713	1058.83
478.084	1083.23
478.455	1074.42
478.827	1097.25
479.198	1114.87
479.569	1104.25
479.94	1127.75
480.311	1118.94
480.682	1105.61
481.053	1120.52
481.424	1132.72
481.795	1141.31
482.166	1166.62
482.537	1165.27
482.908	1226.06
483.279	1245.04
483.65	1289.78
484.021	1296.79
484.391	1299.95
484.762	1332.04
485.133	1297.69
485.503	1320.52
485.874	1334.98
486.244	1320.74
486.615	1327.07
486.985	1308.09
487.356	1356
487.726	1357.35
488.097	1368.88
488.467	1394.86
488.837	1464.47
489.207	1501.08
489.578	1504.92
489.948	1529.1
490.318	1539.49
490.688	1545.82
491.058	1570
491.428	1547.4
491.798	1555.54
492.168	1580.85
492.538	1574.52
492.908	1576.78
493.278	1605.93
493.648	1578.59
494.017	1644.58
494.387	1658.81
494.757	1692.48
495.126	1719.6
495.496	1711.24
495.866	1758.7
496.235	1790.56
496.605	1804.8
496.974	1746.04
497.344	1780.62
497.713	1735.42
498.082	1770.9
498.452	1771.8
498.821	1737.23
499.19	1768.87
499.559	1743.56
499.928	1788.75
500.298	1821.07
500.667	1833.72
501.036	1864.46
501.405	1861.52
501.774	1862.65
502.143	1894.74
502.512	1891.57
502.88	1958.01
503.249	1890.67
503.618	1892.48
503.987	1911.69
504.356	1908.75
504.724	1873.5
505.093	1876.66
505.462	1816.1
505.83	1861.07
506.199	1910.11
506.567	1877.79
506.936	1933.61
507.304	1955.08
507.672	1980.39
508.041	2033.94
508.409	2020.16
508.777	1998.01
509.145	2013.38
509.514	2002.08
509.882	1977.45
510.25	1972.48
510.618	1928.41
510.986	1941.29
511.354	1913.27
511.722	1918.69
512.09	1890.44
512.458	1910.56
512.826	1931.8
513.193	1977.22
513.561	1964.79
513.929	1983.1
514.297	2013.61
514.664	2026.49
515.032	2057.67
515.4	2070.78
515.767	2075.98
516.135	2039.37
516.502	2022.64
516.869	2014.51
517.237	1998.46
517.604	1953.49
517.972	1969.09
518.339	1908.98
518.706	1910.11
519.073	1940.84
519.44	1934.51
519.808	1987.62
520.175	1998.46
520.542	2008.18
520.909	2030.33
521.276	2077.78
521.643	2064.23
522.009	2080.72
522.376	2109.65
522.743	2108.74
523.11	2073.26
523.477	2069.42
523.843	2031.46
524.21	2047.28
524.577	2008.86
524.943	1977.45
525.31	1993.94
525.676	2024.9
526.043	2032.81
526.409	2063.32
526.776	2111.23
527.142	2110.1
527.508	2144.9
527.874	2199.14
528.241	2225.35
528.607	2195.3
528.973	2270.55
529.339	2246.14
529.705	2277.1
530.071	2270.1
530.437	2243.43
530.803	2224.9
531.169	2205.01
531.535	2171.34
531.901	2190.78
532.267	2164.79
532.632	2207.05
532.998	2218.57
533.364	2243.2
533.73	2274.16
534.095	2355.52
534.461	2390.32
534.826	2428.51
535.192	2461.5
535.557	2506.47
535.923	2512.35
536.288	2518.45
536.653	2521.84
537.019	2521.16
537.384	2474.16
537.749	2485.01
538.114	2478.68
538.479	2473.25
538.845	2424.22
539.21	2419.92
539.575	2414.27
539.94	2423.76
540.305	2489.07
540.67	2496.76
541.034	2574.27
541.399	2616.75
541.764	2623.08
542.129	2682.97
542.494	2760.93
542.858	2736.52
543.223	2740.59
543.587	2759.35
543.952	2732.46
544.316	2758.9
544.681	2705.56
545.045	2726.13
545.41	2738.11
545.774	2698.11
546.138	2659.01
546.503	2655.85
546.867	2631.67
547.231	2650.88
547.595	2694.04
547.959	2712.8
548.324	2727.71
548.688	2729.29
549.052	2769.29
549.416	2824.21
549.779	2865.33
550.143	2906.01
550.507	2940.13
550.871	2929.74
551.235	2908.27
551.599	2883.41
551.962	2882.28
552.326	2838.22
552.689	2867.37
553.053	2781.04
553.417	2756.18
553.78	2754.15
554.143	2681.38
554.507	2719.12
554.87	2664.89
555.234	2711.44
555.597	2750.54
555.96	2727.94
556.323	2787.37
556.686	2801.38
557.05	2866.46
557.413	2924.54
557.776	2959.57
558.139	2958.44
558.502	2989.17
558.865	2988.72
559.228	2982.62
559.59	2971.55
559.953	2924.77
560.316	2943.3
560.679	2901.04
561.041	2882.73
561.404	2828.27
561.767	2822.85
562.129	2778.1
562.492	2795.96
562.854	2792.12
563.217	2796.64
563.579	2824.66
563.941	2844.54
564.304	2911.66
564.666	2958.44
565.028	3014.48
565.39	3033.47
565.753	3129.96
566.115	3117.98
566.477	3090.19
566.839	3118.89
567.201	3119.79
567.563	3104.65
567.925	3094.03
568.287	3033.69
568.648	3018.32
569.01	2986.69
569.372	2999.12
569.734	2968.61
570.095	2948.5
570.457	2969.29
570.819	2969.96
571.18	2986.69
571.542	2996.86
571.903	3057.19
572.265	3126.12
572.626	3155.72
572.987	3218.55
573.349	3279.79
573.71	3373.34
574.071	3414.7
574.432	3498.54
574.794	3524.75
575.155	3547.12
575.516	3541.25
575.877	3579.67
576.238	3598.42
576.599	3587.8
576.96	3653.56
577.32	3650.85
577.681	3680.45
578.042	3725.42
578.403	3763.62
578.763	3840.9
579.124	3894.01
579.485	3971.07
579.845	4137.84
580.206	4247.44
580.566	4354.56
580.927	4530.6
581.287	4788.67
581.648	4898.73
582.008	5143.47
582.368	5331.94
582.728	5522.67
583.089	5673.62
583.449	5925.59
583.809	6137.56
584.169	6329.65
584.529	6550.44
584.889	6825.91
585.249	6993.36
585.609	7242.39
585.969	7538.43
586.329	7708.14
586.688	8030.62
587.048	8332.99
587.408	8605.97
587.768	8933.65
588.127	9269.01
588.487	9624.93
588.846	10078.03
589.206	10380.62
589.565	10831
589.925	11278.45
590.284	11724.54
590.643	12160.91
591.003	12621.69
591.362	13048.57
591.721	13505.05
592.08	13924.48
592.44	14388.65
592.799	14752.71
593.158	15205.8
593.517	15554.04
593.876	15953.8
594.235	16224.98
594.593	16781.13
594.952	17147.67
595.311	17552.41
595.67	17962.56
596.029	18395.55
596.387	18709.89
596.746	19202.76
597.104	19592.13
597.463	20002.06
597.822	20646.34
598.18	21003.61
598.538	21428.01
598.897	22049.24
599.255	22251.94
599.613	23092.37
599.972	23334.4
600.33	23752.69
600.688	24214.38
601.046	24648.94
601.404	25146.33
601.762	25455.93
602.12	26012.07
602.478	26238.51
602.836	26654.99
603.194	26845.95
603.552	27169.55
603.91	27370.68
604.268	27814.51
604.625	28012.02
604.983	28438.9
605.341	28622.62
605.698	29016.74
606.056	29429.38
606.413	29642.71
606.771	30099.65
607.128	30433.65
607.485	30680.2
607.843	31032.28
608.2	31524.02
608.557	31801.07
608.914	31923.1
609.272	32494.39
609.629	32786.13
609.986	33264.31
610.343	33326.91
610.7	33774.13
611.057	33896.61
611.414	34027.23
611.771	34328.01
612.127	34542.47
612.484	34756.25
612.841	34924.6
613.198	35021.55
613.554	35148.1
613.911	35416.79
614.267	35477.58
614.624	35565.27
614.98	35764.13
615.337	36165.7
615.693	36085.7
616.05	36276.89
616.406	36645.46
616.762	36664.9
617.118	36793.26
617.475	36984.66
617.831	37305.11
618.187	37597.3
618.543	37826.9
618.899	38047.01
619.255	38135.37
619.611	38047.23
619.967	38452.42
620.323	38570.38
620.678	38605.64
621.034	38650.83
621.39	38691.06
621.746	38764.28
622.101	39038.17
622.457	38725.41
622.812	38906.87
623.168	39024.38
623.523	39058.28
623.879	39227.77
624.234	38997.27
624.589	39092.18
624.945	39307.77
625.3	39297.82
625.655	39361.55
626.01	39639.73
626.365	39574.43
626.72	39554.99
627.075	39757.47
627.43	39735.78
627.785	39649.68
628.14	40035.43
628.495	40086.05
628.85	40155.88
629.205	40034.75
629.559	40327.63
629.914	40121.08
630.269	40307.29
630.623	40251.02
630.978	40286.72
631.332	40333.28
631.687	40391.35
632.041	40161.75
632.396	40324.01
632.75	40080.4
633.104	40145.48
633.459	39880.18
633.813	39894.87
634.167	39958.37
634.521	39918.15
634.875	40033.17
635.229	39918.15
635.583	39711.37
635.937	39778.94
636.291	39829.56
636.645	39887.41
636.999	39855.55
637.352	39919.28
637.706	39844.93
638.06	39953.4
638.413	40015.09
638.767	39875.43
639.121	40050.8
639.474	39841.09
639.828	39912.5
640.181	40136.67
640.534	40101.64
640.888	39839.96
641.241	39778.49
641.594	39752.05
641.947	39809.22
642.301	39712.95
642.654	39742.33
643.007	39618.04
643.36	39574.88
643.713	39410.36
644.066	39678.6
644.419	39258.5
644.771	39045.17
645.124	38544.85
645.477	38441.57
645.83	38313.44
646.182	38080
646.535	38142.6
646.888	38342.37
647.24	38099.89
647.593	38346.21
647.945	38362.48
648.298	38144.41
648.65	38152.54
649.002	38068.02
649.355	38252.88
649.707	38141.92
650.059	38310.05
650.411	38956.59
650.763	38851.05
651.115	39235.45
651.467	39111.61
651.819	39252.85
652.171	39041.78
652.523	38945.06
652.875	38804.73
653.227	38673.21
653.578	38912.07
653.93	38766.31
654.282	38552.53
654.633	38378.75
654.985	38491.74
655.337	38471.63
655.688	38325.19
656.039	38488.8
656.391	38247.45
656.742	38220.34
657.094	38240
657.445	38484.28
657.796	38293.56
658.147	38365.64
658.498	38321.35
658.849	38378.98
659.2	38378.75
659.551	38309.6
659.902	38498.75
660.253	38437.28
660.604	38498.75
660.955	38288.58
661.306	38555.47
661.656	38588.01
662.007	38547.33
662.358	38537.84
662.708	38453.55
663.059	38381.46
663.409	38122.71
663.76	38405.64
664.11	38357.96
664.461	38277.06
664.811	38248.36
665.161	38141.02
665.511	38039.78
665.862	37942.6
666.212	38059.89
666.562	38162.26
666.912	37928.59
667.262	37864.41
667.612	37835.04
667.962	37766.11
668.312	37792.33
668.662	37888.37
669.011	37803.17
669.361	37801.36
669.711	37869.16
670.06	37809.27
670.41	37848.37
670.76	37814.7
671.109	37898.99
671.459	37984.64
671.808	37885.66
672.157	38033.68
672.507	37826
672.856	37895.6
673.205	37845.43
673.554	38030.06
673.904	37789.16
674.253	38007.69
674.602	37920.46
674.951	37260.81
675.3	37150.31
675.649	37588.04
675.998	37556.4
676.346	37433.24
676.695	37640.69
677.044	37117.32
677.393	37329.96
677.741	37362.05
678.09	37115.51
678.438	37052.01
678.787	37127.48
679.135	37106.24
679.484	36760.26
679.832	37049.07
680.181	36790.09
680.529	36972.23
680.877	36844.1
681.225	36745.12
681.573	37046.13
681.922	36815.4
682.27	36723.43
682.618	36835.74
682.966	36686.14
683.314	36962.97
683.661	36846.14
684.009	36673.94
684.357	36706.25
684.705	36590.1
685.053	36610.44
685.4	36579.7
685.748	36273.04
686.095	36516.65
686.443	36244.12
686.79	36162.54
687.138	36309.88
687.485	36213.16
687.832	35956.44
688.18	35911.92
688.527	35857.46
688.874	35709.67
689.221	35498.15
689.568	35455.21
689.915	35319.85
690.262	35276.69
690.609	35151.27
690.956	34918.5
691.303	34945.17
691.65	34759.86
691.997	34749.02
692.344	34729.81
692.69	34685.06
693.037	34622.92
693.383	34339.76
693.73	34541.34
694.077	34394.9
694.423	34425.63
694.769	34279.65
695.116	34387.67
695.462	34215.24
695.808	34223.61
696.155	34229.71
696.501	34023.16
696.847	34141.8
697.193	33868.59
697.539	33921.24
697.885	33832.88
698.231	33594.47
698.577	33616.84
698.923	33492.33
699.269	33299.56
699.614	33106.12
699.96	33175.5
700.306	33001.94
700.651	32934.83
700.997	32863.42
701.342	32674.95
701.688	32543.65
702.033	32378.46
702.379	32383.88
702.724	32264.11
703.069	32257.1
703.415	32021.86
703.76	31995.87
704.105	31979.37
704.45	31901.63
704.795	31804.46
705.14	31634.75
705.485	31665.93
705.83	31528.54
706.175	31561.08
706.52	31587.29
706.865	31388.88
707.209	31438.82
707.554	31456.45
707.899	31373.06
708.243	31329.9
708.588	31251.03
708.932	31166.06
709.277	31122.67
709.621	31133.29
709.966	30932.17
710.31	30911.15
710.654	30632.74
710.998	30802
711.342	30767.43
711.687	30658.5
712.031	30463.48
712.375	30313.65
712.719	30282.47
713.063	30270.72
713.407	30312.3
713.75	30049.93
714.094	29898.07
714.438	29882.7
714.782	29974.23
715.125	29673.67
715.469	29776.94
715.812	29536.95
716.156	29414.24
716.499	29465.99
716.843	29482.94
717.186	29236.62
717.53	29389.83
717.873	29406.78
718.216	29341.02
718.559	29282.49
718.902	29040.24
719.246	29190.74
719.589	29155.49
719.932	29000.47
720.275	29100.8
720.617	29148.48
720.96	29021.71
721.303	29081.14
721.646	29028.26
721.989	28898.1
722.331	28955.95
722.674	28868.72
723.016	29021.26
723.359	28843.41
723.701	28782.17
724.044	28643.87
724.386	28475.06
724.729	28676.41
725.071	28480.48
725.413	28384.21
725.755	28370.88
726.097	28267.15
726.439	28129.08
726.782	28124.78
727.124	28175.63
727.465	27937.9
727.807	27865.13
728.149	27798.46
728.491	27614.29
728.833	27629.88
729.175	27748.52
729.516	27523.67
729.858	27613.38
730.199	27646.83
730.541	27492.03
730.882	27441.64
731.224	27524.12
731.565	27225.6
731.906	27373.84
732.248	27358.02
732.589	27198.71
732.93	27195.32
733.271	27270.79
733.612	27191.25
733.953	27270.57
734.294	27157.58
734.635	27113.28
734.976	27187.63
735.317	27187.86
735.658	27140.4
735.999	27241.42
736.339	27137.69
736.68	27154.87
737.021	27105.15
737.361	26856.12
737.702	27048.43
738.042	26850.47
738.383	26822.44
738.723	26849.79
739.063	26844.82
739.404	26785.84
739.744	26700.19
740.084	26473.75
740.424	26648.89
740.764	26460.42
741.104	26455.67
741.444	26353.98
741.784	26211.16
742.124	26289.8
742.464	26153.31
742.804	26015.69
743.143	26031.05
743.483	26107.89
743.823	25905.41
744.162	25860.66
744.502	25930.04
744.841	25705.19
745.181	25896.59
745.52	25700.44
745.86	25849.59
746.199	25745.64
746.538	25721.68
746.877	25824.5
747.216	25708.35
747.556	25727.78
747.895	25783.83
748.234	25694.56
748.573	25517.62
748.911	25610.5
749.25	25591.52
749.589	25577.73
749.928	25530.28
750.267	25597.39
750.605	25536.38
750.944	25384.97
751.283	25343.61
751.621	25408.24
751.96	25123.28
752.298	25187.23
752.636	25168.93
752.975	24975.71
753.313	24908.14
753.651	24975.71
753.989	24875.83
754.327	24725.55
754.666	24591.32
755.004	24674.03
755.342	24632.22
755.679	24509.51
756.017	24186.58
756.355	24341.38
756.693	24248.95
757.031	24154.49
757.368	24112.69
757.706	24022.07
758.044	23811.22
758.381	23926.93
758.719	23741.62
759.056	23821.17
759.394	23758.57
759.731	23682.64
760.068	23609.2
760.405	23559.03
760.743	23415.75
761.08	23635.86
761.417	23390.22
761.754	23354.51
762.091	23342.54
762.428	23246.27
762.765	23171.24
763.102	23299.83
763.438	23115.2
763.775	23059.15
764.112	23187.51
764.449	23097.34
764.785	23047.63
765.122	22827.97
765.458	22793.4
765.795	22759.73
766.131	22694.87
766.467	22610.58
766.804	22524.03
767.14	22412.84
767.476	22335.33
767.812	22282.68
768.148	22407.42
768.485	22132.85
768.821	21995.68
769.157	21970.37
769.492	21822.35
769.828	21850.15
770.164	21581.68
770.5	21577.61
770.836	21444.96
771.171	21383.04
771.507	21260.78
771.842	21136.04
772.178	21077.28
772.513	21103.5
772.849	21030.73
773.184	20949.15
773.519	20908.7
773.855	20672.32
774.19	20637.07
774.525	20615.15
774.86	20560.91
775.195	20620.57
775.53	20568.15
775.865	20405.44
776.2	20179
776.535	20196.18
776.87	20197.08
777.205	20034.37
777.539	20036.18
777.874	20035.96
778.209	19881.38
778.543	19996.64
778.878	19794.38
779.212	19831.22
779.547	19766.58
779.881	19812.91
780.215	19713.48
780.55	19722.29
780.884	19470.77
781.218	19379.02
781.552	19412.7
781.886	19317.33
782.22	19176.32
782.554	19176.32
782.888	18983.55
783.222	18855.2
783.556	18927.96
783.889	18805.48
784.223	18641.42
784.557	18522.55
784.89	18587.63
785.224	18481.19
785.557	18379.5
785.891	18300.86
786.224	18238.94
786.558	18242.33
786.891	17949.01
787.224	17980.64
787.557	17857.93
787.891	17764.15
788.224	17822
788.557	17857.26
788.89	17718.96
789.223	17682.12
789.556	17562.8
789.888	17548.11
790.221	17429.02
790.554	17362.58
790.887	17292.07
791.219	17400.77
791.552	17283.26
791.884	17182.02
792.217	17114.23
792.549	17141.57
792.882	16956.26
793.214	16963.04
793.546	17021.57
793.879	16894.8
794.211	16749.26
794.543	16815.7
794.875	16798.08
795.207	16852.54
795.539	16695.71
795.871	16678.3
796.203	16572.77
796.535	16446.45
796.867	16407.58
797.198	16403.28
797.53	16429.5
797.862	16270.41
798.193	16332.1
798.525	16204.64
798.856	16161.71
799.188	16064.99
799.519	15952.22
799.85	15914.48
800.182	15995.38
800.513	15892.34
800.844	15673.13
801.175	15819.8
801.506	15746.13
801.837	15668.61
802.168	15555.4
802.499	15484.66
802.83	15383.42
803.161	15348.4
803.491	15378.68
803.822	15314.27
804.153	15250.32
804.483	15131.9
804.814	15015.98
805.145	15070.21
805.475	15073.83
805.805	14937.33
806.136	14975.3
806.466	14935.3
806.796	14942.76
807.126	14841.29
807.457	14786.15
807.787	14799.94
808.117	14741.86
808.447	14651.69
808.777	14665.25
809.107	14637.91
809.436	14674.97
809.766	14636.32
810.096	14610.79
810.426	14538.93
810.755	14497.57
811.085	14479.72
811.414	14413.28
811.744	14370.79
812.073	14331.02
812.403	14302.32
812.732	14211.48
813.061	14293.51
813.39	14265.49
813.719	14186.62
814.049	14212.15
814.378	14199.27
814.707	14175.09
815.036	14137.58
815.365	14070.24
815.693	13929.9
816.022	13894.87
816.351	13874.54
816.68	13787.53
817.008	13826.18
817.337	13757.93
817.665	13681.1
817.994	13681.1
818.322	13634.99
818.651	13490.82
818.979	13449.01
819.307	13609.68
819.636	13416.02
819.964	13303.48
820.292	13406.3
820.62	13354.1
820.948	13342.57
821.276	13323.14
821.604	13364.95
821.932	13385.74
822.259	13336.25
822.587	13279.98
822.915	13298.05
823.243	13289.24
823.57	13314.55
823.898	13315
824.225	13222.35
824.553	13244.95
824.88	13232.97
825.207	13296.47
825.535	13240.88
825.862	13324.49
826.189	13267.32
826.516	13380.54
826.843	13393.42
827.17	13317.71
827.497	13359.75
827.824	13400.42
828.151	13379.41
828.478	13343.48
828.805	13498.95
829.131	13326.53
829.458	13394.1
829.785	13324.04
830.111	13317.71
830.438	13451.95
830.764	13343.7
831.09	13367.66
831.417	13329.47
831.743	13430.25
832.069	13376.24
832.395	13384.61
832.722	13259.86
833.048	13256.02
833.374	13301.67
833.7	13269.81
834.026	13236.14
834.351	13211.28
834.677	13111.17
835.003	13131.28
835.329	13193.2
835.654	13121.11
835.98	12979.19
836.306	13020.32
836.631	12978.29
836.956	12984.62
837.282	12952.75
837.607	12896.48
837.932	12863.72
838.258	12844.28
838.583	12797.5
838.908	12856.03
839.233	12781.68
839.558	12800.67
839.883	12729.71
840.208	12626.66
840.533	12653.1
840.858	12676.83
841.182	12698.97
841.507	12632.99
841.832	12590.5
842.156	12629.37
842.481	12539.88
842.805	12648.81
843.13	12477.74
843.454	12390.96
843.778	12423.73
844.103	12457.17
844.427	12456.49
844.751	12467.12
845.075	12435.25
845.399	12395.25
845.723	12324.29
846.047	12407.91
846.371	12278.42
846.695	12250.62
847.019	12104.41
847.343	12142.15
847.666	12102.61
847.99	12057.18
848.313	12050.86
848.637	11972.89
848.96	11947.81
849.284	11890.86
849.607	11837.08
849.931	11866.91
850.254	11653.8
850.577	11661.49
850.9	11590.75
851.223	11516.41
851.546	11531.1
851.869	11472.34
852.192	11469.4
852.515	11366.35
852.838	11256.75
853.161	11281.38
853.483	11224.89
853.806	11083.65
854.129	11149.41
854.451	11138.11
854.774	11052.24
855.096	10937.89
855.419	10961.17
855.741	10914.16
856.063	10862.64
856.385	10794.84
856.708	10747.16
857.03	10832.36
857.352	10752.13
857.674	10748.97
857.996	10660.61
858.318	10569.76
858.64	10599.82
858.961	10492.48
859.283	10447.28
859.605	10453.38
859.926	10465.81
860.248	10435.08
860.57	10438.69
860.891	10416.55
861.212	10363.67
861.534	10375.42
861.855	10341.75
862.176	10346.04
862.498	10340.39
862.819	10365.25
863.14	10271.24
863.461	10267.4
863.782	10269.89
864.103	10288.19
864.424	10217.91
864.745	10339.26
865.065	10144.46
865.386	10202.54
865.707	10150.79
866.027	10144.92
866.348	10184.69
866.668	10131.36
866.989	10203.22
867.309	10064.92
867.63	10179.94
867.95	10138.59
868.27	10036.45
868.59	10115.54
868.91	10022.21
869.23	9993.06
869.55	10006.84
869.87	9973.62
870.19	9992.38
870.51	9943.57
870.83	9917.13
871.15	9890.23
871.469	9924.58
871.789	9958.93
872.109	9862.44
872.428	9786.96
872.748	9837.13
873.067	9796.45
873.386	9737.02
873.706	9714.65
874.025	9672.16
874.344	9697.47
874.663	9669.22
874.982	9632.39
875.301	9631.03
875.62	9548.55
875.939	9539.96
876.258	9587.19
876.577	9497.48
876.896	9478.04
877.214	9503.8
877.533	9485.05
877.852	9383.81
878.17	9478.27
878.489	9413.64
878.807	9447.31
879.125	9379.51
879.444	9373.64
879.762	9344.71
880.08	9366.18
880.398	9291.38
880.716	9314.66
881.034	9294.77
881.352	9317.59
881.67	9316.24
881.988	9388.33
882.306	9253.19
882.624	9234.66
882.941	9219.07
883.259	9186.75
883.577	9195.79
883.894	9190.37
884.212	9106.98
884.529	9211.38
884.846	9137.71
885.164	9104.27
885.481	9118.05
885.798	9088.45
886.115	9108.33
886.432	9026.98
886.75	8992.4
887.067	8988.56
887.383	8969.81
887.7	9008.9
888.017	8921.45
888.334	9024.95
888.651	8912.18
888.967	8935.91
889.284	8900.88
889.6	8847.1
889.917	8756.7
890.233	8772.75
890.55	8725.29
890.866	8728.68
891.182	8706.99
891.498	8681.68
891.815	8672.19
892.131	8624.96
892.447	8632.87
892.763	8517.84
893.079	8555.35
893.395	8512.19
893.71	8465.64
894.026	8438.3
894.342	8430.39
894.657	8312.42
894.973	8319.2
895.289	8336.6
895.604	8342.03
895.92	8202.37
896.235	8213.44
896.55	8199.21
896.865	8175.03
897.181	8134.35
897.496	8174.12
897.811	8013.9
898.126	8083.28
898.441	8046.67
898.756	8044.63
899.071	8011.87
899.386	7980
899.7	7930.96
900.015	7891.87
900.33	7811.87
900.644	7822.49
900.959	7769.84
901.273	7785.66
901.588	7757.64
901.902	7717.18
902.216	7738.43
902.531	7678.32
902.845	7609.62
903.159	7577.98
903.473	7601.25
903.787	7582.95
904.101	7555.15
904.415	7585.21
904.729	7464.99
905.042	7543.86
905.356	7457.98
905.67	7382.5
905.984	7387.02
906.297	7386.8
906.611	7365.55
906.924	7398.1
907.237	7313.35
907.551	7331.88
907.864	7275.39
908.177	7213.47
908.491	7195.16
908.804	7139.12
909.117	7162.62
909.43	7149.97
909.743	7131.66
910.056	7077.88
910.368	7054.6
910.681	7038.11
910.994	6948.39
911.307	6970.09
911.619	6902.52
911.932	6883.08
912.244	6865.23
912.557	6837.21
912.869	6813.93
913.181	6722.41
913.494	6730.09
913.806	6653.26
914.118	6618.46
914.43	6616.65
914.742	6601.73
915.054	6507.95
915.366	6483.77
915.678	6514.96
915.99	6450.78
916.302	6363.32
916.613	6397.44
916.925	6429.08
917.236	6371
917.548	6293.27
917.859	6364.45
918.171	6276.54
918.482	6228.18
918.794	6207.17
919.105	6201.97
919.416	6155.64
919.727	6151.8
920.038	6134.17
920.349	6109.77
920.66	6079.26
920.971	6045.59
921.282	6035.19
921.593	6014.86
921.903	5931.02
922.214	5923.56
922.525	5881.53
922.835	5867.29
923.146	5831.58
923.456	5908.64
923.767	5831.36
924.077	5835.88
924.387	5759.27
924.697	5804.24
925.008	5739.61
925.318	5712.94
925.628	5724.69
925.938	5698.03
926.248	5642.66
926.558	5624.13
926.867	5667.29
927.177	5615.09
927.487	5564.47
927.796	5471.14
928.106	5547.07
928.416	5524.25
928.725	5530.12
929.034	5477.92
929.344	5490.12
929.653	5423.23
929.962	5383.69
930.271	5378.49
930.581	5332.61
930.89	5333.52
931.199	5308.21
931.508	5313.86
931.817	5263.24
932.125	5249.45
932.434	5223.92
932.743	5168.32
933.051	5171.71
933.36	5151.38
933.669	5123.58
933.977	5099.17
934.286	5070.7
934.594	5065.73
934.902	5044.26
935.21	5000.65
935.519	4984.6
935.827	4971.72
936.135	4933.08
936.443	4879.29
936.751	4891.5
937.059	4877.71
937.367	4828.67
937.674	4846.07
937.982	4795.23
938.29	4769.46
938.597	4790.26
938.905	4715.46
939.213	4717.71
939.52	4673.42
939.827	4692.4
940.135	4671.39
940.442	4575.8
940.749	4633.88
941.056	4625.29
941.363	4525.63
941.67	4524.05
941.977	4507.1
942.284	4475.24
942.591	4529.47
942.898	4444.95
943.205	4417.16
943.511	4413.77
943.818	4435.91
944.125	4373.77
944.431	4442.69
944.738	4402.47
945.044	4328.12
945.35	4294.9
945.657	4312.98
945.963	4284.51
946.269	4271.85
946.575	4299.19
946.881	4271.4
947.187	4232.76
947.493	4224.39
947.799	4199.31
948.105	4220.55
948.41	4222.81
948.716	4151.63
949.022	4119.54
949.327	4128.8
949.633	4073.44
949.938	4127.67
950.244	4103.04
950.549	4089.48
950.854	4068.24
951.16	4022.14
951.465	3999.99
951.77	3986.89
952.075	3964.74
952.38	3973.78
952.685	3943.72
952.99	3917.74
953.294	3944.63
953.599	3899.21
953.904	3883.16
954.209	3865.53
954.513	3812.65
954.818	3838.19
955.122	3779.21
955.426	3750.28
955.731	3781.92
956.035	3766.78
956.339	3782.6
956.643	3718.87
956.948	3687.23
957.252	3675.71
957.556	3684.3
957.86	3657.86
958.163	3673.67
958.467	3659.66
958.771	3620.34
959.075	3615.37
959.378	3593
959.682	3542.6
959.985	3562.27
960.289	3548.71
960.592	3505.77
960.896	3445.43
961.199	3477.3
961.502	3466.9
961.805	3451.76
962.108	3441.82
962.411	3431.65
962.714	3378.77
963.017	3403.63
963.32	3376.51
963.623	3361.82
963.926	3329.05
964.228	3258.09
964.531	3286.34
964.833	3300.13
965.136	3269.84
965.438	3249.28
965.741	3219.9
966.043	3261.26
966.345	3232.1
966.648	3204.76
966.95	3171.09
967.252	3118.43
967.554	3170.41
967.856	3130.86
968.158	3119.56
968.46	3167.93
968.761	3116.18
969.063	3087.02
969.365	3131.99
969.666	3087.7
969.968	3051.77
970.269	3047.02
970.571	3037.76
970.872	3029.62
971.174	2994.37
971.475	3000.25
971.776	3001.15
972.077	2974.48
972.378	2968.38
972.679	2963.64
972.98	2926.58
973.281	2954.37
973.582	2910.98
973.883	2927.25
974.183	2870.08
974.484	2888.16
974.785	2872.11
975.085	2851.78
975.386	2902.85
975.686	2834.83
975.986	2813.81
976.287	2837.99
976.587	2811.78
976.887	2784.66
977.187	2802.51
977.487	2774.72
977.787	2767.26
978.087	2753.47
978.387	2726.35
978.687	2746.69
978.987	2666.47
979.286	2701.95
979.586	2675.28
979.885	2695.17
980.185	2697.2
980.484	2642.06
980.784	2669.18
981.083	2624.44
981.382	2660.37
981.682	2627.6
981.981	2603.19
982.28	2571.56
982.579	2565.91
982.878	2564.78
983.177	2502.63
983.475	2534.04
983.774	2556.64
984.073	2466.02
984.372	2508.73
984.67	2476.64
984.969	2480.94
985.267	2481.62
985.566	2440.49
985.864	2421.28
986.162	2444.33
986.461	2408.4
986.759	2398.45
987.057	2389.87
987.355	2381.73
987.653	2407.27
987.951	2372.24
988.249	2340.38
988.547	2355.29
988.844	2319.81
989.142	2306.25
989.44	2314.61
989.737	2305.35
990.035	2249.31
990.332	2254.05
990.63	2258.12
990.927	2268.06
991.224	2208.85
991.521	2258.57
991.819	2258.12
992.116	2227.84
992.413	2161.4
992.71	2187.39
993.006	2180.83
993.303	2166.14
993.6	2183.77
993.897	2165.47
994.193	2168.4
994.49	2099.93
994.787	2125.92
995.083	2160.04
995.379	2112.59
995.676	2105.13
995.972	2126.6
996.268	2091.8
996.565	2036.66
996.861	2075.07
997.157	2036.88
997.453	2028.75
997.749	2018.58
998.044	2022.19
998.34	2052.47
998.636	2005.47
998.932	2001.85
999.227	1979.03
999.523	2009.99
999.818	1983.1
1000.114	1953.49
1000.409	1955.3
1000.704	1927.28
1001	1954.17
1001.295	1905.81
1001.59	1923.44
1001.885	1918.24
1002.18	1873.95
1002.475	1919.6
1002.77	1894.74
1003.065	1866.49
1003.359	1853.16
1003.654	1835.3
1003.949	1819.94
1004.243	1828.75
1004.538	1774.29
1004.832	1825.81
1005.127	1781.29
1005.421	1795.76
1005.715	1786.94
1006.009	1747.4
1006.304	1761.18
1006.598	1723.67
1006.892	1727.06
1007.186	1707.4
1007.48	1697
1007.773	1715.08
1008.067	1711.47
1008.361	1703.78
1008.655	1696.55
1008.948	1670.34
1009.242	1652.03
1009.535	1660.39
1009.829	1615.88
1010.122	1627.85
1010.415	1642.54
1010.708	1604.12
1011.001	1605.03
1011.295	1591.47
1011.588	1573.84
1011.881	1588.08
1012.173	1592.37
1012.466	1558.48
1012.759	1537.01
1013.052	1535.88
1013.344	1530.45
1013.637	1513.28
1013.93	1515.99
1014.222	1500.85
1014.514	1535.43
1014.807	1494.75
1015.099	1473.96
1015.391	1479.83
1015.683	1438.48
1015.976	1453.62
1016.268	1446.16
1016.56	1444.81
1016.851	1426.28
1017.143	1413.85
1017.435	1408.65
1017.727	1392.15
1018.018	1373.17
1018.31	1380.63
1018.602	1361.87
1018.893	1369.1
1019.185	1383.57
1019.476	1358.71
1019.767	1340.63
1020.058	1318.71
1020.35	1320.74
1020.641	1320.52
1020.932	1346.5
1021.223	1300.4
1021.514	1287.52
1021.804	1283.23
1022.095	1285.26
1022.386	1243.91
1022.677	1272.61
1022.967	1247.98
1023.258	1243.23
1023.548	1221.08
1023.839	1242.1
1024.129	1218.37
1024.419	1204.59
1024.709	1182.44
1025	1208.2
1025.29	1211.82
1025.58	1197.13
1025.87	1165.27
1026.16	1165.72
1026.449	1181.76
1026.739	1169.33
1027.029	1143.35
1027.319	1154.19
1027.608	1143.57
1027.898	1143.12
1028.187	1134.08
1028.477	1123.91
1028.766	1095.44
1029.055	1084.14
1029.344	1105.38
1029.634	1102.22
1029.923	1093.4
1030.212	1050.01
1030.501	1062.22
1030.79	1055.21
1031.078	1082.56
1031.367	1043.01
1031.656	1052.73
1031.945	1028.55
1032.233	1010.69
1032.522	1021.99
1032.81	1020.64
1033.099	989.45
1033.387	992.84
1033.675	986.29
1033.963	976.34
1034.251	986.51
1034.54	982.45
1034.828	977.47
1035.116	936.35
1035.403	960.75
1035.691	971.82
1035.979	948.32
1036.267	937.25
1036.554	950.81
1036.842	916.01
1037.129	927.76
1037.417	923.92
1037.704	900.19
1037.992	911.04
1038.279	887.08
1038.566	883.92
1038.853	883.92
1039.14	883.92
