Data from red_shiny_book_FLMS001491_00077.txt Node
Date: Wed Feb 08 15:25:22 GMT 2017
User: dcchb
Spectrometer: FLMS00149
Trigger mode: 0
Integration Time (sec): 2.000000E-2
Scans to average: 10
Electric dark correction enabled: true
Nonlinearity correction enabled: false
Boxcar width: 0
XAxis mode: Wavelengths
Number of Pixels in Spectrum: 2048
>>>>>Begin Spectral Data<<<<<
341.393	-22.67
341.776	-22.67
342.16	-22.67
342.543	-81.88
342.927	-80.29
343.31	-59.05
343.693	-87.07
344.077	-64.02
344.46	-55.21
344.843	-72.39
345.226	-58.37
345.61	-36.45
345.993	-23.57
346.376	-1.88
346.759	15.52
347.142	28.18
347.525	53.26
347.908	51.91
348.291	91.9
348.674	106.14
349.057	111.11
349.44	121.06
349.823	129.64
350.206	152.47
350.588	179.13
350.971	198.57
351.354	206.48
351.737	215.06
352.119	265.69
352.502	258.23
352.884	262.07
353.267	262.97
353.65	263.88
354.032	281.05
354.414	281.28
354.797	310.66
355.179	344.1
355.562	323.54
355.944	342.29
356.326	327.15
356.709	328.28
357.091	329.19
357.473	349.52
357.855	350.65
358.238	363.99
358.62	330.77
359.002	335.74
359.384	323.54
359.766	333.48
360.148	344.78
360.53	316.76
360.912	337.55
361.294	318.34
361.676	322.41
362.057	327.6
362.439	334.61
362.821	334.84
363.203	316.76
363.584	309.98
363.966	302.29
364.348	312.01
364.729	326.25
365.111	303.65
365.493	314.72
365.874	313.59
366.256	320.37
366.637	316.53
367.019	309.53
367.4	309.75
367.781	298.68
368.163	297.1
368.544	318.34
368.925	316.98
369.306	300.71
369.688	302.75
370.069	319.92
370.45	311.56
370.831	326.93
371.212	321.28
371.593	316.98
371.974	332.58
372.355	307.49
372.736	335.74
373.117	326.93
373.498	312.92
373.879	332.35
374.26	318.34
374.641	309.75
375.021	305.68
375.402	320.6
375.783	324.44
376.163	318.57
376.544	326.25
376.925	335.51
377.305	330.32
377.686	334.61
378.066	346.13
378.447	348.85
378.827	327.83
379.208	341.62
379.588	321.05
379.968	335.06
380.349	328.06
380.729	338.9
381.109	338.45
381.489	339.36
381.87	343.2
382.25	348.85
382.63	332.35
383.01	345.46
383.39	339.13
383.77	336.42
384.15	342.52
384.53	375.06
384.91	368.28
385.29	352.01
385.67	344.55
386.049	362.41
386.429	368.28
386.809	341.84
387.189	356.3
387.568	380.71
387.948	354.72
388.328	345.01
388.707	362.18
389.087	343.42
389.466	360.6
389.846	359.02
390.225	370.54
390.605	364.44
390.984	375.06
391.363	394.27
391.743	371.45
392.122	368.06
392.501	391.33
392.881	382.74
393.26	388.62
393.639	383.87
394.018	365.12
394.397	388.85
394.776	378
395.155	386.13
395.534	380.03
395.913	386.81
396.292	409.86
396.671	425.45
397.05	399.24
397.429	409.18
397.808	408.05
398.186	373.48
398.565	401.5
398.944	403.53
399.323	396.76
399.701	397.66
400.08	382.29
400.458	401.27
400.837	381.84
401.215	380.26
401.594	400.37
401.972	421.61
402.351	400.14
402.729	400.37
403.107	419.13
403.486	416.19
403.864	414.38
404.242	412.12
404.62	427.94
404.999	399.01
405.377	407.6
405.755	416.64
406.133	424.33
406.511	434.95
406.889	448.51
407.267	439.01
407.645	457.32
408.023	453.25
408.401	455.28
408.779	441.73
409.156	444.89
409.534	456.41
409.912	440.37
410.29	453.48
410.667	458.9
411.045	478.33
411.422	458.67
411.8	471.33
412.178	481.5
412.555	479.01
412.933	471.56
413.31	488.73
413.687	497.32
414.065	497.77
414.442	499.13
414.819	528.28
415.197	498
415.574	507.03
415.951	518.33
416.328	540.48
416.705	537.99
417.082	520.59
417.46	516.98
417.837	536.41
418.214	532.12
418.591	508.62
418.967	528.73
419.344	528.5
419.721	542.74
420.098	555.4
420.475	549.29
420.852	546.13
421.228	559.91
421.605	559.69
421.982	570.31
422.358	540.25
422.735	564.66
423.111	581.16
423.488	566.24
423.864	588.39
424.241	603.53
424.617	598.56
424.994	606.92
425.37	612.12
425.746	609.86
426.123	600.59
426.499	629.07
426.875	592.46
427.251	601.72
427.627	610.31
428.003	625.9
428.379	638.33
428.756	644.21
429.132	660.25
429.507	643.75
429.883	656.41
430.259	628.61
430.635	677.43
431.011	651.44
431.387	651.44
431.763	661.61
432.138	675.62
432.514	702.74
432.89	678.33
433.265	691.66
433.641	703.41
434.016	711.55
434.392	725.11
434.767	751.55
435.143	701.38
435.518	716.29
435.894	695.96
436.269	715.62
436.644	720.59
437.02	746.8
437.395	743.19
437.77	763.98
438.145	753.58
438.52	762.17
438.895	783.64
439.271	774.37
439.646	772.79
440.021	769.85
440.395	780.93
440.77	764.66
441.145	780.25
441.52	790.42
441.895	808.04
442.27	838.33
442.645	832.22
443.019	837.42
443.394	840.59
443.769	858.66
444.143	819.12
444.518	842.39
444.892	836.07
445.267	828.38
445.641	829.96
446.016	829.51
446.39	840.81
446.764	822.73
447.139	845.56
447.513	879.23
447.887	868.16
448.262	870.41
448.636	883.52
449.01	872.45
449.384	875.61
449.758	864.77
450.132	833.58
450.506	871.32
450.88	862.28
451.254	867.93
451.628	873.8
452.002	930.53
452.376	927.81
452.75	911.32
453.123	936.18
453.497	936.4
453.871	921.49
454.244	944.99
454.618	907.48
454.992	940.24
455.365	901.15
455.739	934.82
456.112	958.1
456.486	943.86
456.859	971.66
457.232	977.98
457.606	1010.98
457.979	1006.91
458.352	1029.28
458.725	1001.03
459.099	1021.82
459.472	1005.33
459.845	1017.3
460.218	1008.04
460.591	1008.26
460.964	999
461.337	1007.36
461.71	1030.64
462.083	1047.59
462.456	1053.91
462.829	1066.34
463.201	1114.02
463.574	1099.34
463.947	1113.57
464.32	1117.64
464.692	1119.45
465.065	1106.34
465.438	1101.6
465.81	1147.47
466.183	1116.96
466.555	1128.94
466.928	1113.35
467.3	1154.02
467.672	1157.19
468.045	1210.97
468.417	1215.72
468.789	1234.25
469.161	1201.71
469.534	1234.25
469.906	1251.87
470.278	1244.19
470.65	1268.37
471.022	1253.46
471.394	1253
471.766	1247.81
472.138	1273.57
472.51	1281.93
472.882	1299.33
473.253	1324.41
473.625	1354.47
473.997	1425.2
474.369	1419.1
474.74	1443.51
475.112	1444.86
475.484	1451.87
475.855	1459.78
476.227	1460.91
476.598	1455.71
476.97	1472.89
477.341	1492.77
477.713	1500.23
478.084	1487.57
478.455	1547.23
478.827	1566.89
479.198	1633.33
479.569	1651.41
479.94	1706.55
480.311	1685.31
480.682	1754.23
481.053	1739.32
481.424	1754.91
481.795	1763.5
482.166	1772.09
482.537	1787
482.908	1775.93
483.279	1769.37
483.65	1851.18
484.021	1883.04
484.391	1902.7
484.762	1975.92
485.133	1958.97
485.503	2026.09
485.874	2083.04
486.244	2094.79
486.615	2125.52
486.985	2131.85
487.356	2133.66
487.726	2141.79
488.097	2130.27
488.467	2137.95
488.837	2136.37
489.207	2186.54
489.578	2248.68
489.948	2265.18
490.318	2295.46
490.688	2337.72
491.058	2421.11
491.428	2454.33
491.798	2500.88
492.168	2544.72
492.538	2579.07
492.908	2537.49
493.278	2596.25
493.648	2540.65
494.017	2537.94
494.387	2539.52
494.757	2556.92
495.126	2586.75
495.496	2570.94
495.866	2597.15
496.235	2664.27
496.605	2666.07
496.974	2769.35
497.344	2807.99
497.713	2836.69
498.082	2871.94
498.452	2885.5
498.821	2924.82
499.19	2884.6
499.559	2869.46
499.928	2842.57
500.298	2838.72
500.667	2861.55
501.036	2792.85
501.405	2824.04
501.774	2823.58
502.143	2874.66
502.512	2910.59
502.88	2979.06
503.249	2993.07
503.618	3069.23
503.987	3112.84
504.356	3145.61
504.724	3118.04
505.093	3128.66
505.462	3112.39
505.83	3082.33
506.199	3119.62
506.567	3059.74
506.936	3060.41
507.304	3051.37
507.672	3001.43
508.041	3022.45
508.409	3057.48
508.777	3084.14
509.145	3170.69
509.514	3202.11
509.882	3223.12
510.25	3279.62
510.618	3306.06
510.986	3304.48
511.354	3327.53
511.722	3296.79
512.09	3332.95
512.458	3258.6
512.826	3270.58
513.193	3215.44
513.561	3199.39
513.929	3195.1
514.297	3192.84
514.664	3166.85
515.032	3207.98
515.4	3290.92
515.767	3331.14
516.135	3362.33
516.502	3370.24
516.869	3439.16
517.237	3478.48
517.604	3494.3
517.972	3497.24
518.339	3556.67
518.706	3480.29
519.073	3476.67
519.44	3456.34
519.808	3421.31
520.175	3364.13
520.542	3392.38
520.909	3343.8
521.276	3311.25
521.643	3361.87
522.009	3441.87
522.376	3484.81
522.743	3532.72
523.11	3609.33
523.477	3687.29
523.843	3696.1
524.21	3781.98
524.577	3805.03
524.943	3791.24
525.31	3796.21
525.676	3813.16
526.043	3790.11
526.409	3715.76
526.776	3712.6
527.142	3694.3
527.508	3647.07
527.874	3689.32
528.241	3680.96
528.607	3748.08
528.973	3789.21
529.339	3887.51
529.705	3932.48
530.071	4008.64
530.437	4104
530.803	4108.07
531.169	4211.34
531.535	4211.57
531.901	4205.02
532.267	4233.26
532.632	4232.59
532.998	4213.15
533.364	4167.5
533.73	4135.64
534.095	4119.14
534.461	4125.24
534.826	4073.95
535.192	4126.15
535.557	4152.36
535.923	4172.93
536.288	4236.2
536.653	4322.53
537.019	4354.39
537.384	4478.23
537.749	4537.89
538.114	4611.79
538.479	4645
538.845	4672.8
539.21	4668.28
539.575	4635.51
539.94	4643.42
540.305	4675.06
540.67	4645.68
541.034	4557.32
541.399	4542.18
541.764	4539.47
542.129	4552.8
542.494	4560.26
542.858	4566.59
543.223	4583.31
543.587	4659.92
543.952	4741.27
544.316	4801.16
544.681	4846.81
545.045	4888.39
545.41	5000.48
545.774	5075.5
546.138	5131.55
546.503	5121.38
546.867	5167.25
547.231	5142.17
547.595	5080.7
547.959	5063.07
548.324	4991.21
548.688	4916.86
549.052	4862.17
549.416	4826.7
549.779	4842.06
550.143	4816.75
550.507	4914.83
550.871	4901.27
551.235	4908.73
551.599	5006.8
551.962	5067.82
552.326	5159.34
552.689	5281.6
553.053	5254.48
553.417	5319.79
553.78	5433.23
554.143	5399.79
554.507	5434.36
554.87	5374.48
555.234	5347.59
555.597	5293.58
555.96	5154.14
556.323	5174.26
556.686	5056.52
557.05	5066.01
557.413	5040.02
557.776	5044.77
558.139	5030.76
558.502	5100.59
558.865	5095.16
559.228	5212.9
559.59	5263.52
559.953	5370.18
560.316	5511.2
560.679	5540.8
561.041	5622.61
561.404	5730.17
561.767	5720
562.129	5684.3
562.492	5782.83
562.854	5738.76
563.217	5691.53
563.579	5579.44
563.941	5558.2
564.304	5467.81
564.666	5418.54
565.028	5401.14
565.39	5330.64
565.753	5390.3
566.115	5377.64
566.477	5383.52
566.839	5413.57
567.201	5565.21
567.563	5603.85
567.925	5722.72
568.287	5783.51
568.648	5908.47
569.01	5968.13
569.372	6083.39
569.734	6090.16
570.095	6185.08
570.457	6161.12
570.819	6206.77
571.18	6151.41
571.542	6091.29
571.903	6114.12
572.265	6061.92
572.626	5978.76
572.987	5919.77
573.349	5885.42
573.71	5878.64
574.071	5880.23
574.432	5883.84
574.794	6007
575.155	6086.32
575.516	6101.92
575.877	6302.36
576.238	6392.3
576.599	6569.47
576.96	6670.26
577.32	6850.37
577.681	7024.6
578.042	7102.79
578.403	7203.13
578.763	7340.08
579.124	7387.76
579.485	7491.71
579.845	7503.69
580.206	7616.23
580.566	7623.01
580.927	7719.73
581.287	7829.33
581.648	7886.28
582.008	8015.99
582.368	8170.11
582.728	8347.96
583.089	8543.66
583.449	8769.87
583.809	9108.84
584.169	9516.74
584.529	9761.93
584.889	10133.22
585.249	10453.44
585.609	10859.08
585.969	11298.39
586.329	11713.52
586.688	12150.8
587.048	12455.65
587.408	12758.92
587.768	13216.08
588.127	13586.92
588.487	13863.97
588.846	14224.87
589.206	14384.64
589.565	14799.54
589.925	15186.42
590.284	15536.02
590.643	15783.92
591.003	16205.15
591.362	16647.4
591.721	16940.5
592.08	17454.16
592.44	18115.39
592.799	18567.12
593.158	19023.16
593.517	19538.85
593.876	20160.98
594.235	20560.97
594.593	21228.98
594.952	21821.28
595.311	22288.38
595.67	22814.92
596.029	23305.31
596.387	23791.17
596.746	24254.88
597.104	24572.16
597.463	24802.22
597.822	25324.46
598.18	25669.76
598.538	25819.59
598.897	26432
599.255	26490.31
599.613	27213.9
599.972	27349.72
600.33	27793.32
600.688	28180.21
601.046	28668.1
601.404	29135.43
601.762	29521.41
602.12	30151.45
602.478	30660.37
602.836	31148.04
603.194	31364.3
603.552	31906.21
603.91	32205.18
604.268	32797.94
604.625	32967.42
604.983	33593.4
605.341	33758.36
605.698	34252.14
606.056	34684.22
606.413	34746.81
606.771	35124.88
607.128	35372.11
607.485	35548.6
607.843	35634.25
608.2	36057.06
608.557	36222.93
608.914	36263.16
609.272	36753.77
609.629	36814.78
609.986	37175.68
610.343	37288.67
610.7	37833.74
611.057	37977.24
611.414	38253.39
611.771	38532.93
612.127	38978.11
612.484	39170.65
612.841	39677.53
613.198	39760.92
613.554	40069.84
613.911	40487.9
614.267	40512.08
614.624	40688.35
614.98	40913.88
615.337	41273.65
615.693	41287.66
616.05	41341.67
616.406	41616.69
616.762	41517.03
617.118	41715.44
617.475	41667.53
617.831	41600.42
618.187	41742.11
618.543	41881.77
618.899	42146.17
619.255	42181.42
619.611	42133.74
619.967	42415.09
620.323	42581.41
620.678	42592.71
621.034	42609.2
621.39	42815.07
621.746	42999.25
622.101	43458.9
622.457	43364.66
622.812	43687.82
623.168	43797.87
623.523	43823.64
623.879	44275.38
624.234	44024.76
624.589	44302.04
624.945	44348.82
625.3	44314.24
625.655	44462.04
626.01	44427.91
626.365	44344.75
626.72	44361.25
627.075	44067.7
627.43	44133.91
627.785	44060.47
628.14	44078.54
628.495	44140.69
628.85	43973.91
629.205	43888.27
629.559	44180.46
629.914	44033.35
630.269	44074.48
630.623	44028.6
630.978	44092.56
631.332	44345.43
631.687	44464.07
632.041	44218.65
632.396	44546.1
632.75	44545.2
633.104	44642.82
633.459	44616.84
633.813	44720.34
634.167	44848.47
634.521	44787.68
634.875	44856.38
635.229	44826.32
635.583	44633.33
635.937	44693.67
636.291	44507.91
636.645	44546.55
636.999	44283.74
637.352	44296.39
637.706	43974.82
638.06	44051.43
638.413	44001.71
638.767	43767.59
639.121	43847.36
639.474	43519.24
639.828	43632.91
640.181	43660.48
640.534	43756.97
640.888	43617.31
641.241	43491.22
641.594	43585.68
641.947	43890.98
642.301	43691.66
642.654	43891.43
643.007	44001.71
643.36	43886.69
643.713	43988.15
644.066	44157.41
644.419	43877.42
644.771	43702.06
645.124	43248.74
645.477	43187.27
645.83	43054.84
646.182	42786.37
646.535	42765.36
646.888	42826.83
647.24	42455.76
647.593	42775.53
647.945	42454.86
648.298	42180.74
648.65	42112.72
649.002	41881.31
649.355	42005.38
649.707	41875.44
650.059	41868.66
650.411	42331.92
650.763	42484.46
651.115	42852.59
651.467	42640.39
651.819	42734.17
652.171	42659.15
652.523	42520.62
652.875	42754.06
653.227	42572.6
653.578	42879.48
653.93	43012.36
654.282	42931.68
654.633	42904.11
654.985	42943.88
655.337	43002.64
655.688	43060.27
656.039	43237.21
656.391	42792.93
656.742	43127.16
657.094	42871.34
657.445	43150.66
657.796	42840.16
658.147	42732.82
658.498	42594.52
658.849	42592.03
659.2	42422.32
659.551	42184.13
659.902	42232.72
660.253	42154.08
660.604	42122.89
660.955	41925.61
661.306	41865.27
661.656	41960.41
662.007	41897.58
662.358	41791.82
662.708	42042.21
663.059	41807.42
663.409	41796.8
663.76	42080.4
664.11	42321.75
664.461	42385.93
664.811	42330.12
665.161	42402.43
665.511	42288.76
665.862	42395.65
666.212	42599.49
666.562	42549.09
666.912	42548.19
667.262	42427.97
667.612	42553.61
667.962	42514.52
668.312	42506.38
668.662	42511.81
669.011	42257.12
669.361	42170.57
669.711	41997.7
670.06	41951.82
670.41	41808.77
670.76	41533.75
671.109	41718.38
671.459	41793.63
671.808	41531.72
672.157	41507.09
672.507	41327.2
672.856	41100.32
673.205	41237.04
673.554	41289.47
673.904	41135.34
674.253	41487.43
674.602	41231.84
674.951	40806.54
675.3	40693.32
675.649	41388.67
675.998	41498.95
676.346	41408.11
676.695	41725.84
677.044	41397.94
677.393	41687.87
677.741	41687.87
678.09	41587.08
678.438	41654.43
678.787	41692.84
679.135	41680.64
679.484	41387.77
679.832	41536.46
680.181	41290.82
680.529	41397.71
680.877	41037.04
681.225	41106.19
681.573	41193.87
681.922	40803.6
682.27	40589.14
682.618	40618.97
682.966	40489.49
683.314	40438.41
683.661	40319.1
684.009	39946.9
684.357	39920.46
684.705	39870.07
685.053	39909.61
685.4	39943.06
685.748	39684.76
686.095	39568.83
686.443	39708.49
686.79	39670.07
687.138	39851.31
687.485	39838.66
687.832	39618.77
688.18	39745.1
688.527	39598.21
688.874	39610.64
689.221	39610.87
689.568	39685.21
689.915	39595.95
690.262	39640.69
690.609	39614.48
690.956	39464.65
691.303	39480.02
691.65	39259.91
691.997	39138.11
692.344	38907.38
692.69	38812.92
693.037	38801.4
693.383	38470.56
693.73	38677.56
694.077	38278.47
694.423	38167.97
694.769	38019.49
695.116	37929.1
695.462	37666.74
695.808	37475.33
696.155	37600.52
696.501	37200.08
696.847	37202.34
697.193	36959.86
697.539	37046.64
697.885	36731.39
698.231	36701.34
698.577	36850.03
698.923	36656.59
699.269	36602.81
699.614	36430.16
699.96	36575.01
700.306	36472.87
700.651	36459.31
700.997	36435.58
701.342	36426.99
701.688	36446.2
702.033	36388.58
702.379	36382.48
702.724	36346.32
703.069	36418.63
703.415	35916.5
703.76	36058.87
704.105	36032.43
704.45	35911.98
704.795	35673.12
705.14	35481.48
705.485	35630.4
705.83	35243.97
706.175	35319.45
706.52	35168.72
706.865	34820.03
707.209	34929.86
707.554	34646.25
707.899	34643.99
708.243	34331.68
708.588	34172.59
708.932	33857.12
709.277	33964.46
709.621	34042.2
709.966	33750.45
710.31	33764.69
710.654	33478.82
710.998	33631.36
711.342	33703.22
711.687	33612.15
712.031	33538.71
712.375	33425.04
712.719	33558.14
713.063	33476.79
713.407	33679.04
713.75	33430.91
714.094	33566.96
714.438	33540.97
714.782	33576.22
715.125	33333.97
715.469	33543.45
715.812	33427.75
716.156	33158.61
716.499	33338.49
716.843	33417.81
717.186	33170.58
717.53	33296
717.873	33146.4
718.216	32973.53
718.559	32783.7
718.902	32418.29
719.246	32651.95
719.589	32417.38
719.932	32173.09
720.275	32134.23
720.617	32174.22
720.96	31955.02
721.303	31952.08
721.646	31833.67
721.989	31658.76
722.331	31668.25
722.674	31573.79
723.016	31529.95
723.359	31453.57
723.701	31574.47
724.044	31346
724.386	31236.85
724.729	31211.76
725.071	31256.73
725.413	31283.63
725.755	31253.12
726.097	31331.08
726.439	31169.51
726.782	31119.56
727.124	31389.39
727.465	31095.61
727.807	31144.42
728.149	30996.85
728.491	31197.75
728.833	31249.05
729.175	31101.48
729.516	31202.27
729.858	30981.94
730.199	31180.35
730.541	30948.04
730.882	30976.52
731.224	30925.22
731.565	30709.86
731.906	30761.15
732.248	30568.17
732.589	30498.56
732.93	30391.9
733.271	30369.75
733.612	30271.22
733.953	30240.49
734.294	29910.56
734.635	29967.28
734.976	29894.74
735.317	29669.88
735.658	29659.71
735.999	29619.26
736.339	29570.68
736.68	29694.97
737.021	29543.33
737.361	29371.59
737.702	29425.14
738.042	29360.97
738.383	29244.58
738.723	29529.55
739.063	29285.26
739.404	29347.41
739.744	29313.28
740.084	29256.11
740.424	29416.78
740.764	29318.71
741.104	29489.55
741.444	29485.93
741.784	29393.73
742.124	29492.49
742.464	29420.85
742.804	29363.68
743.143	29274.19
743.483	29374.52
743.823	29245.26
744.162	29257.24
744.502	29283
744.841	29144.93
745.181	29167.3
745.52	28994.42
745.86	29079.62
746.199	28834.65
746.538	28803.69
746.877	28921.2
747.216	28839.85
747.556	28538.39
747.895	28536.58
748.234	28311.28
748.573	28258.62
748.911	28153.99
749.25	28064.5
749.589	27997.39
749.928	27939.31
750.267	27954.9
750.605	27852.53
750.944	27694.12
751.283	27585.42
751.621	27628.13
751.96	27544.06
752.298	27475.14
752.636	27453.9
752.975	27461.81
753.313	27334.35
753.651	27421.81
753.989	27311.08
754.327	27347.46
754.666	27242.6
755.004	27266.33
755.342	27409.6
755.679	27271.98
756.017	27212.1
756.355	27191.98
756.693	27202.15
757.031	27239.67
757.368	27117.63
757.706	27211.87
758.044	27089.84
758.381	27003.97
758.719	26853.91
759.056	26881.93
759.394	26841.94
759.731	26686.46
760.068	26533.92
760.405	26450.99
760.743	26279.01
761.08	26445.56
761.417	26260.48
761.754	26227.71
762.091	25965.8
762.428	25767.61
762.765	25672.93
763.102	25757.22
763.438	25486.94
763.775	25337.12
764.112	25309.09
764.449	25247.85
764.785	25105.26
765.122	24998.14
765.458	24815.55
765.795	24841.31
766.131	24764.7
766.467	24572.16
766.804	24508.21
767.14	24403.36
767.476	24481.32
767.812	24365.16
768.148	24397.03
768.485	24187.77
768.821	24238.84
769.157	24283.58
769.492	24143.93
769.828	24251.5
770.164	24026.42
770.5	24002.01
770.836	24053.31
771.171	24010.82
771.507	23852.86
771.842	23685.41
772.178	23880.21
772.513	23657.84
772.849	23682.47
773.184	23657.39
773.519	23567.67
773.855	23532.87
774.19	23419.2
774.525	23215.14
774.86	23280.45
775.195	23206.1
775.53	23061.24
775.865	22950.74
776.2	22694.47
776.535	22593.01
776.87	22596.17
777.205	22375.16
777.539	22268.04
777.874	22260.81
778.209	22083.87
778.543	21912.12
778.878	21739.7
779.212	21740.6
779.547	21593.71
779.881	21642.75
780.215	21435.75
780.55	21326.6
780.884	21280.27
781.218	21205.93
781.552	21168.86
781.886	20885.03
782.22	20889.32
782.554	20891.58
782.888	20671.02
783.222	20741.08
783.556	20592.16
783.889	20537.02
784.223	20462.67
784.557	20477.58
784.89	20547.41
785.224	20432.16
785.557	20379.96
785.891	20304.03
786.224	20326.85
786.558	20413.4
786.891	20206.86
787.224	20157.14
787.557	20149
787.891	20113.07
788.224	20124.37
788.557	20110.14
788.89	19991.04
789.223	20052.74
789.556	19792.4
789.888	19804.61
790.221	19767.55
790.554	19636.25
790.887	19697.49
791.219	19570.04
791.552	19379.53
791.884	19354.45
792.217	19299.53
792.549	19129.37
792.882	19005.76
793.214	18811.19
793.546	18852.99
793.879	18721.02
794.211	18635.6
794.543	18612.77
794.875	18471.99
795.207	18469.05
795.539	18389.5
795.871	18278.09
796.203	18128.94
796.535	18003.98
796.867	17957.2
797.198	17847.6
797.53	17855.96
797.862	17736.41
798.193	17864.54
798.525	17690.09
798.856	17777.77
799.188	17564.89
799.519	17603.53
799.85	17464.33
800.182	17503.65
800.513	17473.82
800.844	17368.96
801.175	17479.02
801.506	17402.86
801.837	17346.37
802.168	17392.24
802.499	17327.38
802.83	17267.95
803.161	17187.05
803.491	17308.4
803.822	17187.95
804.153	17101.17
804.483	17092.36
804.814	17023.21
805.145	17067.5
805.475	16975.75
805.805	16879.26
806.136	16876.77
806.466	16955.64
806.796	16869.99
807.126	16714.97
807.457	16699.15
807.787	16672.26
808.117	16604.92
808.447	16494.86
808.777	16464.36
809.107	16417.8
809.436	16310.69
809.766	16292.16
810.096	16198.83
810.426	16044.03
810.755	16067.53
811.085	16055.78
811.414	15903.92
811.744	15869.12
812.073	15823.69
812.403	15771.27
812.732	15634.09
813.061	15624.38
813.39	15497.15
813.719	15478.39
814.049	15550.25
814.378	15399.52
814.707	15337.38
815.036	15312.52
815.365	15204.5
815.693	15185.74
816.022	15245.86
816.351	15201.11
816.68	15087.89
817.008	15216.03
817.337	15074.34
817.665	15012.64
817.994	15070.04
818.322	15097.39
818.651	15097.61
818.979	14970.61
819.307	15033.66
819.636	15009.7
819.964	14910.05
820.292	15051.51
820.62	15030.49
820.948	15000.66
821.276	14998.63
821.604	14959.31
821.932	15115.69
822.259	15073.66
822.587	15111.4
822.915	14982.59
823.243	15065.3
823.57	15075.24
823.898	15025.07
824.225	14919.09
824.553	14947.78
824.88	14983.04
825.207	14992.3
825.535	14909.59
825.862	14906.43
826.189	14872.08
826.516	14915.92
826.843	14978.97
827.17	14928.58
827.497	14866.43
827.824	14853.55
828.151	14837.51
828.478	14747.34
828.805	14731.29
829.131	14642.26
829.458	14595.48
829.785	14563.16
830.111	14629.6
830.438	14628.7
830.764	14598.19
831.09	14546.67
831.417	14519.77
831.743	14531.75
832.069	14457.63
832.395	14489.27
832.722	14389.61
833.048	14488.14
833.374	14548.93
833.7	14396.16
834.026	14380.57
834.351	14486.55
834.677	14501.24
835.003	14468.25
835.329	14512.09
835.654	14454.69
835.98	14417.18
836.306	14427.8
836.631	14465.76
836.956	14477.97
837.282	14458.08
837.607	14465.09
837.932	14407.69
838.258	14453.33
838.583	14422.38
838.908	14330.17
839.233	14382.15
839.558	14371.53
839.883	14396.84
840.208	14258.09
840.533	14304.86
840.858	14358.87
841.182	14405.65
841.507	14261.93
841.832	14155.04
842.156	14210.86
842.481	14243.17
842.805	14192.32
843.13	14096.51
843.454	14033.46
843.778	13967.47
844.103	13999.11
844.427	13864.65
844.751	13932.22
845.075	13854.48
845.399	13761.38
845.723	13717.53
846.047	13646.58
846.371	13533.13
846.695	13519.12
847.019	13330.2
847.343	13408.39
847.666	13283.2
847.99	13108.96
848.313	13151.22
848.637	13016.31
848.96	13056.08
849.284	12992.36
849.607	12828.52
849.931	12787.39
850.254	12710.33
850.577	12760.5
850.9	12562.76
851.223	12643.21
851.546	12531.58
851.869	12461.75
852.192	12447.29
852.515	12445.25
852.838	12348.76
853.161	12416.55
853.483	12371.36
853.806	12293.17
854.129	12266.5
854.451	12266.95
854.774	12303.11
855.096	12228.31
855.419	12233.51
855.741	12164.58
856.063	12147.18
856.385	12105.37
856.708	12028.54
857.03	12014.98
857.352	12134.07
857.674	12021.76
857.996	12046.39
858.318	11940.41
858.64	12001.42
858.961	11863.57
859.283	11914.64
859.605	11834.42
859.926	11806.4
860.248	11837.13
860.57	11809.79
860.891	11783.8
861.212	11723.24
861.534	11756.23
861.855	11700.64
862.176	11616.35
862.498	11660.41
862.819	11576.57
863.14	11477.59
863.461	11530.93
863.782	11442.57
864.103	11435.56
864.424	11387.65
864.745	11299.29
865.065	11309.91
865.386	11224.04
865.707	11240.09
866.027	11149.01
866.348	11113.08
866.668	11175.23
866.989	11066.31
867.309	10996.7
867.63	11036.93
867.95	11004.61
868.27	10960.32
868.59	10974.56
868.91	10931.85
869.23	10865.63
869.55	10814.79
869.87	10928.46
870.19	10808.46
870.51	10866.54
870.83	10851.62
871.15	10770.04
871.469	10869.02
871.789	10806.65
872.109	10833.77
872.428	10729.36
872.748	10810.27
873.067	10766.43
873.386	10775.24
873.706	10715.13
874.025	10732.53
874.344	10764.39
874.663	10752.42
874.982	10745.86
875.301	10723.26
875.62	10694.56
875.939	10712.19
876.258	10734.56
876.577	10701.12
876.896	10683.94
877.214	10718.74
877.533	10621.57
877.852	10666.99
878.17	10722.13
878.489	10672.64
878.807	10652.76
879.125	10582.93
879.444	10617.73
879.762	10542.25
880.08	10615.02
880.398	10497.28
880.716	10523.49
881.034	10430.16
881.352	10458.19
881.67	10471.97
881.988	10488.69
882.306	10387.23
882.624	10347.91
882.941	10253.22
883.259	10190.17
883.577	10207.57
883.894	10240.11
884.212	10132.77
884.529	10145.88
884.846	10149.72
885.164	10086.44
885.481	9998.54
885.798	10034.47
886.115	9923.06
886.432	9926
886.75	9866.79
887.067	9838.54
887.383	9766
887.7	9788.15
888.017	9748.6
888.334	9750.18
888.651	9739.11
888.967	9662.95
889.284	9665.89
889.6	9607.81
889.917	9545.67
890.233	9513.58
890.55	9476.29
890.866	9523.52
891.182	9481.04
891.498	9450.08
891.815	9410.98
892.131	9442.39
892.447	9384.77
892.763	9365.33
893.079	9333.92
893.395	9333.47
893.71	9321.04
894.026	9297.99
894.342	9316.52
894.657	9200.82
894.973	9250.08
895.289	9268.16
895.604	9278.33
895.92	9186.58
896.235	9206.02
896.55	9223.64
896.865	9172.12
897.181	9144.32
897.496	9177.32
897.811	9083.31
898.126	9096.87
898.441	9001.5
898.756	9070.65
899.071	8991.33
899.386	9005.34
899.7	8900.71
900.015	8933.71
900.33	8847.15
900.644	8869.53
900.959	8845.8
901.273	8778
901.588	8758.8
901.902	8647.16
902.216	8578.01
902.531	8621.62
902.845	8531.68
903.159	8562.87
903.473	8445.58
903.787	8535.52
904.101	8421.4
904.415	8338.69
904.729	8288.53
905.042	8280.16
905.356	8229.09
905.67	8243.1
905.984	8205.82
906.297	8128.98
906.611	8093.95
906.924	8082.43
907.237	8039.72
907.551	7959.27
907.864	7901.19
908.177	7845.37
908.491	7894.64
908.804	7804.92
909.117	7812.61
909.43	7730.8
909.743	7738.03
910.056	7660.74
910.368	7644.47
910.681	7572.61
910.994	7580.97
911.307	7572.61
911.619	7527.87
911.932	7477.25
912.244	7410.36
912.557	7386.4
912.869	7360.19
913.181	7381.43
913.494	7355.89
913.806	7322.45
914.118	7316.35
914.43	7296.23
914.742	7298.04
915.054	7247.87
915.366	7239.29
915.678	7218.04
915.99	7163.58
916.302	7140.08
916.613	7101.44
916.925	7140.31
917.236	7154.77
917.548	7096.92
917.859	7114.32
918.171	7000.65
918.482	6979.86
918.794	6999.07
919.105	6976.7
919.416	6942.8
919.727	6944.15
920.038	6894.44
920.349	6892.86
920.66	6843.59
920.971	6834.33
921.282	6784.61
921.593	6701.9
921.903	6743.25
922.214	6699.64
922.525	6734.44
922.835	6624.84
923.146	6561.11
923.456	6609.7
923.767	6536.71
924.077	6536.71
924.387	6521.11
924.697	6457.16
925.008	6432.53
925.318	6406.31
925.628	6354.34
925.938	6336.71
926.248	6288.35
926.558	6191.86
926.867	6254.45
927.177	6161.58
927.487	6132.2
927.796	6106.21
928.106	6085.19
928.416	6060.79
928.725	6035.02
929.034	6000.45
929.344	5940.79
929.653	5962.48
929.962	5887.23
930.271	5831.41
930.581	5865.76
930.89	5791.19
931.199	5743.28
931.508	5763.17
931.817	5717.75
932.125	5741.93
932.434	5673
932.743	5636.17
933.051	5592.32
933.36	5626.45
933.669	5609.5
933.977	5532.89
934.286	5487.47
934.594	5545.32
934.902	5458.54
935.21	5464.42
935.519	5468.71
935.827	5442.05
936.135	5398.66
936.443	5397.3
936.751	5324.99
937.059	5383.97
937.367	5312.56
937.674	5325.89
937.982	5304.42
938.29	5286.8
938.597	5306.91
938.905	5190.53
939.213	5252.67
939.52	5236.85
939.827	5242.5
940.135	5171.09
940.442	5210.87
940.749	5175.84
941.056	5145.56
941.363	5047.71
941.67	5087.25
941.977	5070.76
942.284	5045.67
942.591	5044.32
942.898	5040.25
943.205	5032.34
943.511	4976.3
943.818	4981.04
944.125	4937.65
944.431	4900.82
944.738	4915.28
945.044	4908.05
945.35	4848.84
945.657	4842.97
945.963	4819.69
946.269	4820.82
946.575	4848.39
946.881	4741.95
947.187	4745.57
947.493	4692.69
947.799	4657.43
948.105	4648.17
948.41	4628.73
948.716	4631.22
949.022	4553.03
949.327	4565.91
949.633	4529.53
949.938	4507.83
950.244	4454.5
950.549	4430.32
950.854	4426.93
951.16	4409.98
951.465	4374.05
951.77	4349.65
952.075	4355.75
952.38	4345.8
952.685	4344.22
952.99	4242.3
953.294	4202.08
953.599	4211.12
953.904	4185.13
954.209	4127.73
954.513	4136.09
954.818	4136.77
955.122	4143.55
955.426	4097.67
955.731	4060.39
956.035	4080.5
956.339	4080.05
956.643	4030.33
956.948	4058.13
957.252	4020.16
957.556	4028.98
957.86	3993.04
958.163	3955.08
958.467	3906.95
958.771	3925.02
959.075	3908.98
959.378	3881.64
959.682	3883.44
959.985	3855.42
960.289	3872.37
960.592	3861.52
960.896	3819.49
961.199	3836.44
961.502	3803.9
961.805	3779.49
962.108	3770.45
962.411	3821.52
962.714	3766.61
963.017	3778.59
963.32	3759.38
963.623	3707.4
963.926	3735.88
964.228	3713.96
964.531	3699.49
964.833	3686.39
965.136	3640.74
965.438	3658.59
965.741	3643.9
966.043	3638.03
966.345	3639.38
966.648	3599.38
966.95	3568.2
967.252	3588.54
967.554	3572.72
967.856	3545.15
968.158	3531.59
968.46	3512.15
968.761	3515.09
969.063	3472.15
969.365	3459.73
969.666	3457.69
969.968	3433.06
970.269	3400.74
970.571	3390.12
970.872	3364.81
971.174	3345.38
971.475	3334.98
971.776	3333.85
972.077	3274.87
972.378	3321.65
972.679	3275.1
972.98	3248.21
973.281	3237.81
973.582	3261.31
973.883	3186.29
974.183	3200.07
974.484	3160.75
974.785	3153.52
975.085	3148.1
975.386	3151.03
975.686	3084.59
975.986	3072.62
976.287	3059.51
976.587	3052.96
976.887	3037.14
977.187	3017.7
977.487	2988.1
977.787	3002.34
978.087	2979.96
978.387	2992.85
978.687	2949.68
978.987	2953.98
979.286	2917.14
979.586	2888.67
979.885	2911.04
980.185	2892.51
980.484	2861.1
980.784	2868.55
981.083	2836.92
981.382	2815.67
981.682	2831.27
981.981	2793.98
982.28	2835.56
982.579	2774.32
982.878	2753.3
983.177	2780.2
983.475	2766.86
983.774	2775
984.073	2740.65
984.372	2720.54
984.67	2737.03
984.969	2731.16
985.267	2695.9
985.566	2718.05
985.864	2687.32
986.162	2666.75
986.461	2646.87
986.759	2657.49
987.057	2609.8
987.355	2604.83
987.653	2619.3
987.951	2616.36
988.249	2588.79
988.547	2592.63
988.844	2562.35
989.142	2577.71
989.44	2561.44
989.737	2553.08
990.035	2521.9
990.332	2530.26
990.63	2538.62
990.927	2544.04
991.224	2478.28
991.521	2491.84
991.819	2475.34
992.116	2469.69
992.413	2448.9
992.71	2426.08
993.006	2422.01
993.303	2427.21
993.6	2390.15
993.897	2396.48
994.193	2373.2
994.49	2411.62
994.787	2340.66
995.083	2349.02
995.379	2334.33
995.676	2307.67
995.972	2303.37
996.268	2283.26
996.565	2287.33
996.861	2268.57
997.157	2272.64
997.453	2244.62
997.749	2244.16
998.044	2202.36
998.34	2218.85
998.636	2186.31
998.932	2173.66
999.227	2165.52
999.523	2146.77
999.818	2162.81
1000.114	2111.51
1000.409	2108.35
1000.704	2111.96
1001	2094.34
1001.295	2068.12
1001.59	2072.64
1001.885	2083.72
1002.18	2020.44
1002.475	2042.14
1002.77	2039.88
1003.065	2015.92
1003.359	2020.89
1003.654	2035.58
1003.949	1971.85
1004.243	1942.7
1004.538	1931.63
1004.832	1934.57
1005.127	1936.83
1005.421	1926.66
1005.715	1912.87
1006.009	1932.08
1006.304	1900.67
1006.598	1876.49
1006.892	1851.86
1007.186	1833.1
1007.48	1851.41
1007.773	1837.85
1008.067	1855.47
1008.361	1835.81
1008.655	1807.79
1008.948	1805.08
1009.242	1829.26
1009.535	1755.14
1009.829	1780
1010.122	1739.09
1010.415	1753.56
1010.708	1757.4
1011.001	1759.21
1011.295	1725.08
1011.588	1728.92
1011.881	1706.33
1012.173	1711.3
1012.466	1693.44
1012.759	1665.42
1013.052	1712.88
1013.344	1715.14
1013.637	1669.49
1013.93	1645.99
1014.222	1612.77
1014.514	1622.03
1014.807	1622.03
1015.099	1647.34
1015.391	1590.4
1015.683	1589.04
1015.976	1588.14
1016.268	1579.1
1016.56	1592.2
1016.851	1582.26
1017.143	1568.02
1017.435	1546.1
1017.727	1539.55
1018.018	1544.07
1018.31	1511.53
1018.602	1511.75
1018.893	1506.33
1019.185	1488.7
1019.476	1462.04
1019.767	1496.61
1020.058	1465.43
1020.35	1466.33
1020.641	1458.42
1020.932	1433.79
1021.223	1421.59
1021.514	1428.59
1021.804	1394.47
1022.095	1393.57
1022.386	1359.67
1022.677	1378.2
1022.967	1350.18
1023.258	1351.98
1023.548	1350.4
1023.839	1338.88
1024.129	1321.48
1024.419	1324.87
1024.709	1326
1025	1319.22
1025.29	1283.51
1025.58	1270.4
1025.87	1278.77
1026.16	1292.1
1026.449	1255.49
1026.739	1228.37
1027.029	1246.9
1027.319	1244.87
1027.608	1248.94
1027.898	1208.71
1028.187	1195.6
1028.477	1179.79
1028.766	1195.83
1029.055	1177.07
1029.344	1152.67
1029.634	1136.85
1029.923	1113.57
1030.212	1112.89
1030.501	1123.06
1030.79	1149.73
1031.078	1120.8
1031.367	1131.88
1031.656	1106.34
1031.945	1108.83
1032.233	1081.93
1032.522	1085.32
1032.81	1065.89
1033.099	1060.69
1033.387	1055.49
1033.675	1060.69
1033.963	1057.53
1034.251	1036.29
1034.54	1015.72
1034.828	1016.63
1035.116	1026.34
1035.403	1031.09
1035.691	1027.02
1035.979	1021.37
1036.267	997.87
1036.554	993.12
1036.842	994.25
1037.129	989.51
1037.417	1003.74
1037.704	982.05
1037.992	970.53
1038.279	950.41
1038.566	916.52
1038.853	916.52
1039.14	916.52
