Data from red_cardboard_box_FLMS001491_00043.txt Node
Date: Wed Feb 08 11:32:27 GMT 2017
User: dcchb
Spectrometer: FLMS00149
Trigger mode: 0
Integration Time (sec): 2.000000E-2
Scans to average: 10
Electric dark correction enabled: true
Nonlinearity correction enabled: false
Boxcar width: 0
XAxis mode: Wavelengths
Number of Pixels in Spectrum: 2048
>>>>>Begin Spectral Data<<<<<
341.393	-7.1
341.776	-7.1
342.16	-7.1
342.543	-65.86
342.927	-59.98
343.31	-71.28
343.693	-56.14
344.077	-67.67
344.46	-54.79
344.843	-65.86
345.226	-42.81
345.61	-33.77
345.993	-36.03
346.376	12.78
346.759	15.27
347.142	11.43
347.525	61.14
347.908	74.93
348.291	57.98
348.674	95.49
349.057	99.33
349.44	121.71
349.823	140.91
350.206	162.83
350.588	212.32
350.971	223.4
351.354	248.26
351.737	228.82
352.119	257.97
352.502	264.07
352.884	288.71
353.267	277.41
353.65	284.87
354.032	318.54
354.414	323.28
354.797	325.09
355.179	327.12
355.562	335.49
355.944	330.97
356.326	349.95
356.709	337.75
357.091	351.3
357.473	356.73
357.855	357.63
358.238	361.02
358.62	362.83
359.002	356.95
359.384	357.41
359.766	384.3
360.148	349.72
360.53	335.71
360.912	342.27
361.294	340.23
361.676	344.52
362.057	343.62
362.439	351.3
362.821	338.88
363.203	328.25
363.584	340.01
363.966	332.32
364.348	323.28
364.729	337.97
365.111	340.01
365.493	311.53
365.874	329.16
366.256	328.71
366.637	335.26
367.019	324.41
367.4	333.45
367.781	324.19
368.163	312.66
368.544	331.42
368.925	335.94
369.306	334.58
369.688	321.47
370.069	308.14
370.45	339.1
370.831	326.67
371.212	300.91
371.593	327.8
371.974	309.72
372.355	315.37
372.736	295.26
373.117	318.08
373.498	318.76
373.879	316.5
374.26	327.58
374.641	309.27
375.021	341.14
375.402	330.29
375.783	319.44
376.163	332.1
376.544	339.55
376.925	318.54
377.305	326.9
377.686	318.99
378.066	342.72
378.447	346.56
378.827	338.2
379.208	339.78
379.588	333.68
379.968	339.1
380.349	339.78
380.729	341.81
381.109	338.65
381.489	356.5
381.87	326.22
382.25	335.49
382.63	346.78
383.01	351.3
383.39	344.3
383.77	339.1
384.15	344.75
384.53	358.54
384.91	360.12
385.29	349.5
385.67	357.41
386.049	350.17
386.429	355.15
386.809	371.42
387.189	378.65
387.568	350.63
387.948	354.69
388.328	352.21
388.707	368.93
389.087	375.71
389.466	378.42
389.846	374.35
390.225	360.12
390.605	354.02
390.984	349.72
391.363	361.93
391.743	359.67
392.122	348.59
392.501	367.35
392.881	378.2
393.26	352.43
393.639	371.87
394.018	382.72
394.397	370.74
394.776	380
395.155	378.87
395.534	391.08
395.913	388.37
396.292	379.33
396.671	394.92
397.05	392.21
397.429	378.65
397.808	396.95
398.186	402.83
398.565	384.07
398.944	379.33
399.323	398.53
399.701	386.11
400.08	374.13
400.458	407.12
400.837	388.82
401.215	418.2
401.594	389.5
401.972	389.72
402.351	397.4
402.729	396.27
403.107	398.31
403.486	397.63
403.864	393.34
404.242	401.7
404.62	387.01
404.999	403.51
405.377	405.31
405.755	405.77
406.133	392.21
406.511	417.52
406.889	419.55
407.267	429.04
407.645	433.34
408.023	412.55
408.401	410.29
408.779	415.48
409.156	416.84
409.534	420.68
409.912	433.56
410.29	435.37
410.667	406.9
411.045	420
411.422	434.47
411.8	437.86
412.178	422.49
412.555	437.4
412.933	441.92
413.31	458.19
413.687	466.1
414.065	463.17
414.442	443.05
414.819	461.58
415.197	469.49
415.574	438.76
415.951	468.36
416.328	447.8
416.705	441.92
417.082	440.12
417.46	475.37
417.837	462.94
418.214	482.37
418.591	466.1
418.967	472.66
419.344	469.72
419.721	493.67
420.098	469.49
420.475	479.89
420.852	466.33
421.228	485.99
421.605	479.21
421.982	485.31
422.358	470.62
422.735	503.39
423.111	482.83
423.488	518.98
423.864	497.06
424.241	511.3
424.617	513.11
424.994	485.09
425.37	497.06
425.746	526.67
426.123	518.76
426.499	506.1
426.875	513.79
427.251	507.46
427.627	523.96
428.003	535.25
428.379	541.13
428.756	524.63
429.132	535.03
429.507	530.06
429.883	547.68
430.259	545.2
430.635	554.69
431.011	557.17
431.387	567.12
431.763	573.22
432.138	553.33
432.514	565.54
432.89	573.22
433.265	552.2
433.641	570.28
434.016	581.81
434.392	570.28
434.767	565.99
435.143	575.25
435.518	600.79
435.894	593.33
436.269	608.7
436.644	613.22
437.02	619.55
437.395	613.67
437.77	614.12
438.145	622.48
438.52	599.21
438.895	615.93
439.271	610.73
439.646	606.89
440.021	626.1
440.395	639.88
440.77	617.74
441.145	613.9
441.52	628.59
441.895	631.75
442.27	649.6
442.645	659.54
443.019	659.32
443.394	633.56
443.769	664.29
444.143	668.81
444.518	670.84
444.892	673.78
445.267	657.28
445.641	652.31
446.016	687.57
446.39	681.01
446.764	686.21
447.139	671.3
447.513	700.22
447.887	676.27
448.262	663.39
448.636	692.31
449.01	688.02
449.384	681.69
449.758	692.99
450.132	706.1
450.506	700.22
450.88	727.57
451.254	704.74
451.628	706.78
452.002	735.25
452.376	743.61
452.75	724.4
453.123	687.57
453.497	739.77
453.871	732.31
454.244	747.45
454.618	750.62
454.992	770.73
455.365	732.76
455.739	754.68
456.112	774.34
456.486	790.84
456.859	808.92
457.232	791.52
457.606	779.09
457.979	798.07
458.352	811.86
458.725	793.33
459.099	818.41
459.472	828.58
459.845	815.25
460.218	826.77
460.591	824.51
460.964	823.16
461.337	829.26
461.71	845.08
462.083	850.05
462.456	871.74
462.829	886.43
463.201	868.35
463.574	880.33
463.947	873.32
464.32	920.78
464.692	921.91
465.065	897.73
465.438	922.59
465.81	939.76
466.183	936.6
466.555	936.15
466.928	961.23
467.3	967.79
467.672	942.93
468.045	1002.81
468.417	953.1
468.789	970.5
469.161	982.02
469.534	1016.82
469.906	1008.24
470.278	1010.04
470.65	1033.77
471.022	1063.83
471.394	1066.09
471.766	1048.69
472.138	1070.83
472.51	1082.13
472.882	1089.36
473.253	1104.28
473.625	1101.12
473.997	1102.7
474.369	1146.31
474.74	1139.98
475.112	1158.29
475.484	1177.95
475.855	1175.69
476.227	1187.44
476.598	1233.77
476.97	1218.17
477.341	1224.95
477.713	1258.4
478.084	1290.71
478.455	1278.29
478.827	1315.57
479.198	1331.17
479.569	1339.3
479.94	1379.07
480.311	1340.43
480.682	1391.05
481.053	1397.15
481.424	1392.18
481.795	1442.8
482.166	1443.03
482.537	1461.33
482.908	1527.32
483.279	1502.46
483.65	1509.69
484.021	1571.61
484.391	1578.16
484.762	1575.9
485.133	1569.8
485.503	1599.18
485.874	1629.69
486.244	1641.89
486.615	1662.91
486.985	1682.57
487.356	1691.61
487.726	1721.66
488.097	1732.74
488.467	1738.61
488.837	1833.98
489.207	1795.33
489.578	1800.53
489.948	1824.49
490.318	1868.33
490.688	1861.77
491.058	1871.72
491.428	1946.97
491.798	1919.17
492.168	2000.53
492.538	1987.19
492.908	1994.42
493.278	2023.12
493.648	1990.81
494.017	2024.48
494.387	2048.21
494.757	2058.83
495.126	2115.33
495.496	2118.04
495.866	2127.08
496.235	2127.08
496.605	2142.9
496.974	2191.48
497.344	2194.65
497.713	2226.06
498.082	2258.15
498.452	2255.66
498.821	2217.24
499.19	2257.02
499.559	2301.54
499.928	2308.77
500.298	2328.65
500.667	2324.13
501.036	2318.03
501.405	2330.91
501.774	2355.77
502.143	2372.72
502.512	2366.84
502.88	2426.05
503.249	2412.27
503.618	2436
503.987	2451.59
504.356	2472.38
504.724	2492.72
505.093	2543.11
505.462	2501.08
505.83	2537.01
506.199	2573.39
506.567	2575.88
506.936	2540.85
507.304	2589.21
507.672	2625.82
508.041	2657.01
508.409	2673.73
508.777	2676.21
509.145	2713.95
509.514	2721.41
509.882	2715.08
510.25	2726.84
510.618	2732.94
510.986	2775.42
511.354	2776.78
511.722	2807.74
512.09	2844.12
512.458	2839.83
512.826	2858.13
513.193	2871.24
513.561	2925.47
513.929	2920.28
514.297	2965.47
514.664	2986.04
515.032	2977.45
515.4	3040.05
515.767	3004.57
516.135	3045.02
516.502	3016.54
516.869	3094.06
517.237	3111.46
517.604	3089.09
517.972	3109.2
518.339	3166.82
518.706	3151
519.073	3153.72
519.44	3200.72
519.808	3282.07
520.175	3201.85
520.542	3280.72
520.909	3296.09
521.276	3332.02
521.643	3353.94
522.009	3369.76
522.376	3384.22
522.743	3394.84
523.11	3461.51
523.477	3478.45
523.843	3492.92
524.21	3569.07
524.577	3547.15
524.943	3583.31
525.31	3574.27
525.676	3637.32
526.043	3692.01
526.409	3715.96
526.776	3681.39
527.142	3739.92
527.508	3786.24
527.874	3807.48
528.241	3819.91
528.607	3829.63
528.973	3909.63
529.339	3865.34
529.705	3926.8
530.071	3908.27
530.437	3947.37
530.803	3982.62
531.169	4025.33
531.535	4048.61
531.901	4006.8
532.267	4038.89
532.632	4082.28
532.998	4116.18
533.364	4147.14
533.73	4122.73
534.095	4205.44
534.461	4231.65
534.826	4210.86
535.192	4289.28
535.557	4283.63
535.923	4281.14
536.288	4263.07
536.653	4332.22
537.019	4352.1
537.384	4346.45
537.749	4388.26
538.114	4430.29
538.479	4425.1
538.845	4466.22
539.21	4429.84
539.575	4455.15
539.94	4485.66
540.305	4569.5
540.67	4543.51
541.034	4585.32
541.399	4545.77
541.764	4623.06
542.129	4658.76
542.494	4641.81
542.858	4648.59
543.223	4697.18
543.587	4739.44
543.952	4764.07
544.316	4770.17
544.681	4747.35
545.045	4793.67
545.41	4879.32
545.774	4894.46
546.138	4853.33
546.503	4907.12
546.867	4874.8
547.231	4934.69
547.595	4999.09
547.959	4992.54
548.324	5014.68
548.688	5037.51
549.052	5064.17
549.416	5052.88
549.779	5108.69
550.143	5102.14
550.507	5147.34
550.871	5233.66
551.235	5215.36
551.599	5270.95
551.962	5297.39
552.326	5284.28
552.689	5320.89
553.053	5367.44
553.417	5401.79
553.78	5452.41
554.143	5425.52
554.507	5421.68
554.87	5470.49
555.234	5596.36
555.597	5572.18
555.96	5616.48
556.323	5661
556.686	5687.21
557.05	5715.46
557.413	5794.1
557.776	5780.54
558.139	5807.88
558.502	5832.74
558.865	5867.77
559.228	5943.7
559.59	5997.03
559.953	5960.2
560.316	6068.89
560.679	6153.41
561.041	6195.22
561.404	6223.69
561.767	6319.96
562.129	6280.41
562.492	6366.51
562.854	6421.2
563.217	6430.24
563.579	6490.35
563.941	6562.67
564.304	6615.09
564.666	6651.93
565.028	6724.47
565.39	6759.5
565.753	6831.36
566.115	6899.15
566.477	6961.53
566.839	7003.78
567.201	7080.84
567.563	7100.73
567.925	7214.63
568.287	7249.65
568.648	7273.61
569.01	7326.49
569.372	7434.73
569.734	7510.21
570.095	7551.34
570.457	7657.33
570.819	7754.95
571.18	7772.8
571.542	7868.39
571.903	7885.12
572.265	7947.04
572.626	8038.56
572.987	8110.65
573.349	8208.95
573.71	8225.45
574.071	8404.2
574.432	8413.01
574.794	8630.18
575.155	8592.44
575.516	8650.75
575.877	8777.52
576.238	8817.3
576.599	8918.08
576.96	9001.25
577.32	9146.78
577.681	9289.15
578.042	9361.46
578.403	9380.9
578.763	9437.39
579.124	9569.59
579.485	9760.32
579.845	9881
580.206	9980.2
580.566	10054.33
580.927	10211.38
581.287	10283.92
581.648	10430.81
582.008	10628.77
582.368	10688.89
582.728	10854.3
583.089	11046.84
583.449	11184.47
583.809	11347.17
584.169	11523.67
584.529	11652.02
584.889	11861.96
585.249	11927.05
585.609	12107.83
585.969	12408.39
586.329	12542.62
586.688	12771.77
587.048	12937.87
587.408	13073.46
587.768	13364.07
588.127	13575.14
588.487	13666.89
588.846	14115.01
589.206	14326.98
589.565	14474.32
589.925	14845.61
590.284	14950.69
590.643	15235.88
591.003	15616.89
591.362	15915.87
591.721	16211.45
592.08	16447.6
592.44	16716.75
592.799	17086.23
593.158	17339.11
593.517	17589.5
593.876	17953.1
594.235	18243.72
594.593	18643.7
594.952	19010.93
595.311	19217.47
595.67	19699.72
596.029	20141.97
596.387	20504.9
596.746	20919.13
597.104	21024.89
597.463	21547.81
597.822	21871.42
598.18	22064.63
598.538	22470.95
598.897	23055.57
599.255	23175.79
599.613	23799.05
599.972	23950.23
600.33	24444.68
600.688	24764.9
601.046	25135.51
601.404	25682.62
601.762	25890.97
602.12	26420.45
602.478	26735.92
602.836	27086.65
603.194	27262.46
603.552	27660.19
603.91	27957.13
604.268	28434.41
604.625	28757.34
604.983	29184.22
605.341	29437.32
605.698	29848.38
606.056	30227.35
606.413	30544.18
606.771	30906.89
607.128	31307.55
607.485	31299.87
607.843	31748.67
608.2	32065.95
608.557	32453.51
608.914	32634.07
609.272	33017.11
609.629	33312.47
609.986	33636.76
610.343	33842.63
610.7	34395.38
611.057	34433.57
611.414	34660.46
611.771	34989.49
612.127	35171.18
612.484	35437.61
612.841	35760.99
613.198	35839.64
613.554	36121.21
613.911	36486.4
614.267	36640.52
614.624	36803.68
614.98	37031.47
615.337	37348.75
615.693	37471.91
616.05	37551.68
616.406	37966.36
616.762	37932.24
617.118	38250.19
617.475	38429.17
617.831	38620.81
618.187	38765.89
618.543	39024.64
618.899	39464.4
619.255	39388.24
619.611	39449.26
619.967	39808.8
620.323	39904.84
620.678	39996.82
621.034	40014.89
621.39	40083.82
621.746	40074.1
622.101	40631.83
622.457	40427.99
622.812	40592.51
623.168	40846.51
623.523	40965.6
623.879	41141.64
624.234	40767.64
624.589	41248.99
624.945	41230.46
625.3	41502.31
625.655	41538.7
626.01	41517.23
626.365	41693.72
626.72	41757.45
627.075	41832.7
627.43	41819.37
627.785	41757.67
628.14	41942.08
628.495	42091.9
628.85	42117.89
629.205	42097.55
629.559	42192.46
629.914	42180.71
630.269	42350.43
630.623	42253.03
630.978	42376.41
631.332	42432.68
631.687	42552.23
632.041	42487.37
632.396	42605.56
632.75	42393.81
633.104	42587.26
633.459	42476.75
633.813	42401.5
634.167	42529.4
634.521	42545.9
634.875	42675.62
635.229	42629.06
635.583	42479.24
635.937	42424.77
636.291	42536.41
636.645	42531.89
636.999	42466.36
637.352	42621.61
637.706	42410.76
638.06	42539.8
638.413	42528.73
638.767	42508.84
639.121	42563.53
639.474	42293.25
639.828	42494.15
640.181	42499.12
640.534	42661.38
640.888	42409.41
641.241	42379.58
641.594	42456.86
641.947	42668.38
642.301	42557.65
642.654	42565.11
643.007	42511.33
643.36	42496.41
643.713	42434.72
644.066	42612.79
644.419	42404.21
644.771	42121.51
645.124	41663.89
645.477	41778.01
645.83	41365.14
646.182	41437.91
646.535	41373.05
646.888	41452.37
647.24	41243.34
647.593	41645.36
647.945	41453.73
648.298	41262.09
648.65	41229.1
649.002	41198.82
649.355	41362.88
649.707	41263.22
650.059	41482.88
650.411	41945.01
650.763	42062.07
651.115	42400.59
651.467	42181.84
651.819	42259.13
652.171	42166.7
652.523	42176.65
652.875	42253.25
653.227	42028.63
653.578	42454.83
653.93	42242.63
654.282	42059.59
654.633	42036.99
654.985	42186.36
655.337	42180.03
655.688	42248.06
656.039	42320.6
656.391	41825.92
656.742	41871.12
657.094	42001.28
657.445	42286.25
657.796	42067.5
658.147	42072.24
658.498	41915.64
658.849	42011.45
659.2	42043.77
659.551	41872.47
659.902	41990.21
660.253	42041.73
660.604	42032.02
660.955	41750.22
661.306	41978.46
661.656	41872.7
662.007	41898.91
662.358	41957.67
662.708	41956.31
663.059	41977.55
663.409	41767.16
663.76	42089.42
664.11	42007.38
664.461	42004.9
664.811	42100.49
665.161	42102.75
665.511	41840.61
665.862	42021.62
666.212	42033.82
666.562	42054.16
666.912	41922.64
667.262	41917.89
667.612	41949.76
667.962	41857.33
668.312	41900.95
668.662	42063.65
669.011	42015.29
669.361	42015.52
669.711	41918.57
670.06	41793.83
670.41	41832.25
670.76	41914.51
671.109	41846.03
671.459	41779.14
671.808	41683.1
672.157	41908.18
672.507	41653.04
672.856	41573.27
673.205	41656.21
673.554	41760.16
673.904	41657.56
674.253	41826.6
674.602	41651.01
674.951	41131.02
675.3	40995.21
675.649	41606.49
675.998	41501.18
676.346	41484.69
676.695	41610.56
677.044	41361.98
677.393	41410.56
677.741	41506.38
678.09	41388.64
678.438	41408.76
678.787	41279.27
679.135	41370.11
679.484	41166.5
679.832	41278.36
680.181	41100.52
680.529	41184.58
680.877	41119.27
681.225	41101.87
681.573	41281.98
681.922	41023.68
682.27	40827.3
682.618	40874.53
682.966	40874.31
683.314	40868.88
683.661	40760.64
684.009	40650.36
684.357	40469.57
684.705	40572.62
685.053	40481.32
685.4	40565.16
685.748	40230.93
686.095	40263.48
686.443	40256.47
686.79	40053.31
687.138	40160.43
687.485	40150.94
687.832	40006.98
688.18	40007.21
688.527	39914.11
688.874	39719.76
689.221	39693.77
689.568	39636.37
689.915	39582.14
690.262	39500.78
690.609	39423.05
690.956	39241.58
691.303	39232.09
691.65	39084.98
691.997	39108.03
692.344	38955.04
692.69	38895.83
693.037	38834.13
693.383	38612.9
693.73	38523.86
694.077	38405.9
694.423	38443.41
694.769	38310.98
695.116	38282.28
695.462	38162.97
695.808	38074.61
696.155	38156.41
696.501	37949.64
696.847	37811.79
697.193	37578.12
697.539	37644.11
697.885	37489.76
698.231	37398.01
698.577	37442.53
698.923	37288.41
699.269	37191.92
699.614	36978.82
699.96	36892.72
700.306	37013.62
700.651	36863.34
700.997	36649.56
701.342	36577.7
701.688	36681.42
702.033	36354.43
702.379	36475.55
702.724	36351.04
703.069	36474.42
703.415	36044.83
703.76	36155.33
704.105	35968.9
704.45	35921.22
704.795	35541.11
705.14	35699.98
705.485	35715.12
705.83	35523.94
706.175	35648.91
706.52	35438.52
706.865	35314.9
707.209	35278.3
707.554	35157.85
707.899	35151.52
708.243	34938.64
708.588	35026.55
708.932	34736.16
709.277	34772.77
709.621	34853.9
709.966	34437.19
710.31	34555.15
710.654	34239
710.998	34420.92
711.342	34488.71
711.687	34387.7
712.031	34197.42
712.375	34102.73
712.719	34215.72
713.063	33955.39
713.407	34147.03
713.75	34032.68
714.094	33860.48
714.438	33703.87
714.782	33835.17
715.125	33676.53
715.469	33741.39
715.812	33599.02
716.156	33335.97
716.499	33470.89
716.843	33467.72
717.186	33189.31
717.53	33394.28
717.873	33380.72
718.216	33164.23
718.559	33050.11
718.902	32954.74
719.246	33008.98
719.589	32997.45
719.932	32766.27
720.275	32781.41
720.617	32742.09
720.96	32636.56
721.303	32612.15
721.646	32666.39
721.989	32411.7
722.331	32605.37
722.674	32502.32
723.016	32543
723.359	32452.38
723.701	32518.82
724.044	32194.76
724.386	32072.28
724.729	32333.51
725.071	32134.2
725.413	32083.13
725.755	32201.99
726.097	31967.42
726.439	31708.45
726.782	31797.03
727.124	31887.42
727.465	31731.27
727.807	31835.45
728.149	31737.6
728.491	31589.35
728.833	31718.84
729.175	31460.32
729.516	31552.52
729.858	31516.59
730.199	31378.74
730.541	31456.7
730.882	31428.68
731.224	31462.12
731.565	31291.28
731.906	31281.11
732.248	31240.89
732.589	31112.08
732.93	31059.65
733.271	30995.92
733.612	31046.54
733.953	31146.43
734.294	31036.6
734.635	30896.94
734.976	31003.83
735.317	30802.93
735.658	30809.03
735.999	30785.31
736.339	30734.23
736.68	30684.74
737.021	30649.04
737.361	30640.9
737.702	30703.27
738.042	30516.39
738.383	30449.27
738.723	30443.85
739.063	30380.8
739.404	30495.37
739.744	30297.41
740.084	30388.71
740.424	30346.45
740.764	30358.2
741.104	30323.85
741.444	30176.51
741.784	30128.15
742.124	30090.64
742.464	30099.9
742.804	29957.31
743.143	30036.17
743.483	30008.6
743.823	29844.31
744.162	29777.88
744.502	29840.92
744.841	29769.97
745.181	29837.99
745.52	29778.1
745.86	29714.15
746.199	29772.45
746.538	29664.88
746.877	29640.48
747.216	29637.31
747.556	29520.93
747.895	29592.8
748.234	29424.66
748.573	29452.23
748.911	29421.73
749.25	29436.64
749.589	29257.66
749.928	29339.24
750.267	29292.92
750.605	29208.17
750.944	29229.19
751.283	29175.86
751.621	29104.22
751.96	28911.01
752.298	29007.5
752.636	28973.83
752.975	28826.49
753.313	28672.59
753.651	28865.36
753.989	28628.75
754.327	28654.29
754.666	28559.38
755.004	28613.84
755.342	28588.98
755.679	28582.2
756.017	28436.89
756.355	28551.47
756.693	28217.01
757.031	28247.75
757.368	28141.08
757.706	28039.16
758.044	28043.46
758.381	28024.93
758.719	27990.8
759.056	27993.06
759.394	27922.56
759.731	27733.41
760.068	27698.16
760.405	27641.89
760.743	27569.12
761.08	27518.5
761.417	27512.4
761.754	27329.35
762.091	27305.62
762.428	27238.73
762.765	27022.02
763.102	27143.14
763.438	27111.5
763.775	26968.46
764.112	27031.28
764.449	27039.19
764.785	26822.47
765.122	26556.04
765.458	26478.98
765.795	26563.95
766.131	26439.66
766.467	26392.88
766.804	26197.18
767.14	26179.1
767.476	26055.71
767.812	25961.93
768.148	26045.32
768.485	25794.48
768.821	25859.11
769.157	25690.53
769.492	25611.66
769.828	25617.31
770.164	25314.72
770.5	25443.3
770.836	25446.46
771.171	25237.66
771.507	25114.27
771.842	24934.61
772.178	24995.18
772.513	24897.33
772.849	24906.36
773.184	24664.34
773.519	24816.42
773.855	24605.81
774.19	24520.39
774.525	24430.45
774.86	24470.9
775.195	24325.59
775.53	24163.11
775.865	24093.5
776.2	23895.77
776.535	23923.57
776.87	23847.41
777.205	23696.23
777.539	23596.12
777.874	23786.85
778.209	23531.71
778.543	23565.38
778.878	23258.72
779.212	23398.16
779.547	23098.5
779.881	23078.39
780.215	23048.79
780.55	23114.1
780.884	22986.19
781.218	22866.42
781.552	22827.32
781.886	22750.72
782.22	22623.04
782.554	22649.48
782.888	22400.67
783.222	22327.22
783.556	22230.05
783.889	22133.78
784.223	22012.43
784.557	22033.22
784.89	22071.64
785.224	21738.31
785.557	21695.38
785.891	21745.54
786.224	21612.44
786.558	21640.91
786.891	21494.7
787.224	21358.66
787.557	21382.62
787.891	21285.67
788.224	21220.36
788.557	21213.35
788.89	21156.86
789.223	21076.64
789.556	20902.4
789.888	20871.67
790.221	20776.3
790.554	20609.53
790.887	20652.24
791.219	20596.42
791.552	20487.5
791.884	20384.9
792.217	20349.2
792.549	20330.21
792.882	20156.66
793.214	20039.6
793.546	20064.91
793.879	19895.88
794.211	19781.75
794.543	19984.46
794.875	19873.73
795.207	19916.21
795.539	19665.6
795.871	19778.82
796.203	19629.44
796.535	19491.14
796.867	19497.92
797.198	19463.12
797.53	19391.03
797.862	19286.85
798.193	19264.93
798.525	19156.23
798.856	19202.33
799.188	19091.83
799.519	19024.71
799.85	18807.77
800.182	18876.01
800.513	18834.89
800.844	18688
801.175	18720.09
801.506	18748.33
801.837	18608
802.168	18625.63
802.499	18469.02
802.83	18488.45
803.161	18402.81
803.491	18385.41
803.822	18298.4
804.153	18201
804.483	18095.02
804.814	18131.4
805.145	18059.31
805.475	18036.04
805.805	18002.59
806.136	17973.89
806.466	17849.6
806.796	17812.99
807.126	17634.92
807.457	17691.19
807.787	17634.01
808.117	17493
808.447	17498.42
808.777	17503.17
809.107	17376.85
809.436	17499.33
809.766	17488.48
810.096	17204.42
810.426	17203.74
810.755	17294.59
811.085	17187.7
811.414	17283.06
811.744	16990.64
812.073	17065.22
812.403	17003.75
812.732	16971.66
813.061	16947.03
813.39	16839.46
813.719	16720.82
814.049	16889.4
814.378	16763.53
814.707	16731.21
815.036	16736.41
815.365	16625.23
815.693	16391.33
816.022	16454.16
816.351	16443.54
816.68	16227.5
817.008	16387.27
817.337	16309.53
817.665	16262.75
817.994	16241.51
818.322	16310.21
818.651	16182.53
818.979	16196.99
819.307	16227.95
819.636	16149.76
819.964	16061.17
820.292	16083.55
820.62	16031.57
820.948	15942.76
821.276	16041.97
821.604	15996.99
821.932	15988.86
822.259	15955.64
822.587	15942.76
822.915	15856.43
823.243	15971.01
823.57	15855.53
823.898	15919.93
824.225	15850.56
824.553	15983.21
824.88	15918.35
825.207	15980.5
825.535	15928.52
825.862	15961.06
826.189	15835.42
826.516	15857.34
826.843	15890.56
827.17	15845.81
827.497	15838.58
827.824	15936.66
828.151	15906.6
828.478	15867.28
828.805	15910.44
829.131	15936.88
829.458	15878.58
829.785	15804.01
830.111	15832.48
830.438	15932.82
830.764	15874.51
831.09	15872.93
831.417	15666.38
831.743	15817.79
832.069	15789.32
832.395	15739.6
832.722	15821.63
833.048	15688.98
833.374	15851.46
833.7	15714.74
834.026	15719.49
834.351	15780.96
834.677	15734.18
835.003	15795.87
835.329	15742.31
835.654	15612.6
835.98	15582.99
836.306	15647.17
836.631	15579.83
836.956	15569.21
837.282	15477.69
837.607	15479.49
837.932	15516.56
838.258	15458.48
838.583	15498.7
838.908	15373.06
839.233	15476.78
839.558	15399.04
839.883	15342.32
840.208	15261.65
840.533	15227.98
840.858	15323.34
841.182	15295.77
841.507	15300.06
841.832	15172.61
842.156	15227.3
842.481	15110.01
842.805	15137.81
843.13	15151.82
843.454	15082.44
843.778	14997.47
844.103	14979.39
844.427	14988.21
844.751	14946.63
845.075	14896.23
845.399	14836.57
845.723	14685.62
846.047	14730.36
846.371	14621.44
846.695	14611.04
847.019	14541.21
847.343	14364.04
847.666	14437.94
847.99	14261
848.313	14276.59
848.637	14260.77
848.96	14223.71
849.284	14134.22
849.607	14070.94
849.931	14010.15
850.254	13876.82
850.577	13880.89
850.9	13758.64
851.223	13724.74
851.546	13610.84
851.869	13557.06
852.192	13719.54
852.515	13573.33
852.838	13493.78
853.161	13469.15
853.483	13492.65
853.806	13360.23
854.129	13341.02
854.451	13306.22
854.774	13282.04
855.096	13277.52
855.419	13174.7
855.741	13191.19
856.063	13062.61
856.385	13103.51
856.708	13068.26
857.03	13002.5
857.352	13008.82
857.674	12931.09
857.996	12916.17
858.318	12814.93
858.64	12836.63
858.961	12723.86
859.283	12691.09
859.605	12644.31
859.926	12700.36
860.248	12637.53
860.57	12536.52
860.891	12598.44
861.212	12533.81
861.534	12494.94
861.855	12397.09
862.176	12491.32
862.498	12428.73
862.819	12455.84
863.14	12381.5
863.461	12281.16
863.782	12287.26
864.103	12267.83
864.424	12322.29
864.745	12354.38
865.065	12270.99
865.386	12186.93
865.707	12162.07
866.027	12216.08
866.348	12140.37
866.668	12130.66
866.989	12146.7
867.309	12060.15
867.63	11991.9
867.95	12064.22
868.27	11970.21
868.59	12044.1
868.91	11988.29
869.23	11969.98
869.55	11800.72
869.87	11884.56
870.19	11914.39
870.51	11872.13
870.83	11920.72
871.15	11809.76
871.469	11850.66
871.789	11830.1
872.109	11834.84
872.428	11677.79
872.748	11764.11
873.067	11717.56
873.386	11768.41
873.706	11664.23
874.025	11691.8
874.344	11627.17
874.663	11577.68
874.982	11616.77
875.301	11677.11
875.62	11572.48
875.939	11552.37
876.258	11618.13
876.577	11472.59
876.896	11497
877.214	11447.96
877.533	11568.64
877.852	11476.44
878.17	11450.45
878.489	11448.19
878.807	11424.23
879.125	11361.41
879.444	11399.83
879.762	11309.66
880.08	11319.38
880.398	11273.73
880.716	11290.68
881.034	11224.24
881.352	11244.35
881.67	11189.21
881.988	11199.83
882.306	11228.08
882.624	11206.84
882.941	11123.22
883.259	11048.2
883.577	11113.06
883.894	11026.5
884.212	11020.63
884.529	11003.91
884.846	10941.53
885.164	10973.62
885.481	10905.38
885.798	10836.68
886.115	10848.66
886.432	10836
886.75	10739.96
887.067	10821.99
887.383	10758.71
887.7	10736.12
888.017	10652.28
888.334	10703.12
888.651	10652.73
888.967	10578.38
889.284	10554.43
889.6	10570.7
889.917	10481.89
890.233	10515.56
890.55	10429.01
890.866	10463.58
891.182	10402.57
891.498	10372.51
891.815	10327.54
892.131	10386.29
892.447	10261.55
892.763	10224.04
893.079	10237.82
893.395	10194.89
893.71	10137.26
894.026	10196.92
894.342	10084.38
894.657	10056.59
894.973	9957.61
895.289	10019.3
895.604	9979.75
895.92	9955.35
896.235	9915.8
896.55	9926.42
896.865	9830.15
897.181	9829.47
897.496	9833.77
897.811	9726.2
898.126	9728.68
898.441	9677.61
898.756	9688.46
899.071	9600.78
899.386	9625.86
899.7	9583.6
900.015	9497.96
900.33	9372.31
900.644	9429.94
900.959	9389.03
901.273	9439.2
901.588	9370.95
901.902	9294.12
902.216	9303.84
902.531	9222.48
902.845	9254.12
903.159	9148.36
903.473	9069.72
903.787	9100.9
904.101	9053.45
904.415	9139.32
904.729	8973.45
905.042	9000.12
905.356	8988.59
905.67	8953.34
905.984	8908.37
906.297	8881.48
906.611	8796.73
906.924	8706.11
907.237	8748.82
907.551	8705.43
907.864	8710.86
908.177	8707.24
908.491	8676.74
908.804	8602.84
909.117	8488.72
909.43	8565.55
909.743	8478.77
910.056	8447.36
910.368	8420.24
910.681	8391.77
910.994	8379.57
911.307	8263.41
911.619	8195.62
911.932	8232.23
912.244	8169.63
912.557	8181.38
912.869	8159.01
913.181	8154.49
913.494	8100.03
913.806	8006.92
914.118	8055.28
914.43	7961.5
914.742	7919.24
915.054	7870.65
915.366	7877.21
915.678	7915.4
915.99	7765.57
916.302	7798.79
916.613	7728.51
916.925	7728.51
917.236	7658
917.548	7671.56
917.859	7640.15
918.171	7596.76
918.482	7574.62
918.794	7500.95
919.105	7525.13
919.416	7379.14
919.727	7370.33
920.038	7364.68
920.349	7321.06
920.66	7282.87
920.971	7328.07
921.282	7302.31
921.593	7173.72
921.903	7142.76
922.214	7175.31
922.525	7096.66
922.835	7079.49
923.146	7063.22
923.456	7055.53
923.767	7042.65
924.077	6965.14
924.387	6962.66
924.697	6910.91
925.008	6926.27
925.318	6851.25
925.628	6835.65
925.938	6825.94
926.248	6697.13
926.558	6709.56
926.867	6682.44
927.177	6693.51
927.487	6623.46
927.796	6627.75
928.106	6571.93
928.416	6588.65
928.725	6573.97
929.034	6516.11
929.344	6535.77
929.653	6463.69
929.962	6434.76
930.271	6441.54
930.581	6370.81
930.89	6406.29
931.199	6311.6
931.508	6311.15
931.817	6339.85
932.125	6333.29
932.434	6245.16
932.743	6211.04
933.051	6144.15
933.36	6126.52
933.669	6111.38
933.977	6066.41
934.286	6110.47
934.594	6076.35
934.902	5990.03
935.21	5985.51
935.519	5940.76
935.827	5916.13
936.135	5940.31
936.443	5868.45
936.751	5849.46
937.059	5856.47
937.367	5752.97
937.674	5787.09
937.982	5773.31
938.29	5777.6
938.597	5714.33
938.905	5684.5
939.213	5618.06
939.52	5654.67
939.827	5614.22
940.135	5556.37
940.442	5549.59
940.749	5534.44
941.056	5548.23
941.363	5502.13
941.67	5528.57
941.977	5456.93
942.284	5388.46
942.591	5390.95
942.898	5360.44
943.205	5312.08
943.511	5328.12
943.818	5312.3
944.125	5311.4
944.431	5245.64
944.738	5251.06
945.044	5217.39
945.35	5196.83
945.657	5167.67
945.963	5164.29
946.269	5101.46
946.575	5116.6
946.881	5084.51
947.187	5054.23
947.493	5022.59
947.799	5057.17
948.105	4953.22
948.41	5015.59
948.716	4964.97
949.022	4920
949.327	4949.38
949.633	4858.53
949.938	4851.52
950.244	4891.75
950.549	4749.61
950.854	4667.35
951.16	4764.97
951.465	4731.53
951.77	4715.48
952.075	4710.96
952.38	4685.88
952.685	4718.87
952.99	4672.09
953.294	4625.09
953.599	4646.56
953.904	4608.59
954.209	4548.26
954.513	4566.11
954.818	4543.51
955.122	4508.71
955.426	4475.04
955.731	4501.48
956.035	4438.2
956.339	4386.23
956.643	4416.06
956.948	4413.34
957.252	4388.71
957.556	4356.4
957.86	4353.68
958.163	4321.82
958.467	4267.81
958.771	4327.02
959.075	4261.26
959.378	4214.48
959.682	4223.29
959.985	4221.71
960.289	4150.07
960.592	4162.96
960.896	4179.9
961.199	4111.21
961.502	4081.38
961.805	4095.61
962.108	4085.22
962.411	4062.39
962.714	4057.87
963.017	4040.02
963.32	4033.02
963.623	3985.56
963.926	3969.51
964.228	4011.77
964.531	3911.89
964.833	3938.1
965.136	3907.82
965.438	3896.07
965.741	3891.55
966.043	3833.7
966.345	3811.33
966.648	3828.05
966.95	3799.58
967.252	3791.44
967.554	3745.79
967.856	3767.71
968.158	3744.44
968.46	3707.37
968.761	3675.74
969.063	3679.58
969.365	3681.61
969.666	3643.42
969.968	3644.78
970.269	3624.44
970.571	3623.99
970.872	3603.2
971.174	3577.89
971.475	3560.49
971.776	3541.28
972.077	3499.7
972.378	3476.65
972.679	3507.83
972.98	3498.57
973.281	3501.28
973.582	3464.22
973.883	3460.38
974.183	3452.69
974.484	3391.45
974.785	3357.33
975.085	3341.51
975.386	3386.93
975.686	3346.25
975.986	3379.47
976.287	3381.96
976.587	3284.11
976.887	3293.83
977.187	3275.07
977.487	3263.77
977.787	3268.29
978.087	3214.73
978.387	3237.1
978.687	3214.51
978.987	3203.88
979.286	3121.4
979.586	3155.52
979.885	3125.69
980.185	3104.9
980.484	3113.94
980.784	3109.42
981.083	3085.7
981.382	3097.45
981.682	3079.82
981.981	3090.22
982.28	3056.09
982.579	3053.61
982.878	3006.15
983.177	3000.5
983.475	3009.99
983.774	2963.89
984.073	2947.39
984.372	2958.47
984.67	2943.1
984.969	2885.93
985.267	2883.22
985.566	2892.25
985.864	2857.45
986.162	2868.53
986.461	2844.35
986.759	2837.79
987.057	2833.5
987.355	2834.4
987.653	2796.21
987.951	2788.53
988.249	2747.4
988.547	2767.06
988.844	2747.4
989.142	2729.09
989.44	2729.09
989.737	2697.46
990.035	2707.17
990.332	2708.08
990.63	2713.05
990.927	2651.81
991.224	2631.92
991.521	2645.03
991.819	2628.08
992.116	2611.81
992.413	2611.58
992.71	2595.09
993.006	2562.32
993.303	2603.67
993.6	2565.26
993.897	2535.2
994.193	2531.13
994.49	2503.34
994.787	2486.16
995.083	2487.52
995.379	2469.21
995.676	2471.25
995.972	2491.81
996.268	2422.89
996.565	2438.71
996.861	2436.45
997.157	2385.83
997.453	2387.63
997.749	2390.8
998.044	2371.82
998.34	2313.51
998.636	2371.36
998.932	2316.45
999.227	2312.83
999.523	2323.91
999.818	2264.7
1000.114	2273.51
1000.409	2287.98
1000.704	2264.25
1001	2262.67
1001.295	2271.48
1001.59	2213.18
1001.885	2237.13
1002.18	2209.79
1002.475	2185.61
1002.77	2231.25
1003.065	2137.02
1003.359	2133.18
1003.654	2113.52
1003.949	2141.09
1004.243	2108.09
1004.538	2103.12
1004.832	2097.25
1005.127	2091.37
1005.421	2082.11
1005.715	2054.99
1006.009	2054.31
1006.304	2030.58
1006.598	2034.42
1006.892	2045.05
1007.186	1978.83
1007.48	1991.49
1007.773	1973.18
1008.067	1963.01
1008.361	1952.84
1008.655	1938.83
1008.948	1907.87
1009.242	1936.35
1009.535	1931.38
1009.829	1901.55
1010.122	1926.63
1010.415	1921.43
1010.708	1866.07
1011.001	1873.98
1011.295	1845.95
1011.588	1809.35
1011.881	1803.24
1012.173	1815.9
1012.466	1817.03
1012.759	1788.55
1013.052	1786.52
1013.344	1771.15
1013.637	1781.1
1013.93	1758.72
1014.222	1737.03
1014.514	1744.26
1014.807	1714.21
1015.099	1715.34
1015.391	1733.41
1015.683	1731.38
1015.976	1688.44
1016.268	1691.38
1016.56	1659.52
1016.851	1637.6
1017.143	1643.25
1017.435	1645.51
1017.727	1619.97
1018.018	1640.08
1018.31	1611.61
1018.602	1593.08
1018.893	1565.28
1019.185	1566.41
1019.476	1549.46
1019.767	1556.02
1020.058	1504.49
1020.35	1520.31
1020.641	1477.38
1020.932	1503.14
1021.223	1507.66
1021.514	1482.12
1021.804	1488
1022.095	1473.53
1022.386	1451.16
1022.677	1457.26
1022.967	1430.15
1023.258	1432.18
1023.548	1444.38
1023.839	1411.62
1024.129	1411.62
1024.419	1404.84
1024.709	1375.01
1025	1362.58
1025.29	1381.56
1025.58	1372.75
1025.87	1347.21
1026.16	1319.19
1026.449	1314.89
1026.739	1301.11
1027.029	1318.51
1027.319	1336.14
1027.608	1306.31
1027.898	1297.04
1028.187	1285.74
1028.477	1268.57
1028.766	1273.99
1029.055	1253.88
1029.344	1244.39
1029.634	1245.74
1029.923	1220.21
1030.212	1221.34
1030.501	1183.6
1030.79	1191.28
1031.078	1201.45
1031.367	1174.56
1031.656	1206.2
1031.945	1159.87
1032.233	1170.27
1032.522	1167.55
1032.81	1156.71
1033.099	1145.41
1033.387	1131.17
1033.675	1124.17
1033.963	1131.17
1034.251	1124.39
1034.54	1115.35
1034.828	1099.53
1035.116	1099.76
1035.403	1088.23
1035.691	1067.9
1035.979	1087.33
1036.267	1069.7
1036.554	1059.99
1036.842	1043.94
1037.129	1051.4
1037.417	1038.74
1037.704	1039.65
1037.992	1017.5
1038.279	1021.57
1038.566	1033.09
1038.853	1033.09
1039.14	1033.09
