Data from red_shiny_book_FLMS001491_00044.txt Node
Date: Wed Feb 08 15:24:54 GMT 2017
User: dcchb
Spectrometer: FLMS00149
Trigger mode: 0
Integration Time (sec): 2.000000E-2
Scans to average: 10
Electric dark correction enabled: true
Nonlinearity correction enabled: false
Boxcar width: 0
XAxis mode: Wavelengths
Number of Pixels in Spectrum: 2048
>>>>>Begin Spectral Data<<<<<
341.393	0.56
341.776	0.56
342.16	0.56
342.543	-71.98
342.927	-70.85
343.31	-60.9
343.693	-82.82
344.077	-59.32
344.46	-60
344.843	-57.74
345.226	-39.21
345.61	-21.58
345.993	-17.97
346.376	-12.09
346.759	7.34
347.142	15.48
347.525	52.32
347.908	57.06
348.291	88.47
348.674	84.4
349.057	106.55
349.44	93.9
349.823	144.52
350.206	147.91
350.588	208.47
350.971	216.15
351.354	227
351.737	252.08
352.119	257.96
352.502	253.21
352.884	270.16
353.267	274.91
353.65	281.24
354.032	295.92
354.414	325.75
354.797	309.94
355.179	347
355.562	307.68
355.944	341.8
356.326	331.63
356.709	330.95
357.091	346.09
357.473	351.74
357.855	343.38
358.238	349.71
358.62	337.73
359.002	344.51
359.384	353.55
359.766	338.41
360.148	322.36
360.53	338.18
360.912	323.49
361.294	336.15
361.676	358.07
362.057	344.74
362.439	324.85
362.821	344.51
363.203	354
363.584	330.73
363.966	321.23
364.348	332.76
364.729	339.77
365.111	323.72
365.493	315.13
365.874	335.92
366.256	318.75
366.637	317.62
367.019	306.77
367.4	312.42
367.781	321.46
368.163	334.12
368.544	307.68
368.925	320.78
369.306	324.4
369.688	312.42
370.069	309.48
370.45	321.23
370.831	322.59
371.212	321.69
371.593	313.78
371.974	330.73
372.355	315.13
372.736	323.95
373.117	316.26
373.498	324.17
373.879	326.21
374.26	332.31
374.641	314.91
375.021	307.9
375.402	335.02
375.783	338.41
376.163	333.21
376.544	317.39
376.925	331.86
377.305	332.76
377.686	338.64
378.066	341.35
378.447	334.34
378.827	341.12
379.208	344.96
379.588	333.89
379.968	345.87
380.349	330.73
380.729	318.3
381.109	364.85
381.489	336.6
381.87	363.72
382.25	324.4
382.63	337.73
383.01	344.06
383.39	354
383.77	364.17
384.15	356.04
384.53	337.05
384.91	352.87
385.29	370.72
385.67	365.08
386.049	354.68
386.429	352.42
386.809	364.4
387.189	363.95
387.568	350.61
387.948	350.61
388.328	346.77
388.707	377.5
389.087	386.54
389.466	368.24
389.846	370.05
390.225	377.5
390.605	378.86
390.984	374.34
391.363	370.27
391.743	374.79
392.122	367.56
392.501	394.68
392.881	395.13
393.26	401.23
393.639	386.09
394.018	397.16
394.397	393.1
394.776	380.67
395.155	391.97
395.534	392.87
395.913	402.59
396.292	394.23
396.671	401.23
397.05	387.45
397.429	404.17
397.808	410.05
398.186	397.39
398.565	420.21
398.944	388.8
399.323	383.38
399.701	411.63
400.08	397.16
400.458	424.28
400.837	414.34
401.215	415.7
401.594	446.65
401.972	418.41
402.351	431.29
402.729	426.99
403.107	418.86
403.486	432.64
403.864	428.58
404.242	424.96
404.62	445.07
404.999	463.38
405.377	451.63
405.755	442.36
406.133	447.11
406.511	436.49
406.889	448.91
407.267	454.11
407.645	480.78
408.023	445.98
408.401	472.42
408.779	485.98
409.156	461.8
409.534	485.75
409.912	468.8
410.29	467.22
410.667	471.06
411.045	484.62
411.422	515.13
411.8	493.89
412.178	501.79
412.555	501.34
412.933	503.15
413.31	495.69
413.687	506.99
414.065	507.44
414.442	502.92
414.819	525.75
415.197	519.87
415.574	560.55
415.951	557.16
416.328	546.99
416.705	554.67
417.082	562.81
417.46	548.12
417.837	562.36
418.214	559.87
418.591	578.85
418.967	567.33
419.344	559.42
419.721	600.1
420.098	597.61
420.475	616.82
420.852	611.17
421.228	585.86
421.605	596.71
421.982	594
422.358	613.88
422.735	621.79
423.111	612.07
423.488	615.69
423.864	618.85
424.241	655.91
424.617	621.79
424.994	628.12
425.37	635.58
425.746	651.85
426.123	646.65
426.499	641.45
426.875	650.72
427.251	648.91
427.627	649.36
428.003	681.9
428.379	691.85
428.756	720.32
429.132	702.02
429.507	714.9
429.883	720.55
430.259	701.34
430.635	690.04
431.011	691.62
431.387	723.03
431.763	731.17
432.138	742.24
432.514	768.68
432.89	744.95
433.265	777.49
433.641	774.1
434.016	750.38
434.392	781.34
434.767	777.27
435.143	763.03
435.518	779.98
435.894	764.84
436.269	807.55
436.644	834.67
437.02	840.99
437.395	820.43
437.77	843.71
438.145	841.67
438.52	820.43
438.895	825.18
439.271	857.27
439.646	836.93
440.021	838.28
440.395	849.58
440.77	871.28
441.145	855.23
441.52	890.26
441.895	888
442.27	935.46
442.645	913.54
443.019	892.07
443.394	902.46
443.769	863.14
444.143	878.73
444.518	899.98
444.892	897.94
445.267	902.69
445.641	963.7
446.016	947.66
446.39	964.16
446.764	952.18
447.139	946.3
447.513	937.49
447.887	946.98
448.262	946.75
448.636	918.73
449.01	938.17
449.384	971.39
449.758	975.68
450.132	981.1
450.506	1010.71
450.88	1005.74
451.254	1008.67
451.628	986.98
452.002	1027.88
452.376	1015.68
452.75	1000.31
453.123	1018.62
453.497	1035.79
453.871	1031.72
454.244	1014.55
454.618	1047.09
454.992	1044.15
455.365	1064.27
455.739	1065.17
456.112	1117.82
456.486	1072.85
456.859	1104.72
457.232	1092.51
457.606	1075.79
457.979	1090.93
458.352	1063.81
458.725	1072.85
459.099	1096.13
459.472	1099.07
459.845	1124.15
460.218	1151.95
460.591	1163.47
460.964	1178.39
461.337	1226.3
461.71	1215.45
462.083	1217.71
462.456	1206.18
462.829	1183.58
463.201	1214.54
463.574	1173.64
463.947	1174.55
464.32	1216.13
464.692	1216.13
465.065	1245.28
465.438	1267.2
465.81	1340.19
466.183	1330.7
466.555	1330.7
466.928	1349.68
467.3	1343.35
467.672	1331.83
468.045	1338.38
468.417	1334.32
468.789	1310.36
469.161	1310.59
469.534	1374.09
469.906	1404.14
470.278	1410.02
470.65	1460.87
471.022	1494.76
471.394	1490.92
471.766	1545.61
472.138	1554.65
472.51	1530.02
472.882	1553.29
473.253	1538.6
473.625	1513.07
473.997	1539.51
474.369	1545.16
474.74	1563.01
475.112	1589
475.484	1631.03
475.855	1686.85
476.227	1715.55
476.598	1763.91
476.97	1766.39
477.341	1809.78
477.713	1838.48
478.084	1794.87
478.455	1847.97
478.827	1836.67
479.198	1809.33
479.569	1826.28
479.94	1853.62
480.311	1886.62
480.682	1930.91
481.053	2009.33
481.424	2049.78
481.795	2114.86
482.166	2127.06
482.537	2190.79
482.908	2195.76
483.279	2190.34
483.65	2212.71
484.021	2220.39
484.391	2212.26
484.762	2208.64
485.133	2188.76
485.503	2243.67
485.874	2262.88
486.244	2351.46
486.615	2410.9
486.985	2503.78
487.356	2586.49
487.726	2583.32
488.097	2658.57
488.467	2693.15
488.837	2686.6
489.207	2710.55
489.578	2673.26
489.948	2679.14
490.318	2689.31
490.688	2710.78
491.058	2689.08
491.428	2740.61
491.798	2785.58
492.168	2889.08
492.538	2927.04
492.908	3000.94
493.278	3117.09
493.648	3099.69
494.017	3152.8
494.387	3169.97
494.757	3202.06
495.126	3160.03
495.496	3102.18
495.866	3116.87
496.235	3072.57
496.605	3110.77
496.974	3113.25
497.344	3171.78
497.713	3200.71
498.082	3308.95
498.452	3367.03
498.821	3442.06
499.19	3494.94
499.559	3556.63
499.928	3545.78
500.298	3575.16
500.667	3535.84
501.036	3547.59
501.405	3528.16
501.774	3424.88
502.143	3417.2
502.512	3390.98
502.88	3384.43
503.249	3433.47
503.618	3464.2
503.987	3492
504.356	3621.71
504.724	3643.18
505.093	3796.85
505.462	3795.72
505.83	3834.36
506.199	3866.45
506.567	3864.64
506.936	3800.47
507.304	3778.09
507.672	3807.47
508.041	3714.37
508.409	3626.68
508.777	3644.99
509.145	3644.99
509.514	3659.45
509.882	3688.15
510.25	3806.57
510.618	3887.92
510.986	3946.68
511.354	4035.04
511.722	4077.97
512.09	4122.72
512.458	4119.78
512.826	4144.41
513.193	4139.21
513.561	4023.74
513.929	3979.44
514.297	3974.92
514.664	3934.92
515.032	3911.65
515.4	3860.35
515.767	3971.99
516.135	3967.01
516.502	3975.38
516.869	4081.81
517.237	4216.05
517.604	4231.87
517.972	4309.6
518.339	4399.09
518.706	4435.7
519.073	4388.02
519.44	4363.39
519.808	4402.26
520.175	4291.98
520.542	4243.62
520.909	4165.2
521.276	4130.17
521.643	4110.29
522.009	4138.08
522.376	4205.65
522.743	4238.19
523.11	4319.32
523.477	4389.15
523.843	4529.49
524.21	4613.78
524.577	4712.31
524.943	4785.3
525.31	4826.43
525.676	4858.29
526.043	4819.65
526.409	4849.03
526.776	4776.71
527.142	4664.4
527.508	4621.69
527.874	4562.03
528.241	4574
528.607	4521.35
528.973	4621.91
529.339	4677.28
529.705	4798.86
530.071	4957.04
530.437	5015.8
530.803	5117.49
531.169	5263.03
531.535	5308.22
531.901	5406.52
532.267	5416.02
532.632	5446.52
532.998	5371.5
533.364	5326.53
533.73	5290.6
534.095	5220.99
534.461	5156.36
534.826	5157.94
535.192	5102.35
535.557	5129.7
535.923	5164.95
536.288	5212.86
536.653	5374.21
537.019	5456.69
537.384	5646.97
537.749	5694.65
538.114	5793.41
538.479	5921.54
538.845	5965.83
539.21	5879.96
539.575	5950.47
539.94	5935.78
540.305	5857.59
540.67	5821.65
541.034	5769.45
541.399	5683.81
541.764	5635.9
542.129	5617.82
542.494	5584.6
542.858	5641.55
543.223	5684.94
543.587	5800.41
543.952	5896.46
544.316	5999.96
544.681	6198.14
545.045	6298.25
545.41	6403.56
545.774	6535.31
546.138	6495.99
546.503	6569.88
546.867	6503.67
547.231	6454.18
547.595	6364.47
547.959	6278.82
548.324	6175.32
548.688	6073.85
549.052	6032.27
549.416	5956.57
549.779	5974.87
550.143	5978.26
550.507	6116.11
550.871	6209.67
551.235	6268.87
551.599	6428.42
551.962	6523.56
552.326	6684.01
552.689	6729.2
553.053	6846.26
553.417	6854.4
553.78	6940.72
554.143	6799.03
554.507	6833.15
554.87	6712.93
555.234	6673.84
555.597	6536.44
555.96	6388.19
556.323	6426.38
556.686	6307.07
557.05	6254.86
557.413	6288.08
557.776	6350.45
558.139	6449.66
558.502	6546.16
558.865	6688.75
559.228	6847.62
559.59	6997.67
559.953	7026.37
560.316	7209.41
560.679	7254.16
561.041	7288.73
561.404	7339.36
561.767	7355.17
562.129	7274.5
562.492	7194.27
562.854	7101.17
563.217	6955.64
563.579	6837.9
563.941	6769.2
564.304	6709.09
564.666	6676.1
565.028	6711.57
565.39	6743.66
565.753	6801.97
566.115	6933.04
566.477	7098.46
566.839	7221.62
567.201	7415.51
567.563	7496.64
567.925	7742.96
568.287	7750.87
568.648	7864.31
569.01	7951.99
569.372	7901.83
569.734	7851.66
570.095	7778.44
570.457	7761.04
570.819	7601.5
571.18	7494.61
571.542	7389.3
571.903	7328.73
572.265	7267.72
572.626	7276.08
572.987	7212.13
573.349	7345.46
573.71	7472.46
574.071	7542.74
574.432	7778.21
574.794	8033.8
575.155	8199.67
575.516	8372.55
575.877	8581.58
576.238	8734.57
576.599	8865.87
576.96	8978.86
577.32	8998.97
577.681	9023.38
578.042	9012.08
578.403	9004.17
578.763	8975.24
579.124	8945.64
579.485	8982.02
579.845	8938.18
580.206	8992.19
580.566	9005.98
580.927	9215.01
581.287	9388.57
581.648	9520.77
582.008	9933.41
582.368	10205.49
582.728	10541.08
583.089	10903.33
583.449	11334.28
583.809	11837.32
584.169	12138.55
584.529	12496.51
584.889	12872.77
585.249	13153.44
585.609	13409.93
585.969	13800.88
586.329	14087.43
586.688	14307.99
587.048	14523.35
587.408	14794.07
587.768	15034.52
588.127	15310.22
588.487	15586.37
588.846	15927.83
589.206	16273.36
589.565	16792.21
589.925	17403.5
590.284	17727.1
590.643	18434.88
591.003	19123.45
591.362	19591.46
591.721	20274.16
592.08	20948.94
592.44	21505.54
592.799	22213.99
593.158	22740.31
593.517	23231.37
593.876	23810.11
594.235	24297.33
594.593	24574.61
594.952	25153.35
595.311	25436.73
595.67	25874.69
596.029	26410.94
596.387	26752.63
596.746	27074.66
597.104	27392.16
597.463	27939.49
597.822	28414.06
598.18	28801.16
598.538	29174.04
598.897	29922.49
599.255	30250.39
599.613	31358.84
599.972	31774.87
600.33	32388.64
600.688	32998.34
601.046	33533.24
601.404	34338.65
601.762	34668.13
602.12	35520.76
602.478	35808.21
602.836	36232.61
603.194	36483.9
603.552	36793.72
603.91	37004.79
604.268	37519.58
604.625	37579.01
604.983	38019.68
605.341	38112.78
605.698	38464.64
606.056	38771.97
606.413	38975.36
606.771	39421.45
607.128	39837.71
607.485	40011.49
607.843	40366.51
608.2	41063.21
608.557	41539.36
608.914	41740.03
609.272	42270.64
609.629	42814.35
609.986	43392.42
610.343	43349.48
610.7	44085.73
611.057	44345.39
611.414	44600.52
611.771	44830.12
612.127	45193.5
612.484	45234.18
612.841	45391.46
613.198	45337.68
613.554	45427.17
613.911	45751.23
614.267	45797.33
614.624	45812.02
614.98	46004.55
615.337	46181.95
615.693	46197.09
616.05	46359.57
616.406	46695.83
616.762	46636.85
617.118	46949.39
617.475	47115.48
617.831	47384.4
618.187	47613.55
618.543	47884.28
618.899	48260.99
619.255	48331.72
619.611	48621.43
619.967	48865.72
620.323	49017.36
620.678	49072.04
621.034	49059.84
621.39	49122.21
621.746	49055.32
622.101	49505.48
622.457	49178.93
622.812	49192.49
623.168	49275.88
623.523	49215.32
623.879	49309.55
624.234	48898.04
624.589	49227.52
624.945	49165.6
625.3	49219.16
625.655	49254.64
626.01	49338.93
626.365	49365.37
626.72	49532.82
627.075	49586.83
627.43	49739.6
627.785	49605.81
628.14	49936.65
628.495	50067.27
628.85	50206.25
629.205	50140.04
629.559	50449.18
629.914	50331.67
630.269	50548.39
630.623	50451.67
630.978	50421.16
631.332	50447.6
631.687	50446.02
632.041	50282.41
632.396	50293.25
632.75	50126.7
633.104	50183.2
633.459	49968.74
633.813	49819.82
634.167	49683.33
634.521	49683.33
634.875	49775.08
635.229	49434.97
635.583	49418.93
635.937	49451.69
636.291	49575.53
636.645	49670.22
636.999	49695.76
637.352	49881.51
637.706	49671.12
638.06	50052.58
638.413	50070.66
638.767	49945.69
639.121	50055.07
639.474	49882.64
639.828	50026.59
640.181	50160.6
640.534	50153.37
640.888	50002.41
641.241	49872.47
641.594	49859.37
641.947	49875.19
642.301	49705.92
642.654	49622.54
643.007	49631.8
643.36	49412.83
643.713	49337.12
644.066	49302.55
644.419	49013.29
644.771	48804.03
645.124	48363.81
645.477	48208.34
645.83	48130.82
646.182	48020.09
646.535	47871.85
646.888	47994.33
647.24	47979.19
647.593	48344.38
647.945	48237.94
648.298	48121.11
648.65	48054.89
649.002	48222.12
649.355	48423.25
649.707	48175.57
650.059	48383.02
650.411	48959.96
650.763	48960.63
651.115	49303.22
651.467	49118.37
651.819	49085.83
652.171	48992.5
652.523	48885.61
652.875	48638.61
653.227	48425.73
653.578	48651.49
653.93	48444.04
654.282	48270.93
654.633	48115.23
654.985	47973.09
655.337	48140.32
655.688	47994.11
656.039	48141.45
656.391	47885.86
656.742	47950.72
657.094	48053.09
657.445	48105.74
657.796	48206.53
658.147	48217.6
658.498	48348.9
658.849	48452.85
659.2	48570.59
659.551	48385.96
659.902	48570.59
660.253	48619.17
660.604	48744.14
660.955	48539.63
661.306	48752.96
661.656	48657.82
662.007	48594.54
662.358	48462.57
662.708	48516.58
663.059	48350.71
663.409	47977.38
663.76	48305.74
664.11	48005.4
664.461	48001.34
664.811	47926.99
665.161	47795.47
665.511	47633.44
665.862	47521.35
666.212	47576.04
666.562	47622.59
666.912	47561.12
667.262	47513.67
667.612	47520.22
667.962	47629.6
668.312	47599.77
668.662	47776.94
669.011	47772.64
669.361	47886.99
669.711	47856.93
670.06	47983.94
670.41	47978.06
670.76	47970.38
671.109	48232.07
671.459	48063.48
671.808	48094.89
672.157	48177.15
672.507	47972.86
672.856	47835.24
673.205	47797.95
673.554	47943.71
673.904	47766.09
674.253	47958.4
674.602	47679.54
674.951	47029.61
675.3	46694.48
675.649	47130.63
675.998	47025.77
676.346	47016.05
676.695	46938.09
677.044	46746
677.393	46803.63
677.741	46925.88
678.09	46799.33
678.438	46575.39
678.787	46664.87
679.135	46742.61
679.484	46564.76
679.832	46915.04
680.181	46697.19
680.529	46854.02
680.877	46914.81
681.225	46815.15
681.573	47154.35
681.922	47025.09
682.27	46943.51
682.618	47005.43
682.966	47002.72
683.314	47019.89
683.661	47091.76
684.009	46694.48
684.357	46637.76
684.705	46427.59
685.053	46517.08
685.4	46323.64
685.748	46176.75
686.095	45864.9
686.443	45761.17
686.79	45580.84
687.138	45586.26
687.485	45575.86
687.832	45226.04
688.18	45344.68
688.527	45020.85
688.874	44918.03
689.221	44897.01
689.568	44639.17
689.915	44681.2
690.262	44809.78
690.609	44620.41
690.956	44555.1
691.303	44478.27
691.65	44469.68
691.997	44591.93
692.344	44444.14
692.69	44497.02
693.037	44677.13
693.383	44273.53
693.73	44649.11
694.077	44420.64
694.423	44384.93
694.769	44227.2
695.116	44259.06
695.462	44231.94
695.808	43921.22
696.155	43983.82
696.501	43580.44
696.847	43592.19
697.193	43182.71
697.539	43257.51
697.885	42842.6
698.231	42669.73
698.577	42545.66
698.923	42414.82
699.269	42201.49
699.614	41985
699.96	41871.1
700.306	41824.1
700.651	41534.84
700.997	41338.24
701.342	41392.02
701.688	41463.43
702.033	41286.26
702.379	41303.89
702.724	41104.57
703.069	41382.98
703.415	40817.8
703.76	41069.54
704.105	41129.43
704.45	41139.14
704.795	40960.39
705.14	40912.03
705.485	40983.89
705.83	40858.93
706.175	41091.69
706.52	40809.44
706.865	40651.47
707.209	40680.63
707.554	40606.28
707.899	40697.12
708.243	40266.4
708.588	40340.97
708.932	40002
709.277	39964.94
709.621	39830.25
709.966	39569.47
710.31	39503.93
710.654	39045.64
710.998	38984.4
711.342	39079.31
711.687	38894.23
712.031	38637.97
712.375	38441.14
712.719	38442.72
713.063	38324.98
713.407	38418.09
713.75	38316.39
714.094	38214.02
714.438	37983.97
714.782	38301.93
715.125	37907.82
715.469	38187.36
715.812	38004.54
716.156	37985.78
716.499	38044.99
716.843	38050.86
717.186	38004.76
717.53	38196.85
717.873	38187.36
718.216	38181.03
718.559	38072.78
718.902	37871.21
719.246	38015.61
719.589	37859.46
719.932	37673.92
720.275	37727.26
720.617	37621.72
720.96	37475.96
721.303	37433.7
721.646	37361.84
721.989	37173.37
722.331	37274.84
722.674	37010.67
723.016	36893.83
723.359	36671.92
723.701	36729.09
724.044	36440.51
724.386	36038.04
724.729	36284.13
725.071	35991.26
725.413	36005.72
725.755	35941.54
726.097	35668.78
726.439	35639.4
726.782	35623.36
727.124	35800.98
727.465	35533.19
727.807	35613.87
728.149	35596.24
728.491	35563.25
728.833	35658.84
729.175	35599.85
729.516	35678.72
729.858	35708.55
730.199	35763.47
730.541	35726.63
730.882	35657.71
731.224	35873.29
731.565	35702
731.906	35776.8
732.248	35780.87
732.589	35617.03
732.93	35508.33
733.271	35501.78
733.612	35523.25
733.953	35362.35
734.294	35168.23
734.635	35059.08
734.976	35093.2
735.317	34847.78
735.658	34887.56
735.999	34813.66
736.339	34583.16
736.68	34654.8
737.021	34373.9
737.361	34132.77
737.702	34220.46
738.042	34078.99
738.383	34003.74
738.723	34036.51
739.063	33875.83
739.404	33860.01
739.744	33806.23
740.084	33578.21
740.424	33882.84
740.764	33736.63
741.104	33829.73
741.444	33714.25
741.784	33649.62
742.124	33726.46
742.464	33737.53
742.804	33755.84
743.143	33621.83
743.483	33741.15
743.823	33560.81
744.162	33670.87
744.502	33758.55
744.841	33806.68
745.181	33883.74
745.52	33717.64
745.86	33761.94
746.199	33615.73
746.538	33684.65
746.877	33664.99
747.216	33498.44
747.556	33314.49
747.895	33294.15
748.234	33185.46
748.573	33079.47
748.911	32975.29
749.25	32967.38
749.589	32724.22
749.928	32698.46
750.267	32535.53
750.605	32415.98
750.944	32401.75
751.283	32149.32
751.621	32109.1
751.96	31898.03
752.298	31810.12
752.636	31828.2
752.975	31653.07
753.313	31428.21
753.651	31681.31
753.989	31482.9
754.327	31399.06
754.666	31290.59
755.004	31416.46
755.342	31407.2
755.679	31409
756.017	31215.34
756.355	31388.67
756.693	31335.79
757.031	31398.38
757.368	31299.63
757.706	31228.22
758.044	31312.51
758.381	31264.83
758.719	31191.16
759.056	31218.05
759.394	31173.08
759.731	30995.46
760.068	30859.41
760.405	30933.76
760.743	30809.92
761.08	30699.64
761.417	30509.14
761.754	30463.04
762.091	30353.21
762.428	30287.9
762.765	30044.75
763.102	30106.67
763.438	29781.7
763.775	29677.3
764.112	29601.82
764.449	29538.55
764.785	29282.73
765.122	29098.78
765.458	28949.63
765.795	28846.59
766.131	28875.96
766.467	28729.98
766.804	28516.65
767.14	28242.76
767.476	28443.66
767.812	28224
768.148	28325.7
768.485	28075.31
768.821	28059.94
769.157	27942.43
769.492	27892.71
769.828	27933.84
770.164	27725.03
770.5	27786.05
770.836	27808.87
771.171	27759.16
771.507	27605.94
771.842	27539.5
772.178	27564.81
772.513	27527.75
772.849	27407.53
773.184	27290.92
773.519	27371.82
773.855	27206.4
774.19	27136.35
774.525	27102
774.86	27134.31
775.195	27012.74
775.53	26762.8
775.865	26739.07
776.2	26481.9
776.535	26346.76
776.87	26302.02
777.205	26078.75
777.539	26033.55
777.874	26062.48
778.209	25668.59
778.543	25774.8
778.878	25408.71
779.212	25392.21
779.547	25193.8
779.881	25182.05
780.215	24958.33
780.55	24980.02
780.884	24820.93
781.218	24636.53
781.552	24676.75
781.886	24415.52
782.22	24360.15
782.554	24227.27
782.888	24050.1
783.222	23908.64
783.556	23884.68
783.889	23927.62
784.223	23763.33
784.557	23793.16
784.89	23822.54
785.224	23707.74
785.557	23687.63
785.891	23562.43
786.224	23557.91
786.558	23662.32
786.891	23360.85
787.224	23468.87
787.557	23357.92
787.891	23232.72
788.224	23363.79
788.557	23394.07
788.89	23271.59
789.223	23241.31
789.556	23143.46
789.888	23024.59
790.221	22884.48
790.554	22828.21
790.887	22818.72
791.219	22651.04
791.552	22663.02
791.884	22456.92
792.217	22348
792.549	22284.95
792.882	22181.22
793.214	22016.26
793.546	21952.08
793.879	21693.78
794.211	21606.55
794.543	21625.53
794.875	21471.19
795.207	21475.25
795.539	21411.53
795.871	21308.71
796.203	21066.45
796.535	20938.09
796.867	20865.1
797.198	20762.5
797.53	20855.16
797.862	20579.46
798.193	20725.9
798.525	20547.37
798.856	20579.91
799.188	20359.35
799.519	20253.59
799.85	20241.84
800.182	20288.17
800.513	20329.75
800.844	20197.1
801.175	20224.21
801.506	20311.9
801.837	20120.26
802.168	20157.78
802.499	20184.44
802.83	19983.32
803.161	20041.62
803.491	20097.21
803.822	20132.92
804.153	19920.95
804.483	19850.44
804.814	19825.58
805.145	19842.98
805.475	19820.83
805.805	19726.83
806.136	19773.38
806.466	19721.85
806.796	19604.8
807.126	19540.62
807.457	19494.74
807.787	19472.6
808.117	19250.45
808.447	19219.49
808.777	19222.21
809.107	18972.5
809.436	19051.59
809.766	18907.86
810.096	18873.06
810.426	18730.24
810.755	18649.79
811.085	18603.24
811.414	18420.65
811.744	18343.36
812.073	18276.47
812.403	18288.45
812.732	18114.44
813.061	18127.55
813.39	18036.02
813.719	17913.09
814.049	18005.29
814.378	17988.57
814.707	17860.43
815.036	17880.32
815.365	17814.56
815.693	17655.92
816.022	17628.8
816.351	17608.46
816.68	17529.6
817.008	17645.3
817.337	17497.28
817.665	17567.79
817.994	17523.04
818.322	17649.14
818.651	17495.02
818.979	17517.62
819.307	17651.4
819.636	17530.95
819.964	17464.51
820.292	17565.75
820.62	17523.72
820.948	17493.89
821.276	17560.78
821.604	17480.56
821.932	17601.91
822.259	17480.33
822.587	17473.33
822.915	17474.91
823.243	17541.35
823.57	17485.53
823.898	17474
824.225	17308.58
824.553	17338.19
824.88	17361.92
825.207	17450.05
825.535	17346.32
825.862	17290.73
826.189	17217.97
826.516	17291.64
826.843	17274.69
827.17	17192.88
827.497	17190.17
827.824	17138.42
828.151	17054.81
828.478	17086.9
828.805	17192.43
829.131	16945.88
829.458	16980.68
829.785	16868.6
830.111	16955.83
830.438	17005.54
830.764	16926
831.09	16954.47
831.417	16896.62
831.743	17015.48
832.069	16963.96
832.395	16892.1
832.722	16922.83
833.048	16852.1
833.374	16938.42
833.7	16772.33
834.026	16971.42
834.351	16882.83
834.677	16934.36
835.003	17034.24
835.329	16962.38
835.654	17027.01
835.98	16947.46
836.306	16955.83
836.631	16900.69
836.956	16882.83
837.282	16940.91
837.607	16944.07
837.932	16963.06
838.258	16890.29
838.583	16940.01
838.908	16827.02
839.233	16813
839.558	16853.23
839.883	16763.29
840.208	16744.53
840.533	16676.28
840.858	16704.53
841.182	16691.43
841.507	16710.41
841.832	16571.88
842.156	16540.92
842.481	16455.05
842.805	16436.52
843.13	16324.43
843.454	16284.88
843.778	16154.72
844.103	16190.65
844.427	16109.29
844.751	16105.23
845.075	15971.67
845.399	15959.69
845.723	15853.48
846.047	15763.99
846.371	15629.76
846.695	15574.17
847.019	15479.25
847.343	15389.54
847.666	15347.05
847.99	15272.25
848.313	15337.56
848.637	15099.38
848.96	15083.11
849.284	15055.31
849.607	14977.12
849.931	14957.91
850.254	14893.51
850.577	14855.32
850.9	14698.48
851.223	14712.72
851.546	14658.26
851.869	14585.49
852.192	14714.75
852.515	14603.8
852.838	14463.69
853.161	14528.54
853.483	14466.4
853.806	14437.47
854.129	14465.04
854.451	14415.1
854.774	14339.62
855.096	14266.63
855.419	14311.38
855.741	14296.01
856.063	14168.78
856.385	14245.16
856.708	14227.08
857.03	14101.21
857.352	14100.31
857.674	14089.23
857.996	14074.09
858.318	14025.73
858.64	13995.9
858.961	13800.65
859.283	13834.33
859.605	13734.89
859.926	13724.95
860.248	13673.2
860.57	13694.44
860.891	13623.48
861.212	13648.12
861.534	13459.19
861.855	13455.13
862.176	13397.95
862.498	13378.74
862.819	13337.16
863.14	13212.42
863.461	13249.03
863.782	13138.3
864.103	13097.17
864.424	13143.72
864.745	13044.06
865.065	13068.02
865.386	12899.43
865.707	12858.08
866.027	12856.05
866.348	12877.06
866.668	12796.61
866.989	12770.85
867.309	12758.2
867.63	12768.59
867.95	12787.12
868.27	12676.84
868.59	12711.64
868.91	12732.89
869.23	12619.89
869.55	12673.45
869.87	12690.17
870.19	12666.45
870.51	12757.97
870.83	12821.24
871.15	12589.39
871.469	12653.11
871.789	12731.53
872.109	12778.99
872.428	12620.8
872.748	12744.64
873.067	12703.28
873.386	12656.05
873.706	12658.09
874.025	12645.2
874.344	12645.88
874.663	12674.36
874.982	12695.15
875.301	12603.4
875.62	12592.1
875.939	12597.97
876.258	12618.76
876.577	12485.66
876.896	12496.06
877.214	12435.27
877.533	12404.08
877.852	12400.46
878.17	12360.01
878.489	12388.26
878.807	12386.68
879.125	12376.28
879.444	12266.91
879.762	12197.08
880.08	12203.18
880.398	12079.12
880.716	12119.12
881.034	12038.67
881.352	11979.91
881.67	11978.78
881.988	11979.01
882.306	11890.2
882.624	11883.87
882.941	11798.9
883.259	11703.99
883.577	11722.74
883.894	11667.6
884.212	11589.64
884.529	11590.32
884.846	11560.94
885.164	11563.2
885.481	11491.56
885.798	11482.3
886.115	11459.47
886.432	11418.57
886.75	11358.01
887.067	11444.11
887.383	11402.3
887.7	11381.51
888.017	11302.64
888.334	11383.77
888.651	11282.53
888.967	11250.66
889.284	11282.08
889.6	11204.11
889.917	11176.32
890.233	11234.85
890.55	11264.9
890.866	11254.96
891.182	11212.7
891.498	11173.83
891.815	11141.74
892.131	11144.68
892.447	11059.26
892.763	11052.25
893.079	11014.96
893.395	11038.92
893.71	10959.15
894.026	11030.11
894.342	10918.47
894.657	10876.44
894.973	10888.64
895.289	10842.99
895.604	10845.7
895.92	10789.66
896.235	10763.9
896.55	10763.67
896.865	10668.76
897.181	10671.92
897.496	10707.63
897.811	10560.97
898.126	10567.74
898.441	10499.27
898.756	10518.71
899.071	10366.85
899.386	10378.6
899.7	10267.19
900.015	10215.66
900.33	10160.07
900.644	10149.22
900.959	10078.04
901.273	9989
901.588	9969.79
901.902	9929.57
902.216	9887.08
902.531	9821.55
902.845	9770.48
903.159	9699.52
903.473	9631.95
903.787	9636.02
904.101	9546.53
904.415	9589.69
904.729	9466.08
905.042	9432.63
905.356	9426.98
905.67	9405.97
905.984	9390.6
906.297	9338.4
906.611	9255.01
906.924	9346.76
907.237	9209.81
907.551	9161.68
907.864	9199.87
908.177	9221.11
908.491	9198.74
908.804	9121.23
909.117	9096.82
909.43	9031.51
909.743	8998.97
910.056	8978.63
910.368	8982.93
910.681	8930.05
910.994	8899.77
911.307	8896.15
911.619	8870.61
911.932	8895.02
912.244	8769.83
912.557	8822.71
912.869	8784.74
913.181	8730.05
913.494	8701.13
913.806	8682.14
914.118	8595.14
914.43	8575.71
914.742	8594.01
915.054	8516.27
915.366	8539.78
915.678	8461.59
915.99	8418.2
916.302	8386.56
916.613	8408.48
916.925	8401.25
917.236	8355.6
917.548	8330.29
917.859	8242.16
918.171	8267.24
918.482	8169.84
918.794	8107.47
919.105	8073.57
919.416	8047.59
919.727	8020.47
920.038	8006
920.349	7871.32
920.66	7850.08
920.971	7890.08
921.282	7836.29
921.593	7747.48
921.903	7737.76
922.214	7628.39
922.525	7613.25
922.835	7566.69
923.146	7492.57
923.456	7459.8
923.767	7427.71
924.077	7428.17
924.387	7367.83
924.697	7313.59
925.008	7308.4
925.318	7277.89
925.628	7234.5
925.938	7123.09
926.248	7110.43
926.558	7080.15
926.867	7037.22
927.177	7090.77
927.487	6950.21
927.796	6982.53
928.106	6941.85
928.416	6917.22
928.725	6940.27
929.034	6905.92
929.344	6864.34
929.653	6864.11
929.962	6812.59
930.271	6799.93
930.581	6766.94
930.89	6752.03
931.199	6696.43
931.508	6731.24
931.817	6708.86
932.125	6719.26
932.434	6688.07
932.743	6595.42
933.051	6566.72
933.36	6562.2
933.669	6610.79
933.977	6570.79
934.286	6531.01
934.594	6481.98
934.902	6469.1
935.21	6444.92
935.519	6396.78
935.827	6437.91
936.135	6416.89
936.443	6352.04
936.751	6375.54
937.059	6333.05
937.367	6299.38
937.674	6270
937.982	6223
938.29	6205.83
938.597	6205.6
938.905	6100.74
939.213	6068.2
939.52	6036.34
939.827	6103.91
940.135	6009.9
940.442	5981.65
940.749	5994.31
941.056	5906.62
941.363	5865.04
941.67	5835.67
941.977	5839.51
942.284	5804.71
942.591	5773.29
942.898	5735.78
943.205	5709.57
943.511	5702.79
943.818	5672.28
944.125	5598.61
944.431	5563.36
944.738	5548.44
945.044	5546.41
945.35	5461.66
945.657	5480.65
945.963	5430.93
946.269	5364.49
946.575	5394.1
946.881	5345.28
947.187	5387.32
947.493	5287.66
947.799	5284.95
948.105	5309.58
948.41	5248.56
948.716	5201.33
949.022	5218.51
949.327	5186.19
949.633	5141.22
949.938	5136.25
950.244	5100.32
950.549	5094.22
950.854	5035.91
951.16	5081.56
951.465	5023.03
951.77	4991.17
952.075	4991.85
952.38	5008.57
952.685	5006.54
952.99	4962.02
953.294	4933.32
953.599	4916.14
953.904	4878.63
954.209	4856.48
954.513	4845.18
954.818	4837.27
955.122	4832.08
955.426	4807.44
955.731	4815.35
956.035	4803.38
956.339	4774.9
956.643	4780.33
956.948	4755.47
957.252	4755.92
957.556	4728.8
957.86	4691.97
958.163	4677.05
958.467	4639.77
958.771	4628.69
959.075	4636.6
959.378	4582.37
959.682	4577.39
959.985	4561.8
960.289	4516.83
960.592	4525.64
960.896	4529.03
961.199	4449.04
961.502	4433.44
961.805	4415.59
962.108	4423.95
962.411	4364.74
962.714	4331.3
963.017	4338.3
963.32	4337.17
963.623	4294.92
963.926	4303.95
964.228	4264.63
964.531	4260.34
964.833	4231.87
965.136	4209.04
965.438	4174.24
965.741	4193
966.043	4142.15
966.345	4106.67
966.648	4077.29
966.95	4060.8
967.252	4071.42
967.554	4005.88
967.856	4019.67
968.158	3929.28
968.46	3952.78
968.761	3955.72
969.063	3879.56
969.365	3900.12
969.666	3822.84
969.968	3837.07
970.269	3806.57
970.571	3800.47
970.872	3785.32
971.174	3746
971.475	3750.97
971.776	3748.49
972.077	3687.7
972.378	3690.64
972.679	3676.17
972.98	3664.2
973.281	3638.66
973.582	3660.36
973.883	3633.24
974.183	3608.83
974.484	3631.88
974.785	3592.33
975.085	3595.95
975.386	3598.66
975.686	3573.58
975.986	3563.86
976.287	3553.24
976.587	3485.9
976.887	3491.77
977.187	3490.64
977.487	3464.43
977.787	3483.64
978.087	3482.06
978.387	3440.93
978.687	3452.9
978.987	3433.24
979.286	3436.63
979.586	3390.98
979.885	3372
980.185	3390.08
980.484	3392.57
980.784	3349.4
981.083	3337.2
981.382	3334.71
981.682	3309.86
981.981	3302.63
982.28	3293.13
982.579	3288.39
982.878	3265.11
983.177	3217.43
983.475	3275.96
983.774	3181.5
984.073	3207.26
984.372	3161.39
984.67	3195.28
984.969	3191.22
985.267	3116.64
985.566	3125.23
985.864	3110.54
986.162	3074.16
986.461	3034.16
986.759	3095.4
987.057	2996.64
987.355	3012.24
987.653	2995.51
987.951	3006.36
988.249	3007.94
988.547	2962.29
988.844	2945.35
989.142	2938.34
989.44	2888.4
989.737	2900.38
990.035	2849.76
990.332	2843.65
990.63	2830.77
990.927	2837.1
991.224	2793.26
991.521	2793.26
991.819	2774.05
992.116	2787.16
992.413	2734.96
992.71	2744.22
993.006	2750.32
993.303	2709.65
993.6	2676.65
993.897	2689.31
994.193	2703.09
994.49	2682.98
994.787	2678.01
995.083	2647.28
995.379	2604.11
995.676	2572.02
995.972	2564.57
996.268	2574.06
996.565	2548.97
996.861	2565.24
997.157	2550.33
997.453	2503.32
997.749	2526.15
998.044	2473.49
998.34	2465.13
998.636	2437.56
998.932	2454.06
999.227	2463.1
999.523	2465.13
999.818	2451.35
1000.114	2428.98
1000.409	2442.31
1000.704	2415.42
1001	2369.54
1001.295	2386.72
1001.59	2373.38
1001.885	2356.66
1002.18	2365.7
1002.475	2368.64
1002.77	2330.9
1003.065	2323.89
1003.359	2309.2
1003.654	2267.62
1003.949	2268.75
1004.243	2282.99
1004.538	2246.16
1004.832	2226.95
1005.127	2234.86
1005.421	2240.28
1005.715	2226.95
1006.009	2230.34
1006.304	2195.54
1006.598	2163.67
1006.892	2180.39
1007.186	2143.33
1007.48	2163.67
1007.773	2149.89
1008.067	2132.26
1008.361	2108.53
1008.655	2109.89
1008.948	2062.88
1009.242	2053.17
1009.535	2054.3
1009.829	2013.62
1010.122	2023.34
1010.415	2025.6
1010.708	2010.68
1011.001	2010.91
1011.295	1990.12
1011.588	1966.16
1011.881	1949.67
1012.173	1945.15
1012.466	1922.1
1012.759	1906.73
1013.052	1910.8
1013.344	1914.64
1013.637	1885.26
1013.93	1855.66
1014.222	1850.91
1014.514	1854.08
1014.807	1845.26
1015.099	1798.48
1015.391	1823.34
1015.683	1790.35
1015.976	1795.55
1016.268	1761.65
1016.56	1749.45
1016.851	1747.86
1017.143	1729.33
1017.435	1734.3
1017.727	1731.59
1018.018	1718.94
1018.31	1706.73
1018.602	1669.22
1018.893	1651.59
1019.185	1666.28
1019.476	1632.84
1019.767	1644.36
1020.058	1620.86
1020.35	1604.82
1020.641	1585.83
1020.932	1586.74
1021.223	1557.81
1021.514	1552.39
1021.804	1564.59
1022.095	1565.72
1022.386	1524.14
1022.677	1541.32
1022.967	1498.83
1023.258	1532.28
1023.548	1490.24
1023.839	1491.6
1024.129	1471.49
1024.419	1465.16
1024.709	1445.72
1025	1455.67
1025.29	1439.4
1025.58	1459.06
1025.87	1443.69
1026.16	1407.31
1026.449	1407.53
1026.739	1409.57
1027.029	1368.66
1027.319	1389.45
1027.608	1390.58
1027.898	1382.45
1028.187	1358.04
1028.477	1315.33
1028.766	1350.13
1029.055	1335.67
1029.344	1323.69
1029.634	1315.56
1029.923	1304.26
1030.212	1301.55
1030.501	1294.54
1030.79	1291.83
1031.078	1270.14
1031.367	1253.64
1031.656	1255.9
1031.945	1260.19
1032.233	1255.22
1032.522	1244.15
1032.81	1236.01
1033.099	1247.54
1033.387	1213.19
1033.675	1203.02
1033.963	1198.5
1034.251	1171.61
1034.54	1169.35
1034.828	1145.39
1035.116	1166.18
1035.403	1147.65
1035.691	1146.3
1035.979	1147.2
1036.267	1150.82
1036.554	1151.5
1036.842	1133.19
1037.129	1099.29
1037.417	1113.76
1037.704	1078.05
1037.992	1055.45
1038.279	1089.58
1038.566	1069.46
1038.853	1069.46
1039.14	1069.46
