Data from red_cardboard_box_FLMS001491_00063.txt Node
Date: Wed Feb 08 11:32:56 GMT 2017
User: dcchb
Spectrometer: FLMS00149
Trigger mode: 0
Integration Time (sec): 2.000000E-2
Scans to average: 10
Electric dark correction enabled: true
Nonlinearity correction enabled: false
Boxcar width: 0
XAxis mode: Wavelengths
Number of Pixels in Spectrum: 2048
>>>>>Begin Spectral Data<<<<<
341.393	-19.36
341.776	-19.36
342.16	-19.36
342.543	-73.83
342.927	-64.56
343.31	-73.83
343.693	-74.96
344.077	-64.56
344.46	-65.46
344.843	-58.68
345.226	-27.73
345.61	-30.21
345.993	-18.91
346.376	17.7
346.759	9.11
347.142	17.02
347.525	44.14
347.908	60.86
348.291	79.84
348.674	75.55
349.057	110.12
349.44	132.04
349.823	134.08
350.206	144.93
350.588	199.16
350.971	219.5
351.354	203.23
351.737	224.25
352.119	240.29
352.502	263.57
352.884	281.87
353.267	280.74
353.65	299.05
354.032	318.25
354.414	318.25
354.797	322.1
355.179	313.28
355.562	323.45
355.944	318.93
356.326	327.52
356.709	332.27
357.091	335.2
357.473	332.27
357.855	334.3
358.238	351.47
358.62	340.85
359.002	337.01
359.384	346.73
359.766	331.81
360.148	327.97
360.53	349.44
360.912	342.89
361.294	343.79
361.676	337.91
362.057	322.55
362.439	348.31
362.821	334.98
363.203	348.08
363.584	327.29
363.966	335.2
364.348	337.24
364.729	316.22
365.111	320.74
365.493	299.72
365.874	316.67
366.256	323
366.637	297.46
367.019	303.79
367.4	292.94
367.781	309.44
368.163	326.39
368.544	312.83
368.925	323.68
369.306	315.77
369.688	319.16
370.069	291.81
370.45	314.64
370.831	314.64
371.212	313.06
371.593	300.85
371.974	316.22
372.355	304.47
372.736	300.18
373.117	308.54
373.498	295.2
373.879	312.38
374.26	308.31
374.641	309.22
375.021	299.72
375.402	323
375.783	301.76
376.163	344.24
376.544	320.51
376.925	320.06
377.305	313.96
377.686	319.84
378.066	319.61
378.447	322.1
378.827	335.2
379.208	305.6
379.588	345.37
379.968	342.43
380.349	319.38
380.729	320.97
381.109	314.86
381.489	344.47
381.87	331.14
382.25	310.12
382.63	333.4
383.01	342.21
383.39	320.06
383.77	342.89
384.15	337.46
384.53	341.08
384.91	355.99
385.29	335.66
385.67	315.09
386.049	341.98
386.429	331.81
386.809	344.02
387.189	338.59
387.568	338.59
387.948	350.12
388.328	332.72
388.707	348.76
389.087	341.76
389.466	348.54
389.846	357.8
390.225	364.13
390.605	349.67
390.984	356.9
391.363	344.69
391.743	363.9
392.122	360.29
392.501	360.06
392.881	348.31
393.26	336.33
393.639	347.18
394.018	338.37
394.397	360.29
394.776	360.06
395.155	345.37
395.534	338.82
395.913	351.7
396.292	358.25
396.671	379.27
397.05	369.55
397.429	372.26
397.808	376.11
398.186	352.15
398.565	353.28
398.944	371.81
399.323	376.56
399.701	369.33
400.08	351.93
400.458	359.16
400.837	370.23
401.215	376.33
401.594	367.07
401.972	368.2
402.351	367.97
402.729	377.91
403.107	365.03
403.486	375.43
403.864	365.48
404.242	393.05
404.62	376.33
404.999	380.85
405.377	372.72
405.755	387.41
406.133	393.28
406.511	360.06
406.889	410.46
407.267	377.24
407.645	393.73
408.023	403.9
408.401	411.36
408.779	410.23
409.156	403.22
409.534	416.33
409.912	414.3
410.29	431.92
410.667	414.75
411.045	393.28
411.422	405.03
411.8	428.76
412.178	408.42
412.555	427.63
412.933	389.21
413.31	407.74
413.687	410
414.065	419.72
414.442	444.58
414.819	430.34
415.197	432.15
415.574	427.4
415.951	421.53
416.328	416.56
416.705	439.61
417.082	432.83
417.46	447.29
417.837	428.53
418.214	421.75
418.591	433.73
418.967	455.43
419.344	439.61
419.721	446.84
420.098	457.46
420.475	458.14
420.852	440.29
421.228	459.04
421.605	482.54
421.982	469.66
422.358	461.75
422.735	483
423.111	464.69
423.488	465.82
423.864	469.21
424.241	485.26
424.617	488.42
424.994	478.7
425.37	481.41
425.746	466.95
426.123	482.09
426.499	465.37
426.875	484.13
427.251	507.4
427.627	506.05
428.003	484.13
428.379	501.53
428.756	493.16
429.132	505.59
429.507	497.46
429.883	501.75
430.259	510.79
430.635	503.11
431.011	523.9
431.387	533.39
431.763	518.93
432.138	543.56
432.514	533.62
432.89	527.97
433.265	524.8
433.641	548.53
434.016	550.79
434.392	535.42
434.767	550.79
435.143	564.12
435.518	562.32
435.894	557.34
436.269	570.9
436.644	565.93
437.02	574.74
437.395	549.43
437.77	580.39
438.145	576.33
438.52	607.74
438.895	573.39
439.271	595.31
439.646	601.18
440.021	603.9
440.395	580.62
440.77	588.3
441.145	598.02
441.52	589.21
441.895	586.72
442.27	600.96
442.645	632.14
443.019	615.65
443.394	623.11
443.769	628.53
444.143	621.3
444.518	612.48
444.892	607.96
445.267	628.08
445.641	642.54
446.016	617
446.39	640.73
446.764	652.26
447.139	658.81
447.513	621.07
447.887	624.01
448.262	639.83
448.636	635.76
449.01	620.39
449.384	646.83
449.758	666.72
450.132	651.13
450.506	646.16
450.88	640.51
451.254	663.56
451.628	670.34
452.002	669.88
452.376	671.92
452.75	677.34
453.123	694.52
453.497	675.31
453.871	689.09
454.244	676.66
454.618	711.92
454.992	690.45
455.365	696.32
455.739	709.88
456.112	723.89
456.486	745.36
456.859	717.11
457.232	705.14
457.606	745.59
457.979	747.4
458.352	734.97
458.725	748.3
459.099	770.22
459.472	778.13
459.845	741.52
460.218	769.77
460.591	769.09
460.964	770.9
461.337	785.36
461.71	779.03
462.083	813.61
462.456	813.38
462.829	808.18
463.201	819.03
463.574	819.71
463.947	820.16
464.32	828.52
464.692	831.91
465.065	824.46
465.438	840.95
465.81	863.1
466.183	859.26
466.555	862.42
466.928	859.71
467.3	868.07
467.672	887.05
468.045	879.14
468.417	890.89
468.789	905.36
469.161	920.27
469.534	940.84
469.906	951.01
470.278	937.22
470.65	950.1
471.022	950.78
471.394	979.93
471.766	992.59
472.138	969.76
472.51	969.08
472.882	1012.02
473.253	1006.82
473.625	1007.28
473.997	1006.15
474.369	1017.9
474.74	1044.79
475.112	1047.05
475.484	1083.66
475.855	1096.31
476.227	1109.65
476.598	1101.74
476.97	1109.42
477.341	1139.93
477.713	1170.44
478.084	1148.51
478.455	1171.79
478.827	1163.66
479.198	1181.73
479.569	1202.52
479.94	1233.03
480.311	1239.36
480.682	1256.99
481.053	1300.38
481.424	1296.76
481.795	1304.67
482.166	1322.97
482.537	1307.38
482.908	1336.53
483.279	1340.83
483.65	1382.86
484.021	1402.52
484.391	1439.81
484.762	1448.62
485.133	1437.77
485.503	1438.68
485.874	1491.1
486.244	1468.28
486.615	1522.06
486.985	1528.17
487.356	1528.39
487.726	1553.48
488.097	1597.54
488.467	1592.12
488.837	1608.84
489.207	1657.88
489.578	1643.42
489.948	1669.41
490.318	1689.97
490.688	1678.9
491.058	1708.27
491.428	1728.16
491.798	1724.32
492.168	1769.52
492.538	1762.74
492.908	1787.82
493.278	1804.32
493.648	1803.19
494.017	1800.25
494.387	1866.46
494.757	1865.56
495.126	1883.41
495.496	1927.25
495.866	1922.51
496.235	1918.44
496.605	1928.61
496.974	1948.27
497.344	1986.69
497.713	1987.59
498.082	1987.36
498.452	2051.09
498.821	2004.76
499.19	2061.03
499.559	2059.45
499.928	2070.75
500.298	2073.91
500.667	2090.19
501.036	2106
501.405	2124.76
501.774	2131.77
502.143	2143.52
502.512	2157.53
502.88	2172.22
503.249	2154.59
503.618	2221.26
503.987	2199.33
504.356	2188.71
504.724	2240.01
505.093	2261.71
505.462	2253.12
505.83	2268.26
506.199	2298.54
506.567	2318.43
506.936	2309.16
507.304	2347.13
507.672	2344.19
508.041	2362.95
508.409	2414.7
508.777	2363.4
509.145	2424.87
509.514	2408.37
509.882	2446.56
510.25	2461.47
510.618	2458.99
510.986	2483.4
511.354	2496.95
511.722	2506.67
512.09	2524.3
512.458	2516.84
512.826	2557.97
513.193	2598.87
513.561	2594.13
513.929	2591.41
514.297	2623.96
514.664	2661.02
515.032	2659.21
515.4	2687.68
515.767	2698.3
516.135	2730.85
516.502	2697.63
516.869	2734.69
517.237	2740.34
517.604	2793.22
517.972	2802.26
518.339	2830.28
518.706	2814.91
519.073	2812.88
519.44	2898.75
519.808	2875.7
520.175	2930.39
520.542	2921.58
520.909	2972.87
521.276	2960.44
521.643	2977.62
522.009	3017.84
522.376	3050.61
522.743	3080.22
523.11	3083.83
523.477	3148.46
523.843	3126.54
524.21	3158.18
524.577	3183.72
524.943	3211.06
525.31	3248.35
525.676	3221.91
526.043	3282.02
526.409	3277.27
526.776	3299.42
527.142	3293.32
527.508	3346.2
527.874	3348.01
528.241	3404.73
528.607	3393.2
528.973	3444.05
529.339	3452.86
529.705	3511.84
530.071	3506.19
530.437	3552.29
530.803	3561.11
531.169	3555.23
531.535	3579.86
531.901	3636.81
532.267	3626.87
532.632	3648.79
532.998	3633.87
533.364	3669.8
533.73	3694.66
534.095	3750.93
534.461	3740.99
534.826	3765.17
535.192	3801.1
535.557	3830.7
535.923	3809.01
536.288	3863.25
536.653	3856.24
537.019	3860.99
537.384	3859.63
537.749	3896.69
538.114	3943.7
538.479	3902.79
538.845	3940.76
539.21	3944.6
539.575	3976.46
539.94	4024.6
540.305	4001.1
540.67	4055.33
541.034	4081.55
541.399	4078.16
541.764	4108.21
542.129	4106.63
542.494	4157.93
542.858	4129.68
543.223	4167.19
543.587	4180.07
543.952	4242.22
544.316	4236.57
544.681	4217.59
545.045	4259.39
545.41	4310.47
545.774	4330.58
546.138	4325.83
546.503	4335.1
546.867	4325.61
547.231	4397.24
547.595	4404.02
547.959	4396.11
548.324	4428.88
548.688	4474.3
549.052	4523.79
549.416	4459.39
549.779	4531.02
550.143	4510.91
550.507	4565.15
550.871	4616.67
551.235	4652.15
551.599	4671.59
551.962	4693.28
552.326	4726.05
552.689	4730.34
553.053	4687.86
553.417	4795.65
553.78	4786.84
554.143	4828.87
554.507	4842.66
554.87	4867.29
555.234	4939.6
555.597	4935.76
555.96	4948.19
556.323	5000.62
556.686	5066.38
557.05	5055.53
557.413	5097.11
557.776	5093.5
558.139	5187.96
558.502	5201.74
558.865	5200.16
559.228	5275.64
559.59	5268.41
559.953	5301.85
560.316	5396.76
560.679	5396.09
561.041	5470.21
561.404	5485.58
561.767	5609.41
562.129	5533.03
562.492	5655.06
562.854	5658.68
563.217	5679.92
563.579	5752.69
563.941	5823.19
564.304	5874.27
564.666	5919.91
565.028	5970.76
565.39	6002.85
565.753	6078.1
566.115	6100.7
566.477	6145.22
566.839	6225.9
567.201	6339.79
567.563	6304.76
567.925	6360.13
568.287	6451.43
568.648	6463.86
569.01	6579.11
569.372	6576.39
569.734	6676.05
570.095	6687.8
570.457	6800.8
570.819	6806.67
571.18	6795.37
571.542	6945.88
571.903	6996.04
572.265	7012.32
572.626	7106.32
572.987	7217.28
573.349	7238.07
573.71	7312.42
574.071	7369.59
574.432	7396.03
574.794	7493.66
575.155	7618.85
575.516	7656.82
575.877	7715.57
576.238	7786.08
576.599	7873.31
576.96	7958.96
577.32	7992.4
577.681	8108.56
578.042	8244.6
578.403	8319.63
578.763	8366.86
579.124	8476.68
579.485	8608.21
579.845	8694.53
580.206	8732.95
580.566	8877.13
580.927	8962.77
581.287	9179.72
581.648	9160.51
582.008	9358.92
582.368	9526.37
582.728	9590.78
583.089	9753.71
583.449	9809.98
583.809	9930.2
584.169	10183.31
584.529	10198.67
584.889	10436.18
585.249	10508.04
585.609	10654.93
585.969	10897.86
586.329	11027.58
586.688	11119.1
587.048	11299.89
587.408	11455.81
587.768	11652.65
588.127	11844.73
588.487	12033.2
588.846	12374.21
589.206	12488.1
589.565	12598.61
589.925	13030.91
590.284	13143.23
590.643	13372.83
591.003	13567.85
591.362	13868.86
591.721	14095.97
592.08	14317.21
592.44	14629.74
592.799	14883.52
593.158	15180.46
593.517	15424.07
593.876	15735.48
594.235	15979.54
594.593	16272.64
594.952	16640.76
595.311	16905.61
595.67	17207.98
596.029	17582.66
596.387	17932.93
596.746	18205.47
597.104	18461.73
597.463	18645.91
597.822	19186.01
598.18	19383.74
598.538	19741.47
598.897	20099.43
599.255	20305.3
599.613	20918.84
599.972	21151.15
600.33	21531.48
600.688	21720.4
601.046	22223.67
601.404	22678.57
601.762	22886.25
602.12	23331.89
602.478	23623.63
602.836	23931.19
603.194	24200.11
603.552	24578.63
603.91	24801.23
604.268	25354.43
604.625	25404.6
604.983	26144.47
605.341	26283
605.698	26693.38
606.056	27055.63
606.413	27219.24
606.771	27738.1
607.128	27996.62
607.485	28154.36
607.843	28513.22
608.2	28920.44
608.557	29300.77
608.914	29535.11
609.272	29780.53
609.629	30173.51
609.986	30586.39
610.343	30679.49
610.7	31015.3
611.057	31296.87
611.414	31629.07
611.771	31785.9
612.127	32058.89
612.484	32435.6
612.841	32676.27
613.198	32822.03
613.554	32878.53
613.911	33406.2
614.267	33566.42
614.624	33687.55
614.98	34025.84
615.337	34359.39
615.693	34365.27
616.05	34548.31
616.406	34908.76
616.762	34907.63
617.118	35208.64
617.475	35510.55
617.831	35701.73
618.187	35826.02
618.543	35988.5
618.899	36351.21
619.255	36439.79
619.611	36501.26
619.967	36824.41
620.323	37033.45
620.678	36974.92
621.034	37121.13
621.39	37203.16
621.746	37361.8
622.101	37900.54
622.457	37624.84
622.812	37784.39
623.168	38012.4
623.523	38045.85
623.879	38385.05
624.234	38117.26
624.589	38473.18
624.945	38505.27
625.3	38767.19
625.655	38673.4
626.01	38809.9
626.365	38901.42
626.72	38911.59
627.075	39164.69
627.43	39264.8
627.785	39024.13
628.14	39280.17
628.495	39328.75
628.85	39367.85
629.205	39329.43
629.559	39794.73
629.914	39595.19
630.269	39713.83
630.623	39638.8
630.978	39610.55
631.332	39862.75
631.687	39959.7
632.041	39832.7
632.396	40175.06
632.75	39905.01
633.104	40004.89
633.459	39906.37
633.813	39931.22
634.167	39999.47
634.521	40018.91
634.875	40067.72
635.229	40153.14
635.583	39931.22
635.937	40005.57
636.291	39998.34
636.645	40042.18
636.999	40081.28
637.352	40149.98
637.706	39973.71
638.06	40081.95
638.413	40167.15
638.767	40160.37
639.121	40138.45
639.474	39940.72
639.828	40050.32
640.181	40241.27
640.534	40263.87
640.888	40268.84
641.241	39931.45
641.594	40147.72
641.947	40177.55
642.301	40231.33
642.654	40128.73
643.007	40320.37
643.36	40122.41
643.713	40203.99
644.066	40212.57
644.419	40112.69
644.771	39829.31
645.124	39438.81
645.477	39423.89
645.83	39164.46
646.182	39094.18
646.535	39180.51
646.888	39237.91
647.24	39129.89
647.593	39306.38
647.945	39340.73
648.298	39120.85
648.65	39138.25
649.002	38966.05
649.355	39143.45
649.707	38984.81
650.059	39172.15
650.411	39741.85
650.763	39680.84
651.115	40136.42
651.467	40108.17
651.819	40178.68
652.171	39993.82
652.523	40045.57
652.875	39974.16
653.227	39845.8
653.578	40098.45
653.93	40094.61
654.282	39928.29
654.633	39860.49
654.985	39928.96
655.337	39942.3
655.688	39893.94
656.039	40083.99
656.391	39858.46
656.742	39853.03
657.094	39867.95
657.445	39869.98
657.796	39994.05
658.147	39768.52
658.498	39820.49
658.849	39954.95
659.2	39732.13
659.551	39910.21
659.902	39880.38
660.253	39959.47
660.604	39878.57
660.955	39765.58
661.306	39773.94
661.656	39781.85
662.007	39995.63
662.358	39883.54
662.708	39951.34
663.059	39998.11
663.409	39695.75
663.76	39958.79
664.11	39872.69
664.461	39841.51
664.811	39836.76
665.161	39893.48
665.511	39847.16
665.862	39915.86
666.212	39844.67
666.562	39961.28
666.912	39784.56
667.262	39818.91
667.612	39805.13
667.962	39822.75
668.312	39856.65
668.662	39942.52
669.011	39813.04
669.361	39854.84
669.711	39767.61
670.06	39758.35
670.41	39704.34
670.76	39635.41
671.109	39720.38
671.459	39769.65
671.808	39686.94
672.157	39912.47
672.507	39538.47
672.856	39428.19
673.205	39537.79
673.554	39641.06
673.904	39602.65
674.253	39822.53
674.602	39677.45
674.951	39142.54
675.3	38920.86
675.649	39499.37
675.998	39515.19
676.346	39446.27
676.695	39546.38
677.044	39349.09
677.393	39405.14
677.741	39513.61
678.09	39284.91
678.438	39309.09
678.787	39204.92
679.135	39298.7
679.484	39064.81
679.832	39216.67
680.181	39088.99
680.529	39226.84
680.877	39122.66
681.225	39099.16
681.573	39292.6
681.922	38995.66
682.27	38785.72
682.618	38956.79
682.966	38729.9
683.314	38841.08
683.661	38701.65
684.009	38696.68
684.357	38527.42
684.705	38499.17
685.053	38465.5
685.4	38495.1
685.748	38282
686.095	38260.08
686.443	38102.12
686.79	38158.84
687.138	38259.18
687.485	38260.76
687.832	38074.1
688.18	38131.72
688.527	37971.95
688.874	37891.28
689.221	37741.68
689.568	37618.06
689.915	37529.71
690.262	37514.11
690.609	37472.53
690.956	37287.9
691.303	37177.17
691.65	37232.31
691.997	37116.83
692.344	36986.67
692.69	36967.91
693.037	36887.46
693.383	36637.07
693.73	36901.93
694.077	36628.94
694.423	36545.32
694.769	36465.55
695.116	36531.54
695.462	36524.53
695.808	36127.48
696.155	36295.61
696.501	36050.87
696.847	36204.32
697.193	35766.81
697.539	35949.41
697.885	35795.97
698.231	35661.51
698.577	35661.05
698.923	35432.13
699.269	35389.2
699.614	35230.56
699.96	35141.97
700.306	35074.85
700.651	35074.18
700.997	34921.86
701.342	34844.35
701.688	34905.82
702.033	34724.13
702.379	34647.52
702.724	34585.6
703.069	34588.09
703.415	34245.95
703.76	34333.18
704.105	34325.04
704.45	34159.17
704.795	34010.93
705.14	33978.16
705.485	33934.77
705.83	33719.86
706.175	33893.42
706.52	33741.1
706.865	33558.28
707.209	33603.93
707.554	33515.57
707.899	33608
708.243	33340.66
708.588	33394.45
708.932	33167.11
709.277	33104.06
709.621	33236.94
709.966	32767.34
710.31	32890.73
710.654	32713.33
710.998	32885.31
711.342	32804.86
711.687	32676.27
712.031	32590.85
712.375	32274.93
712.719	32514.24
713.063	32440.12
713.407	32506.79
713.75	32295.94
714.094	32337.07
714.438	32170.75
714.782	32259.34
715.125	32100.47
715.469	32144.31
715.812	31858.89
716.156	31745.68
716.499	31779.35
716.843	31721.95
717.186	31678.56
717.53	31804.66
717.873	31694.15
718.216	31602.18
718.559	31512.91
718.902	31320.38
719.246	31453.25
719.589	31322.41
719.932	31234.28
720.275	31244.67
720.617	31052.14
720.96	31039.71
721.303	31124.22
721.646	31097.56
721.989	30880.39
722.331	30957.9
722.674	30880.84
723.016	31021.85
723.359	30839.49
723.701	30815.98
724.044	30634.52
724.386	30489.66
724.729	30742.54
725.071	30684.91
725.413	30447.86
725.755	30453.96
726.097	30450.57
726.439	30138.04
726.782	30387.29
727.124	30399.95
727.465	30281.53
727.807	30268.88
728.149	30208.99
728.491	30097.58
728.833	30190.69
729.175	30089.45
729.516	29926.29
729.858	29909.34
730.199	29901.88
730.541	29922.9
730.882	29827.53
731.224	29925.39
731.565	29716.8
731.906	29699.18
732.248	29734.2
732.589	29609.46
732.93	29515
733.271	29578.73
733.612	29480.2
733.953	29755.9
734.294	29417.38
734.635	29443.36
734.976	29533.08
735.317	29227.32
735.658	29222.13
735.999	29170.38
736.339	29107.55
736.68	29312.52
737.021	29110.27
737.361	29074.33
737.702	29136.03
738.042	29035.01
738.383	28936.26
738.723	29005.86
739.063	28960.67
739.404	28998.18
739.744	28931.74
740.084	28803.16
740.424	28890.38
740.764	28811.97
741.104	28858.97
741.444	28661.46
741.784	28509.15
742.124	28671.63
742.464	28546.21
742.804	28666.66
743.143	28464.18
743.483	28550.96
743.823	28451.3
744.162	28364.52
744.502	28489.72
744.841	28134.25
745.181	28387.35
745.52	28315.48
745.86	28317.74
746.199	28297.18
746.538	28110.29
746.877	28306.67
747.216	28144.87
747.556	28098.99
747.895	28149.61
748.234	28063.06
748.573	27925.44
748.911	27897.87
749.25	27932.44
749.589	27867.13
749.928	27867.36
750.267	27758.21
750.605	27787.36
750.944	27775.84
751.283	27687.25
751.621	27745.1
751.96	27455.85
752.298	27500.14
752.636	27545.34
752.975	27348.73
753.313	27295.17
753.651	27471.21
753.989	27241.84
754.327	27273.25
754.666	27057.89
755.004	27234.61
755.342	27178.34
755.679	27052.01
756.017	26956.2
756.355	27014.95
756.693	26819.7
757.031	26952.13
757.368	26784.68
757.706	26734.51
758.044	26659.48
758.381	26675.3
758.719	26554.4
759.056	26575.42
759.394	26391.69
759.731	26273.28
760.068	26313.05
760.405	26158.03
760.743	26101.31
761.08	26266.5
761.417	25944.47
761.754	26036.67
762.091	25897.02
762.428	25774.31
762.765	25629.68
763.102	25786.06
763.438	25651.37
763.775	25540.87
764.112	25465.62
764.449	25454.32
764.785	25344.26
765.122	25297.26
765.458	25111.5
765.795	25017.72
766.131	25040.54
766.467	25001
766.804	24843.03
767.14	24704.96
767.476	24609.82
767.812	24654.79
768.148	24605.3
768.485	24460.44
768.821	24300.67
769.157	24278.3
769.492	24284.86
769.828	24268.13
770.164	23982.04
770.5	24083.28
770.836	24027.91
771.171	23833.34
771.507	23830.4
771.842	23632.44
772.178	23717.41
772.513	23644.87
772.849	23514.71
773.184	23410.3
773.519	23439.45
773.855	23276.97
774.19	23300.47
774.525	23090.31
774.86	23142.74
775.195	23050.99
775.53	22880.15
775.865	22771.22
776.2	22835.85
776.535	22649.64
776.87	22506.82
777.205	22416.66
777.539	22378.47
777.874	22356.54
778.209	22213.5
778.543	22130.56
778.878	21980.28
779.212	21950.23
779.547	21914.75
779.881	21973.05
780.215	21739.39
780.55	21865.48
780.884	21740.29
781.218	21594.53
781.552	21568.77
781.886	21442.44
782.22	21318.83
782.554	21263.69
782.888	21125.39
783.222	21112.74
783.556	20885.4
783.889	20922.91
784.223	20808.11
784.557	20786.19
784.89	20780.09
785.224	20655.12
785.557	20510.94
785.891	20550.72
786.224	20550.26
786.558	20532.64
786.891	20252.87
787.224	20159.09
787.557	20144.85
787.891	20145.08
788.224	20093.1
788.557	20034.57
788.89	19932.88
789.223	19971.07
789.556	19829.15
789.888	19697.63
790.221	19664.41
790.554	19607.69
790.887	19533.12
791.219	19480.69
791.552	19344.19
791.884	19231.88
792.217	19294.93
792.549	19244.08
792.882	19063.52
793.214	18908.27
793.546	19004.32
793.879	18963.64
794.211	18765.68
794.543	18802.51
794.875	18750.76
795.207	18723.42
795.539	18809.52
795.871	18565.01
796.203	18482.52
796.535	18394.16
796.867	18387.16
797.198	18321.17
797.53	18342.87
797.862	18218.35
798.193	18226.94
798.525	18097
798.856	18063.78
799.188	17938.36
799.519	17842.31
799.85	17820.84
800.182	17795.08
800.513	17806.38
800.844	17696.1
801.175	17708.98
801.506	17691.58
801.837	17545.15
802.168	17571.13
802.499	17452.04
802.83	17370.24
803.161	17335.66
803.491	17393.06
803.822	17323.46
804.153	17184.93
804.483	17071.71
804.814	17067.87
805.145	17079.62
805.475	16968.89
805.805	16897.25
806.136	16951.94
806.466	16875.79
806.796	16892.96
807.126	16673.76
807.457	16680.76
807.787	16667.88
808.117	16652.29
808.447	16527.32
808.777	16612.06
809.107	16503.59
809.436	16452.52
809.766	16496.81
810.096	16399.64
810.426	16234.67
810.755	16273.77
811.085	16191.06
811.414	16146.31
811.744	16023.6
812.073	16103.83
812.403	16103.6
812.732	15973.21
813.061	16003.94
813.39	15918.97
813.719	15809.37
814.049	15870.16
814.378	15833.1
814.707	15767.11
815.036	15805.3
815.365	15639.66
815.693	15545.65
816.022	15578.64
816.351	15498.42
816.68	15421.81
817.008	15496.16
817.337	15381.36
817.665	15305.88
817.994	15403.73
818.322	15389.27
818.651	15234.25
818.979	15136.62
819.307	15237.64
819.636	15199.44
819.964	15090.52
820.292	15131.42
820.62	15244.19
820.948	15070.18
821.276	15164.42
821.604	15112.89
821.932	15128.94
822.259	15128.49
822.587	15033.35
822.915	14921.71
823.243	15151.54
823.57	14998.32
823.898	15068.6
824.225	14996.51
824.553	15007.13
824.88	15014.59
825.207	15001.03
825.535	14922.84
825.862	15015.95
826.189	14997.19
826.516	15062.05
826.843	15064.53
827.17	15112.44
827.497	14949.73
827.824	14964.2
828.151	15065.89
828.478	14962.39
828.805	14978.43
829.131	14934.82
829.458	14951.77
829.785	14896.4
830.111	14940.02
830.438	15090.3
830.764	14971.65
831.09	14943.86
831.417	14872.9
831.743	14990.64
832.069	14920.13
832.395	14813.24
832.722	14836.06
833.048	14897.31
833.374	14857.76
833.7	14826.35
834.026	14868.61
834.351	14865.67
834.677	14908.83
835.003	14926.68
835.329	14824.54
835.654	14844.88
835.98	14760.59
836.306	14764.43
836.631	14742.51
836.956	14700.48
837.282	14794.03
837.607	14603.75
837.932	14689.18
838.258	14637.65
838.583	14662.28
838.908	14590.42
839.233	14594.26
839.558	14530.31
839.883	14455.74
840.208	14420.26
840.533	14427.94
840.858	14362.86
841.182	14553.59
841.507	14470.88
841.832	14416.64
842.156	14276.98
842.481	14345.46
842.805	14276.98
843.13	14165.35
843.454	14290.32
843.778	14200.6
844.103	14152.47
844.427	14049.64
844.751	14092.81
845.075	14092.81
845.399	13972.58
845.723	13842.19
846.047	13913.15
846.371	13791.35
846.695	13759.71
847.019	13671.58
847.343	13609.66
847.666	13578.24
847.99	13532.6
848.313	13539.6
848.637	13408.08
848.96	13376.44
849.284	13364.24
849.607	13279.5
849.931	13242.21
850.254	13146.84
850.577	13114.3
850.9	12970.13
851.223	12983.46
851.546	12913.4
851.869	12865.5
852.192	12888.77
852.515	12785.95
852.838	12758.38
853.161	12747.08
853.483	12712.96
853.806	12646.74
854.129	12602
854.451	12598.16
854.774	12489.91
855.096	12572.62
855.419	12484.26
855.741	12428.44
856.063	12295.11
856.385	12296.24
856.708	12264.38
857.03	12246.98
857.352	12235.68
857.674	12259.41
857.996	12129.02
858.318	12023.48
858.64	12110.71
858.961	11988.23
859.283	11961.11
859.605	11954.56
859.926	11964.95
860.248	11977.38
860.57	11903.26
860.891	11902.13
861.212	11773.77
861.534	11770.16
861.855	11779.2
862.176	11817.61
862.498	11738.07
862.819	11728.12
863.14	11676.6
863.461	11647.67
863.782	11538.3
864.103	11585.98
864.424	11535.59
864.745	11554.57
865.065	11549.15
865.386	11517.73
865.707	11478.64
866.027	11481.58
866.348	11477.73
866.668	11349.6
866.989	11454.91
867.309	11354.35
867.63	11408.36
867.95	11391.41
868.27	11376.72
868.59	11370.85
868.91	11348.02
869.23	11285.65
869.55	11153.68
869.87	11223.28
870.19	11145.54
870.51	11202.49
870.83	11226.44
871.15	11162.49
871.469	11178.53
871.789	11242.71
872.109	11163.84
872.428	11062.15
872.748	11104.86
873.067	11087.01
873.386	11045.88
873.706	11063.96
874.025	11013.57
874.344	10939.9
874.663	11026.67
874.982	10918.43
875.301	10944.64
875.62	10877.07
875.939	10844.08
876.258	10856.96
876.577	10853.34
876.896	10887.92
877.214	10836.4
877.533	10852.67
877.852	10919.11
878.17	10810.41
878.489	10755.04
878.807	10717.98
879.125	10788.04
879.444	10706.46
879.762	10695.38
880.08	10740.58
880.398	10673.69
880.716	10665.78
881.034	10583.07
881.352	10579.91
881.67	10586.68
881.988	10619.23
882.306	10613.8
882.624	10548.04
882.941	10484.54
883.259	10459.46
883.577	10462.85
883.894	10358.22
884.212	10313.25
884.529	10349.85
884.846	10346.47
885.164	10246.35
885.481	10344.66
885.798	10262.85
886.115	10273.92
886.432	10202.51
886.75	10142.63
887.067	10158.45
887.383	10180.37
887.7	10142.4
888.017	10029.41
888.334	10070.09
888.651	9995.74
888.967	10054.95
889.284	9960.94
889.6	9993.71
889.917	9871
890.233	9900.15
890.55	9842.75
890.866	9897.89
891.182	9817.89
891.498	9779.25
891.815	9755.29
892.131	9781.96
892.447	9694.05
892.763	9690.66
893.079	9654.05
893.395	9636.2
893.71	9549.65
894.026	9654.73
894.342	9583.1
894.657	9521.85
894.973	9500.16
895.289	9466.94
895.604	9399.37
895.92	9330.67
896.235	9385.36
896.55	9322.99
896.865	9250.9
897.181	9266.04
897.496	9250.9
897.811	9210.9
898.126	9168.64
898.441	9125.03
898.756	9115.54
899.071	9078.93
899.386	9077.57
899.7	9038.48
900.015	8943.11
900.33	8898.82
900.644	8850.46
900.959	8894.07
901.273	8808.65
901.588	8813.17
901.902	8746.51
902.216	8754.64
902.531	8742.89
902.845	8716.23
903.159	8598.49
903.473	8588.32
903.787	8546.06
904.101	8582.44
904.415	8480.98
904.729	8530.69
905.042	8451.6
905.356	8496.8
905.67	8406.18
905.984	8428.55
906.297	8337.48
906.611	8298.84
906.924	8274.43
907.237	8233.75
907.551	8245.28
907.864	8177.26
908.177	8218.84
908.491	8127.99
908.804	8086.86
909.117	8033.08
909.43	8044.38
909.743	8004.83
910.056	8037.6
910.368	7928
910.681	7913.31
910.994	7854.55
911.307	7852.75
911.619	7738.62
911.932	7836.93
912.244	7715.57
912.557	7728
912.869	7645.52
913.181	7620.89
913.494	7615.01
913.806	7568.69
914.118	7622.7
914.43	7530.95
914.742	7434
915.054	7401.01
915.366	7379.54
915.678	7414.56
915.99	7332.76
916.302	7378.86
916.613	7279.65
916.925	7339.54
917.236	7279.65
917.548	7168.02
917.859	7199.88
918.171	7149.49
918.482	7182.48
918.794	7121.24
919.105	7074.46
919.416	7004.86
919.727	6965.99
920.038	6965.99
920.349	6915.59
920.66	6888.48
920.971	6915.59
921.282	6844.64
921.593	6819.78
921.903	6791.98
922.214	6760.12
922.525	6727.13
922.835	6702.72
923.146	6683.96
923.456	6600.35
923.767	6648.48
924.077	6638.77
924.387	6585.66
924.697	6532.78
925.008	6502.05
925.318	6522.84
925.628	6519.22
925.938	6400.35
926.248	6392.67
926.558	6351.77
926.867	6282.39
927.177	6274.93
927.487	6245.56
927.796	6225.22
928.106	6204.2
928.416	6201.94
928.725	6204.43
929.034	6185.22
929.344	6181.15
929.653	6123.98
929.962	6069.74
930.271	6091.89
930.581	6062.74
930.89	5956.98
931.199	5946.81
931.508	5934.83
931.817	5932.34
932.125	5933.02
932.434	5909.52
932.743	5833.14
933.051	5854.38
933.36	5771.44
933.669	5773.03
933.977	5695.97
934.286	5670.88
934.594	5688.28
934.902	5657.55
935.21	5632.69
935.519	5659.58
935.827	5576.42
936.135	5556.53
936.443	5550.21
936.751	5502.52
937.059	5540.94
937.367	5501.62
937.674	5455.07
937.982	5464.33
938.29	5429.08
938.597	5424.79
938.905	5358.35
939.213	5339.59
939.52	5288.75
939.827	5274.06
940.135	5282.87
940.442	5250.55
940.749	5244.9
941.056	5258.01
941.363	5186.15
941.67	5161.52
941.977	5142.31
942.284	5078.13
942.591	5125.13
942.898	5032.03
943.205	5020.96
943.511	5023.89
943.818	4983.67
944.125	4968.75
944.431	4993.84
944.738	4944.8
945.044	4941.64
945.35	4917.46
945.657	4874.74
945.963	4858.7
946.269	4785.93
946.575	4872.94
946.881	4791.58
947.187	4806.5
947.493	4810.57
947.799	4749.32
948.105	4724.69
948.41	4701.19
948.716	4644.02
949.022	4644.47
949.327	4649.21
949.633	4625.94
949.938	4617.12
950.244	4577.13
950.549	4566.28
950.854	4545.71
951.16	4519.5
951.465	4499.39
951.77	4461.87
952.075	4468.2
952.38	4427.52
952.685	4416.45
952.99	4378.71
953.294	4376.45
953.599	4358.15
953.904	4323.35
954.209	4282.44
954.513	4328.32
954.818	4261.65
955.122	4283.35
955.426	4253.52
955.731	4247.87
956.035	4229.11
956.339	4186.18
956.643	4157.02
956.948	4171.03
957.252	4143.24
957.556	4148.21
957.86	4118.61
958.163	4091.26
958.467	4054.43
958.771	4064.37
959.075	4069.57
959.378	4044.94
959.682	3991.38
959.985	3925.84
960.289	3957.03
960.592	3950.02
960.896	3924.49
961.199	3888.33
961.502	3866.41
961.805	3863.02
962.108	3840.2
962.411	3851.04
962.714	3836.35
963.017	3784.83
963.32	3809.69
963.623	3768.79
963.926	3769.91
964.228	3747.99
964.531	3725.62
964.833	3745.96
965.136	3721.78
965.438	3710.71
965.741	3646.98
966.043	3631.16
966.345	3636.36
966.648	3610.37
966.95	3607.43
967.252	3545.51
967.554	3546.19
967.856	3551.16
968.158	3540.77
968.46	3511.39
968.761	3489.47
969.063	3454.9
969.365	3482.46
969.666	3459.19
969.968	3439.75
970.269	3418.96
970.571	3407.44
970.872	3381.9
971.174	3355.69
971.475	3404.73
971.776	3355.01
972.077	3340.1
972.378	3317.05
972.679	3334.9
972.98	3323.15
973.281	3344.62
973.582	3289.25
973.883	3239.76
974.183	3246.54
974.484	3212.87
974.785	3171.29
975.085	3235.69
975.386	3174
975.686	3195.01
975.986	3144.39
976.287	3151.17
976.587	3147.33
976.887	3068.69
977.187	3082.25
977.487	3086.09
977.787	3046.32
978.087	3066.66
978.387	3059.2
978.687	3042.93
978.987	3008.35
979.286	2983.27
979.586	2985.98
979.885	2963.61
980.185	2889.49
980.484	2940.33
980.784	2928.81
981.083	2931.52
981.382	2916.38
981.682	2906.21
981.981	2903.05
982.28	2889.71
982.579	2879.09
982.878	2852.65
983.177	2853.1
983.475	2827.34
983.774	2780.34
984.073	2810.62
984.372	2792.09
984.67	2782.6
984.969	2776.72
985.267	2761.35
985.566	2730.85
985.864	2726.78
986.162	2671.19
986.461	2707.34
986.759	2696.27
987.057	2694.24
987.355	2663.5
987.653	2642.71
987.951	2675.71
988.249	2610.62
988.547	2608.36
988.844	2573.56
989.142	2571.3
989.44	2595.93
989.737	2586.67
990.035	2529.5
990.332	2548.7
990.63	2531.08
990.927	2511.19
991.224	2466.9
991.521	2485.43
991.819	2465.54
992.116	2486.56
992.413	2490.17
992.71	2449.5
993.006	2442.04
993.303	2427.35
993.6	2377.86
993.897	2383.28
994.193	2397.07
994.49	2412.66
994.787	2373.34
995.083	2352.55
995.379	2343.96
995.676	2329.5
995.972	2319.78
996.268	2305.09
996.565	2317.98
996.861	2320.69
997.157	2283.85
997.453	2281.37
997.749	2247.7
998.044	2237.3
998.34	2224.19
998.636	2253.8
998.932	2206.34
999.227	2223.06
999.523	2185.55
999.818	2170.86
1000.114	2174.7
1000.409	2142.39
1000.704	2120.69
1001	2158.21
1001.295	2105.78
1001.59	2120.01
1001.885	2101.71
1002.18	2096.29
1002.475	2051.32
1002.77	2036.63
1003.065	2044.08
1003.359	2052.45
1003.654	2042.95
1003.949	2015.84
1004.243	2017.42
1004.538	2027.59
1004.832	1960.02
1005.127	1967.7
1005.421	1971.77
1005.715	1945.56
1006.009	1941.71
1006.304	1946.01
1006.598	1912.79
1006.892	1865.56
1007.186	1928.61
1007.48	1892.68
1007.773	1892.45
1008.067	1850.64
1008.361	1877.08
1008.655	1834.15
1008.948	1830.53
1009.242	1836.86
1009.535	1787.82
1009.829	1835.28
1010.122	1798.89
1010.415	1809.06
1010.708	1765.67
1011.001	1742.85
1011.295	1743.98
1011.588	1774.04
1011.881	1733.58
1012.173	1734.26
1012.466	1704.21
1012.759	1718.44
1013.052	1700.59
1013.344	1694.26
1013.637	1697.88
1013.93	1658.56
1014.222	1662.17
1014.514	1654.94
1014.807	1649.07
1015.099	1617.66
1015.391	1584.89
1015.683	1592.35
1015.976	1602.51
1016.268	1566.36
1016.56	1585.11
1016.851	1589.18
1017.143	1568.84
1017.435	1545.34
1017.727	1519.58
1018.018	1508.96
1018.31	1544.21
1018.602	1519.8
1018.893	1536.08
1019.185	1521.61
1019.476	1464.66
1019.767	1475.29
1020.058	1471.44
1020.35	1468.05
1020.641	1433.71
1020.932	1438.68
1021.223	1446.81
1021.514	1409.53
1021.804	1407.94
1022.095	1391.9
1022.386	1401.84
1022.677	1375.4
1022.967	1361.84
1023.258	1350.32
1023.548	1361.62
1023.839	1344.67
1024.129	1344.67
1024.419	1322.75
1024.709	1314.61
1025	1303.31
1025.29	1289.08
1025.58	1294.05
1025.87	1283.2
1026.16	1278.91
1026.449	1256.99
1026.739	1217.89
1027.029	1246.14
1027.319	1235.97
1027.608	1225.8
1027.898	1216.99
1028.187	1223.54
1028.477	1222.41
1028.766	1205.91
1029.055	1187.84
1029.344	1209.3
1029.634	1194.62
1029.923	1174.5
1030.212	1161.17
1030.501	1154.16
1030.79	1152.13
1031.078	1137.89
1031.367	1127.05
1031.656	1134.28
1031.945	1132.92
1032.233	1093.15
1032.522	1116.65
1032.81	1070.78
1033.099	1108.97
1033.387	1068.29
1033.675	1054.73
1033.963	1039.82
1034.251	1058.8
1034.54	1039.82
1034.828	1049.31
1035.116	1048.86
1035.403	1050.44
1035.691	1027.84
1035.979	1023.77
1036.267	1003.66
1036.554	1004.56
1036.842	1011.8
1037.129	1017.22
1037.417	1005.47
1037.704	969.99
1037.992	973.38
1038.279	998.01
1038.566	949.65
1038.853	949.65
1039.14	949.65
