Data from red_shiny_book_FLMS001491_00046.txt Node
Date: Wed Feb 08 15:24:55 GMT 2017
User: dcchb
Spectrometer: FLMS00149
Trigger mode: 0
Integration Time (sec): 2.000000E-2
Scans to average: 10
Electric dark correction enabled: true
Nonlinearity correction enabled: false
Boxcar width: 0
XAxis mode: Wavelengths
Number of Pixels in Spectrum: 2048
>>>>>Begin Spectral Data<<<<<
341.393	-18.26
341.776	-18.26
342.16	-18.26
342.543	-56.91
342.927	-54.19
343.31	-75.44
343.693	-53.74
344.077	-59.39
344.46	-57.81
344.843	-39.05
345.226	-58.71
345.61	-40.18
345.993	-20.52
346.376	10.89
346.759	-0.41
347.142	29.19
347.525	21.74
347.908	55.63
348.291	77.55
348.674	99.25
349.057	111
349.44	124.33
349.823	148.29
350.206	162.52
350.588	201.39
350.971	229.64
351.354	232.8
351.737	249.75
352.119	251.11
352.502	283.42
352.884	270.54
353.267	283.88
353.65	326.36
354.032	316.19
354.414	310.32
354.797	332.01
355.179	338.34
355.562	325.23
355.944	322.97
356.326	342.41
356.709	324.78
357.091	349.41
357.473	336.3
357.855	350.77
358.238	335.85
358.62	369.07
359.002	346.25
359.384	346.47
359.766	367.94
360.148	361.84
360.53	362.97
360.912	372.69
361.294	339.69
361.676	343.99
362.057	352.8
362.439	354.61
362.821	314.61
363.203	350.77
363.584	325.23
363.966	348.28
364.348	341.95
364.729	340.6
365.111	322.07
365.493	324.1
365.874	312.8
366.256	333.14
366.637	328.85
367.019	315.97
367.4	348.28
367.781	317.77
368.163	318.68
368.544	327.27
368.925	309.64
369.306	331.33
369.688	318.45
370.069	327.94
370.45	346.47
370.831	339.69
371.212	313.48
371.593	341.28
371.974	318.45
372.355	344.44
372.736	314.16
373.117	331.11
373.498	346.02
373.879	340.82
374.26	348.51
374.641	324.1
375.021	342.63
375.402	327.94
375.783	325.91
376.163	342.63
376.544	343.76
376.925	342.63
377.305	340.6
377.686	337.89
378.066	323.2
378.447	344.44
378.827	342.18
379.208	345.57
379.588	343.31
379.968	339.92
380.349	345.12
380.729	337.21
381.109	359.13
381.489	353.71
381.87	361.61
382.25	366.81
382.63	360.71
383.01	349.86
383.39	335.63
383.77	359.81
384.15	338.79
384.53	363.2
384.91	358.23
385.29	358.23
385.67	362.07
386.049	388.05
386.429	366.81
386.809	369.75
387.189	358.9
387.568	367.94
387.948	382.86
388.328	369.98
388.707	374.5
389.087	368.39
389.466	379.69
389.846	398.45
390.225	383.08
390.605	376.3
390.984	376.08
391.363	376.76
391.743	408.39
392.122	383.54
392.501	383.31
392.881	404.78
393.26	410.43
393.639	392.57
394.018	397.32
394.397	409.75
394.776	386.7
395.155	379.02
395.534	380.15
395.913	409.07
396.292	394.83
396.671	409.07
397.05	398.68
397.429	405.68
397.808	413.59
398.186	417.88
398.565	408.62
398.944	400.03
399.323	407.72
399.701	418.34
400.08	437.77
400.458	404.1
400.837	433.93
401.215	424.21
401.594	423.99
401.972	435.74
402.351	414.04
402.729	423.99
403.107	442.74
403.486	429.86
403.864	422.63
404.242	447.49
404.62	449.97
404.999	436.87
405.377	435.96
405.755	434.61
406.133	446.81
406.511	450.2
406.889	457.88
407.267	459.01
407.645	460.6
408.023	465.11
408.401	466.47
408.779	486.58
409.156	479.58
409.534	477.09
409.912	492.01
410.29	483.87
410.667	495.85
411.045	500.59
411.422	515.28
411.8	521.38
412.178	515.96
412.555	529.75
412.933	525.68
413.31	514.38
413.687	513.02
414.065	539.92
414.442	523.64
414.819	519.35
415.197	541.5
415.574	550.31
415.951	541.72
416.328	556.64
416.705	559.12
417.082	567.71
417.46	563.42
417.837	553.7
418.214	539.01
418.591	560.03
418.967	577.65
419.344	584.21
419.721	591.67
420.098	595.73
420.475	620.37
420.852	604.09
421.228	610.65
421.605	611.1
421.982	605.9
422.358	593.47
422.735	623.3
423.111	619.01
423.488	636.41
423.864	637.99
424.241	663.53
424.617	655.84
424.994	677.99
425.37	632.34
425.746	672.79
426.123	660.14
426.499	640.03
426.875	654.04
427.251	685
427.627	671.89
428.003	686.35
428.379	699.01
428.756	693.13
429.132	698.33
429.507	707.59
429.883	713.7
430.259	727.93
430.635	689.97
431.011	691.78
431.387	725.22
431.763	730.64
432.138	745.33
432.514	768.84
432.89	766.8
433.265	769.29
433.641	777.65
434.016	766.58
434.392	776.07
434.767	778.55
435.143	774.71
435.518	793.02
435.894	812.22
436.269	821.26
436.644	822.85
437.02	807.93
437.395	860.13
437.77	839.57
438.145	841.15
438.52	844.31
438.895	865.33
439.271	847.93
439.646	866.23
440.021	842.28
440.395	884.99
440.77	857.42
441.145	897.87
441.52	910.98
441.895	915.72
442.27	914.82
442.645	899.23
443.019	921.37
443.394	917.31
443.769	903.07
444.143	890.87
444.518	911.43
444.892	875.73
445.267	923.86
445.641	966.57
446.016	955.72
446.39	965.89
446.764	965.21
447.139	960.7
447.513	944.42
447.887	980.36
448.262	959.34
448.636	930.41
449.01	977.19
449.384	971.09
449.758	957.31
450.132	995.04
450.506	983.97
450.88	1009.51
451.254	1017.42
451.628	1054.93
452.002	1022.39
452.376	1028.26
452.75	1018.09
453.123	1013.35
453.497	1009.96
453.871	1017.64
454.244	1026.23
454.618	1051.09
454.992	1077.75
455.365	1069.62
455.739	1123.18
456.112	1116.85
456.486	1136.06
456.859	1123.85
457.232	1106.68
457.606	1110.3
457.979	1091.09
458.352	1102.39
458.725	1081.14
459.099	1108.26
459.472	1125.89
459.845	1141.48
460.218	1176.96
460.591	1189.39
460.964	1186
461.337	1218.77
461.71	1201.82
462.083	1207.92
462.456	1206.79
462.829	1205.21
463.201	1207.02
463.574	1170.86
463.947	1213.12
464.32	1214.93
464.692	1218.77
465.065	1260.12
465.438	1273.23
465.81	1301.48
466.183	1320.69
466.555	1377.63
466.928	1357.29
467.3	1348.48
467.672	1344.87
468.045	1343.28
468.417	1305.54
468.789	1321.59
469.161	1350.06
469.534	1363.62
469.906	1413.34
470.278	1421.93
470.65	1416.05
471.022	1496.5
471.394	1492.21
471.766	1522.26
472.138	1560.68
472.51	1546.67
472.882	1534.24
473.253	1521.13
473.625	1523.39
473.997	1545.09
474.369	1548.7
474.74	1567.23
475.112	1613.56
475.484	1646.1
475.855	1681.81
476.227	1712.77
476.598	1771.07
476.97	1778.53
477.341	1803.16
477.713	1833.67
478.084	1840.67
478.455	1837.06
478.827	1825.76
479.198	1853.78
479.569	1809.26
479.94	1856.04
480.311	1901.24
480.682	1944.85
481.053	2013.55
481.424	2053.77
481.795	2120.21
482.166	2164.28
482.537	2180.55
482.908	2238.85
483.279	2230.04
483.65	2241.34
484.021	2215.13
484.391	2223.71
484.762	2247.21
485.133	2202.7
485.503	2208.12
485.874	2285.63
486.244	2339.87
486.615	2404.72
486.985	2487.66
487.356	2551.16
487.726	2616.92
488.097	2672.74
488.467	2716.58
488.837	2721.55
489.207	2730.37
489.578	2715.45
489.948	2714.32
490.318	2709.12
490.688	2703.25
491.058	2721.78
491.428	2753.87
491.798	2810.82
492.168	2895.33
492.538	2954.31
492.908	3017.14
493.278	3112.73
493.648	3151.15
494.017	3193.4
494.387	3210.35
494.757	3215.1
495.126	3179.85
495.496	3186.4
495.866	3119.96
496.235	3120.86
496.605	3084.48
496.974	3100.98
497.344	3142.11
497.713	3184.59
498.082	3273.4
498.452	3361.54
498.821	3441.99
499.19	3450.35
499.559	3507.52
499.928	3548.65
500.298	3614.64
500.667	3586.84
501.036	3535.77
501.405	3529.67
501.774	3463.45
502.143	3408.54
502.512	3380.97
502.88	3450.35
503.249	3384.59
503.618	3477.69
503.987	3560.63
504.356	3605.37
504.724	3663.22
505.093	3746.61
505.462	3773.73
505.83	3851.69
506.199	3867.51
506.567	3873.39
506.936	3867.51
507.304	3870.22
507.672	3819.83
508.041	3725.37
508.409	3725.59
508.777	3621.64
509.145	3637.91
509.514	3658.48
509.882	3751.13
510.25	3789.32
510.618	3901.18
510.986	3971.69
511.354	4004.68
511.722	4127.62
512.09	4133.49
512.458	4116.54
512.826	4098.92
513.193	4105.25
513.561	4029.31
513.929	4003.33
514.297	3961.97
514.664	3894.63
515.032	3893.05
515.4	3950
515.767	3963.78
516.135	3966.49
516.502	3980.73
516.869	4114.28
517.237	4189.31
517.604	4234.96
517.972	4367.39
518.339	4362.19
518.706	4424.56
519.073	4445.8
519.44	4394.96
519.808	4380.72
520.175	4282.64
520.542	4231.34
520.909	4181.63
521.276	4120.61
521.643	4125.36
522.009	4139.14
522.376	4223.43
522.743	4274.96
523.11	4323.32
523.477	4435.63
523.843	4546.14
524.21	4661.61
524.577	4701.61
524.943	4760.37
525.31	4830.88
525.676	4870.42
526.043	4882.4
526.409	4807.6
526.776	4797.66
527.142	4694.16
527.508	4664.78
527.874	4597.21
528.241	4528.51
528.607	4531.67
528.973	4585.23
529.339	4678.34
529.705	4819.8
530.071	4946.13
530.437	5043.07
530.803	5132.34
531.169	5253.24
531.535	5293.91
531.901	5398.09
532.267	5368.04
532.632	5413.23
532.998	5405.32
533.364	5346.34
533.73	5283.52
534.095	5220.47
534.461	5188.61
534.826	5168.49
535.192	5117.65
535.557	5162.62
535.923	5186.35
536.288	5217.98
536.653	5370.75
537.019	5416.85
537.384	5595.83
537.749	5716.95
538.114	5785.65
538.479	5888.02
538.845	5968.7
539.21	5961.47
539.575	5992.43
539.94	6005.99
540.305	5941.36
540.67	5843.28
541.034	5758.31
541.399	5690.06
541.764	5635.37
542.129	5601.48
542.494	5598.77
542.858	5689.84
543.223	5737.29
543.587	5872.88
543.952	5925.31
544.316	6064.29
544.681	6213.21
545.045	6290.72
545.41	6448.01
545.774	6517.16
546.138	6535.69
546.503	6487.56
546.867	6533.43
547.231	6504.05
547.595	6382.02
547.959	6309.93
548.324	6218.64
548.688	6134.34
549.052	6055.7
549.416	5995.14
549.779	5996.04
550.143	6077.4
550.507	6116.27
550.871	6192.42
551.235	6258.86
551.599	6429.7
551.962	6513.54
552.326	6646.65
552.689	6776.14
553.053	6826.53
553.417	6882.8
553.78	6917.37
554.143	6868.34
554.507	6861.33
554.87	6784.27
555.234	6717.38
555.597	6497.05
555.96	6423.83
556.323	6408.46
556.686	6317.84
557.05	6314.9
557.413	6271.52
557.776	6332.31
558.139	6496.37
558.502	6586.31
558.865	6657.04
559.228	6833.76
559.59	6998.28
559.953	7058.84
560.316	7247.99
560.679	7284.82
561.041	7330.47
561.404	7335.44
561.767	7372.05
562.129	7249.12
562.492	7227.42
562.854	7144.71
563.217	6918.96
563.579	6839.41
563.941	6835.57
564.304	6745.18
564.666	6698.17
565.028	6728.68
565.39	6748.57
565.753	6880.99
566.115	6996.47
566.477	7107.2
566.839	7243.24
567.201	7404.14
567.563	7595.32
567.925	7730.23
568.287	7803.23
568.648	7903.79
569.01	7888.87
569.372	7962.77
569.734	7827.41
570.095	7830.12
570.457	7705.38
570.819	7534.99
571.18	7517.13
571.542	7470.58
571.903	7315.33
572.265	7321.43
572.626	7294.31
572.987	7281.66
573.349	7353.07
573.71	7419.51
574.071	7653.63
574.432	7805.94
574.794	8027.4
575.155	8213.39
575.516	8353.04
575.877	8566.6
576.238	8717.33
576.599	8901.96
576.96	8936.08
577.32	9046.81
577.681	9040.48
578.042	9035.96
578.403	9017.21
578.763	9000.71
579.124	8921.84
579.485	8951.22
579.845	8874.16
580.206	8983.53
580.566	9103.31
580.927	9159.12
581.287	9451.77
581.648	9576.06
582.008	9885.21
582.368	10272.09
582.728	10623.72
583.089	10966.53
583.449	11386.41
583.809	11711.15
584.169	12195.65
584.529	12530.33
584.889	12982.75
585.249	13148.4
585.609	13414.83
585.969	13817.76
586.329	13936.85
586.688	14332.09
587.048	14568.7
587.408	14866.77
587.768	15032.64
588.127	15321.67
588.487	15635.34
588.846	16069.22
589.206	16305.83
589.565	16784.46
589.925	17355.07
590.284	17795.51
590.643	18393.01
591.003	19055.36
591.362	19745.51
591.721	20273.63
592.08	20902.09
592.44	21538.23
592.799	22232.68
593.158	22798.31
593.517	23164.41
593.876	23873.76
594.235	24328.89
594.593	24804.81
594.952	25245.93
595.311	25525.7
595.67	25903.77
596.029	26359.8
596.387	26702.62
596.746	27167.24
597.104	27526.55
597.463	27839.31
597.822	28437.49
598.18	28757.93
598.538	29298.93
598.897	30005.81
599.255	30349.07
599.613	31287.13
599.972	31697.97
600.33	32503.59
600.688	32861.1
601.046	33683.22
601.404	34304.9
601.762	34704.44
602.12	35487.47
602.478	35837.74
602.836	36331.52
603.194	36512.3
603.552	36871.84
603.91	37070.71
604.268	37531.03
604.625	37396.57
604.983	38150
605.341	38011.02
605.698	38462.31
606.056	38831.11
606.413	39054.38
606.771	39375.96
607.128	40010.74
607.485	40073.79
607.843	40381.13
608.2	40975.46
608.557	41355.79
608.914	41884.59
609.272	42454.52
609.629	42791.69
609.986	43242.52
610.343	43490.42
610.7	44173.12
611.057	44360.91
611.414	44652.65
611.771	44934.91
612.127	45097.39
612.484	45340.55
612.841	45421.45
613.198	45263.71
613.554	45462.58
613.911	45719.74
614.267	45776.92
614.624	45744.83
614.98	45966.52
615.337	46284.48
615.693	46273.85
616.05	46294.87
616.406	46740.96
616.762	46707.06
617.118	46882.43
617.475	47054.4
617.831	47500.71
618.187	47703.42
618.543	47910.2
618.899	48291.2
619.255	48365.78
619.611	48514.02
619.967	48847.57
620.323	49022.71
620.678	49034.23
621.034	49094.12
621.39	49156.94
621.746	49250.95
622.101	49638.51
622.457	49296.37
622.812	49332.3
623.168	49271.29
623.523	49283.72
623.879	49394
624.234	49053.89
624.589	49267
624.945	49159.65
625.3	49320.33
625.655	49120.33
626.01	49256.15
626.365	49413.43
626.72	49459.31
627.075	49624.05
627.43	49738.17
627.785	49644.61
628.14	49846.42
628.495	50178.38
628.85	50119.85
629.205	50241.66
629.559	50542.44
629.914	50425.38
630.269	50410.92
630.623	50480.75
630.978	50480.07
631.332	50557.58
631.687	50542.89
632.041	50337.02
632.396	50307.65
632.75	50144.71
633.104	50096.8
633.459	49933.19
633.813	49912.4
634.167	49678.51
634.521	49701.56
634.875	49720.99
635.229	49629.47
635.583	49486.42
635.937	49619.75
636.291	49585.41
636.645	49669.7
636.999	49737.94
637.352	49919.18
637.706	49699.75
638.06	49999.63
638.413	49925.51
638.767	49969.58
639.121	50036.69
639.474	49888.9
639.828	50123.92
640.181	50088.44
640.534	50139.51
640.888	50142
641.241	49797.6
641.594	49929.8
641.947	49849.58
642.301	49705.4
642.654	49743.37
643.007	49488.01
643.36	49400.55
643.713	49338.18
644.066	49346.54
644.419	49030.17
644.771	48770.29
645.124	48391.54
645.477	48327.36
645.83	48093.47
646.182	48079.91
646.535	47947.03
646.888	48097.53
647.24	47936.64
647.593	48243.75
647.945	48294.82
648.298	48110.87
648.65	48243.52
649.002	48178.66
649.355	48422.05
649.707	48304.08
650.059	48435.6
650.411	49039.2
650.763	48977.51
651.115	49396.26
651.467	49187.45
651.819	49033.1
652.171	48947
652.523	48913.11
652.875	48791.3
653.227	48555.38
653.578	48722.38
653.93	48459.33
654.282	48312.9
654.633	48097.99
654.985	48142.73
655.337	48098.21
655.688	48163.3
656.039	48231.54
656.391	47892.12
656.742	47900.93
657.094	48026.8
657.445	48282.39
657.796	48198.55
658.147	48301.6
658.498	48227.7
658.849	48615.26
659.2	48576.17
659.551	48483.97
659.902	48822.94
660.253	48675.15
660.604	48806.67
660.955	48528.94
661.306	48629.05
661.656	48489.16
662.007	48561.93
662.358	48437.19
662.708	48413.23
663.059	48276.06
663.409	47953.58
663.76	48113.13
664.11	48053.69
664.461	48037.65
664.811	47843.08
665.161	47810.31
665.511	47717.66
665.862	47691.67
666.212	47627.04
666.562	47700.71
666.912	47715.4
667.262	47606.25
667.612	47576.64
667.962	47721.95
668.312	47621.62
668.662	47926.92
669.011	47870.65
669.361	47961.27
669.711	47903.19
670.06	47970.31
670.41	47959.23
670.76	47954.49
671.109	48155.39
671.459	48175.72
671.808	48142.73
672.157	48256.63
672.507	47949.97
672.856	47983.87
673.205	47871.1
673.554	47988.61
673.904	47672.46
674.253	47862.29
674.602	47628.17
674.951	47006.49
675.3	46805.59
675.649	47156.77
675.998	46945.93
676.346	47048.07
676.695	47057.56
677.044	46695.31
677.393	46784.35
677.741	46767.17
678.09	46771.69
678.438	46666.39
678.787	46813.27
679.135	46817.12
679.484	46594.98
679.832	46910.67
680.181	46750.9
680.529	46921.29
680.877	46847.85
681.225	46942.08
681.573	47219.82
681.922	47002.65
682.27	47046.94
682.618	47135.98
682.966	47030.9
683.314	46926.04
683.661	46940.05
684.009	46745.48
684.357	46763.56
684.705	46610.79
685.053	46496.9
685.4	46331.03
685.748	46012.17
686.095	46101.2
686.443	45785.73
686.79	45761.55
687.138	45617.15
687.485	45546.42
687.832	45463.71
688.18	45323.37
688.527	45141.23
688.874	45002.47
689.221	44885.64
689.568	44728.81
689.915	44694.69
690.262	44699.43
690.609	44706.21
690.956	44723.84
691.303	44619.89
691.65	44463.05
691.997	44421.02
692.344	44423.28
692.69	44475.48
693.037	44640.45
693.383	44341.02
693.73	44614.46
694.077	44382.6
694.423	44417.86
694.769	44443.85
695.116	44194.59
695.462	44156.85
695.808	43942.16
696.155	44106.45
696.501	43470.99
696.847	43569.07
697.193	43225.12
697.539	43219.47
697.885	42929.76
698.231	42637.34
698.577	42566.61
698.923	42422.2
699.269	42130.23
699.614	41952.61
699.96	41761.88
700.306	41698.83
700.651	41628.33
700.997	41297.71
701.342	41339.97
701.688	41424.04
702.033	41343.36
702.379	41214.78
702.724	41109.7
703.069	41257.71
703.415	40979.53
703.76	41142.24
704.105	41147.44
704.45	41139.75
704.795	40999.87
705.14	40932.75
705.485	41051.17
705.83	40892.53
706.175	41009.13
706.52	40780.21
706.865	40840.32
707.209	40822.92
707.554	40653.21
707.899	40772.76
708.243	40469.03
708.588	40272.2
708.932	39948.6
709.277	40011.42
709.621	39932.33
709.966	39545.44
710.31	39536.63
710.654	39006.02
710.998	39114.95
711.342	39095.74
711.687	38773.49
712.031	38678.35
712.375	38465.7
712.719	38561.06
713.063	38354.06
713.407	38455.53
713.75	38254.63
714.094	38262.54
714.438	38283.78
714.782	38249.66
715.125	38178.25
715.469	38220.05
715.812	38006.5
716.156	38085.59
716.499	37993.62
716.843	38133.28
717.186	38060.74
717.53	38245.14
717.873	38173.95
718.216	38243.56
718.559	38053.73
718.902	37905.03
719.246	38005.82
719.589	37970.8
719.932	37809.9
720.275	37842.89
720.617	37639.73
720.96	37570.58
721.303	37468.21
721.646	37424.6
721.989	37217.37
722.331	37317.25
722.674	37099.18
723.016	36855.34
723.359	36788.91
723.701	36662.36
724.044	36351.4
724.386	36081.81
724.729	36178.3
725.071	36097.17
725.413	35930.17
725.755	35863.96
726.097	35935.82
726.439	35676.17
726.782	35693.34
727.124	35777.63
727.465	35641.14
727.807	35624.42
728.149	35593.23
728.491	35667.35
728.833	35748.03
729.175	35626
729.516	35613.57
729.858	35730.85
730.199	35826.67
730.541	35733.11
730.882	35693.34
731.224	35956.61
731.565	35628.71
731.906	35840
732.248	35925.2
732.589	35670.52
732.93	35449.05
733.271	35510.52
733.612	35471.88
733.953	35449.73
734.294	35224.43
734.635	35156.41
734.976	35196.86
735.317	34877.32
735.658	34819.69
735.999	34859.92
736.339	34704.21
736.68	34631.45
737.021	34303.1
737.361	34200.5
737.702	34220.39
738.042	34122.08
738.383	34021.97
738.723	33986.49
739.063	33865.14
739.404	33833.73
739.744	33904.69
740.084	33647.52
740.424	33808.64
740.764	33692.72
741.104	33762.77
741.444	33604.13
741.784	33615.2
742.124	33711.92
742.464	33721.19
742.804	33628.76
743.143	33675.77
743.483	33753.28
743.823	33690.23
744.162	33704.47
744.502	33826.72
744.841	33703.56
745.181	33908.3
745.52	33694.52
745.86	33792.83
746.199	33653.85
746.538	33580.63
746.877	33755.54
747.216	33577.24
747.556	33389.9
747.895	33352.39
748.234	33217.93
748.573	33127.98
748.911	32982.23
749.25	33033.3
749.589	32686.19
749.928	32805.73
750.267	32579.75
750.605	32441.9
750.944	32143.6
751.283	32160.78
751.621	32180.44
751.96	31786.33
752.298	31850.5
752.636	31884.63
752.975	31717.17
753.313	31436.5
753.651	31645.09
753.989	31468.82
754.327	31418.43
754.666	31234.93
755.004	31448.93
755.342	31455.71
755.679	31353.57
756.017	31321.7
756.355	31377.07
756.693	31211.43
757.031	31474.47
757.368	31260.69
757.706	31325.32
758.044	31261.59
758.381	31237.41
758.719	31274.93
759.056	31245.32
759.394	31187.92
759.731	31014.82
760.068	31040.13
760.405	30926.46
760.743	30835.62
761.08	30877.2
761.417	30564.66
761.754	30504.78
762.091	30369.87
762.428	30256.65
762.765	29992.47
763.102	30154.28
763.438	29842.42
763.775	29501.41
764.112	29777.79
764.449	29684.91
764.785	29382.77
765.122	29128.99
765.458	28914.76
765.795	28904.14
766.131	28902.33
766.467	28657.59
766.804	28514.09
767.14	28466.64
767.476	28291.95
767.812	28325.63
768.148	28272.29
768.485	28185.52
768.821	28053.99
769.157	28036.59
769.492	27996.59
769.828	27950.49
770.164	27777.39
770.5	27774.91
770.836	27855.13
771.171	27652.65
771.507	27665.53
771.842	27493.56
772.178	27552.76
772.513	27596.6
772.849	27537.17
773.184	27343.28
773.519	27513.44
773.855	27297.18
774.19	27198.2
774.525	27048.6
774.86	27098.76
775.195	27029.16
775.53	26843.86
775.865	26755.95
776.2	26586.69
776.535	26372.68
776.87	26326.81
777.205	26120.26
777.539	26010.21
777.874	26063.99
778.209	25822.87
778.543	25660.61
778.878	25390.34
779.212	25450.45
779.547	25164.8
779.881	25245.03
780.215	24970.69
780.55	24899.73
780.884	24802.33
781.218	24616.12
781.552	24591.26
781.886	24506.52
782.22	24309.23
782.554	24257.71
782.888	24097.71
783.222	23976.81
783.556	23872.18
783.889	23853.88
784.223	23737.72
784.557	23784.95
784.89	23922.35
785.224	23741.34
785.557	23585.64
785.891	23597.16
786.224	23550.61
786.558	23521.46
786.891	23389.48
787.224	23489.59
787.557	23437.17
787.891	23426.32
788.224	23264.06
788.557	23339.09
788.89	23297.96
789.223	23224.29
789.556	23177.51
789.888	23060.9
790.221	23037.63
790.554	22784.98
790.887	22807.8
791.219	22650.75
791.552	22730.52
791.884	22558.32
792.217	22354.26
792.549	22382.96
792.882	22152.91
793.214	22011.67
793.546	21994.72
793.879	21786.36
794.211	21637.44
794.543	21735.74
794.875	21528.52
795.207	21548.85
795.539	21463.21
795.871	21266.15
796.203	21115.19
796.535	20988.19
796.867	20774.19
797.198	20755.65
797.53	20828.65
797.862	20621.87
798.193	20711.14
798.525	20493.29
798.856	20677.46
799.188	20316.12
799.519	20313.41
799.85	20265.05
800.182	20312.05
800.513	20252.39
800.844	20155.22
801.175	20195.44
801.506	20287.64
801.837	20197.25
802.168	20176.24
802.499	20029.12
802.83	20103.69
803.161	20015.34
803.491	19976.47
803.822	20044.49
804.153	19973.3
804.483	19802.01
804.814	19804.95
805.145	19754.33
805.475	19897.37
805.805	19779.64
806.136	19731.73
806.466	19677.49
806.796	19764.72
807.126	19542.13
807.457	19378.74
807.787	19523.37
808.117	19364.28
808.447	19232.76
808.777	19281.57
809.107	19031.18
809.436	18945.53
809.766	18921.35
810.096	18875.25
810.426	18728.82
810.755	18697.86
811.085	18535.83
811.414	18577.86
811.744	18361.37
812.073	18343.74
812.403	18230.98
812.732	18115.95
813.061	18122.73
813.39	18045.9
813.719	17930.87
814.049	18092.45
814.378	18000.02
814.707	17829.4
815.036	17833.92
815.365	17857.65
815.693	17615.62
816.022	17750.76
816.351	17742.63
816.68	17638.45
817.008	17662.63
817.337	17540.6
817.665	17555.29
817.994	17632.12
818.322	17607.49
818.651	17514.84
818.979	17449.98
819.307	17542.41
819.636	17563.42
819.964	17409.08
820.292	17561.84
820.62	17692.23
820.948	17567.04
821.276	17596.19
821.604	17510.99
821.932	17571.11
822.259	17615.17
822.587	17538.79
822.915	17471.9
823.243	17566.81
823.57	17544.44
823.898	17520.94
824.225	17404.1
824.553	17441.62
824.88	17393.26
825.207	17341.96
825.535	17248.18
825.862	17313.94
826.189	17248.18
826.516	17320.49
826.843	17261.51
827.17	17249.31
827.497	17254.5
827.824	17161.85
828.151	17095.64
828.478	17111.68
828.805	17169.53
829.131	16972.03
829.458	16979.71
829.785	16858.36
830.111	16977.68
830.438	17079.59
830.764	16979.93
831.09	17023.78
831.417	16854.97
831.743	16907.17
832.069	16882.76
832.395	16858.36
832.722	17021.74
833.048	16886.83
833.374	16898.58
833.7	16860.84
834.026	16898.81
834.351	16939.71
834.677	16939.94
835.003	16993.49
835.329	17027.62
835.654	16936.32
835.98	16877.56
836.306	17068.97
836.631	16845.48
836.956	17061.74
837.282	16988.52
837.607	16938.13
837.932	16861.29
838.258	16887.51
838.583	16870.33
838.908	16838.24
839.233	16840.96
839.558	16846.15
839.883	16760.28
840.208	16728.87
840.533	16707.63
840.858	16700.39
841.182	16754.86
841.507	16673.28
841.832	16611.36
842.156	16511.25
842.481	16505.82
842.805	16399.39
843.13	16400.97
843.454	16332.72
843.778	16124.14
844.103	16147.41
844.427	16105.61
844.751	16053.63
845.075	15961.2
845.399	15912.39
845.723	15876.46
846.047	15768.44
846.371	15680.31
846.695	15638.05
847.019	15456.81
847.343	15453.42
847.666	15369.58
847.99	15277.38
848.313	15257.95
848.637	15125.75
848.96	15131.62
849.284	15040.78
849.607	14992.19
849.931	14943.15
850.254	14930.05
850.577	14861.35
850.9	14720.33
851.223	14711.75
851.546	14691.18
851.869	14551.3
852.192	14714.91
852.515	14634.23
852.838	14587.91
853.161	14559.21
853.483	14518.53
853.806	14490.51
854.129	14504.97
854.451	14488.02
854.774	14431.53
855.096	14318.08
855.419	14325.54
855.741	14314.24
856.063	14221.14
856.385	14210.74
856.708	14189.05
857.03	14166.68
857.352	14126.9
857.674	14050.29
857.996	14010.75
858.318	13965.1
858.64	13944.99
858.961	13871.54
859.283	13800.58
859.605	13807.81
859.926	13846.23
860.248	13729.4
860.57	13601.72
860.891	13607.82
861.212	13619.8
861.534	13555.39
861.855	13394.04
862.176	13422.97
862.498	13353.82
862.819	13348.39
863.14	13252.12
863.461	13165.12
863.782	13175.97
864.103	13164.44
864.424	13075.86
864.745	13107.27
865.065	13002.41
865.386	12965.8
865.707	12905.69
866.027	12900.72
866.348	12801.29
866.668	12877.9
866.989	12789.08
867.309	12782.53
867.63	12801.29
867.95	12784.79
868.27	12762.64
868.59	12695.75
868.91	12703.66
869.23	12646.49
869.55	12561.29
869.87	12706.37
870.19	12753.38
870.51	12762.64
870.83	12758.58
871.15	12701.4
871.469	12665.02
871.789	12761.06
872.109	12725.58
872.428	12617.56
872.748	12748.41
873.067	12733.49
873.386	12766.49
873.706	12712.02
874.025	12671.57
874.344	12663.66
874.663	12608.52
874.982	12599.03
875.301	12632.7
875.62	12652.82
875.939	12630.22
876.258	12588.41
876.577	12545.7
876.896	12502.09
877.214	12449.43
877.533	12410.11
877.852	12418.7
878.17	12448.3
878.489	12427.06
878.807	12419.15
879.125	12309.32
879.444	12259.83
879.762	12250.34
880.08	12126.28
880.398	12115.88
880.716	12069.33
881.034	12041.53
881.352	12039.5
881.67	11968.77
881.988	11931.03
882.306	11937.36
882.624	11807.42
882.941	11764.48
883.259	11731.03
883.577	11723.35
883.894	11677.02
884.212	11680.19
884.529	11601.77
884.846	11524.26
885.164	11557.25
885.481	11530.59
885.798	11517.71
886.115	11489.01
886.432	11463.47
886.75	11457.37
887.067	11368.56
887.383	11326.75
887.7	11357.48
888.017	11270.25
888.334	11352.74
888.651	11309.58
888.967	11277.03
889.284	11301.21
889.6	11283.14
889.917	11237.71
890.233	11251.27
890.55	11186.87
890.866	11211.5
891.182	11148.68
891.498	11192.29
891.815	11160.65
892.131	11044.05
892.447	11041.11
892.763	11073.65
893.079	11084.72
893.395	11086.76
893.71	10967.89
894.026	10990.49
894.342	10970.6
894.657	10907.55
894.973	10866.2
895.289	10928.12
895.604	10874.11
895.92	10794.56
896.235	10749.82
896.55	10700.78
896.865	10710.04
897.181	10729.7
897.496	10624.17
897.811	10605.64
898.126	10479.54
898.441	10529.71
898.756	10564.28
899.071	10388.92
899.386	10317.06
899.7	10241.58
900.015	10267.12
900.33	10194.8
900.644	10097.63
900.959	10154.35
901.273	10045.65
901.588	9968.59
901.902	9924.08
902.216	9903.74
902.531	9801.59
902.845	9743.97
903.159	9671.2
903.473	9630.52
903.787	9612.67
904.101	9523.41
904.415	9572.67
904.729	9462.62
905.042	9468.72
905.356	9369.51
905.67	9419.91
905.984	9426.69
906.297	9364.32
906.611	9360.47
906.924	9247.71
907.237	9209.74
907.551	9250.42
907.864	9137.88
908.177	9188.73
908.491	9113.48
908.804	9142.4
909.117	9076.19
909.43	9093.59
909.743	8994.61
910.056	9067.37
910.368	9034.83
910.681	8973.82
910.994	8988.96
911.307	8922.97
911.619	8880.03
911.932	8926.14
912.244	8785.35
912.557	8779.47
912.869	8765.24
913.181	8724.78
913.494	8741.51
913.806	8612.02
914.118	8687.05
914.43	8602.3
914.742	8634.62
915.054	8579.25
915.366	8504
915.678	8571.34
915.99	8461.97
916.302	8374.29
916.613	8406.38
916.925	8420.16
917.236	8292.03
917.548	8297.9
917.859	8318.92
918.171	8199.6
918.482	8162.09
918.794	8160.96
919.105	8109.21
919.416	8041.86
919.727	8068.76
920.038	7978.82
920.349	7911.02
920.66	7917.8
920.971	7913.05
921.282	7745.15
921.593	7770.01
921.903	7675.77
922.214	7684.36
922.525	7637.58
922.835	7567.3
923.146	7474.42
923.456	7471.71
923.767	7424.93
924.077	7453.63
924.387	7371.83
924.697	7291.83
925.008	7249.12
925.318	7274.43
925.628	7265.39
925.938	7163.02
926.248	7178.84
926.558	7167.99
926.867	7126.63
927.177	7051.16
927.487	7044.15
927.796	6967.09
928.106	6985.85
928.416	6951.5
928.725	6933.87
929.034	6913.31
929.344	6892.29
929.653	6852.97
929.962	6818.39
930.271	6831.28
930.581	6753.99
930.89	6787.43
931.199	6755.8
931.508	6667.89
931.817	6722.58
932.125	6756.02
932.434	6662.47
932.743	6677.83
933.051	6617.72
933.36	6647.55
933.669	6569.81
933.977	6553.09
934.286	6548.8
934.594	6551.06
934.902	6460.44
935.21	6483.71
935.519	6458.63
935.827	6482.13
936.135	6384.28
936.443	6321.91
936.751	6385.19
937.059	6301.57
937.367	6314.68
937.674	6283.72
937.982	6220.22
938.29	6199.65
938.597	6193.33
938.905	6059.54
939.213	6076.49
939.52	6053.44
939.827	6030.39
940.135	6030.39
940.442	5970.28
940.749	5938.64
941.056	6013.44
941.363	5895.93
941.67	5849.61
941.977	5859.55
942.284	5834.01
942.591	5800.34
942.898	5766.44
943.205	5817.74
943.511	5707.46
943.818	5675.15
944.125	5650.74
944.431	5641.02
944.738	5608.26
945.044	5501.82
945.35	5462.72
945.657	5486.9
945.963	5415.95
946.269	5411.88
946.575	5398.77
946.881	5330.75
947.187	5351.99
947.493	5337.53
947.799	5296.17
948.105	5246.91
948.41	5209.62
948.716	5190.41
949.022	5176.18
949.327	5253.01
949.633	5144.54
949.938	5140.02
950.244	5127.59
950.549	5055.5
950.854	5033.13
951.16	5077.65
951.465	5067.71
951.77	4992
952.075	5024.54
952.38	5018.22
952.685	4970.53
952.99	4974.37
953.294	4873.36
953.599	4935.51
953.904	4904.77
954.209	4901.16
954.513	4840.14
954.818	4851.89
955.122	4866.58
955.426	4843.53
955.731	4774.15
956.035	4755.4
956.339	4758.79
956.643	4726.92
956.948	4751.1
957.252	4716.08
957.556	4667.49
957.86	4726.7
958.163	4716.08
958.467	4627.04
958.771	4679.69
959.075	4660.26
959.378	4620.94
959.682	4593.59
959.985	4585.68
960.289	4583.88
960.592	4528.06
960.896	4507.49
961.199	4475.18
961.502	4525.35
961.805	4471.34
962.108	4431.56
962.411	4376.65
962.714	4353.6
963.017	4371
963.32	4334.39
963.623	4294.17
963.926	4334.39
964.228	4302.75
964.531	4247.39
964.833	4233.38
965.136	4179.37
965.438	4172.36
965.741	4163.55
966.043	4125.13
966.345	4108.86
966.648	4126.71
966.95	4110.44
967.252	4068.41
967.554	4009.2
967.856	4026.15
968.158	3901.18
968.46	3945.02
968.761	3926.27
969.063	3884.01
969.365	3920.39
969.666	3930.56
969.968	3839.04
970.269	3801.52
970.571	3868.64
970.872	3794.97
971.174	3767.63
971.475	3767.63
971.776	3728.98
972.077	3691.02
972.378	3690.34
972.679	3697.35
972.98	3691.7
973.281	3679.49
973.582	3632.94
973.883	3641.53
974.183	3621.87
974.484	3628.42
974.785	3586.16
975.085	3580.29
975.386	3601.98
975.686	3557.69
975.986	3548.42
976.287	3553.85
976.587	3538.93
976.887	3527.41
977.187	3542.32
977.487	3514.53
977.787	3446.05
978.087	3451.7
978.387	3475.88
978.687	3418.71
978.987	3465.49
979.286	3397.24
979.586	3400.18
979.885	3409.9
980.185	3405.6
980.484	3377.81
980.784	3350.01
981.083	3375.09
981.382	3305.27
981.682	3295.55
981.981	3326.96
982.28	3265.72
982.579	3274.53
982.878	3241.54
983.177	3251.03
983.475	3279.5
983.774	3179.62
984.073	3213.74
984.372	3188.43
984.67	3212.16
984.969	3160.19
985.267	3164.25
985.566	3117.7
985.864	3147.3
986.162	3120.64
986.461	3063.24
986.759	3055.78
987.057	3038.61
987.355	3022.79
987.653	3034.54
987.951	3030.02
988.249	2979.85
988.547	2990.25
988.844	2972.17
989.142	2897.59
989.44	2923.13
989.737	2890.81
990.035	2905.05
990.332	2872.96
990.63	2848.78
990.927	2875.9
991.224	2839.97
991.521	2811.27
991.819	2797.26
992.116	2778.95
992.413	2771.95
992.71	2761.55
993.006	2747.99
993.303	2737.15
993.6	2700.99
993.897	2695.11
994.193	2703.47
994.49	2669.58
994.787	2618.5
995.083	2646.98
995.379	2636.58
995.676	2593.19
995.972	2567.66
996.268	2560.65
996.565	2540.99
996.861	2531.73
997.157	2557.04
997.453	2538.28
997.749	2571.05
998.044	2472.97
998.34	2484.27
998.636	2460.77
998.932	2467.55
999.227	2469.81
999.523	2475.01
999.818	2457.6
1000.114	2406.08
1000.409	2408.34
1000.704	2388.23
1001	2417.15
1001.295	2385.97
1001.59	2387.1
1001.885	2344.16
1002.18	2355.46
1002.475	2341.68
1002.77	2280.89
1003.065	2288.34
1003.359	2302.35
1003.654	2295.35
1003.949	2275.01
1004.243	2278.17
1004.538	2283.15
1004.832	2277.95
1005.127	2270.49
1005.421	2223.94
1005.715	2220.32
1006.009	2215.13
1006.304	2213.09
1006.598	2193.21
1006.892	2220.55
1007.186	2168.57
1007.48	2169.02
1007.773	2163.6
1008.067	2138.29
1008.361	2098.52
1008.655	2070.95
1008.948	2093.09
1009.242	2074.79
1009.535	2064.17
1009.829	2023.27
1010.122	2040.89
1010.415	2034.79
1010.708	2025.75
1011.001	2007
1011.295	2020.78
1011.588	1964.96
1011.881	1955.92
1012.173	1949.37
1012.466	1940.78
1012.759	1945.08
1013.052	1906.66
1013.344	1870.5
1013.637	1895.59
1013.93	1887.45
1014.222	1890.84
1014.514	1846.55
1014.807	1839.77
1015.099	1822.59
1015.391	1816.27
1015.683	1830.05
1015.976	1781.46
1016.268	1782.14
1016.56	1734.01
1016.851	1745.31
1017.143	1731.07
1017.435	1729.49
1017.727	1705.08
1018.018	1677.74
1018.31	1725.87
1018.602	1680.68
1018.893	1677.74
1019.185	1658.53
1019.476	1642.94
1019.767	1651.52
1020.058	1633.45
1020.35	1605.88
1020.641	1604.75
1020.932	1594.58
1021.223	1573.79
1021.514	1579.44
1021.804	1550.06
1022.095	1554.8
1022.386	1541.92
1022.677	1526.78
1022.967	1515.03
1023.258	1521.58
1023.548	1517.06
1023.839	1492.66
1024.129	1503.05
1024.419	1465.54
1024.709	1433
1025	1463.73
1025.29	1442.49
1025.58	1433.45
1025.87	1430.06
1026.16	1409.5
1026.449	1403.85
1026.739	1388.71
1027.029	1407.01
1027.319	1383.73
1027.608	1360.68
1027.898	1360.23
1028.187	1354.13
1028.477	1376.5
1028.766	1337.63
1029.055	1340.57
1029.344	1343.96
1029.634	1329.05
1029.923	1287.69
1030.212	1292.66
1030.501	1306
1030.79	1256.28
1031.078	1295.15
1031.367	1275.72
1031.656	1223.29
1031.945	1253.12
1032.233	1256.96
1032.522	1253.12
1032.81	1219.9
1033.099	1228.94
1033.387	1209.5
1033.675	1221.25
1033.963	1230.07
1034.251	1198.65
1034.54	1181.93
1034.828	1170.86
1035.116	1172.67
1035.403	1184.42
1035.691	1159.56
1035.979	1158.66
1036.267	1170.41
1036.554	1126.34
1036.842	1117.53
1037.129	1117.75
1037.417	1115.49
1037.704	1062.39
1037.992	1075.49
1038.279	1099.9
1038.566	1074.82
1038.853	1074.82
1039.14	1074.82
