Data from red_cardboard_box_FLMS001491_00071.txt Node
Date: Wed Feb 08 11:33:05 GMT 2017
User: dcchb
Spectrometer: FLMS00149
Trigger mode: 0
Integration Time (sec): 2.000000E-2
Scans to average: 10
Electric dark correction enabled: true
Nonlinearity correction enabled: false
Boxcar width: 0
XAxis mode: Wavelengths
Number of Pixels in Spectrum: 2048
>>>>>Begin Spectral Data<<<<<
341.393	-9.03
341.776	-9.03
342.16	-9.03
342.543	-74.56
342.927	-74.56
343.31	-69.59
343.693	-72.3
344.077	-73.43
344.46	-63.49
344.843	-62.36
345.226	-31.62
345.61	-31.17
345.993	-24.84
346.376	-0.66
346.759	25.32
347.142	24.65
347.525	32.78
347.908	66.91
348.291	75.04
348.674	94.25
349.057	110.52
349.44	134.93
349.823	137.86
350.206	162.04
350.588	173.34
350.971	212.21
351.354	210.18
351.737	247.01
352.119	249.27
352.502	277.07
352.884	264.87
353.267	271.42
353.65	286.56
354.032	297.41
354.414	303.06
354.797	287.92
355.179	318.88
355.562	313.68
355.944	313.45
356.326	335.6
356.709	321.36
357.091	310.29
357.473	301.93
357.855	329.5
358.238	327.24
358.62	317.52
359.002	353.68
359.384	339.89
359.766	343.06
360.148	331.98
360.53	343.28
360.912	345.09
361.294	327.69
361.676	320.68
362.057	334.69
362.439	320.23
362.821	327.46
363.203	321.59
363.584	296.96
363.966	330.4
364.348	307.8
364.729	307.58
365.111	296.28
365.493	302.61
365.874	298.76
366.256	309.38
366.637	327.24
367.019	280.68
367.4	305.99
367.781	305.32
368.163	302.38
368.544	292.66
368.925	279.33
369.306	315.03
369.688	291.53
370.069	286.79
370.45	308.48
370.831	287.92
371.212	301.25
371.593	295.83
371.974	305.99
372.355	307.35
372.736	309.16
373.117	335.37
373.498	280.23
373.879	269.39
374.26	309.16
374.641	308.93
375.021	319.55
375.402	301.7
375.783	296.5
376.163	323.62
376.544	304.86
376.925	307.8
377.305	291.53
377.686	313.9
378.066	313.23
378.447	303.28
378.827	323.62
379.208	317.97
379.588	293.57
379.968	288.14
380.349	301.7
380.729	313.23
381.109	310.06
381.489	319.78
381.87	315.26
382.25	310.29
382.63	324.75
383.01	318.65
383.39	337.41
383.77	334.02
384.15	321.81
384.53	320.23
384.91	320.68
385.29	332.89
385.67	323.85
386.049	334.69
386.429	324.3
386.809	335.15
387.189	325.88
387.568	320.46
387.948	336.73
388.328	331.3
388.707	333.79
389.087	340.8
389.466	336.28
389.846	359.1
390.225	338.54
390.605	329.95
390.984	330.17
391.363	339.89
391.743	349.16
392.122	344.86
392.501	347.35
392.881	346.45
393.26	336.28
393.639	345.32
394.018	326.56
394.397	341.93
394.776	379.44
395.155	342.83
395.534	357.52
395.913	329.05
396.292	354.36
396.671	324.3
397.05	344.86
397.429	351.42
397.808	336.95
398.186	352.32
398.565	335.15
398.944	349.16
399.323	353.68
399.701	338.31
400.08	374.69
400.458	334.02
400.837	354.36
401.215	358.65
401.594	366.33
401.972	353
402.351	342.83
402.729	359.33
403.107	372.43
403.486	341.93
403.864	341.25
404.242	358.42
404.62	363.85
404.999	394.13
405.377	350.06
405.755	381.92
406.133	359.55
406.511	383.28
406.889	364.98
407.267	372.66
407.645	374.02
408.023	375.82
408.401	367.46
408.779	357.97
409.156	387.35
409.534	384.64
409.912	383.73
410.29	383.96
410.667	387.57
411.045	393.68
411.422	382.6
411.8	403.85
412.178	397.07
412.555	388.03
412.933	393.68
413.31	384.41
413.687	379.21
414.065	405.65
414.442	391.42
414.819	402.26
415.197	371.98
415.574	412.88
415.951	399.55
416.328	395.26
416.705	385.54
417.082	403.62
417.46	428.48
417.837	422.83
418.214	425.99
418.591	408.14
418.967	401.81
419.344	418.76
419.721	432.77
420.098	434.58
420.475	428.03
420.852	419.66
421.228	415.82
421.605	409.72
421.982	422.6
422.358	410.4
422.735	440.23
423.111	425.99
423.488	415.37
423.864	445.2
424.241	442.26
424.617	436.16
424.994	455.14
425.37	444.97
425.746	424.86
426.123	464.18
426.499	430.29
426.875	449.04
427.251	438.87
427.627	474.8
428.003	442.04
428.379	455.6
428.756	447.91
429.132	473
429.507	451.98
429.883	480
430.259	451.53
430.635	470.28
431.011	463.28
431.387	494.46
431.763	468.48
432.138	471.64
432.514	483.39
432.89	485.65
433.265	491.53
433.641	514.58
434.016	496.5
434.392	478.42
434.767	501.7
435.143	520.68
435.518	502.83
435.894	484.52
436.269	514.8
436.644	515.48
437.02	503.96
437.395	483.17
437.77	515.03
438.145	500.11
438.52	531.98
438.895	519.32
439.271	514.12
439.646	520
440.021	519.55
440.395	549.15
440.77	529.72
441.145	525.88
441.52	538.08
441.895	529.94
442.27	536.72
442.645	544.86
443.019	510.74
443.394	560.9
443.769	561.13
444.143	531.3
444.518	540.34
444.892	554.35
445.267	536.27
445.641	539.89
446.016	548.93
446.39	562.71
446.764	560.68
447.139	555.03
447.513	550.28
447.887	550.06
448.262	573.56
448.636	571.3
449.01	571.75
449.384	576.5
449.758	572.2
450.132	554.58
450.506	556.61
450.88	575.59
451.254	585.31
451.628	567.23
452.002	567.91
452.376	592.54
452.75	584.41
453.123	570.62
453.497	609.49
453.871	598.64
454.244	616.72
454.618	596.16
454.992	612.65
455.365	616.5
455.739	633.67
456.112	606.55
456.486	621.69
456.859	657.62
457.232	619.43
457.606	623.27
457.979	618.53
458.352	636.61
458.725	631.18
459.099	624.63
459.472	667.34
459.845	677.96
460.218	652.43
460.591	663.27
460.964	670.5
461.337	651.52
461.71	671.18
462.083	686.55
462.456	668.25
462.829	689.71
463.201	699.43
463.574	700.11
463.947	699.43
464.32	715.48
464.692	713.22
465.065	708.02
465.438	698.3
465.81	728.58
466.183	727.23
466.555	735.59
466.928	748.02
467.3	723.61
467.672	744.63
468.045	752.08
468.417	743.95
468.789	760.45
469.161	778.75
469.534	751.41
469.906	781.01
470.278	798.64
470.65	806.09
471.022	798.86
471.394	815.81
471.766	806.77
472.138	823.5
472.51	826.21
472.882	834.12
473.253	841.35
473.625	872.08
473.997	879.31
474.369	858.75
474.74	846.55
475.112	867.11
475.484	875.7
475.855	897.39
476.227	901.46
476.598	900.1
476.97	908.24
477.341	939.88
477.713	946.88
478.084	943.27
478.455	965.64
478.827	978.29
479.198	997.05
479.569	982.81
479.94	1028.69
480.311	1007.9
480.682	1031.17
481.053	1070.72
481.424	1045.41
481.795	1081.57
482.166	1101.23
482.537	1093.32
482.908	1113.21
483.279	1099.42
483.65	1122.24
484.021	1166.54
484.391	1157.72
484.762	1137.39
485.133	1185.29
485.503	1190.72
485.874	1177.38
486.244	1189.59
486.615	1235.46
486.985	1258.74
487.356	1233.2
487.726	1254.9
488.097	1297.16
488.467	1283.37
488.837	1305.97
489.207	1320.88
489.578	1340.32
489.948	1356.36
490.318	1367.21
490.688	1388.68
491.058	1358.85
491.428	1409.02
491.798	1423.03
492.168	1428.9
492.538	1456.02
492.908	1432.74
493.278	1464.83
493.648	1452.41
494.017	1500.99
494.387	1494.66
494.757	1522.46
495.126	1513.42
495.496	1521.33
495.866	1545.96
496.235	1560.43
496.605	1553.19
496.974	1581.22
497.344	1593.64
497.713	1567.66
498.082	1595.45
498.452	1614.43
498.821	1632.74
499.19	1613.98
499.559	1628.9
499.928	1679.29
500.298	1653.53
500.667	1672.06
501.036	1655.56
501.405	1681.78
501.774	1659.86
502.143	1716.35
502.512	1730.36
502.88	1717.26
503.249	1708.9
503.618	1749.8
503.987	1730.82
504.356	1767.43
504.724	1773.98
505.093	1782.34
505.462	1791.61
505.83	1839.74
506.199	1831.83
506.567	1837.03
506.936	1849.68
507.304	1871.38
507.672	1870.93
508.041	1870.02
508.409	1896.46
508.777	1888.33
509.145	1965.61
509.514	1944.37
509.882	1947.76
510.25	1914.99
510.618	1958.38
510.986	1967.65
511.354	1986.85
511.722	1986.63
512.09	2006.52
512.458	2006.29
512.826	2034.76
513.193	2057.14
513.561	2045.16
513.929	2083.58
514.297	2075.44
514.664	2100.3
515.032	2093.29
515.4	2148.66
515.767	2099.17
516.135	2138.49
516.502	2163.57
516.869	2177.58
517.237	2224.59
517.604	2195.89
517.972	2228.2
518.339	2203.12
518.706	2240.63
519.073	2256
519.44	2237.92
519.808	2291.93
520.175	2264.59
520.542	2312.5
520.909	2345.26
521.276	2319.73
521.643	2317.47
522.009	2336.45
522.376	2385.04
522.743	2400.63
523.11	2420.74
523.477	2458.93
523.843	2441.98
524.21	2488.31
524.577	2493.73
524.943	2541.87
525.31	2553.62
525.676	2600.62
526.043	2571.47
526.409	2591.58
526.776	2623.9
527.142	2585.26
527.508	2588.65
527.874	2688.31
528.241	2630.68
528.607	2688.53
528.973	2668.64
529.339	2708.42
529.705	2759.04
530.071	2752.48
530.437	2733.5
530.803	2785.25
531.169	2846.49
531.535	2795.42
531.901	2842.43
532.267	2837
532.632	2887.4
532.998	2865.25
533.364	2880.84
533.73	2885.81
534.095	2909.77
534.461	2949.32
534.826	2968.52
535.192	2973.95
535.557	2987.96
535.923	3006.04
536.288	3019.14
536.653	3044.23
537.019	3025.92
537.384	3056.43
537.749	3019.82
538.114	3073.38
538.479	3064.79
538.845	3102.08
539.21	3125.58
539.575	3101.63
539.94	3132.14
540.305	3147.73
540.67	3161.51
541.034	3179.14
541.399	3145.47
541.764	3180.95
542.129	3196.77
542.494	3251.91
542.858	3230.89
543.223	3241.28
543.587	3278.57
543.952	3304.56
544.316	3305.01
544.681	3325.58
545.045	3344.78
545.41	3340.94
545.774	3325.35
546.138	3357.89
546.503	3396.08
546.867	3414.39
547.231	3435.86
547.595	3431.79
547.959	3444.9
548.324	3468.17
548.688	3449.87
549.052	3491.22
549.416	3530.54
549.779	3519.7
550.143	3523.76
550.507	3548.85
550.871	3560.15
551.235	3589.98
551.599	3648.96
551.962	3643.53
552.326	3635.4
552.689	3659.8
553.053	3680.6
553.417	3687.15
553.78	3729.63
554.143	3713.59
554.507	3790.42
554.87	3818.9
555.234	3823.64
555.597	3843.3
555.96	3851.66
556.323	3884.21
556.686	3910.19
557.05	3969.63
557.413	3972.11
557.776	3976.86
558.139	3984.77
558.502	4000.81
558.865	4066.35
559.228	4102.05
559.59	4164.88
559.953	4145.44
560.316	4210.52
560.679	4215.27
561.041	4248.72
561.404	4279.68
561.767	4332.56
562.129	4338.21
562.492	4350.63
562.854	4374.59
563.217	4408.03
563.579	4451.65
563.941	4492.1
564.304	4524.41
564.666	4561.02
565.028	4604.86
565.39	4659.78
565.753	4682.38
566.115	4789.04
566.477	4829.27
566.839	4816.84
567.201	4884.86
567.563	4935.25
567.925	4922.14
568.287	4956.95
568.648	4968.02
569.01	5054.34
569.372	5105.64
569.734	5113.1
570.095	5193.78
570.457	5225.41
570.819	5177.96
571.18	5324.17
571.542	5356.71
571.903	5450.04
572.265	5462.47
572.626	5469.02
572.987	5549.7
573.349	5622.47
573.71	5616.14
574.071	5647.78
574.432	5742.01
574.794	5804.61
575.155	5839.18
575.516	5893.64
575.877	5941.33
576.238	6021.55
576.599	6050.93
576.96	6120.53
577.32	6218.83
577.681	6240.53
578.042	6348.77
578.403	6381.54
578.763	6471.26
579.124	6534.08
579.485	6619.5
579.845	6653.62
580.206	6711.48
580.566	6868.99
580.927	6926.39
581.287	6986.72
581.648	7077.34
582.008	7169.32
582.368	7273.5
582.728	7354.62
583.089	7435.75
583.449	7551.91
583.809	7665.8
584.169	7833.03
584.529	7887.49
584.889	8043.64
585.249	8158.44
585.609	8223.07
585.969	8425.78
586.329	8489.51
586.688	8658.32
587.048	8779.67
587.408	8849.05
587.768	9054.69
588.127	9214.24
588.487	9293.1
588.846	9509.82
589.206	9633.43
589.565	9808.8
589.925	9984.84
590.284	10170.14
590.643	10345.05
591.003	10506.86
591.362	10758.83
591.721	10932.61
592.08	11086.5
592.44	11349.32
592.799	11541.63
593.158	11694.4
593.517	11912.02
593.876	12216.64
594.235	12395.62
594.593	12606.01
594.952	12893.91
595.311	13041.93
595.67	13249.61
596.029	13607.79
596.387	13867.67
596.746	14087.55
597.104	14307.43
597.463	14447.77
597.822	14818.38
598.18	14984.03
598.538	15275.09
598.897	15586.72
599.255	15718.47
599.613	16220.83
599.972	16394.16
600.33	16614.27
600.688	16833.92
601.046	17095.38
601.404	17463.74
601.762	17615.82
602.12	17935.81
602.478	18206.09
602.836	18530.15
603.194	18618.51
603.552	18808.33
603.91	19179.17
604.268	19469.11
604.625	19718.59
604.983	19991.13
605.341	20103.89
605.698	20477.44
606.056	20686.7
606.413	20951.78
606.771	21214.6
607.128	21435.16
607.485	21491.88
607.843	21726.45
608.2	22029.49
608.557	22375.02
608.914	22522.36
609.272	22809.81
609.629	22984.49
609.986	23329.12
610.343	23413.64
610.7	23698.6
611.057	23875.54
611.414	23900.4
611.771	24169.1
612.127	24495.42
612.484	24583.1
612.841	24858.57
613.198	24990.54
613.554	25029.64
613.911	25477.54
614.267	25457.65
614.624	25615.39
614.98	25724.31
615.337	25942.61
615.693	26076.62
616.05	26288.81
616.406	26528.36
616.762	26492.2
617.118	26633.44
617.475	26905.97
617.831	27108.68
618.187	27087.89
618.543	27279.97
618.899	27538.05
619.255	27540.76
619.611	27619.85
619.967	27907.98
620.323	28012.84
620.678	28008.32
621.034	28012.38
621.39	28089.9
621.746	28237.46
622.101	28586.38
622.457	28439.27
622.812	28497.57
623.168	28797.68
623.523	28708.86
623.879	28954.06
624.234	28789.09
624.589	29049.65
624.945	29126.48
625.3	29186.14
625.655	29194.95
626.01	29316.31
626.365	29388.62
626.72	29422.74
627.075	29572.8
627.43	29543.87
627.785	29575.73
628.14	29581.61
628.495	29737.99
628.85	29695.73
629.205	29699.57
629.559	30002.16
629.914	29788.38
630.269	29874.71
630.623	29905.22
630.978	29853.69
631.332	30110.41
631.687	30154.93
632.041	30083.97
632.396	30112.89
632.75	30105.44
633.104	30147.02
633.459	30111.76
633.813	30072.22
634.167	30060.01
634.521	30139.56
634.875	30183.18
635.229	30231.08
635.583	30034.48
635.937	30193.57
636.291	30222.95
636.645	30307.47
636.999	30118.77
637.352	30253.23
637.706	30093.91
638.06	30269.5
638.413	30155.61
638.767	30085.55
639.121	30320.12
639.474	30098.66
639.828	30157.87
640.181	30327.35
640.534	30310.18
640.888	30251.42
641.241	30143.85
641.594	30189.95
641.947	30354.47
642.301	30145.21
642.654	30294.81
643.007	30325.54
643.36	30297.52
643.713	30211.42
644.066	30371.42
644.419	30180.69
644.771	29903.86
645.124	29639.69
645.477	29614.15
645.83	29450.54
646.182	29488.28
646.535	29398.56
646.888	29595.39
647.24	29466.13
647.593	29663.19
647.945	29419.58
648.298	29467.94
648.65	29390.2
649.002	29507.71
649.355	29526.7
649.707	29383.87
650.059	29594.94
650.411	29886.91
650.763	30060.92
651.115	30376.39
651.467	30157.41
651.819	30288.03
652.171	30204.87
652.523	30253.23
652.875	30075.83
653.227	30019.11
653.578	30342.49
653.93	30265.66
654.282	30036.51
654.633	30005.1
654.985	30084.87
655.337	30165.55
655.688	30194.25
656.039	30145.89
656.391	29899.11
656.742	30024.76
657.094	30080.81
657.445	30082.61
657.796	30055.95
658.147	30057.75
658.498	29952.45
658.849	30055.5
659.2	29951.77
659.551	29976.18
659.902	29898.44
660.253	30124.19
660.604	30024.08
660.955	29943.41
661.306	30063.4
661.656	29973.69
662.007	30044.42
662.358	30020.47
662.708	29980.47
663.059	30018.21
663.409	29794.03
663.76	30095.27
664.11	30162.38
664.461	30123.74
664.811	30155.38
665.161	30053.69
665.511	29947.93
665.862	30110.63
666.212	30165.77
666.562	30218.2
666.912	30134.36
667.262	29977.53
667.612	30062.5
667.962	30118.54
668.312	30028.38
668.662	30228.37
669.011	30088.26
669.361	30091.43
669.711	30112.22
670.06	30002.16
670.41	29983.63
670.76	29977.31
671.109	30128.71
671.459	30005.78
671.808	29994.48
672.157	29975.27
672.507	29816.86
672.856	29838.78
673.205	29809.17
673.554	29943.41
673.904	29829.96
674.253	29965.1
674.602	29936.85
674.951	29490.76
675.3	29363.31
675.649	29927.59
675.998	29752
676.346	29842.62
676.695	29986.8
677.044	29624.09
677.393	29738.67
677.741	29852.34
678.09	29776.86
678.438	29646.69
678.787	29693.02
679.135	29705.22
679.484	29460.26
679.832	29516.98
680.181	29418.22
680.529	29592.91
680.877	29556.75
681.225	29471.1
681.573	29622.74
681.922	29402.86
682.27	29332.58
682.618	29434.27
682.966	29234.5
683.314	29399.47
683.661	29267.27
684.009	29143.2
684.357	29104.56
684.705	29055.75
685.053	29061.62
685.4	29060.94
685.748	28912.93
686.095	28932.13
686.443	28805.58
686.79	28771.69
687.138	28759.48
687.485	28804.68
687.832	28744.34
688.18	28756.32
688.527	28598.81
688.874	28638.13
689.221	28554.52
689.568	28307.52
689.915	28321.08
690.262	28404.92
690.609	28252.83
690.956	28172.15
691.303	28124.92
691.65	27953.4
691.997	28124.47
692.344	27933.97
692.69	27906.17
693.037	27902.11
693.383	27637.93
693.73	27742.11
694.077	27639.74
694.423	27586.63
694.769	27581.44
695.116	27492.85
695.462	27447.88
695.808	27349.13
696.155	27388.22
696.501	27119.08
696.847	27178.06
697.193	27025.74
697.539	27050.15
697.885	26907.56
698.231	26814
698.577	26991.39
698.923	26822.36
699.269	26581.91
699.614	26657.39
699.96	26422.82
700.306	26421.01
700.651	26390.05
700.997	26354.35
701.342	26227.35
701.688	26263.28
702.033	26215.82
702.379	26108.71
702.724	26069.61
703.069	25998.65
703.415	25777.64
703.76	25969.95
704.105	25945.09
704.45	25707.81
704.795	25620.81
705.14	25673.92
705.485	25453.81
705.83	25533.35
706.175	25590.98
706.52	25370.65
706.865	25337.2
707.209	25394.37
707.554	25283.64
707.899	25297.65
708.243	25151.9
708.588	25124.33
708.932	24976.98
709.277	24935.4
709.621	25009.53
709.966	24768.63
710.31	24724.79
710.654	24669.65
710.998	24677.33
711.342	24807.05
711.687	24645.24
712.031	24621.29
712.375	24542.19
712.719	24510.78
713.063	24383.33
713.407	24468.07
713.75	24384.01
714.094	24428.52
714.438	24254.07
714.782	24347.17
715.125	24160.73
715.469	24142.66
715.812	24035.09
716.156	23998.93
716.499	24028.31
716.843	23899.27
717.186	23767.3
717.53	23926.39
717.873	23933.17
718.216	23821.99
718.559	23745.6
718.902	23561.2
719.246	23664.25
719.589	23544.03
719.932	23467.19
720.275	23518.04
720.617	23457.93
720.96	23379.06
721.303	23468.78
721.646	23494.76
721.989	23312.85
722.331	23422.68
722.674	23343.58
723.016	23322.79
723.359	23299.29
723.701	23261.1
724.044	23199.63
724.386	22982.46
724.729	23292.51
725.071	22986.53
725.413	23015.23
725.755	23069.92
726.097	22924.38
726.439	22870.15
726.782	22899.07
727.124	22970.94
727.465	22681.68
727.807	22836.48
728.149	22839.64
728.491	22826.31
728.833	22718.29
729.175	22647.55
729.516	22620.44
729.858	22594.45
730.199	22652.98
730.541	22568.23
730.882	22556.94
731.224	22610.95
731.565	22439.2
731.906	22398.75
732.248	22566.65
732.589	22322.14
732.93	22261.58
733.271	22281.01
733.612	22407.56
733.953	22303.38
734.294	22313.33
734.635	22181.35
734.976	22282.14
735.317	22173.44
735.658	22219.09
735.999	22218.86
736.339	22053.22
736.68	22095.03
737.021	21918.53
737.361	21980.68
737.702	22060.23
738.042	22009.83
738.383	21918.76
738.723	22010.06
739.063	21910.85
739.404	21910.62
739.744	21790.85
740.084	21808.03
740.424	21815.94
740.764	21732.1
741.104	21850.06
741.444	21646
741.784	21587.24
742.124	21625.66
742.464	21591.99
742.804	21645.55
743.143	21551.99
743.483	21559.9
743.823	21361.49
744.162	21448.49
744.502	21520.8
744.841	21404.65
745.181	21577.98
745.52	21349.74
745.86	21349.28
746.199	21449.17
746.538	21315.39
746.877	21368.72
747.216	21384.54
747.556	21230.64
747.895	21282.62
748.234	21260.7
748.573	21081.27
748.911	21051.44
749.25	21076.97
749.589	21090.53
749.928	21046.24
750.267	21058.22
750.605	21026.13
750.944	21004.43
751.283	20832.46
751.621	20988.16
751.96	20848.28
752.298	20801.28
752.636	20840.14
752.975	20742.52
753.313	20554.95
753.651	20705.23
753.989	20637.44
754.327	20542.52
754.666	20513.15
755.004	20492.58
755.342	20464.56
755.679	20446.71
756.017	20359.25
756.355	20396.77
756.693	20291.91
757.031	20358.8
757.368	20181.18
757.706	20290.1
758.044	20183.44
758.381	20179.37
758.719	20061.41
759.056	20034.06
759.394	19980.51
759.731	19935.54
760.068	19892.37
760.405	19759.27
760.743	19741.19
761.08	19891.02
761.417	19773.96
761.754	19655.09
762.091	19647.63
762.428	19628.42
762.765	19466.17
763.102	19507.98
763.438	19418.94
763.775	19351.6
764.112	19331.48
764.449	19432.95
764.785	19203.35
765.122	19166.74
765.458	19046.97
765.795	19104.82
766.131	19057.37
766.467	18978.95
766.804	18853.08
767.14	18830.25
767.476	18824.83
767.812	18691.05
768.148	18612.18
768.485	18560.66
768.821	18474.1
769.157	18430.26
769.492	18365.63
769.828	18384.39
770.164	18244.28
770.5	18242.02
770.836	18167.22
771.171	18136.03
771.507	18012.2
771.842	17888.13
772.178	17999.77
772.513	17902.37
772.849	17817.62
773.184	17754.8
773.519	17727.23
773.855	17652.88
774.19	17626.44
774.525	17553.9
774.86	17549.61
775.195	17508.25
775.53	17426.45
775.865	17302.16
776.2	17216.51
776.535	17123.63
776.87	17122.73
777.205	16926.12
777.539	16977.19
777.874	17012.9
778.209	16921.6
778.543	16907.59
778.878	16734.04
779.212	16787.82
779.547	16581.27
779.881	16637.99
780.215	16594.15
780.55	16689.52
780.884	16515.29
781.218	16458.34
781.552	16387.15
781.886	16237.33
782.22	16173.6
782.554	16083.66
782.888	16101.51
783.222	16089.08
783.556	15895.19
783.889	15901.29
784.223	15735.87
784.557	15783.1
784.89	15752.14
785.224	15674.4
785.557	15603.45
785.891	15627.4
786.224	15571.36
786.558	15511.24
786.891	15367.52
787.224	15373.17
787.557	15381.3
787.891	15250.69
788.224	15239.84
788.557	15171.14
788.89	15141.54
789.223	15040.3
789.556	15005.95
789.888	15022.9
790.221	14909
790.554	14887.08
790.887	14902
791.219	14792.17
791.552	14728.21
791.884	14648.89
792.217	14594.21
792.549	14539.97
792.882	14389.24
793.214	14498.84
793.546	14410.71
793.879	14360.09
794.211	14290.03
794.543	14289.81
794.875	14268.57
795.207	14304.72
795.539	14174.33
795.871	14239.41
796.203	13967.1
796.535	13978.4
796.867	14005.07
797.198	13921
797.53	13808.46
797.862	13814.57
798.193	13828.35
798.525	13726.21
798.856	13729.37
799.188	13587.68
799.519	13592.65
799.85	13572.54
800.182	13505.65
800.513	13536.16
800.844	13420
801.175	13495.7
801.506	13433.56
801.837	13347.46
802.168	13377.29
802.499	13317.18
802.83	13248.48
803.161	13186.56
803.491	13123.51
803.822	13165.77
804.153	13111.08
804.483	12971.2
804.814	13035.38
805.145	12946.11
805.475	12990.18
805.805	12931.43
806.136	12949.73
806.466	12853.01
806.796	12858.43
807.126	12726.69
807.457	12704.31
807.787	12629.06
808.117	12646.91
808.447	12538.67
808.777	12605.11
809.107	12586.35
809.436	12564.88
809.766	12533.47
810.096	12523.3
810.426	12468.16
810.755	12443.08
811.085	12388.61
811.414	12411.21
811.744	12303.65
812.073	12267.26
812.403	12258.9
812.732	12206.92
813.061	12232.69
813.39	12077.21
813.719	12045.8
814.049	12132.58
814.378	12063.88
814.707	12010.77
815.036	12044.9
815.365	12002.41
815.693	11843.32
816.022	11840.83
816.351	11825.47
816.68	11784.34
817.008	11865.01
817.337	11740.72
817.665	11657.33
817.994	11709.31
818.322	11765.35
818.651	11671.8
818.979	11573.04
819.307	11592.48
819.636	11650.56
819.964	11547.96
820.292	11564.46
820.62	11478.81
820.948	11531.01
821.276	11507.06
821.604	11518.81
821.932	11562.2
822.259	11586.83
822.587	11579.14
822.915	11460.05
823.243	11480.84
823.57	11417.57
823.898	11470.9
824.225	11464.57
824.553	11374.18
824.88	11489.66
825.207	11454.18
825.535	11527.85
825.862	11511.35
826.189	11401.75
826.516	11498.92
826.843	11510.45
827.17	11452.37
827.497	11486.94
827.824	11449.88
828.151	11489.43
828.478	11472.48
828.805	11518.81
829.131	11423.22
829.458	11419.83
829.785	11391.8
830.111	11360.85
830.438	11498.47
830.764	11465.93
831.09	11455.76
831.417	11391.58
831.743	11417.34
832.069	11408.98
832.395	11382.99
832.722	11403.78
833.048	11497.34
833.374	11442.2
833.7	11300.73
834.026	11399.71
834.351	11325.14
834.677	11411.24
835.003	11333.28
835.329	11321.98
835.654	11317.91
835.98	11305.48
836.306	11324.91
836.631	11208.31
836.956	11339.6
837.282	11307.06
837.607	11245.59
837.932	11182.77
838.258	11140.74
838.583	11165.37
838.908	11181.19
839.233	11197.46
839.558	11122.66
839.883	11084.69
840.208	11060.97
840.533	11080.63
840.858	11058.48
841.182	11080.63
841.507	11013.28
841.832	11042.44
842.156	10951.82
842.481	10976.67
842.805	10865.27
843.13	10853.06
843.454	10825.49
843.778	10740.97
844.103	10879.28
844.427	10801.99
844.751	10825.49
845.075	10772.39
845.399	10697.36
845.723	10707.53
846.047	10639.73
846.371	10547.53
846.695	10548.89
847.019	10380.31
847.343	10406.75
847.666	10428.44
847.99	10351.61
848.313	10348.67
848.637	10338.95
848.96	10246.52
849.284	10236.81
849.607	10148.22
849.931	10172.18
850.254	10079.3
850.577	10067.55
850.9	9995.91
851.223	9951.16
851.546	9922.69
851.869	9858.06
852.192	9864.16
852.515	9799.53
852.838	9812.41
853.161	9760.66
853.483	9779.19
853.806	9761.79
854.129	9645.18
854.451	9675.69
854.774	9594.34
855.096	9550.95
855.419	9513.44
855.741	9504.62
856.063	9469.6
856.385	9454.23
856.708	9479.76
857.03	9442.03
857.352	9454.23
857.674	9396.38
857.996	9380.33
858.318	9281.58
858.64	9261.69
858.961	9234.8
859.283	9192.09
859.605	9120.23
859.926	9268.25
860.248	9148.47
860.57	9094.69
860.891	9182.37
861.212	9085.42
861.534	9043.62
861.855	9012.66
862.176	9075.48
862.498	9070.74
862.819	8986.9
863.14	8959.55
863.461	8954.58
863.782	8904.86
864.103	8988.93
864.424	8867.8
864.745	8893.34
865.065	8886.56
865.386	8858.31
865.707	8875.94
866.027	8825.77
866.348	8817.18
866.668	8770.18
866.989	8824.87
867.309	8668.71
867.63	8758.65
867.95	8771.53
868.27	8678.66
868.59	8726.79
868.91	8671.42
869.23	8706.45
869.55	8630.97
869.87	8630.52
870.19	8625.32
870.51	8601.14
870.83	8609.96
871.15	8614.7
871.469	8595.72
871.789	8616.74
872.109	8590.52
872.428	8517.53
872.748	8540.81
873.067	8538.09
873.386	8557.3
873.706	8528.83
874.025	8492.22
874.344	8459.45
874.663	8513.24
874.982	8443.86
875.301	8405.44
875.62	8355.95
875.939	8399.34
876.258	8386.23
876.577	8407.25
876.896	8371.77
877.214	8345.56
877.533	8354.37
877.852	8304.88
878.17	8260.59
878.489	8284.77
878.807	8324.54
879.125	8271.89
879.444	8249.06
879.762	8281.6
880.08	8277.54
880.398	8191.66
880.716	8226.24
881.034	8198.22
881.352	8186.47
881.67	8150.31
881.988	8168.61
882.306	8090.65
882.624	8108.95
882.941	8123.64
883.259	8068.5
883.577	8010.2
883.894	8011.33
884.212	8094.04
884.529	7994.61
884.846	7954.38
885.164	7961.16
885.481	7912.35
885.798	7938.34
886.115	7879.35
886.432	7895.17
886.75	7817.89
887.067	7864.67
887.383	7812.46
887.7	7791.9
888.017	7822.63
888.334	7790.09
888.651	7724.78
888.967	7720.49
889.284	7711.22
889.6	7675.29
889.917	7671.68
890.233	7681.39
890.55	7585.35
890.866	7567.72
891.182	7560.95
891.498	7517.56
891.815	7471.68
892.131	7461.29
892.447	7418.8
892.763	7506.26
893.079	7483.43
893.395	7403.89
893.71	7428.52
894.026	7335.87
894.342	7390.78
894.657	7331.8
894.973	7275.53
895.289	7266.72
895.604	7286.6
895.92	7239.82
896.235	7242.76
896.55	7192.14
896.865	7224.91
897.181	7102.43
897.496	7095.19
897.811	7142.2
898.126	7079.6
898.441	7035.99
898.756	7086.38
899.071	7070.56
899.386	7043.9
899.7	6958.48
900.015	6873.73
900.33	6812.26
900.644	6860.17
900.959	6887.06
901.273	6847.07
901.588	6793.73
901.902	6771.81
902.216	6754.19
902.531	6734.53
902.845	6739.95
903.159	6668.09
903.473	6665.83
903.787	6629.22
904.101	6613.17
904.415	6586.51
904.729	6601.2
905.042	6527.3
905.356	6558.26
905.67	6534.98
905.984	6471.48
906.297	6480.75
906.611	6463.8
906.924	6375.44
907.237	6437.81
907.551	6445.95
907.864	6346.51
908.177	6317.81
908.491	6345.38
908.804	6301.54
909.117	6258.83
909.43	6242.79
909.743	6207.31
910.056	6184.26
910.368	6153.75
910.681	6145.62
910.994	6088.44
911.307	6072.62
911.619	6031.27
911.932	6018.16
912.244	5977.26
912.557	5994.43
912.869	5948.78
913.181	5937.03
913.494	5988.11
913.806	5845.74
914.118	5892.06
914.43	5841.67
914.742	5864.49
915.054	5806.87
915.366	5778.39
915.678	5735.46
915.99	5704.27
916.302	5704.04
916.613	5679.41
916.925	5683.25
917.236	5617.72
917.548	5612.52
917.859	5596.48
918.171	5585.4
918.482	5575.23
918.794	5564.16
919.105	5513.32
919.416	5489.14
919.727	5431.28
920.038	5417.95
920.349	5433.77
920.66	5430.61
920.971	5411.4
921.282	5419.31
921.593	5298.86
921.903	5248.69
922.214	5277.84
922.525	5269.48
922.835	5215.47
923.146	5192.65
923.456	5202.82
923.767	5227
924.077	5162.14
924.387	5143.16
924.697	5108.81
925.008	5091.86
925.318	5053.44
925.628	5039.43
925.938	4990.17
926.248	4999.66
926.558	4990.39
926.867	4998.98
927.177	4928.25
927.487	4898.42
927.796	4873.11
928.106	4873.78
928.416	4820.68
928.725	4825.88
929.034	4829.49
929.344	4829.04
929.653	4846.89
929.962	4806.22
930.271	4710.4
930.581	4723.05
930.89	4641.7
931.199	4723.73
931.508	4678.31
931.817	4640.8
932.125	4631.76
932.434	4613.23
932.743	4546.56
933.051	4568.71
933.36	4594.7
933.669	4525.54
933.977	4502.72
934.286	4491.65
934.594	4521.03
934.902	4442.84
935.21	4407.36
935.519	4421.14
935.827	4389.28
936.135	4371.42
936.443	4368.71
936.751	4365.1
937.059	4331.65
937.367	4309.28
937.674	4289.39
937.982	4300.01
938.29	4296.62
938.597	4252.33
938.905	4239
939.213	4191.32
939.52	4156.74
939.827	4173.01
940.135	4154.71
940.442	4100.25
940.749	4086.01
941.056	4119.45
941.363	4044.88
941.67	4069.06
941.977	4008.04
942.284	4004.2
942.591	3990.42
942.898	3949.74
943.205	4024.09
943.511	3905.45
943.818	3924.2
944.125	3927.59
944.431	3920.36
944.738	3911.1
945.044	3896.63
945.35	3876.75
945.657	3810.76
945.963	3801.27
946.269	3824.09
946.575	3780.93
946.881	3774.15
947.187	3780.03
947.493	3766.24
947.799	3775.51
948.105	3733.7
948.41	3671.78
948.716	3711.55
949.022	3688.28
949.327	3678.34
949.633	3642.18
949.938	3624.55
950.244	3601.5
950.549	3552.46
950.854	3550.66
951.16	3585.23
951.465	3512.92
951.77	3552.46
952.075	3538
952.38	3475.4
952.685	3501.17
952.99	3447.16
953.294	3431.11
953.599	3416.65
953.904	3429.53
954.209	3378.46
954.513	3424.33
954.818	3403.77
955.122	3403.54
955.426	3357.21
955.731	3325.58
956.035	3333.26
956.339	3305.69
956.643	3313.6
956.948	3288.29
957.252	3232.92
957.556	3272.7
957.86	3238.57
958.163	3202.19
958.467	3200.16
958.771	3210.33
959.075	3155.41
959.378	3175.07
959.682	3156.32
959.985	3126.49
960.289	3159.03
960.592	3127.84
960.896	3109.08
961.199	3113.83
961.502	3045.58
961.805	3080.61
962.108	3041.74
962.411	3015.3
962.714	3030.44
963.017	3020.27
963.32	3018.69
963.623	2997
963.926	2975.53
964.228	2944.57
964.531	2957.9
964.833	2949.77
965.136	2933.27
965.438	2935.53
965.741	2888.53
966.043	2884.01
966.345	2888.53
966.648	2892.37
966.95	2867.28
967.252	2826.38
967.554	2818.47
967.856	2850.33
968.158	2800.62
968.46	2773.95
968.761	2764.69
969.063	2771.24
969.365	2757.23
969.666	2730.79
969.968	2723.11
970.269	2727.85
970.571	2684.92
970.872	2702.09
971.174	2681.53
971.475	2693.05
971.776	2614.41
972.077	2612.83
972.378	2622.32
972.679	2624.35
972.98	2629.78
973.281	2597.01
973.582	2575.09
973.883	2612.37
974.183	2583.9
974.484	2523.34
974.785	2527.18
975.085	2542.32
975.386	2550
975.686	2481.98
975.986	2501.87
976.287	2528.08
976.587	2493.06
976.887	2489.67
977.187	2476.33
977.487	2481.3
977.787	2417.58
978.087	2428.2
978.387	2424.13
978.687	2414.64
978.987	2408.54
979.286	2404.7
979.586	2370.12
979.885	2357.69
980.185	2336
980.484	2372.83
980.784	2328.77
981.083	2341.65
981.382	2347.97
981.682	2326.51
981.981	2316.11
982.28	2280.41
982.579	2281.08
982.878	2305.04
983.177	2246.28
983.475	2261.42
983.774	2212.84
984.073	2210.8
984.372	2206.51
984.67	2223.23
984.969	2220.52
985.267	2194.76
985.566	2200.63
985.864	2164.25
986.162	2161.31
986.461	2153.18
986.759	2166.51
987.057	2144.82
987.355	2122.22
987.653	2110.24
987.951	2111.82
988.249	2086.51
988.547	2112.05
988.844	2091.71
989.142	2069.11
989.44	2075.44
989.737	2098.94
990.035	2045.61
990.332	2027.31
990.63	2023.46
990.927	2013.07
991.224	1982.11
991.521	1988.66
991.819	1995.22
992.116	2011.49
992.413	2008.55
992.71	1931.49
993.006	1971.71
993.303	1941.88
993.6	1923.13
993.897	1945.27
994.193	1904.6
994.49	1910.7
994.787	1892.62
995.083	1895.78
995.379	1900.98
995.676	1875.67
995.972	1873.64
996.268	1850.59
996.565	1839.29
996.861	1867.54
997.157	1830.7
997.453	1829.34
997.749	1816.69
998.044	1836.58
998.34	1799.74
998.636	1777.37
998.932	1800.42
999.227	1762.45
999.523	1770.59
999.818	1740.08
1000.114	1764.49
1000.409	1731.95
1000.704	1723.36
1001	1731.95
1001.295	1715.68
1001.59	1680.42
1001.885	1702.12
1002.18	1681.78
1002.475	1680.2
1002.77	1658.28
1003.065	1655.56
1003.359	1645.17
1003.654	1651.27
1003.949	1626.86
1004.243	1644.26
1004.538	1636.36
1004.832	1621.21
1005.127	1600.65
1005.421	1608.33
1005.715	1582.8
1006.009	1592.51
1006.304	1554.32
1006.598	1556.58
1006.892	1565.62
1007.186	1527.88
1007.48	1525.17
1007.773	1520.2
1008.067	1507.55
1008.361	1513.42
1008.655	1500.77
1008.948	1510.48
1009.242	1485.85
1009.535	1498.51
1009.829	1473.42
1010.122	1447.21
1010.415	1449.47
1010.708	1449.69
1011.001	1465.51
1011.295	1427.77
1011.588	1443.59
1011.881	1439.3
1012.173	1415.34
1012.466	1406.3
1012.759	1390.71
1013.052	1404.95
1013.344	1371.73
1013.637	1369.47
1013.93	1367.21
1014.222	1365.4
1014.514	1370.6
1014.807	1362.46
1015.099	1321.34
1015.391	1307.55
1015.683	1333.99
1015.976	1336.25
1016.268	1297.38
1016.56	1303.48
1016.851	1266.87
1017.143	1308
1017.435	1272.3
1017.727	1271.62
1018.018	1273.2
1018.31	1241.79
1018.602	1243.37
1018.893	1262.81
1019.185	1195.91
1019.476	1216.48
1019.767	1255.12
1020.058	1178.06
1020.35	1182.81
1020.641	1185.29
1020.932	1175.58
1021.223	1162.02
1021.514	1160.21
1021.804	1159.31
1022.095	1169.02
1022.386	1139.65
1022.677	1153.43
1022.967	1114.11
1023.258	1123.15
1023.548	1134.9
1023.839	1122.02
1024.129	1131.74
1024.419	1094
1024.709	1079.76
1025	1087.44
1025.29	1083.6
1025.58	1054
1025.87	1068.91
1026.16	1044.73
1026.449	1058.52
1026.739	1039.08
1027.029	1041.34
1027.319	1028.69
1027.608	1051.96
1027.898	1011.06
1028.187	1019.42
1028.477	1015.13
1028.766	1007.9
1029.055	987.33
1029.344	997.5
1029.634	988.46
1029.923	962.02
1030.212	999.76
1030.501	987.33
1030.79	950.95
1031.078	962.25
1031.367	954.79
1031.656	946.2
1031.945	934
1032.233	925.41
1032.522	932.19
1032.81	925.41
1033.099	924.06
1033.387	889.48
1033.675	901.91
1033.963	891.29
1034.251	885.19
1034.54	909.82
1034.828	876.38
1035.116	892.42
1035.403	847.22
1035.691	868.01
1035.979	854.45
1036.267	873.89
1036.554	850.39
1036.842	852.87
1037.129	829.37
1037.417	825.98
1037.704	848.13
1037.992	825.3
1038.279	839.31
1038.566	815.13
1038.853	815.13
1039.14	815.13
