Data from red_shiny_book_FLMS001491_00086.txt Node
Date: Wed Feb 08 15:25:29 GMT 2017
User: dcchb
Spectrometer: FLMS00149
Trigger mode: 0
Integration Time (sec): 2.000000E-2
Scans to average: 10
Electric dark correction enabled: true
Nonlinearity correction enabled: false
Boxcar width: 0
XAxis mode: Wavelengths
Number of Pixels in Spectrum: 2048
>>>>>Begin Spectral Data<<<<<
341.393	-13.15
341.776	-13.15
342.16	-13.15
342.543	-83.43
342.927	-68.29
343.31	-57.67
343.693	-73.26
344.077	-73.26
344.46	-82.3
344.843	-54.05
345.226	-39.14
345.61	-34.39
345.993	-17.44
346.376	-2.53
346.759	15.32
347.142	30.01
347.525	27.75
347.908	73.85
348.291	84.25
348.674	93.06
349.057	109.79
349.44	132.61
349.823	159.05
350.206	172.61
350.588	197.92
350.971	209.22
351.354	223.91
351.737	244.92
352.119	233.62
352.502	266.84
352.884	277.92
353.267	296
353.65	296.9
354.032	293.06
354.414	303
354.797	301.19
355.179	308.42
355.562	312.94
355.944	344.13
356.326	346.62
356.709	330.12
357.091	344.36
357.473	353.39
357.855	362.21
358.238	346.39
358.62	335.09
359.002	339.38
359.384	354.98
359.766	372.38
360.148	345.03
360.53	350.91
360.912	347.75
361.294	348.65
361.676	330.12
362.057	338.93
362.439	323.11
362.821	305.49
363.203	341.64
363.584	336.9
363.966	324.69
364.348	310.23
364.729	350.68
365.111	326.5
365.493	323.11
365.874	330.12
366.256	323.34
366.637	308.65
367.019	322.66
367.4	324.02
367.781	333.28
368.163	329.89
368.544	339.84
368.925	341.42
369.306	321.31
369.688	316.56
370.069	303.45
370.45	328.08
370.831	315.88
371.212	324.92
371.593	313.4
371.974	333.06
372.355	331.7
372.736	311.36
373.117	329.89
373.498	310.23
373.879	338.48
374.26	333.96
374.641	318.37
375.021	317.92
375.402	312.72
375.783	323.56
376.163	341.19
376.544	362.66
376.925	317.92
377.305	329.21
377.686	325.15
378.066	347.97
378.447	343.23
378.827	348.65
379.208	346.16
379.588	356.11
379.968	339.84
380.349	353.62
380.729	368.54
381.109	346.62
381.489	331.93
381.87	357.01
382.25	336.45
382.63	349.55
383.01	341.87
383.39	344.36
383.77	347.75
384.15	357.01
384.53	356.56
384.91	351.59
385.29	360.63
385.67	350.68
386.049	357.24
386.429	366.5
386.809	362.66
387.189	354.98
387.568	373.51
387.948	360.17
388.328	372.38
388.707	366.95
389.087	371.47
389.466	363.11
389.846	364.02
390.225	367.86
390.605	368.76
390.984	386.61
391.363	374.19
391.743	380.51
392.122	372.15
392.501	387.29
392.881	395.2
393.26	386.84
393.639	395.65
394.018	383
394.397	401.75
394.776	385.26
395.155	374.19
395.534	406.05
395.913	398.14
396.292	380.51
396.671	385.94
397.05	403.11
397.429	395.2
397.808	380.51
398.186	416.67
398.565	398.37
398.944	390.46
399.323	388.42
399.701	402.88
400.08	393.39
400.458	424.13
400.837	423.68
401.215	413.96
401.594	414.86
401.972	419.38
402.351	411.92
402.729	424.58
403.107	409.21
403.486	429.78
403.864	429.32
404.242	414.86
404.62	422.32
404.999	430.23
405.377	417.8
405.755	420.74
406.133	432.71
406.511	423.22
406.889	461.19
407.267	454.86
407.645	445.14
408.023	448.99
408.401	449.66
408.779	447.18
409.156	433.17
409.534	461.87
409.912	466.39
410.29	447.86
410.667	474.07
411.045	480.85
411.422	486.72
411.8	464.13
412.178	500.74
412.555	469.55
412.933	500.74
413.31	497.35
413.687	493.05
414.065	507.97
414.442	511.13
414.819	526.72
415.197	508.87
415.574	522.66
415.951	499.83
416.328	514.52
416.705	492.6
417.082	537.34
417.46	516.78
417.837	535.31
418.214	537.8
418.591	557.23
418.967	549.77
419.344	566.04
419.721	559.26
420.098	551.58
420.475	548.87
420.852	551.13
421.228	561.52
421.605	575.31
421.982	556.1
422.358	597.23
422.735	590.22
423.111	587.96
423.488	592.71
423.864	574.86
424.241	590.22
424.617	588.87
424.994	595.65
425.37	576.89
425.746	592.26
426.123	582.09
426.499	597.68
426.875	627.29
427.251	627.96
427.627	635.42
428.003	638.13
428.379	621.64
428.756	629.77
429.132	639.71
429.507	637.91
429.883	611.47
430.259	641.97
430.635	655.53
431.011	659.15
431.387	661.64
431.763	689.88
432.138	672.71
432.514	675.42
432.89	705.02
433.265	670.9
433.641	696.44
434.016	687.85
434.392	657.34
434.767	719.71
435.143	718.13
435.518	705.93
435.894	736.66
436.269	753.61
436.644	747.73
437.02	748.41
437.395	765.59
437.77	767.62
438.145	741.18
438.52	754.97
438.895	738.24
439.271	749.32
439.646	776.89
440.021	776.21
440.395	794.74
440.77	792.25
441.145	795.42
441.52	817.79
441.895	791.8
442.27	808.75
442.645	789.32
443.019	787.73
443.394	764.01
443.769	794.96
444.143	805.36
444.518	800.39
444.892	819.37
445.267	834.06
445.641	865.92
446.016	852.59
446.39	855.3
446.764	858.69
447.139	845.36
447.513	824.57
447.887	817.56
448.262	805.59
448.636	819.37
449.01	871.12
449.384	858.69
449.758	871.12
450.132	886.94
450.506	885.81
450.88	910.89
451.254	906.83
451.628	914.51
452.002	905.7
452.376	883.32
452.75	873.16
453.123	879.26
453.497	862.76
453.871	868.86
454.244	893.95
454.618	933.04
454.992	974.62
455.365	941.63
455.739	981.85
456.112	1001.29
456.486	952.93
456.859	961.29
457.232	955.86
457.606	949.09
457.979	931.01
458.352	942.98
458.725	954.73
459.099	952.02
459.472	982.3
459.845	1017.78
460.218	1018.24
460.591	1027.5
460.964	1058.01
461.337	1075.18
461.71	1052.59
462.083	1029.54
462.456	1050.78
462.829	1022.76
463.201	1021.17
463.574	1017.78
463.947	1021.63
464.32	1029.31
464.692	1045.13
465.065	1059.82
465.438	1073.83
465.81	1113.6
466.183	1113.37
466.555	1166.03
466.928	1159.25
467.3	1139.36
467.672	1117.44
468.045	1116.31
468.417	1114.5
468.789	1099.36
469.161	1101.62
469.534	1127.84
469.906	1136.65
470.278	1200.6
470.65	1163.09
471.022	1244.9
471.394	1289.87
471.766	1309.98
472.138	1300.71
472.51	1300.49
472.882	1318.79
473.253	1291.22
473.625	1288.06
473.997	1282.64
474.369	1260.49
474.74	1281.51
475.112	1291
475.484	1366.7
475.855	1361.28
476.227	1421.62
476.598	1462.74
476.97	1457.77
477.341	1498.68
477.713	1509.52
478.084	1527.6
478.455	1544.1
478.827	1535.51
479.198	1555.17
479.569	1473.37
479.94	1521.05
480.311	1505.45
480.682	1525.79
481.053	1593.14
481.424	1627.71
481.795	1655.51
482.166	1705.9
482.537	1772.34
482.908	1801.94
483.279	1822.28
483.65	1864.99
484.021	1886.91
484.391	1839.23
484.762	1819.12
485.133	1799.23
485.503	1785.22
485.874	1823.64
486.244	1847.14
486.615	1879.68
486.985	1895.5
487.356	1972.11
487.726	2064.08
488.097	2097.3
488.467	2160.13
488.837	2230.18
489.207	2222.27
489.578	2237.64
489.948	2264.98
490.318	2243.51
490.688	2211.65
491.058	2176.85
491.428	2174.36
491.798	2170.97
492.168	2224.31
492.538	2204.65
492.908	2284.64
493.278	2374.36
493.648	2389.95
494.017	2469.72
494.387	2519.44
494.757	2565.54
495.126	2561.02
495.496	2596.5
495.866	2589.04
496.235	2597.4
496.605	2559.21
496.974	2516.95
497.344	2468.14
497.713	2455.03
498.082	2448.48
498.452	2505.43
498.821	2541.36
499.19	2574.58
499.559	2652.77
499.928	2683.5
500.298	2766.21
500.667	2829.94
501.036	2854.12
501.405	2872.42
501.774	2852.54
502.143	2874.46
502.512	2820.9
502.88	2751.98
503.249	2727.8
503.618	2683.73
503.987	2631.07
504.356	2654.35
504.724	2671.53
505.093	2708.59
505.462	2716.04
505.83	2818.41
506.199	2915.14
506.567	2991.07
506.936	2968.24
507.304	3038.3
507.672	3121.91
508.041	3046.21
508.409	3032.42
508.777	3013.44
509.145	2954.91
509.514	2878.75
509.882	2859.32
510.25	2829.49
510.618	2820.9
510.986	2858.64
511.354	2855.48
511.722	2913.33
512.09	2967.11
512.458	3012.31
512.826	3079.88
513.193	3175.92
513.561	3175.47
513.929	3222.7
514.297	3284.62
514.664	3242.36
515.032	3217.5
515.4	3143.83
515.767	3087.33
516.135	3092.76
516.502	2961.91
516.869	3009.82
517.237	2951.07
517.604	2915.36
517.972	2998.52
518.339	3037.62
518.706	3100.22
519.073	3121.23
519.44	3226.54
519.808	3325.07
520.175	3391.28
520.542	3414.33
520.909	3422.69
521.276	3429.7
521.643	3388.12
522.009	3352.41
522.376	3328.23
522.743	3248.01
523.11	3210.27
523.477	3187.22
523.843	3101.57
524.21	3100.22
524.577	3115.36
524.943	3216.6
525.31	3256.37
525.676	3341.11
526.043	3478.06
526.409	3528.9
526.776	3665.62
527.142	3744.49
527.508	3737.49
527.874	3777.94
528.241	3750.82
528.607	3734.1
528.973	3659.75
529.339	3612.74
529.705	3581.56
530.071	3573.2
530.437	3496.36
530.803	3458.17
531.169	3479.64
531.535	3497.94
531.901	3517.38
532.267	3630.14
532.632	3703.14
532.998	3811.38
533.364	3986.29
533.73	4023.35
534.095	4138.61
534.461	4181.77
534.826	4253.63
535.192	4219.51
535.557	4219.51
535.923	4180.64
536.288	4107.65
536.653	4001.21
537.019	3920.31
537.384	3886.41
537.749	3844.83
538.114	3808.67
538.479	3859.74
538.845	3862.68
539.21	3908.33
539.575	4045.95
539.94	4136.12
540.305	4263.12
540.67	4291.14
541.034	4384.93
541.399	4551.02
541.764	4571.14
542.129	4667.18
542.494	4704.01
542.858	4643
543.223	4572.27
543.587	4526.39
543.952	4395.32
544.316	4358.26
544.681	4237.36
545.045	4244.14
545.41	4225.38
545.774	4223.35
546.138	4187.19
546.503	4254.54
546.867	4347.87
547.231	4454.53
547.595	4572.27
547.959	4697.46
548.324	4802.77
548.688	4849.55
549.052	4928.19
549.416	4973.16
549.779	4963.89
550.143	4957.57
550.507	4964.8
550.871	4865.14
551.235	4783.33
551.599	4705.6
551.962	4627.86
552.326	4520.52
552.689	4475.32
553.053	4395.77
553.417	4402.78
553.78	4422.21
554.143	4442.1
554.507	4542.66
554.87	4665.15
555.234	4806.61
555.597	4865.59
555.96	5014.06
556.323	5101.29
556.686	5159.6
557.05	5195.75
557.413	5292.7
557.776	5228.07
558.139	5272.36
558.502	5130.22
558.865	5072.82
559.228	4986.49
559.59	4896.55
559.953	4807.29
560.316	4703.11
560.679	4678.25
561.041	4623.11
561.404	4610.91
561.767	4680.06
562.129	4731.58
562.492	4877.57
562.854	4928.64
563.217	5057
563.579	5234.17
563.941	5340.61
564.304	5436.88
564.666	5540.15
565.028	5644.33
565.39	5626.48
565.753	5635.97
566.115	5609.75
566.477	5524.78
566.839	5445.24
567.201	5393.26
567.563	5295.41
567.925	5181.74
568.287	5110.56
568.648	5005.7
569.01	4986.95
569.372	4982.2
569.734	5035.98
570.095	5091.58
570.457	5202.31
570.819	5270.1
571.18	5431.45
571.542	5557.1
571.903	5652.24
572.265	5870.99
572.626	5969.74
572.987	6055.17
573.349	6134.49
573.71	6183.07
574.071	6134.94
574.432	6141.04
574.794	6156.86
575.155	6030.76
575.516	5909.86
575.877	5906.47
576.238	5873.7
576.599	5775.4
576.96	5816.53
577.32	5818.34
577.681	5845.91
578.042	5926.13
578.403	6048.39
578.763	6172.68
579.124	6420.35
579.485	6661.25
579.845	6922.26
580.206	7037.96
580.566	7299.88
580.927	7516.14
581.287	7819.19
581.648	8014.89
582.008	8213.98
582.368	8460.3
582.728	8550.47
583.089	8654.19
583.449	8755.43
583.809	8884.47
584.169	9051.47
584.529	9151.36
584.889	9331.46
585.249	9524.23
585.609	9725.13
585.969	10020.03
586.329	10275.62
586.688	10593.8
587.048	11004.41
587.408	11336.38
587.768	11824.28
588.127	12318.73
588.487	12807.53
588.846	13383.33
589.206	13787.62
589.565	14241.17
589.925	14768.16
590.284	15176.51
590.643	15660.34
591.003	16137.61
591.362	16535.79
591.721	16853.07
592.08	17060.98
592.44	17626.84
592.799	17844.23
593.158	18182.3
593.517	18498
593.876	18813.02
594.235	19151.54
594.593	19564.41
594.952	20000.11
595.311	20443.49
595.67	20888.45
596.029	21424.25
596.387	22057.91
596.746	22659.7
597.104	22950.54
597.463	23629.39
597.822	24268.02
598.18	24691.51
598.538	25280.42
598.897	25872.95
599.255	26147.97
599.613	26981.62
599.972	27170.99
600.33	27764.43
600.688	27868.38
601.046	28320.34
601.404	28724.17
601.762	28989.93
602.12	29420.2
602.478	29592.85
602.836	29867.65
603.194	29922.79
603.552	30292.49
603.91	30457.69
604.268	30902.87
604.625	31266.25
604.983	31697.88
605.341	31978.1
605.698	32533.34
606.056	33021.24
606.413	33455.12
606.771	34012.85
607.128	34419.84
607.485	34483.8
607.843	35052.37
608.2	35608.51
608.557	35865.91
608.914	36109.06
609.272	36564.87
609.629	36801.25
609.986	37188.58
610.343	37283.72
610.7	37538.63
611.057	37681.9
611.414	37596.94
611.771	37658.63
612.127	37918.96
612.484	38076.7
612.841	38204.38
613.198	38224.72
613.554	38359.18
613.911	38788.77
614.267	38937.92
614.624	38998.71
614.98	39323.22
615.337	39726.6
615.693	39842.75
616.05	40080.94
616.406	40612.45
616.762	40814.03
617.118	41096.96
617.475	41309.15
617.831	41490.84
618.187	41793.21
618.543	41855.13
618.899	42245.63
619.255	42133.31
619.611	42334.66
619.967	42396.58
620.323	42512.29
620.678	42298.05
621.034	42213.54
621.39	42236.81
621.746	42080.89
622.101	42648.1
622.457	42205.63
622.812	42310.71
623.168	42306.42
623.523	42310.71
623.879	42655.56
624.234	42485.39
624.589	42785.05
624.945	42934.2
625.3	43105.26
625.655	43232.27
626.01	43365.6
626.365	43561.07
626.72	43608.53
627.075	43846.94
627.43	43909.09
627.785	43940.27
628.14	44018.24
628.495	44201.06
628.85	44182.07
629.205	44011.91
629.559	44289.41
629.914	44082.41
630.269	44065.47
630.623	44004.68
630.978	43684.46
631.332	43793.61
631.687	43878.8
632.041	43572.82
632.396	43432.94
632.75	43375.99
633.104	43332.6
633.459	43178.48
633.813	43159.5
634.167	43209.22
634.521	43316.33
634.875	43397.01
635.229	43444.01
635.583	43279.5
635.937	43569.66
636.291	43692.14
636.645	43781.63
636.999	43733.72
637.352	43891.23
637.706	43783.21
638.06	44071.12
638.413	43957.9
638.767	43966.26
639.121	43960.38
639.474	43728.53
639.828	43747.73
640.181	43674.52
640.534	43817.56
640.888	43451.47
641.241	43208.09
641.594	43237.46
641.947	43213.51
642.301	43078.82
642.654	42944.37
643.007	42837.25
643.36	42915.44
643.713	42717.7
644.066	42764.71
644.419	42571.27
644.771	42360.2
645.124	42036.37
645.477	42052.19
645.83	41857.84
646.182	41827.11
646.535	41948.01
646.888	42140.09
647.24	41908.01
647.593	42245.17
647.945	42161.11
648.298	42028.01
648.65	42273.65
649.002	42059.19
649.355	42190.49
649.707	41978.06
650.059	42194.78
650.411	42414.66
650.763	42438.16
651.115	42805.16
651.467	42606.75
651.819	42429.58
652.171	42322.01
652.523	42084.5
652.875	42071.62
653.227	41844.28
653.578	41887.67
653.93	41878.86
654.282	41677.05
654.633	41557.28
654.985	41675.02
655.337	41715.92
655.688	41691.06
656.039	41919.76
656.391	41601.35
656.742	41857.84
657.094	41830.72
657.445	42249.92
657.796	42116.59
658.147	42223.71
658.498	42081.79
658.849	42395.23
659.2	42401.78
659.551	42362.91
659.902	42525.17
660.253	42315.23
660.604	42394.1
660.955	42169.02
661.306	42289.02
661.656	42072.98
662.007	42167.21
662.358	41905.52
662.708	41882.02
663.059	41618.52
663.409	41317.97
663.76	41548.24
664.11	41576.72
664.461	41439.09
664.811	41173.34
665.161	41167.91
665.511	41094.02
665.862	41103.51
666.212	41141.7
666.562	41193
666.912	41169.72
667.262	41139.44
667.612	41291.53
667.962	41384.63
668.312	41444.07
668.662	41682.25
669.011	41510.05
669.361	41654.46
669.711	41685.42
670.06	41562.71
670.41	41735.36
670.76	41759.99
671.109	41873.43
671.459	41849.7
671.808	41763.83
672.157	41839.54
672.507	41491.3
672.856	41452.43
673.205	41279.32
673.554	41381.92
673.904	41202.72
674.253	41299.44
674.602	41067.35
674.951	40381.95
675.3	40202.52
675.649	40730.19
675.998	40553.69
676.346	40421.49
676.695	40572
677.044	40360.93
677.393	40383.75
677.741	40474.83
678.09	40340.82
678.438	40320.03
678.787	40586.46
679.135	40409.52
679.484	40371.33
679.832	40429.4
680.181	40417.2
680.529	40490.87
680.877	40533.13
681.225	40519.8
681.573	40953.01
681.922	40602.73
682.27	40477.76
682.618	40651.32
682.966	40661.26
683.314	40602.05
683.661	40503.98
684.009	40309.86
684.357	40130.2
684.705	40137.21
685.053	39986.7
685.4	39967.04
685.748	39607.5
686.095	39509.65
686.443	39250.23
686.79	39137.69
687.138	39094.97
687.485	39113.96
687.832	38936.11
688.18	38955.77
688.527	38581.99
688.874	38641.43
689.221	38584.71
689.568	38362.56
689.915	38202.12
690.262	38341.1
690.609	38143.59
690.956	38292.06
691.303	38263.58
691.65	38105.62
691.997	38260.87
692.344	38128.22
692.69	38134.77
693.037	38254.09
693.383	37967.09
693.73	38226.75
694.077	37973.87
694.423	38166.64
694.769	37951.95
695.116	38025.17
695.462	37770.94
695.808	37761.45
696.155	37723.94
696.501	37389.93
696.847	37398.52
697.193	37014.58
697.539	37124.18
697.885	36800.57
698.231	36612.33
698.577	36491.88
698.923	36321.26
699.269	36214.82
699.614	35917.88
699.96	35867.94
700.306	35825.91
700.651	35512.47
700.997	35383.89
701.342	35398.35
701.688	35285.58
702.033	35257.79
702.379	35183.44
702.724	35064.8
703.069	35230.67
703.415	34879.94
703.76	34998.36
704.105	35078.13
704.45	35062.31
704.795	34856.89
705.14	34849.44
705.485	34948.42
705.83	34831.36
706.175	35032.03
706.52	34812.6
706.865	34889.44
707.209	34774.41
707.554	34660.97
707.899	34809.89
708.243	34540.74
708.588	34359.05
708.932	34237.93
709.277	34223.01
709.621	34151.6
709.966	33792.97
710.31	33889.69
710.654	33640.88
710.998	33446.31
711.342	33505.74
711.687	33328.35
712.031	33069.37
712.375	32944.4
712.719	32802.03
713.063	32662.38
713.407	32781.47
713.75	32661.92
714.094	32579.89
714.438	32416.73
714.782	32373.57
715.125	32359.78
715.469	32419.67
715.812	32274.59
716.156	32184.2
716.499	32187.59
716.843	32311.65
717.186	32247.47
717.53	32353.46
717.873	32422.16
718.216	32294.02
718.559	32261.03
718.902	32140.58
719.246	32281.14
719.589	32152.56
719.932	32029.62
720.275	32117.98
720.617	32125.67
720.96	32195.27
721.303	32165.21
721.646	31936.75
721.989	31899.01
722.331	32009.29
722.674	31639.58
723.016	31737.88
723.359	31525.68
723.701	31481.62
724.044	31151.68
724.386	31064.68
724.729	31070.1
725.071	31022.19
725.413	30827.62
725.755	30694.97
726.097	30619.27
726.439	30381.31
726.782	30328.2
727.124	30449.55
727.465	30268.09
727.807	30267.86
728.149	30146.51
728.491	30158.71
728.833	30168.2
729.175	30186.06
729.516	30106.28
729.858	30118.26
730.199	30181.31
730.541	30049.79
730.882	30117.36
731.224	30204.36
731.565	30191.93
731.906	30198.26
732.248	30358.03
732.589	30120.75
732.93	30174.08
733.271	30227.19
733.612	30133.85
733.953	30141.99
734.294	30138.83
734.635	30068.77
734.976	30062.9
735.317	29857.7
735.658	30003.69
735.999	29856.12
736.339	29743.81
736.68	29821.09
737.021	29591.27
737.361	29486.64
737.702	29610.48
738.042	29296.59
738.383	29231.05
738.723	29165.97
739.063	28987.67
739.404	28914.23
739.744	28919.65
740.084	28714.23
740.424	28791.52
740.764	28659.54
741.104	28648.92
741.444	28466.33
741.784	28303.39
742.124	28577.06
742.464	28458.19
742.804	28414.8
743.143	28394.01
743.483	28368.93
743.823	28269.27
744.162	28401.24
744.502	28426.1
744.841	28337.07
745.181	28488.47
745.52	28447.8
745.86	28486.44
746.199	28487.34
746.538	28500
746.877	28601.92
747.216	28478.08
747.556	28386.33
747.895	28460.23
748.234	28283.96
748.573	28327.35
748.911	28163.28
749.25	28271.98
749.589	28107.92
749.928	28219.55
750.267	28086
750.605	27901.82
750.944	27787.25
751.283	27635.16
751.621	27670.87
751.96	27530.99
752.298	27343.19
752.636	27317.88
752.975	27149.3
753.313	27079.92
753.651	27109.75
753.989	26992.24
754.327	26707.5
754.666	26445.82
755.004	26623.89
755.342	26540.28
755.679	26519.94
756.017	26263.67
756.355	26494.4
756.693	26275.88
757.031	26379.83
757.368	26143.9
757.706	26209.44
758.044	26169.89
758.381	26106.39
758.719	26115.43
759.056	26172.6
759.394	26267.97
759.731	25962.44
760.068	26051.93
760.405	25962.21
760.743	25948.65
761.08	25987.97
761.417	25882.21
761.754	25801.54
762.091	25861.65
762.428	25897.36
762.765	25677.7
763.102	25634.76
763.438	25649.23
763.775	25499.4
764.112	25415.56
764.449	25338.27
764.785	25356.13
765.122	25036.81
765.458	25091.73
765.795	24964.5
766.131	24790.94
766.467	24805.86
766.804	24595.02
767.14	24456.72
767.476	24307.79
767.812	24111.87
768.148	24193.22
768.485	23862.83
768.821	23803.4
769.157	23750.75
769.492	23708.71
769.828	23601.6
770.164	23444.09
770.5	23375.84
770.836	23393.92
771.171	23179.46
771.507	23061.72
771.842	23021.05
772.178	22961.84
772.513	23013.82
772.849	22936.76
773.184	22829.19
773.519	22829.41
773.855	22859.02
774.19	22780.83
774.525	22708.51
774.86	22689.3
775.195	22693.37
775.53	22609.31
775.865	22552.58
776.2	22459.48
776.535	22349.43
776.87	22398.24
777.205	22129.09
777.539	22134.52
777.874	22225.36
778.209	22064.01
778.543	21957.8
778.878	21874.41
779.212	21868.54
779.547	21780.18
779.881	21723.91
780.215	21550.13
780.55	21570.46
780.884	21356.46
781.218	21284.14
781.552	21274.2
781.886	21100.42
782.22	20939.52
782.554	20861.33
782.888	20580.21
783.222	20553.09
783.556	20478.06
783.889	20371.17
784.223	20156.72
784.557	20126.66
784.89	20198.75
785.224	20003.95
785.557	19863.62
785.891	19818.42
786.224	19808.7
786.558	19705.2
786.891	19558.54
787.224	19542.72
787.557	19482.38
787.891	19304.99
788.224	19410.29
788.557	19417.3
788.89	19371.2
789.223	19396.51
789.556	19210.3
789.888	19240.13
790.221	19225.44
790.554	19071.32
790.887	19240.36
791.219	19058.44
791.552	19102.96
791.884	18919.69
792.217	19064.77
792.549	18921.27
792.882	18839.91
793.214	18773.25
793.546	18853.93
793.879	18618.68
794.211	18584.1
794.543	18714.49
794.875	18583.65
795.207	18623.42
795.539	18444.9
795.871	18421.85
796.203	18197.9
796.535	18174.85
796.867	18145.24
797.198	17977.56
797.53	17952.03
797.862	17882.43
798.193	17851.69
798.525	17695.31
798.856	17631.81
799.188	17438.14
799.519	17384.59
799.85	17327.64
800.182	17255.1
800.513	17190.69
800.844	17089.45
801.175	17171.48
801.506	17057.59
801.837	16927.87
802.168	16808.56
802.499	16851.27
802.83	16694.21
803.161	16687.2
803.491	16614.21
803.822	16670.25
804.153	16658.73
804.483	16535.12
804.814	16492.86
805.145	16422.12
805.475	16463.71
805.805	16480.65
806.136	16454.21
806.466	16493.31
806.796	16409.92
807.126	16330.6
807.457	16342.35
807.787	16294.44
808.117	16285.41
808.447	16259.64
808.777	16369.7
809.107	16297.38
809.436	16294.9
809.766	16161.34
810.096	16151.62
810.426	16136.93
810.755	16086.77
811.085	16095.13
811.414	16057.61
811.744	15908.92
812.073	15834.12
812.403	15789.37
812.732	15728.13
813.061	15742.59
813.39	15544.18
813.719	15539.44
814.049	15677.74
814.378	15510.06
814.707	15417.18
815.036	15308.93
815.365	15196.17
815.693	15111.2
816.022	15115.94
816.351	15091.54
816.68	14943.07
817.008	15005.44
817.337	14762.96
817.665	14789.63
817.994	14839.12
818.322	14862.62
818.651	14685.22
818.979	14572.68
819.307	14603.42
819.636	14510.31
819.964	14548.5
820.292	14579.01
820.62	14506.24
820.948	14446.58
821.276	14586.24
821.604	14579.01
821.932	14593.47
822.259	14584.21
822.587	14576.3
822.915	14520.48
823.243	14703.98
823.57	14643.19
823.898	14712.57
824.225	14588.95
824.553	14666.92
824.88	14630.99
825.207	14740.59
825.535	14663.53
825.862	14750.98
826.189	14699.68
826.516	14820.81
826.843	14778.1
827.17	14788.72
827.497	14839.57
827.824	14830.98
828.151	14767.93
828.478	14776.29
828.805	14843.18
829.131	14763.64
829.458	14697.88
829.785	14647.93
830.111	14748.95
830.438	14722.51
830.764	14666.92
831.09	14690.42
831.417	14607.94
831.743	14579.01
832.069	14551.44
832.395	14487.71
832.722	14517.54
833.048	14436.64
833.374	14509.41
833.7	14317.1
834.026	14353.25
834.351	14226.25
834.677	14331.78
835.003	14335.17
835.329	14277.32
835.654	14269.64
835.98	14105.12
836.306	14086.82
836.631	14071
836.956	14124.56
837.282	14106.25
837.607	13993.71
837.932	14028.74
838.258	13912.81
838.583	13934.96
838.908	13903.77
839.233	13994.62
839.558	13973.15
839.883	13861.06
840.208	13875.52
840.533	13897.67
840.858	13916.43
841.182	13920.95
841.507	14003.66
841.832	13943.55
842.156	13895.86
842.481	13954.17
842.805	13836.43
843.13	13863.32
843.454	13957.56
843.778	13827.39
844.103	13898.58
844.427	13844.79
844.751	13819.93
845.075	13805.02
845.399	13729.09
845.723	13668.07
846.047	13681.41
846.371	13545.59
846.695	13559.83
847.019	13440.06
847.343	13439.15
847.666	13405.93
847.99	13313.51
848.313	13238.48
848.637	13205.49
848.96	13062.89
849.284	12995.32
849.607	12967.75
849.931	12889.34
850.254	12848.66
850.577	12707.87
850.9	12611.83
851.223	12569.34
851.546	12468.33
851.869	12474.21
852.192	12422.46
852.515	12310.82
852.838	12259.3
853.161	12181.78
853.483	12179.3
853.806	11997.83
854.129	12056.82
854.451	11996.93
854.774	11917.84
855.096	11997.61
855.419	11893.66
855.741	11779.99
856.063	11792.19
856.385	11698.86
856.708	11684.85
857.03	11657.73
857.352	11669.26
857.674	11664.96
857.996	11551.52
858.318	11610.27
858.64	11628.8
858.961	11541.8
859.283	11523.5
859.605	11486.66
859.926	11587.45
860.248	11547.68
860.57	11575.02
860.891	11491.18
861.212	11500.22
861.534	11487.11
861.855	11493.21
862.176	11531.18
862.498	11416.61
862.819	11440.79
863.14	11471.75
863.461	11472.88
863.782	11361.92
864.103	11370.51
864.424	11324.86
864.745	11454.35
865.065	11335.93
865.386	11281.47
865.707	11262.26
866.027	11204.18
866.348	11185.43
866.668	11238.08
866.989	11074.69
867.309	11101.13
867.63	11115.6
867.95	11142.49
868.27	11011.87
868.59	11017.52
868.91	10925.77
869.23	10926.22
869.55	10903.85
869.87	10931.42
870.19	10887.81
870.51	10811.88
870.83	10805.55
871.15	10723.52
871.469	10700.69
871.789	10735.04
872.109	10705.21
872.428	10634.93
872.748	10700.47
873.067	10587.25
873.386	10609.4
873.706	10593.13
874.025	10531.66
874.344	10528.95
874.663	10511.09
874.982	10425.67
875.301	10432.68
875.62	10445.56
875.939	10458.44
876.258	10325.11
876.577	10394.26
876.896	10344.09
877.214	10314.49
877.533	10361.72
877.852	10328.73
878.17	10334.15
878.489	10362.4
878.807	10321.72
879.125	10311.55
879.444	10373.02
879.762	10315.17
880.08	10348.84
880.398	10335.51
880.716	10259.12
881.034	10242.17
881.352	10284.66
881.67	10276.3
881.988	10326.01
882.306	10293.7
882.624	10241.27
882.941	10188.16
883.259	10221.38
883.577	10202.18
883.894	10241.72
884.212	10156.07
884.529	10174.83
884.846	10084.44
885.164	10080.14
885.481	10065.23
885.798	10091.9
886.115	10048.73
886.432	9954.95
886.75	9925.57
887.067	9962.18
887.383	9815.07
887.7	9881.96
888.017	9829.98
888.334	9837.89
888.651	9721.06
888.967	9681.51
889.284	9651
889.6	9588.86
889.917	9549.76
890.233	9527.62
890.55	9531.01
890.866	9579.82
891.182	9478.58
891.498	9439.71
891.815	9357.68
892.131	9283.56
892.447	9343.44
892.763	9269.77
893.079	9203.78
893.395	9163.78
893.71	9175.99
894.026	9120.17
894.342	9037.46
894.657	9075.88
894.973	9002.66
895.289	9009.89
895.604	8952.26
895.92	8958.82
896.235	8908.65
896.55	8913.17
896.865	8886.05
897.181	8874.98
897.496	8859.16
897.811	8886.05
898.126	8779.84
898.441	8787.3
898.756	8821.87
899.071	8663.23
899.386	8777.81
899.7	8710.24
900.015	8613.52
900.33	8633.4
900.644	8626.17
900.959	8698.26
901.273	8584.59
901.588	8540.75
901.902	8496.68
902.216	8507.08
902.531	8477.93
902.845	8471.37
903.159	8392.28
903.473	8409.68
903.787	8460.53
904.101	8356.35
904.415	8322
904.729	8312.28
905.042	8267.76
905.356	8244.03
905.67	8220.98
905.984	8266.18
906.297	8203.36
906.611	8177.14
906.924	8136.92
907.237	8080.2
907.551	8015.34
907.864	7980.76
908.177	7962.01
908.491	7955.68
908.804	7877.94
909.117	7748
909.43	7774.44
909.743	7750.94
910.056	7737.38
910.368	7712.07
910.681	7655.58
910.994	7662.13
911.307	7561.57
911.619	7470.27
911.932	7497.39
912.244	7446.09
912.557	7445.41
912.869	7353.89
913.181	7291.29
913.494	7305.3
913.806	7278.64
914.118	7199.32
914.43	7206.32
914.742	7137.4
915.054	7049.26
915.366	7048.13
915.678	7047.91
915.99	7012.2
916.302	6945.09
916.613	6878.65
916.925	6949.83
917.236	6914.8
917.548	6909.83
917.859	6837.29
918.171	6837.52
918.482	6810.4
918.794	6760.91
919.105	6821.93
919.416	6728.59
919.727	6757.29
920.038	6721.59
920.349	6705.09
920.66	6642.04
920.971	6685.43
921.282	6642.27
921.593	6568.37
921.903	6546.45
922.214	6547.36
922.525	6562.72
922.835	6536.51
923.146	6470.07
923.456	6453.12
923.767	6466.91
924.077	6434.82
924.387	6408.6
924.697	6373.35
925.008	6307.36
925.318	6353.01
925.628	6324.54
925.938	6255.16
926.248	6263.97
926.558	6223.75
926.867	6200.25
927.177	6216.97
927.487	6111.21
927.796	6108.95
928.106	6127.48
928.416	6097.65
928.725	6059.01
929.034	5980.14
929.344	6026.01
929.653	6005
929.962	5928.62
930.271	5876.41
930.581	5876.19
930.89	5866.7
931.199	5830.76
931.508	5766.36
931.817	5724.78
932.125	5662.41
932.434	5732.01
932.743	5640.04
933.051	5628.06
933.36	5531.79
933.669	5546.48
933.977	5521.85
934.286	5479.36
934.594	5504.67
934.902	5418.8
935.21	5384
935.519	5367.5
935.827	5363.66
936.135	5311
936.443	5290.67
936.751	5276.88
937.059	5284.56
937.367	5230.33
937.674	5209.54
937.982	5213.61
938.29	5153.04
938.597	5149.88
938.905	5065.59
939.213	5100.61
939.52	5074.17
939.827	5035.98
940.135	5075.3
940.442	5017.45
940.749	5041.86
941.056	5035.53
941.363	4950.79
941.67	4955.53
941.977	4922.99
942.284	4926.83
942.591	4891.35
942.898	4945.36
943.205	4880.96
943.511	4833.5
943.818	4848.19
944.125	4856.78
944.431	4861.07
944.738	4802.77
945.044	4825.82
945.35	4756.22
945.657	4750.12
945.963	4736.78
946.269	4739.27
946.575	4697.69
946.881	4712.38
947.187	4697.69
947.493	4680.29
947.799	4639.61
948.105	4615.43
948.41	4626.05
948.716	4603.9
949.022	4574.07
949.327	4514.87
949.633	4508.77
949.938	4543.12
950.244	4520.74
950.549	4413.17
950.854	4414.76
951.16	4455.66
951.465	4423.34
951.77	4350.13
952.075	4339.5
952.38	4348.32
952.685	4313.74
952.99	4276.46
953.294	4277.59
953.599	4275.33
953.904	4269.9
954.209	4186.51
954.513	4206.17
954.818	4170.02
955.122	4154.65
955.426	4107.65
955.731	4125.5
956.035	4098.15
956.339	4065.39
956.643	4053.64
956.948	4022.22
957.252	3983.13
957.556	3976.12
957.86	3954.43
958.163	3934.77
958.467	3892.06
958.771	3922.79
959.075	3891.15
959.378	3842.57
959.682	3891.38
959.985	3820.87
960.289	3789.91
960.592	3776.58
960.896	3777.94
961.199	3763.7
961.502	3718.96
961.805	3689.8
962.108	3697.26
962.411	3686.19
962.714	3629.01
963.017	3681.67
963.32	3672.86
963.623	3590.6
963.926	3638.51
964.228	3621.56
964.531	3612.29
964.833	3577.04
965.136	3563.48
965.438	3535.46
965.741	3502.24
966.043	3517.61
966.345	3548.79
966.648	3511.28
966.95	3511.28
967.252	3459.08
967.554	3464.05
967.856	3457.72
968.158	3424.05
968.46	3435.57
968.761	3444.16
969.063	3403.71
969.365	3388.34
969.666	3391.05
969.968	3376.14
970.269	3386.31
970.571	3381.56
970.872	3336.82
971.174	3299.98
971.475	3314.45
971.776	3324.16
972.077	3322.58
972.378	3297.05
972.679	3246.43
972.98	3266.31
973.281	3264.73
973.582	3219.99
973.883	3244.62
974.183	3179.54
974.484	3171.85
974.785	3156.94
975.085	3172.98
975.386	3135.47
975.686	3125.98
975.986	3106.77
976.287	3104.96
976.587	3094.79
976.887	3023.61
977.187	3060.89
977.487	3041.01
977.787	3044.62
978.087	3006.88
978.387	3008.01
978.687	2969.15
978.987	2978.41
979.286	2942.93
979.586	2917.4
979.885	2880.79
980.185	2854.57
980.484	2865.19
980.784	2864.97
981.083	2859.54
981.382	2838.08
981.682	2824.29
981.981	2812.09
982.28	2798.98
982.579	2723.05
982.878	2743.84
983.177	2710.17
983.475	2728.25
983.774	2709.04
984.073	2708.81
984.372	2671.98
984.67	2699.55
984.969	2683.95
985.267	2656.38
985.566	2658.19
985.864	2633.79
986.162	2659.77
986.461	2630.17
986.759	2585.2
987.057	2582.94
987.355	2557.4
987.653	2568.25
987.951	2552.43
988.249	2533
988.547	2528.48
988.844	2455.49
989.142	2518.54
989.44	2502.72
989.737	2488.03
990.035	2470.85
990.332	2524.86
990.63	2441.7
990.927	2466.79
991.224	2468.37
991.521	2458.42
991.819	2413
992.116	2420.68
992.413	2419.56
992.71	2373.68
993.006	2387.47
993.303	2368.26
993.6	2366.22
993.897	2384.75
994.193	2350.63
994.49	2350.18
994.787	2339.56
995.083	2312.44
995.379	2292.78
995.676	2307.47
995.972	2309.73
996.268	2264.08
996.565	2268.37
996.861	2273.57
997.157	2229.96
997.453	2269.5
997.749	2207.58
998.044	2242.84
998.34	2240.12
998.636	2175.27
998.932	2166
999.227	2178.66
999.523	2151.31
999.818	2169.84
1000.114	2144.53
1000.409	2118.55
1000.704	2109.96
1001	2120.13
1001.295	2113.12
1001.59	2065.89
1001.885	2046.23
1002.18	2062.5
1002.475	2047.59
1002.77	2024.76
1003.065	2016.18
1003.359	2002.39
1003.654	2002.62
1003.949	1952.9
1004.243	1974.82
1004.538	1944.31
1004.832	1961.71
1005.127	1922.62
1005.421	1901.15
1005.715	1916.07
1006.009	1887.14
1006.304	1899.12
1006.598	1844.88
1006.892	1871.55
1007.186	1849.4
1007.48	1846.01
1007.773	1823.86
1008.067	1835.39
1008.361	1836.29
1008.655	1798.55
1008.948	1791.1
1009.242	1770.76
1009.535	1771.21
1009.829	1711.78
1010.122	1733.02
1010.415	1726.24
1010.708	1718.1
1011.001	1717.2
1011.295	1709.74
1011.588	1676.3
1011.881	1646.47
1012.173	1669.74
1012.466	1650.54
1012.759	1660.03
1013.052	1662.29
1013.344	1622.51
1013.637	1615.96
1013.93	1613.47
1014.222	1607.15
1014.514	1605.11
1014.807	1600.82
1015.099	1582.51
1015.391	1568.5
1015.683	1559.01
1015.976	1555.62
1016.268	1563.31
1016.56	1550.2
1016.851	1542.52
1017.143	1541.39
1017.435	1491.22
1017.727	1519.47
1018.018	1509.07
1018.31	1488.73
1018.602	1472.91
1018.893	1500.71
1019.185	1483.08
1019.476	1452.57
1019.767	1431.56
1020.058	1442.63
1020.35	1455.51
1020.641	1411.67
1020.932	1401.28
1021.223	1422.97
1021.514	1415.97
1021.804	1394.05
1022.095	1396.98
1022.386	1358.57
1022.677	1359.92
1022.967	1346.81
1023.258	1379.58
1023.548	1347.27
1023.839	1365.35
1024.129	1313.14
1024.419	1311.56
1024.709	1293.03
1025	1276.99
1025.29	1302.97
1025.58	1265.46
1025.87	1276.53
1026.16	1267.95
1026.449	1286.25
1026.739	1300.71
1027.029	1238.57
1027.319	1221.17
1027.608	1194.28
1027.898	1225.69
1028.187	1220.04
1028.477	1217.1
1028.766	1202.86
1029.055	1174.16
1029.344	1169.87
1029.634	1173.26
1029.923	1137.33
1030.212	1140.04
1030.501	1131
1030.79	1158.12
1031.078	1133.71
1031.367	1109.31
1031.656	1097.1
1031.945	1120.15
1032.233	1104.34
1032.522	1105.47
1032.81	1091.23
1033.099	1071.57
1033.387	1052.81
1033.675	1052.81
1033.963	1030.44
1034.251	1033.6
1034.54	1039.48
1034.828	1017.78
1035.116	1020.5
1035.403	992.47
1035.691	996.54
1035.979	978.01
1036.267	985.24
1036.554	988.63
1036.842	939.14
1037.129	975.53
1037.417	966.03
1037.704	946.6
1037.992	957.9
1038.279	938.46
1038.566	940.72
1038.853	940.72
1039.14	940.72
