Data from red_cardboard_box_FLMS001491_00083.txt Node
Date: Wed Feb 08 11:33:16 GMT 2017
User: dcchb
Spectrometer: FLMS00149
Trigger mode: 0
Integration Time (sec): 2.000000E-2
Scans to average: 10
Electric dark correction enabled: true
Nonlinearity correction enabled: false
Boxcar width: 0
XAxis mode: Wavelengths
Number of Pixels in Spectrum: 2048
>>>>>Begin Spectral Data<<<<<
341.393	-19.77
341.776	-19.77
342.16	-19.77
342.543	-58.42
342.927	-73.11
343.31	-54.12
343.693	-69.72
344.077	-72.65
344.46	-55.7
344.843	-41.24
345.226	-45.76
345.61	-34.46
345.993	-28.36
346.376	-9.6
346.759	21.36
347.142	11.64
347.525	30.62
347.908	59.32
348.291	67
348.674	98.87
349.057	122.82
349.44	134.12
349.823	146.55
350.206	165.76
350.588	204.63
350.971	212.99
351.354	226.55
351.737	257.06
352.119	243.04
352.502	256.15
352.884	267.68
353.267	273.33
353.65	285.76
354.032	301.8
354.414	315.13
354.797	317.62
355.179	335.92
355.562	339.09
355.944	340.67
356.326	345.19
356.709	355.36
357.091	337.51
357.473	357.17
357.855	354.91
358.238	331.4
358.62	349.71
359.002	350.16
359.384	356.94
359.766	330.5
360.148	338.41
360.53	339.99
360.912	318.3
361.294	354.91
361.676	344.74
362.057	335.92
362.439	334.57
362.821	349.48
363.203	335.92
363.584	339.09
363.966	319.88
364.348	325.75
364.729	322.82
365.111	351.06
365.493	332.53
365.874	326.88
366.256	323.95
366.637	335.47
367.019	324.17
367.4	345.41
367.781	327.34
368.163	319.2
368.544	323.04
368.925	313.78
369.306	331.63
369.688	321.91
370.069	307.45
370.45	322.14
370.831	314.46
371.212	330.05
371.593	333.44
371.974	320.33
372.355	315.58
372.736	318.75
373.117	322.14
373.498	330.73
373.879	312.65
374.26	318.07
374.641	311.29
375.021	323.27
375.402	317.62
375.783	342.7
376.163	318.07
376.544	356.04
376.925	328.24
377.305	326.21
377.686	321.01
378.066	340.44
378.447	328.01
378.827	329.37
379.208	349.93
379.588	317.17
379.968	345.19
380.349	322.14
380.729	342.93
381.109	322.82
381.489	334.34
381.87	327.34
382.25	352.65
382.63	319.88
383.01	353.78
383.39	344.96
383.77	349.71
384.15	340.44
384.53	343.15
384.91	360.1
385.29	343.38
385.67	340.67
386.049	356.26
386.429	359.65
386.809	369.59
387.189	349.48
387.568	357.39
387.948	342.02
388.328	341.57
388.707	366.21
389.087	361.91
389.466	336.38
389.846	367.79
390.225	357.17
390.605	349.71
390.984	364.62
391.363	377.96
391.743	361.91
392.122	352.87
392.501	377.5
392.881	363.72
393.26	352.87
393.639	377.5
394.018	363.04
394.397	363.49
394.776	362.36
395.155	368.24
395.534	373.21
395.913	381.35
396.292	359.65
396.671	381.12
397.05	367.11
397.429	373.66
397.808	370.27
398.186	375.24
398.565	381.12
398.944	382.48
399.323	377.73
399.701	380.89
400.08	384.06
400.458	391.74
400.837	393.1
401.215	368.69
401.594	397.62
401.972	389.03
402.351	397.39
402.729	381.57
403.107	387.9
403.486	374.34
403.864	382.48
404.242	396.26
404.62	398.97
404.999	399.2
405.377	411.85
405.755	400.78
406.133	413.89
406.511	417.05
406.889	402.36
407.267	406.66
407.645	435.36
408.023	419.99
408.401	428.12
408.779	411.18
409.156	418.86
409.534	416.15
409.912	425.64
410.29	399.42
410.667	424.51
411.045	425.86
411.422	434
411.8	434.23
412.178	428.8
412.555	440.78
412.933	446.65
413.31	439.65
413.687	444.4
414.065	423.38
414.442	460.67
414.819	464.28
415.197	462.47
415.574	461.34
415.951	448.46
416.328	444.62
416.705	469.71
417.082	460.67
417.46	459.76
417.837	458.86
418.214	468.58
418.591	464.96
418.967	474.22
419.344	467.9
419.721	473.32
420.098	464.73
420.475	484.62
420.852	480.33
421.228	503.6
421.605	488.91
421.982	493.89
422.358	475.13
422.735	477.84
423.111	497.05
423.488	469.25
423.864	502.25
424.241	510.16
424.617	518.52
424.994	521.23
425.37	486.65
425.746	493.21
426.123	506.09
426.499	503.6
426.875	503.6
427.251	498.4
427.627	525.75
428.003	508.12
428.379	532.3
428.756	519.65
429.132	549.25
429.507	551.28
429.883	532.08
430.259	510.61
430.635	526.43
431.011	537.5
431.387	559.87
431.763	546.77
432.138	577.5
432.514	568.91
432.89	576.14
433.265	574.79
433.641	585.63
434.016	577.05
434.392	572.3
434.767	574.11
435.143	590.15
435.518	603.71
435.894	593.32
436.269	603.71
436.644	600.55
437.02	617.95
437.395	610.04
437.77	630.38
438.145	615.24
438.52	631.51
438.895	623.6
439.271	620.44
439.646	604.16
440.021	617.27
440.395	637.38
440.77	651.62
441.145	636.71
441.52	638.97
441.895	646.2
442.27	644.39
442.645	651.85
443.019	679.87
443.394	656.14
443.769	662.69
444.143	638.74
444.518	666.08
444.892	663.82
445.267	681.68
445.641	696.37
446.016	667.89
446.39	700.89
446.764	689.36
447.139	682.35
447.513	665.41
447.887	665.41
448.262	702.24
448.636	702.47
449.01	688.23
449.384	697.72
449.758	722.35
450.132	699.53
450.506	690.49
450.88	706.08
451.254	700.66
451.628	728.46
452.002	720.32
452.376	710.83
452.75	710.38
453.123	756.25
453.497	742.01
453.871	753.77
454.244	758.74
454.618	745.4
454.992	778.4
455.365	771.84
455.739	757.16
456.112	771.39
456.486	765.97
456.859	798.06
457.232	801
457.606	784.05
457.979	818.85
458.352	805.29
458.725	822.92
459.099	797.61
459.472	815.46
459.845	876.25
460.218	834.89
460.591	851.16
460.964	849.58
461.337	848.45
461.71	882.58
462.083	862.24
462.456	856.59
462.829	900.88
463.201	892.74
463.574	911.5
463.947	909.69
464.32	935.23
464.692	917.83
465.065	924.83
465.438	933.42
465.81	935.91
466.183	950.37
466.555	939.3
466.928	959.41
467.3	965.74
467.672	994.44
468.045	965.29
468.417	1018.84
468.789	976.13
469.161	953.53
469.534	994.21
469.906	998.96
470.278	1027.2
470.65	1063.36
471.022	1055
471.394	1059.07
471.766	1070.82
472.138	1055
472.51	1101.78
472.882	1080.99
473.253	1089.35
473.625	1142
473.997	1138.39
474.369	1161.66
474.74	1158.27
475.112	1165.51
475.484	1220.19
475.855	1199.86
476.227	1209.35
476.598	1210.93
476.97	1237.59
477.341	1247.76
477.713	1269.68
478.084	1316.24
478.455	1302
478.827	1313.75
479.198	1347.2
479.569	1341.55
479.94	1380.42
480.311	1378.83
480.682	1392.17
481.053	1413.86
481.424	1447.08
481.795	1439.4
482.166	1447.53
482.537	1479.62
482.908	1551.94
483.279	1531.15
483.65	1538.15
484.021	1566.4
484.391	1594.42
484.762	1616.34
485.133	1599.17
485.503	1666.28
485.874	1636.91
486.244	1688.88
486.615	1656.79
486.985	1686.85
487.356	1726.17
487.726	1734.76
488.097	1774.98
488.467	1761.65
488.837	1798.26
489.207	1843.45
489.578	1840.74
489.948	1887.52
490.318	1873.51
490.688	1911.25
491.058	1913.96
491.428	1948.76
491.798	1969.33
492.168	1979.95
492.538	1993.05
492.908	2007.07
493.278	2050.23
493.648	2037.8
494.017	2052.94
494.387	2076.89
494.757	2138.59
495.126	2106.27
495.496	2127.06
495.866	2142.88
496.235	2158.02
496.605	2141.07
496.974	2212.03
497.344	2217.91
497.713	2242.99
498.082	2292.48
498.452	2257.23
498.821	2260.17
499.19	2283.89
499.559	2314.18
499.928	2297.91
500.298	2339.71
500.667	2323.89
501.036	2359.37
501.405	2338.58
501.774	2418.35
502.143	2393.27
502.512	2417.9
502.88	2445.92
503.249	2432.37
503.618	2486.15
503.987	2475.08
504.356	2486.83
504.724	2492.02
505.093	2510.1
505.462	2554.62
505.83	2594.85
506.199	2600.5
506.567	2581.51
506.936	2587.84
507.304	2600.5
507.672	2662.42
508.041	2640.95
508.409	2688.4
508.777	2704.67
509.145	2710.32
509.514	2724.11
509.882	2714.39
510.25	2755.97
510.618	2774.28
510.986	2801.62
511.354	2833.48
511.722	2848.63
512.09	2866.93
512.458	2872.35
512.826	2878
513.193	2932.01
513.561	2916.42
513.929	2960.49
514.297	2993.71
514.664	2989.41
515.032	3029.64
515.4	3044.78
515.767	3063.76
516.135	3076.64
516.502	3062.63
516.869	3121.39
517.237	3129.52
517.604	3122.52
517.972	3171.56
518.339	3183.98
518.706	3212.91
519.073	3244.1
519.44	3254.72
519.808	3271.89
520.175	3278.22
520.542	3338.1
520.909	3323.19
521.276	3336.3
521.643	3384.43
522.009	3432.34
522.376	3416.52
522.743	3477.99
523.11	3488.16
523.477	3496.29
523.843	3592.33
524.21	3546.01
524.577	3615.39
524.943	3647.02
525.31	3671.2
525.676	3702.61
526.043	3707.81
526.409	3723.86
526.776	3774.7
527.142	3791.2
527.508	3837.3
527.874	3839.11
528.241	3875.27
528.607	3898.77
528.973	3951.2
529.339	3902.38
529.705	3960.69
530.071	4018.09
530.437	4008.6
530.803	4036.39
531.169	4043.4
531.535	4057.86
531.901	4084.3
532.267	4104.19
532.632	4147.35
532.998	4167.46
533.364	4177.86
533.73	4236.16
534.095	4231.87
534.461	4242.26
534.826	4263.96
535.192	4311.86
535.557	4365.87
535.923	4350.73
536.288	4387.57
536.653	4417.4
537.019	4395.25
537.384	4396.16
537.749	4468.92
538.114	4498.3
538.479	4523.61
538.845	4517.96
539.21	4519.99
539.575	4556.6
539.94	4549.37
540.305	4586.66
540.67	4632.99
541.034	4650.16
541.399	4665.08
541.764	4671.63
542.129	4683.38
542.494	4718.18
542.858	4759.31
543.223	4760.44
543.587	4795.47
543.952	4800.21
544.316	4752.08
544.681	4872.53
545.045	4850.15
545.41	4854.9
545.774	4925.41
546.138	4961.56
546.503	4930.38
546.867	4957.27
547.231	5042.01
547.595	5025.29
547.959	5044.95
548.324	5086.98
548.688	5098.96
549.052	5127.89
549.416	5138.06
549.779	5223.93
550.143	5197.26
550.507	5220.31
550.871	5249.01
551.235	5330.59
551.599	5360.65
551.962	5321.1
552.326	5351.84
552.689	5477.94
553.053	5404.26
553.417	5472.06
553.78	5489.01
554.143	5502.79
554.507	5616.91
554.87	5587.76
555.234	5609.68
555.597	5644.03
555.96	5668.89
556.323	5745.5
556.686	5719.06
557.05	5827.3
557.413	5846.06
557.776	5829.11
558.139	5943.01
558.502	5945.04
558.865	6009.9
559.228	6071.14
559.59	6125.6
559.953	6091.7
560.316	6200.4
560.679	6250.34
561.041	6324.24
561.404	6398.36
561.767	6451.47
562.129	6413.73
562.492	6495.76
562.854	6553.16
563.217	6525.14
563.579	6626.61
563.941	6700.95
564.304	6762.87
564.666	6876.54
565.028	6854.17
565.39	6948.63
565.753	7006.03
566.115	7083.09
566.477	7097.55
566.839	7203.77
567.201	7245.57
567.563	7299.81
567.925	7407.6
568.287	7422.06
568.648	7520.59
569.01	7562.4
569.372	7632.23
569.734	7719.91
570.095	7822.05
570.457	7842.62
570.819	7954.03
571.18	7978.21
571.542	8044.65
571.903	8147.47
572.265	8188.15
572.626	8269.95
572.987	8365.32
573.349	8482.83
573.71	8566.67
574.071	8666.1
574.432	8732.09
574.794	8803.5
575.155	8888.92
575.516	8994.68
575.877	9057.28
576.238	9210.72
576.599	9295.69
576.96	9397.83
577.32	9506.08
577.681	9551.27
578.042	9667.66
578.403	9745.85
578.763	9846.41
579.124	10008.44
579.485	10175.44
579.845	10330.91
580.206	10311.71
580.566	10558.93
580.927	10655.88
581.287	10851.13
581.648	10929.09
582.008	11087.73
582.368	11185.81
582.728	11381.73
583.089	11530.88
583.449	11613.59
583.809	11848.84
584.169	12021.27
584.529	12199.34
584.889	12478.43
585.249	12585.54
585.609	12725.2
585.969	12982.6
586.329	13147.79
586.688	13406.09
587.048	13508.23
587.408	13785.51
587.768	14032.06
588.127	14304.6
588.487	14532.16
588.846	14902.09
589.206	15007.63
589.565	15329.65
589.925	15640.38
590.284	15916.53
590.643	16228.39
591.003	16432.68
591.362	16729.16
591.721	16922.61
592.08	17206.67
592.44	17677.61
592.799	17986.31
593.158	18272.17
593.517	18634.65
593.876	18898.6
594.235	19255.88
594.593	19606.38
594.952	19909.42
595.311	20288.17
595.67	20503.3
596.029	21118.88
596.387	21491.3
596.746	21872.76
597.104	22073.2
597.463	22421.67
597.822	22891.71
598.18	23258.48
598.538	23473.39
598.897	24004.23
599.255	24073.38
599.613	24881.49
599.972	25038.1
600.33	25498.65
600.688	25711.53
601.046	26239.42
601.404	26610.94
601.762	26994.21
602.12	27480.07
602.478	27855.88
602.836	28137.23
603.194	28260.84
603.552	28774.5
603.91	28965.45
604.268	29509.62
604.625	29917.74
604.983	30317.96
605.341	30504.17
605.698	30933.99
606.056	31429.34
606.413	31718.83
606.771	32080.17
607.128	32285.14
607.485	32508.64
607.843	32861.62
608.2	33207.38
608.557	33620.47
608.914	33851.65
609.272	34309.49
609.629	34532.31
609.986	34808.01
610.343	34958.74
610.7	35495.45
611.057	35605.05
611.414	35921.88
611.771	36159.61
612.127	36399.83
612.484	36570.9
612.841	36916.66
613.198	37171.11
613.554	37212.69
613.911	37795.05
614.267	37871.66
614.624	37855.16
614.98	38153.69
615.337	38464.19
615.693	38551.19
616.05	38790.51
616.406	39291.06
616.762	39319.76
617.118	39389.81
617.475	39477.49
617.831	39679.75
618.187	39923.58
618.543	40238.83
618.899	40584.81
619.255	40602.66
619.611	40591.59
619.967	40974.85
620.323	41244.45
620.678	41011.69
621.034	41351.34
621.39	41358.35
621.746	41375.75
622.101	41959.91
622.457	41749.52
622.812	41888.73
623.168	42104.54
623.523	42121.72
623.879	42457.53
624.234	42230.87
624.589	42583.85
624.945	42624.3
625.3	42722.61
625.655	42724.87
626.01	42726.9
626.365	42942.26
626.72	42858.2
627.075	43091.86
627.43	43071.52
627.785	43015.25
628.14	43184.74
628.495	43325.98
628.85	43435.13
629.205	43247.11
629.559	43608.01
629.914	43464.73
630.269	43415.47
630.623	43549.93
630.978	43509.7
631.332	43708.79
631.687	43857.04
632.041	43696.59
632.396	43820.43
632.75	43634.45
633.104	43812.07
633.459	43602.81
633.813	43647.55
634.167	43765.97
634.521	43690.04
634.875	43905.4
635.229	43742.01
635.583	43713.77
635.937	43693.88
636.291	43631.28
636.645	43648.46
636.999	43698.17
637.352	43933.2
637.706	43718.29
638.06	43840.77
638.413	43799.19
638.767	43682.13
639.121	43777.72
639.474	43607.55
639.828	43843.48
640.181	43826.53
640.534	43863.37
640.888	43666.76
641.241	43561.45
641.594	43812.52
641.947	43792.63
642.301	43814.78
642.654	43737.72
643.007	43813.42
643.36	43803.71
643.713	43736.59
644.066	43866.76
644.419	43579.53
644.771	43324.17
645.124	42806.45
645.477	42920.57
645.83	42744.75
646.182	42663.4
646.535	42544.31
646.888	42777.75
647.24	42469.28
647.593	42780.68
647.945	42696.62
648.298	42608.48
648.65	42538.43
649.002	42398.09
649.355	42544.53
649.707	42560.8
650.059	42601.03
650.411	43129.37
650.763	43246.66
651.115	43622.47
651.467	43501.34
651.819	43568.91
652.171	43327.56
652.523	43356.26
652.875	43391.74
653.227	43304.06
653.578	43511.06
653.93	43437.61
654.282	43274.46
654.633	43241.24
654.985	43314.23
655.337	43434.23
655.688	43311.06
656.039	43443.72
656.391	43225.42
656.742	43248.24
657.094	43272.2
657.445	43348.13
657.796	43283.27
658.147	43328.92
658.498	43227.45
658.849	43199.66
659.2	43254.34
659.551	43110.62
659.902	43335.92
660.253	43206.89
660.604	43356.04
660.955	43045.53
661.306	43238.75
661.656	43217.06
662.007	43279.88
662.358	43294.57
662.708	43215.93
663.059	43208.02
663.409	43042.6
663.76	43300.67
664.11	43255.7
664.461	43400.33
664.811	43306.09
665.161	43087.79
665.511	43176.83
665.862	43185.42
666.212	43262.03
666.562	43238.07
666.912	43139.54
667.262	43166.44
667.612	43149.71
667.962	43218.64
668.312	43236.72
668.662	43382.48
669.011	43109.04
669.361	43179.09
669.711	43088.25
670.06	43064.29
670.41	43070.17
670.76	42942.49
671.109	43127.11
671.459	43132.99
671.808	42994.69
672.157	43130.28
672.507	42827.69
672.856	42739.78
673.205	42895.26
673.554	43044.18
673.904	42889.38
674.253	42954.92
674.602	42875.82
674.951	42267.93
675.3	42153.13
675.649	42812.77
675.998	42702.72
676.346	42755.82
676.695	42934.58
677.044	42534.59
677.393	42669.05
677.741	42768.93
678.09	42512.67
678.438	42590.63
678.787	42721.48
679.135	42527.13
679.484	42389.05
679.832	42594.02
680.181	42288.27
680.529	42544.76
680.877	42316.51
681.225	42307.93
681.573	42500.01
681.922	42100.47
682.27	42154.94
682.618	42111.32
682.966	42226.12
683.314	42217.76
683.661	42080.14
684.009	41778.9
684.357	41717.43
684.705	41632.24
685.053	41838.79
685.4	41502.3
685.748	41416.43
686.095	41479.7
686.443	41341.62
686.79	41385.01
687.138	41313.6
687.485	41328.52
687.832	41209.42
688.18	41304.79
688.527	40971.01
688.874	41023.22
689.221	40943.9
689.568	40717.46
689.915	40681.08
690.262	40675.88
690.609	40611.25
690.956	40515.88
691.303	40387.07
691.65	40147.76
691.997	40220.75
692.344	40002.45
692.69	40079.96
693.037	40094.65
693.383	39882.91
693.73	39904.15
694.077	39670.93
694.423	39652.4
694.769	39559.3
695.116	39445.63
695.462	39467.1
695.808	39203.15
696.155	39178.07
696.501	38996.38
696.847	39068.92
697.193	38682.26
697.539	38961.57
697.885	38731.07
698.231	38592.32
698.577	38657.63
698.923	38538.99
699.269	38277.07
699.614	38192.33
699.96	38133.57
700.306	38106.46
700.651	37933.35
700.997	37757.76
701.342	37804.54
701.688	37774.04
702.033	37682.96
702.379	37647.26
702.724	37445.46
703.069	37504.89
703.415	37073.26
703.76	37179.93
704.105	37270.55
704.45	37087.73
704.795	36899.26
705.14	36799.82
705.485	36847.96
705.83	36659.71
706.175	36659.94
706.52	36524.58
706.865	36501.3
707.209	36403.22
707.554	36272.38
707.899	36299.27
708.243	36179.27
708.588	36093.63
708.932	35838.49
709.277	35811.15
709.621	35925.04
709.966	35473.3
710.31	35709.23
710.654	35338.62
710.998	35409.13
711.342	35515.11
711.687	35408
712.031	35297.94
712.375	35058.85
712.719	35200.54
713.063	35162.58
713.407	35293.87
713.75	35013.88
714.094	35012.98
714.438	34927.56
714.782	34889.82
715.125	34790.84
715.469	34922.36
715.812	34552.42
716.156	34418.64
716.499	34362.15
716.843	34432.65
717.186	34304.07
717.53	34345.65
717.873	34417.74
718.216	34171.42
718.559	34036.05
718.902	33944.53
719.246	34001.48
719.589	33957.86
719.932	33743.41
720.275	33864.31
720.617	33675.16
720.96	33669.51
721.303	33708.38
721.646	33709.74
721.989	33462.74
722.331	33681.04
722.674	33443.3
723.016	33555.39
723.359	33393.59
723.701	33397.2
724.044	33280.59
724.386	33081.5
724.729	33205.57
725.071	33147.26
725.413	33035.85
725.755	32976.87
726.097	32829.31
726.439	32777.78
726.782	32814.84
727.124	32990.66
727.465	32732.59
727.807	32735.52
728.149	32752.25
728.491	32577.34
728.833	32688.29
729.175	32612.14
729.516	32376.66
729.858	32407.85
730.199	32355.87
730.541	32307.74
730.882	32319.04
731.224	32380.96
731.565	32210.57
731.906	32119.04
732.248	32249.89
732.589	32064.13
732.93	31936.67
733.271	32021.19
733.612	31958.59
733.953	32004.92
734.294	31981.64
734.635	31905.49
734.976	31936.22
735.317	31798.6
735.658	31747.53
735.999	31752.95
736.339	31622.33
736.68	31652.39
737.021	31613.97
737.361	31429.8
737.702	31688.55
738.042	31542.79
738.383	31417.59
738.723	31490.36
739.063	31335.11
739.404	31397.71
739.744	31368.1
740.084	31293.08
740.424	31316.8
740.764	31096.47
741.104	31293.3
741.444	31059.86
741.784	30923.59
742.124	31056.92
742.464	30941.9
742.804	31020.09
743.143	30928.57
743.483	30826.42
743.823	30729.93
744.162	30735.58
744.502	30894.67
744.841	30582.59
745.181	30754.33
745.52	30592.3
745.86	30656.26
746.199	30634.34
746.538	30420.56
746.877	30601.12
747.216	30419.65
747.556	30313.21
747.895	30422.14
748.234	30323.61
748.573	30365.87
748.911	30155.7
749.25	30162.48
749.589	30110.28
749.928	30102.15
750.267	30172.88
750.605	30051.53
750.944	29931.53
751.283	29837.75
751.621	29906.9
751.96	29810.18
752.298	29736.96
752.636	29721.82
752.975	29639.33
753.313	29587.81
753.651	29593.01
753.989	29506
754.327	29456.74
754.666	29342.84
755.004	29444.76
755.342	29427.81
755.679	29301.94
756.017	29165.45
756.355	29260.36
756.693	29040.25
757.031	29199.8
757.368	28959.8
757.706	28961.84
758.044	28841.16
758.381	28786.25
758.719	28737.44
759.056	28816.76
759.394	28697.66
759.731	28526.59
760.068	28459.48
760.405	28473.71
760.743	28430.33
761.08	28441.63
761.417	28232.82
761.754	28233.27
762.091	28133.16
762.428	28001.18
762.765	27840.96
763.102	27968.19
763.438	27762.77
763.775	27721.87
764.112	27620.86
764.449	27677.35
764.785	27407.53
765.122	27254.99
765.458	27245.5
765.795	27250.7
766.131	27175.9
766.467	26995.34
766.804	26866.98
767.14	26875.79
767.476	26881.67
767.812	26584.72
768.148	26663.14
768.485	26480.77
768.821	26391.96
769.157	26457.04
769.492	26339.76
769.828	26381.79
770.164	26085.98
770.5	26076.49
770.836	26071.74
771.171	25900
771.507	25877.4
771.842	25773.67
772.178	25650.96
772.513	25410.97
772.849	25570.97
773.184	25418.43
773.519	25452.33
773.855	25287.13
774.19	25213.24
774.525	25107.02
774.86	25087.36
775.195	25070.64
775.53	24827.93
775.865	24859.8
776.2	24580.26
776.535	24554.27
776.87	24486.47
777.205	24406.7
777.539	24247.84
777.874	24436.53
778.209	24108.63
778.543	24020.72
778.878	23917.68
779.212	23862.99
779.547	23689.66
779.881	23870.45
780.215	23690.34
780.55	23798.36
780.884	23624.35
781.218	23453.73
781.552	23543.67
781.886	23317.24
782.22	23157.24
782.554	23062.11
782.888	22979.85
783.222	22943.69
783.556	22811.49
783.889	22626.86
784.223	22543.93
784.557	22519.07
784.89	22588.67
785.224	22404.5
785.557	22315.46
785.891	22331.73
786.224	22181
786.558	22193.43
786.891	21889.71
787.224	21884.28
787.557	21864.17
787.891	21793.89
788.224	21773.1
788.557	21710.73
788.89	21632.99
789.223	21621.24
789.556	21447.91
789.888	21424.63
790.221	21303.96
790.554	21246.56
790.887	21078.88
791.219	21040.24
791.552	20930.64
791.884	20962.5
792.217	20748.04
792.549	20703.75
792.882	20627.37
793.214	20610.64
793.546	20562.28
793.879	20463.98
794.211	20337.43
794.543	20381.05
794.875	20296.08
795.207	20340.6
795.539	20209.07
795.871	20258.11
796.203	20010.66
796.535	19988.97
796.867	19937.22
797.198	19882.3
797.53	19967.27
797.862	19771.34
798.193	19641.86
798.525	19560.28
798.856	19662.19
799.188	19510.56
799.519	19447.29
799.85	19167.29
800.182	19391.69
800.513	19311.02
800.844	19167.74
801.175	19181.98
801.506	19114.19
801.837	19138.37
802.168	19031.48
802.499	18992.38
802.83	18860.18
803.161	18870.35
803.491	18756
803.822	18796.23
804.153	18687.76
804.483	18466.29
804.814	18595.1
805.145	18473.07
805.475	18506.97
805.805	18371.61
806.136	18418.16
806.466	18372.51
806.796	18286.86
807.126	18124.61
807.457	18145.4
807.787	18130.71
808.117	17992.63
808.447	17941.56
808.777	17946.76
809.107	17806.42
809.436	17893.2
809.766	17968
810.096	17756.03
810.426	17703.15
810.755	17714.22
811.085	17691.4
811.414	17632.87
811.744	17492.31
812.073	17461.57
812.403	17426.77
812.732	17417.73
813.061	17342.03
813.39	17268.36
813.719	17203.28
814.049	17331.18
814.378	17224.97
814.707	17078.99
815.036	17106.56
815.365	16985.66
815.693	16965.32
816.022	16876.73
816.351	16849.61
816.68	16768.26
817.008	16795.83
817.337	16549.73
817.665	16695.72
817.994	16682.16
818.322	16675.15
818.651	16688.94
818.979	16627.25
819.307	16543.41
819.636	16557.64
819.964	16411.66
820.292	16443.07
820.62	16493.24
820.948	16384.31
821.276	16432
821.604	16424.31
821.932	16397.65
822.259	16416.63
822.587	16418.66
822.915	16296.18
823.243	16373.92
823.57	16285.56
823.898	16352.9
824.225	16263.87
824.553	16244.66
824.88	16356.29
825.207	16357.2
825.535	16300.25
825.862	16323.53
826.189	16186.35
826.516	16334.6
826.843	16385.67
827.17	16349.29
827.497	16260.25
827.824	16250.53
828.151	16362.62
828.478	16316.52
828.805	16310.19
829.131	16286.69
829.458	16232.68
829.785	16193.13
830.111	16180.48
830.438	16310.19
830.764	16311.55
831.09	16232.45
831.417	16116.75
831.743	16261.83
832.069	16174.6
832.395	16123.98
832.722	16269.29
833.048	16053.93
833.374	16255.28
833.7	16130.54
834.026	16084.21
834.351	16196.75
834.677	16037.21
835.003	16129.18
835.329	16114.49
835.654	16154.26
835.98	16011.67
836.306	16038.79
836.631	15995.17
836.956	16003.99
837.282	15927.6
837.607	15904.78
837.932	15894.16
838.258	15891.9
838.583	15815.97
838.908	15716.54
839.233	15819.13
839.558	15707.95
839.883	15683.32
840.208	15615.75
840.533	15654.84
840.858	15631.11
841.182	15661.85
841.507	15635.41
841.832	15603.77
842.156	15522.87
842.481	15519.03
842.805	15467.05
843.13	15458.46
843.454	15359.26
843.778	15399.71
844.103	15325.59
844.427	15296.66
844.751	15304.34
845.075	15234.29
845.399	15176.44
845.723	15189.32
846.047	15084.69
846.371	14989.78
846.695	15050.79
847.019	14901.87
847.343	14813.51
847.666	14726.51
847.99	14616.68
848.313	14634.08
848.637	14592.5
848.96	14518.15
849.284	14482.9
849.607	14392.05
849.931	14360.87
850.254	14324.26
850.577	14244.26
850.9	14210.13
851.223	14200.19
851.546	13973.98
851.869	13924.49
852.192	14108.44
852.515	13887.88
852.838	13866.42
853.161	13923.14
853.483	13797.49
853.806	13739.41
854.129	13741.67
854.451	13686.76
854.774	13630.94
855.096	13498.29
855.419	13400.66
855.741	13478.63
856.063	13352.76
856.385	13414.45
856.708	13332.19
857.03	13221.23
857.352	13341.91
857.674	13229.82
857.996	13165.42
858.318	13080
858.64	13093.33
858.961	13038.19
859.283	12971.75
859.605	13037.96
859.926	13088.13
860.248	13005.19
860.57	12982.14
860.891	12912.09
861.212	12871.64
861.534	12754.35
861.855	12717.74
862.176	12796.16
862.498	12730.85
862.819	12816.73
863.14	12609.72
863.461	12681.36
863.782	12643.62
864.103	12625.09
864.424	12567.01
864.745	12543.96
865.065	12617.18
865.386	12473.01
865.707	12575.38
866.027	12444.53
866.348	12505.55
866.668	12393.91
866.989	12386.68
867.309	12364.31
867.63	12374.48
867.95	12427.81
868.27	12360.92
868.59	12369.73
868.91	12278.89
869.23	12224.65
869.55	12117.99
869.87	12143.75
870.19	12209.06
870.51	12161.6
870.83	12259
871.15	12123.41
871.469	12099.46
871.789	12139
872.109	12042.28
872.428	12015.39
872.748	12024.66
873.067	11991.89
873.386	12069.63
873.706	11959.57
874.025	11974.71
874.344	11906.69
874.663	11957.54
874.982	11930.87
875.301	11921.16
875.62	11808.16
875.939	11872.34
876.258	11810.42
876.577	11835.06
876.896	11721.16
877.214	11766.13
877.533	11749.86
877.852	11732.91
878.17	11741.73
878.489	11647.72
878.807	11699.24
879.125	11668.96
879.444	11703.08
879.762	11623.99
880.08	11588.06
880.398	11595.97
880.716	11630.77
881.034	11532.69
881.352	11469.64
881.67	11478.68
881.988	11499.7
882.306	11473.48
882.624	11411.34
882.941	11417.21
883.259	11360.49
883.577	11288.4
883.894	11266.71
884.212	11163.89
884.529	11318.69
884.846	11253.83
885.164	11223.55
885.481	11214.96
885.798	11170.44
886.115	11038.69
886.432	11104
886.75	11017.22
887.067	11070.33
887.383	10983.55
887.7	10983.1
888.017	10959.37
888.334	10939.03
888.651	10838.25
888.967	10849.32
889.284	10840.96
889.6	10797.34
889.917	10723.9
890.233	10704.24
890.55	10676.22
890.866	10593.51
891.182	10598.93
891.498	10619.72
891.815	10585.6
892.131	10543.79
892.447	10553.96
892.763	10460.85
893.079	10509.44
893.395	10409.78
893.71	10452.95
894.026	10384.7
894.342	10338.37
894.657	10249.79
894.973	10280.07
895.289	10228.54
895.604	10293.63
895.92	10130.47
896.235	10127.53
896.55	10139.51
896.865	10122.78
897.181	10018.38
897.496	10020.41
897.811	9973.64
898.126	9927.76
898.441	9941.77
898.756	9975.44
899.071	9819.74
899.386	9845.28
899.7	9807.99
900.015	9707.2
900.33	9676.92
900.644	9582.69
900.959	9647.99
901.273	9668.33
901.588	9585.4
901.902	9441.67
902.216	9516.92
902.531	9512.86
902.845	9470.37
903.159	9454.78
903.473	9310.38
903.787	9331.62
904.101	9242.36
904.415	9348.57
904.729	9231.28
905.042	9149.25
905.356	9175.69
905.67	9146.31
905.984	9149.93
906.297	9101.34
906.611	8947.22
906.924	8976.37
907.237	8922.82
907.551	8877.62
907.864	8930.73
908.177	8857.06
908.491	8848.02
908.804	8785.87
909.117	8727.79
909.43	8707.68
909.743	8656.61
910.056	8610.96
910.368	8627
910.681	8584.97
910.994	8537.97
911.307	8456.84
911.619	8433.11
911.932	8440.8
912.244	8404.86
912.557	8365.32
912.869	8345.66
913.181	8330.74
913.494	8328.03
913.806	8225.21
914.118	8147.47
914.43	8129.84
914.742	8163.29
915.054	8093.01
915.366	7982.28
915.678	8051.88
915.99	8042.16
916.302	7929.85
916.613	7920.58
916.925	7866.57
917.236	7820.92
917.548	7770.3
917.859	7842.17
918.171	7748.16
918.482	7737.99
918.794	7657.54
919.105	7680.14
919.416	7613.25
919.727	7568.73
920.038	7563.98
920.349	7528.05
920.66	7513.59
920.971	7520.82
921.282	7410.54
921.593	7358.79
921.903	7368.51
922.214	7330.09
922.525	7285.8
922.835	7260.94
923.146	7223.65
923.456	7197.21
923.767	7133.48
924.077	7178.91
924.387	7074.73
924.697	7090.32
925.008	7053.71
925.318	6995.64
925.628	7048.52
925.938	7007.39
926.248	6897.33
926.558	6938.69
926.867	6833.61
927.177	6856.43
927.487	6798.35
927.796	6788.18
928.106	6799.71
928.416	6728.98
928.725	6733.72
929.034	6685.36
929.344	6646.27
929.653	6634.29
929.962	6648.53
930.271	6556.1
930.581	6531.24
930.89	6511.35
931.199	6441.75
931.508	6460.06
931.817	6460.28
932.125	6358.14
932.434	6406.72
932.743	6292.38
933.051	6292.83
933.36	6232.49
933.669	6257.58
933.977	6182.1
934.286	6221.42
934.594	6170.35
934.902	6110.23
935.21	6115.66
935.519	6085.38
935.827	6108.2
936.135	6058.48
936.443	5975.32
936.751	6007.19
937.059	5936.23
937.367	5905.27
937.674	5935.32
937.982	5902.1
938.29	5884.25
938.597	5847.87
938.905	5823.46
939.213	5771.94
939.52	5750.92
939.827	5736.91
940.135	5648.33
940.442	5602
940.749	5711.38
941.056	5666.4
941.363	5545.05
941.67	5638.16
941.977	5531.04
942.284	5537.37
942.591	5547.09
942.898	5412.4
943.205	5515.45
943.511	5466.18
943.818	5434.09
944.125	5376.92
944.431	5374.66
944.738	5395.68
945.044	5315.23
945.35	5284.49
945.657	5277.94
945.963	5280.43
946.269	5240.65
946.575	5214.44
946.881	5139.86
947.187	5128.57
947.493	5165.17
947.799	5098.06
948.105	5079.08
948.41	5056.03
948.716	5070.26
949.022	5025.29
949.327	5008.79
949.633	4997.5
949.938	4965.41
950.244	4997.27
950.549	4917.27
950.854	4905.29
951.16	4914.79
951.465	4783.49
951.77	4828.46
952.075	4799.53
952.38	4803.15
952.685	4811.96
952.99	4731.06
953.294	4744.4
953.599	4707.56
953.904	4709.37
954.209	4612.2
954.513	4663.95
954.818	4625.08
955.122	4615.58
955.426	4622.36
955.731	4521.8
956.035	4525.19
956.339	4551.18
956.643	4512.08
956.948	4487.23
957.252	4440.67
957.556	4419.21
957.86	4450.17
958.163	4418.75
958.467	4388.92
958.771	4368.13
959.075	4320.9
959.378	4322.71
959.682	4321.81
959.985	4325.65
960.289	4284.07
960.592	4297.18
960.896	4228.7
961.199	4191.19
961.502	4244.97
961.805	4136.95
962.108	4150.29
962.411	4175.82
962.714	4125.88
963.017	4116.61
963.32	4108.03
963.623	4102.83
963.926	4095.82
964.228	4038.88
964.531	4020.12
964.833	4055.6
965.136	3940.12
965.438	4042.49
965.741	3968.37
966.043	3895.6
966.345	3916.85
966.648	3918.2
966.95	3873.01
967.252	3859.9
967.554	3873.91
967.856	3826.91
968.158	3798.43
968.46	3790.52
968.761	3793.46
969.063	3746.68
969.365	3729.73
969.666	3728.38
969.968	3718.21
970.269	3698.32
970.571	3719.11
970.872	3667.59
971.174	3617.87
971.475	3605.67
971.776	3633.92
972.077	3580.13
972.378	3602.05
972.679	3591.88
972.98	3585.33
973.281	3567.7
973.582	3513.01
973.883	3513.92
974.183	3494.48
974.484	3491.77
974.785	3466.46
975.085	3415.16
975.386	3480.93
975.686	3421.04
975.986	3444.09
976.287	3411.32
976.587	3359.35
976.887	3349.63
977.187	3379.46
977.487	3301.95
977.787	3330.42
978.087	3290.2
978.387	3281.83
978.687	3285
978.987	3276.19
979.286	3248.62
979.586	3225.34
979.885	3202.06
980.185	3189.63
980.484	3182.18
980.784	3139.69
981.083	3179.92
981.382	3169.52
981.682	3148.05
981.981	3074.16
982.28	3109.18
982.579	3142.86
982.878	3075.51
983.177	3019.24
983.475	3060.6
983.774	3023.31
984.073	3000.03
984.372	3013.37
984.67	2994.38
984.969	2973.14
985.267	2916.65
985.566	2954.39
985.864	2912.58
986.162	2960.26
986.461	2915.97
986.759	2891.34
987.057	2865.57
987.355	2873.94
987.653	2852.47
987.951	2861.28
988.249	2802.3
988.547	2802.98
988.844	2803.66
989.142	2795.52
989.44	2779.47
989.737	2765.92
990.035	2767.27
990.332	2739.02
990.63	2702.41
990.927	2703.77
991.224	2681.85
991.521	2707.84
991.819	2682.3
992.116	2670.33
992.413	2679.59
992.71	2602.08
993.006	2625.81
993.303	2626.26
993.6	2552.36
993.897	2584.68
994.193	2574.28
994.49	2541.52
994.787	2577.22
995.083	2533.83
995.379	2489.54
995.676	2500.61
995.972	2512.82
996.268	2518.46
996.565	2499.93
996.861	2479.14
997.157	2470.56
997.453	2469.2
997.749	2440.27
998.044	2442.31
998.34	2435.76
998.636	2381.07
998.932	2377
999.227	2384.23
999.523	2346.72
999.818	2365.02
1000.114	2307.62
1000.409	2319.37
1000.704	2305.36
1001	2309.88
1001.295	2288.87
1001.59	2230.56
1001.885	2263.78
1002.18	2245.48
1002.475	2237.79
1002.77	2179.26
1003.065	2209.32
1003.359	2219.72
1003.654	2176.1
1003.949	2187.4
1004.243	2172.49
1004.538	2145.59
1004.832	2143.56
1005.127	2125.93
1005.421	2114.86
1005.715	2104.69
1006.009	2119.61
1006.304	2058.82
1006.598	2060.62
1006.892	2047.06
1007.186	2041.87
1007.48	1997.57
1007.773	1996.44
1008.067	2017.24
1008.361	2005.71
1008.655	1982.66
1008.948	1975.88
1009.242	1944.24
1009.535	1961.87
1009.829	1961.87
1010.122	1904.02
1010.415	1938.59
1010.708	1910.12
1011.001	1929.55
1011.295	1865.15
1011.588	1868.76
1011.881	1852.04
1012.173	1871.48
1012.466	1855.66
1012.759	1824.47
1013.052	1831.48
1013.344	1833.74
1013.637	1821.53
1013.93	1808.43
1014.222	1805.49
1014.514	1760.07
1014.807	1772.95
1015.099	1698.6
1015.391	1734.3
1015.683	1720.07
1015.976	1712.38
1016.268	1714.64
1016.56	1699.73
1016.851	1671.03
1017.143	1661.54
1017.435	1662.89
1017.727	1649.34
1018.018	1622.67
1018.31	1641.65
1018.602	1620.18
1018.893	1613.4
1019.185	1577.25
1019.476	1590.13
1019.767	1582.44
1020.058	1575.21
1020.35	1569.11
1020.641	1558.94
1020.932	1535.67
1021.223	1552.61
1021.514	1519.62
1021.804	1508.55
1022.095	1511.26
1022.386	1505.16
1022.677	1468.55
1022.967	1451.15
1023.258	1454.99
1023.548	1455.89
1023.839	1437.36
1024.129	1435.33
1024.419	1422.67
1024.709	1409.57
1025	1405.27
1025.29	1395.78
1025.58	1376.8
1025.87	1374.99
1026.16	1377.7
1026.449	1326.63
1026.739	1329.8
1027.029	1331.83
1027.319	1327.08
1027.608	1356.01
1027.898	1307.88
1028.187	1328.67
1028.477	1283.24
1028.766	1247.76
1029.055	1269.23
1029.344	1258.61
1029.634	1244.15
1029.923	1263.58
1030.212	1231.27
1030.501	1250.7
1030.79	1244.37
1031.078	1215
1031.367	1205.51
1031.656	1197.37
1031.945	1188.78
1032.233	1189.46
1032.522	1171.83
1032.81	1164.6
1033.099	1175.45
1033.387	1134.09
1033.675	1141.55
1033.963	1133.87
1034.251	1165.05
1034.54	1143.59
1034.828	1125.73
1035.116	1097.26
1035.403	1093.87
1035.691	1081.67
1035.979	1074.21
1036.267	1070.82
1036.554	1090.71
1036.842	1053.64
1037.129	1055.45
1037.417	1065.62
1037.704	1051.16
1037.992	1055.68
1038.279	1025.4
1038.566	989.01
1038.853	989.01
1039.14	989.01
