Data from red_cardboard_box_FLMS001491_00035.txt Node
Date: Wed Feb 08 11:32:05 GMT 2017
User: dcchb
Spectrometer: FLMS00149
Trigger mode: 0
Integration Time (sec): 2.000000E-2
Scans to average: 10
Electric dark correction enabled: true
Nonlinearity correction enabled: false
Boxcar width: 0
XAxis mode: Wavelengths
Number of Pixels in Spectrum: 2048
>>>>>Begin Spectral Data<<<<<
341.393	-7.74
341.776	-7.74
342.16	-7.74
342.543	-50
342.927	-64.24
343.31	-90
343.693	-67.63
344.077	-82.31
344.46	-75.76
344.843	-60.62
345.226	-40.96
345.61	-26.04
345.993	-29.66
346.376	2.66
346.759	9.66
347.142	39.94
347.525	44.24
347.908	89.66
348.291	90.56
348.674	96.21
349.057	100.05
349.44	107.51
349.823	136.44
350.206	157.23
350.588	179.15
350.971	202.88
351.354	245.81
351.737	244.68
352.119	237
352.502	266.83
352.884	256.66
353.267	267.51
353.65	268.41
354.032	307.05
354.414	305.92
354.797	313.61
355.179	339.14
355.562	327.39
355.944	313.38
356.326	351.8
356.709	335.53
357.091	336.88
357.473	334.62
357.855	326.71
358.238	341.86
358.62	316.32
359.002	344.79
359.384	342.31
359.766	340.05
360.148	317.45
360.53	344.79
360.912	338.92
361.294	340.73
361.676	347.96
362.057	325.36
362.439	330.33
362.821	319.26
363.203	326.94
363.584	313.83
363.966	318.58
364.348	318.13
364.729	327.39
365.111	313.83
365.493	306.6
365.874	305.25
366.256	305.02
366.637	302.99
367.019	294.17
367.4	312.48
367.781	298.92
368.163	310.44
368.544	314.51
368.925	300.95
369.306	305.92
369.688	315.87
370.069	328.3
370.45	295.75
370.831	293.04
371.212	305.47
371.593	311.35
371.974	314.96
372.355	302.76
372.736	316.77
373.117	291.69
373.498	302.76
373.879	330.33
374.26	306.6
374.641	297.79
375.021	300.73
375.402	315.87
375.783	322.19
376.163	330.56
376.544	317.45
376.925	330.33
377.305	321.29
377.686	333.27
378.066	326.04
378.447	313.16
378.827	321.29
379.208	307.73
379.588	331.23
379.968	330.78
380.349	328.07
380.729	329.65
381.109	326.49
381.489	333.04
381.87	331.91
382.25	329.2
382.63	327.39
383.01	333.27
383.39	324.91
383.77	331.69
384.15	335.53
384.53	306.15
384.91	345.7
385.29	316.55
385.67	320.84
386.049	360.39
386.429	337.11
386.809	340.05
387.189	342.99
387.568	329.43
387.948	317
388.328	335.53
388.707	321.52
389.087	321.74
389.466	320.39
389.846	341.4
390.225	335.08
390.605	341.86
390.984	352.93
391.363	340.5
391.743	339.37
392.122	359.26
392.501	365.36
392.881	346.6
393.26	333.72
393.639	354.96
394.018	371.46
394.397	344.34
394.776	346.6
395.155	359.26
395.534	364.68
395.913	361.74
396.292	347.28
396.671	353.83
397.05	360.16
397.429	375.53
397.808	372.36
398.186	369.88
398.565	368.75
398.944	356.09
399.323	359.26
399.701	383.44
400.08	372.82
400.458	374.85
400.837	360.84
401.215	370.33
401.594	367.84
401.972	363.55
402.351	388.86
402.729	380.05
403.107	371.01
403.486	387.96
403.864	387.5
404.242	390.89
404.62	390.89
404.999	393.38
405.377	359.71
405.755	377.33
406.133	385.24
406.511	395.41
406.889	375.3
407.267	401.51
407.645	388.18
408.023	410.78
408.401	385.7
408.779	400.38
409.156	387.96
409.534	395.87
409.912	402.64
410.29	401.06
410.667	407.39
411.045	405.13
411.422	397.22
411.8	406.94
412.178	397.22
412.555	406.03
412.933	401.29
413.31	425.92
413.687	417.79
414.065	438.58
414.442	422.31
414.819	420.5
415.197	422.08
415.574	424.11
415.951	432.25
416.328	416.66
416.705	406.49
417.082	444.45
417.46	425.24
417.837	434.28
418.214	436.77
418.591	442.19
418.967	423.89
419.344	446.49
419.721	437.9
420.098	438.58
420.475	444.68
420.852	438.8
421.228	440.16
421.605	435.64
421.982	449.42
422.358	450.55
422.735	473.38
423.111	458.91
423.488	485.81
423.864	440.84
424.241	466.6
424.617	469.31
424.994	455.75
425.37	485.13
425.746	468.41
426.123	450.55
426.499	446.26
426.875	475.86
427.251	467.5
427.627	492.13
428.003	471.8
428.379	481.29
428.756	489.2
429.132	483.77
429.507	494.85
429.883	510.89
430.259	510.66
430.635	513.15
431.011	497.11
431.387	501.85
431.763	520.38
432.138	518.12
432.514	504.11
432.89	522.42
433.265	533.49
433.641	511.34
434.016	525.81
434.392	540.95
434.767	551.57
435.143	552.25
435.518	550.44
435.894	539.59
436.269	546.6
436.644	527.39
437.02	548.18
437.395	545.47
437.77	546.6
438.145	580.95
438.52	575.75
438.895	523.77
439.271	564.45
439.646	572.58
440.021	570.55
440.395	575.75
440.77	592.24
441.145	576.65
441.52	577.33
441.895	577.33
442.27	588.4
442.645	567.16
443.019	572.81
443.394	592.92
443.769	588.63
444.143	590.21
444.518	602.87
444.892	582.3
445.267	611.68
445.641	606.48
446.016	589.76
446.39	599.25
446.764	599.48
447.139	614.62
447.513	613.71
447.887	599.48
448.262	621.4
448.636	619.36
449.01	620.94
449.384	626.37
449.758	633.6
450.132	629.31
450.506	642.86
450.88	633.15
451.254	636.08
451.628	652.36
452.002	658.01
452.376	664.33
452.75	651.45
453.123	664.11
453.497	657.55
453.871	665.01
454.244	676.08
454.618	674.28
454.992	671.11
455.365	662.3
455.739	688.51
456.112	679.02
456.486	700.72
456.859	696.42
457.232	680.6
457.606	707.5
457.979	702.75
458.352	698.23
458.725	714.5
459.099	754.05
459.472	719.7
459.845	727.38
460.218	748.62
460.591	725.35
460.964	732.35
461.337	767.38
461.71	780.26
462.083	762.18
462.456	750.21
462.829	757.21
463.201	753.37
463.574	770.09
463.947	768.28
464.32	797.66
464.692	792.47
465.065	814.39
465.438	788.17
465.81	795.63
466.183	819.13
466.555	811.9
466.928	833.37
467.3	845.12
467.672	811.67
468.045	842.41
468.417	875.63
468.789	841.96
469.161	866.14
469.534	874.5
469.906	911.56
470.278	883.31
470.65	915.85
471.022	905.91
471.394	910.2
471.766	911.33
472.138	931.9
472.51	944.33
472.882	955.85
473.253	963.76
473.625	972.8
473.997	993.14
474.369	959.47
474.74	987.94
475.112	990.65
475.484	1044.89
475.855	1014.15
476.227	1037.43
476.598	1066.58
476.97	1065.45
477.341	1061.16
477.713	1113.13
478.084	1111.1
478.455	1126.92
478.827	1114.49
479.198	1148.39
479.569	1125.34
479.94	1164.88
480.311	1159.24
480.682	1199.91
481.053	1231.1
481.424	1236.52
481.795	1213.7
482.166	1236.07
482.537	1294.82
482.908	1288.95
483.279	1300.7
483.65	1271.55
484.021	1328.5
484.391	1327.37
484.762	1337.99
485.133	1358.55
485.503	1392.45
485.874	1387.25
486.244	1384.99
486.615	1404.65
486.985	1427.48
487.356	1442.17
487.726	1430.87
488.097	1477.87
488.467	1509.73
488.837	1524.65
489.207	1565.1
489.578	1552.67
489.948	1569.62
490.318	1600.58
490.688	1591.54
491.058	1614.82
491.428	1617.75
491.798	1619.79
492.168	1656.85
492.538	1675.15
492.908	1692.78
493.278	1697.98
493.648	1741.14
494.017	1772.33
494.387	1763.06
494.757	1743.85
495.126	1796.73
495.496	1771.65
495.866	1838.31
496.235	1824.08
496.605	1830.86
496.974	1824.53
497.344	1863.17
497.713	1875.83
498.082	1905.43
498.452	1905.43
498.821	1932.77
499.19	1930.51
499.559	1938.2
499.928	1918.09
500.298	1991.08
500.667	1982.94
501.036	1928.93
501.405	1998.31
501.774	2005.09
502.143	1976.61
502.512	2001.47
502.88	2036.73
503.249	2044.86
503.618	2044.86
503.987	2096.39
504.356	2079.44
504.724	2064.3
505.093	2110.17
505.462	2115.59
505.83	2138.64
506.199	2162.82
506.567	2121.92
506.936	2182.26
507.304	2188.81
507.672	2194.69
508.041	2243.95
508.409	2231.52
508.777	2225.2
509.145	2265.42
509.514	2264.06
509.882	2267.68
510.25	2271.52
510.618	2321.92
510.986	2283.5
511.354	2313.33
511.722	2339.09
512.09	2355.81
512.458	2373.21
512.826	2373.44
513.193	2418.41
513.561	2434
513.929	2444.17
514.297	2466.32
514.664	2455.25
515.032	2450.05
515.4	2502.02
515.767	2515.81
516.135	2530.95
516.502	2494.34
516.869	2577.05
517.237	2531.85
517.604	2561.01
517.972	2594.9
518.339	2605.07
518.706	2626.99
519.073	2601.68
519.44	2636.71
519.808	2680.78
520.175	2698.4
520.542	2704.51
520.909	2716.93
521.276	2746.09
521.643	2762.36
522.009	2803.03
522.376	2834.45
522.743	2825.41
523.11	2849.81
523.477	2891.39
523.843	2883.71
524.21	2888.68
524.577	2966.42
524.943	2944.95
525.31	2970.03
525.676	3032.18
526.043	3014.1
526.409	3001.22
526.776	3051.84
527.142	3029.69
527.508	3080.77
527.874	3109.24
528.241	3121.44
528.607	3153.53
528.973	3182.46
529.339	3178.17
529.705	3203.7
530.071	3223.81
530.437	3272.17
530.803	3285.73
531.169	3286.64
531.535	3290.03
531.901	3343.36
532.267	3326.64
532.632	3388.55
532.998	3383.81
533.364	3363.24
533.73	3421.32
534.095	3433.75
534.461	3431.94
534.826	3456.12
535.192	3465.62
535.557	3487.08
535.923	3549
536.288	3514.65
536.653	3559.4
537.019	3576.57
537.384	3583.58
537.749	3568.44
538.114	3600.75
538.479	3604.14
538.845	3630.13
539.21	3658.83
539.575	3669
539.94	3676.68
540.305	3735.44
540.67	3706.29
541.034	3753.97
541.399	3730.24
541.764	3768.88
542.129	3808.66
542.494	3833.74
542.858	3828.32
543.223	3826.74
543.587	3869.9
543.952	3870.12
544.316	3859.28
544.681	3846.4
545.045	3888.43
545.41	3912.16
545.774	3918.26
546.138	3960.07
546.503	4008.88
546.867	3976.79
547.231	4020.63
547.595	4045.94
547.959	4056.11
548.324	4073.96
548.688	4094.3
549.052	4126.16
549.416	4130.91
549.779	4125.48
550.143	4136.11
550.507	4196.22
550.871	4175.65
551.235	4224.24
551.599	4257.23
551.962	4278.25
552.326	4243.67
552.689	4292.94
553.053	4287.74
553.417	4344.91
553.78	4400.51
554.143	4364.12
554.507	4406.83
554.87	4404.8
555.234	4456.1
555.597	4497.68
555.96	4518.24
556.323	4548.75
556.686	4583.55
557.05	4576.77
557.413	4607.96
557.776	4645.02
558.139	4689.31
558.502	4702.64
558.865	4745.36
559.228	4779.25
559.59	4782.87
559.953	4820.83
560.316	4893.15
560.679	4927.95
561.041	4916.2
561.404	4996.65
561.767	5041.84
562.129	5036.87
562.492	5094.27
562.854	5098.11
563.217	5104.44
563.579	5198.22
563.941	5233.03
564.304	5291.33
564.666	5289.97
565.028	5373.36
565.39	5342.85
565.753	5475.28
566.115	5475.28
566.477	5537.43
566.839	5550.31
567.201	5618.55
567.563	5597.08
567.925	5713.01
568.287	5706.69
568.648	5776.74
569.01	5848.6
569.372	5889.28
569.734	5913.23
570.095	6032.1
570.457	6073.23
570.819	6089.73
571.18	6129.95
571.542	6279.33
571.903	6272.77
572.265	6297.63
572.626	6324.07
572.987	6437.29
573.349	6473.67
573.71	6561.8
574.071	6657.4
574.432	6666.89
574.794	6758.86
575.155	6776.49
575.516	6842.93
575.877	6884.51
576.238	7007.89
576.599	7064.16
576.96	7138.06
577.32	7231.62
577.681	7255.57
578.042	7361.33
578.403	7451.72
578.763	7531.04
579.124	7581.21
579.485	7681.32
579.845	7825.5
580.206	7863.01
580.566	7963.35
580.927	8120.18
581.287	8166.96
581.648	8295.54
582.008	8342.1
582.368	8518.14
582.728	8542.32
583.089	8684.01
583.449	8804.23
583.809	8950.89
584.169	9039.48
584.529	9225.46
584.889	9371.22
585.249	9412.35
585.609	9535.06
585.969	9774.83
586.329	9874.26
586.688	10033.58
587.048	10138.43
587.408	10366.45
587.768	10550.63
588.127	10717.85
588.487	10825.65
588.846	11080.1
589.206	11163.49
589.565	11413.65
589.925	11663.14
590.284	11770.71
590.643	12067.2
591.003	12341.77
591.362	12510.12
591.721	12650.68
592.08	12849.78
592.44	13120.28
592.799	13404.56
593.158	13572.24
593.517	13759.81
593.876	14124.54
594.235	14294.93
594.593	14527.25
594.952	14759.78
595.311	15116.61
595.67	15327.22
596.029	15732.19
596.387	15984.38
596.746	16250.82
597.104	16402
597.463	16709.33
597.822	17072.71
598.18	17291.24
598.538	17585.24
598.897	17971
599.255	18078.79
599.613	18674.48
599.972	18777.08
600.33	19086.67
600.688	19337.06
601.046	19659.54
601.404	20001.9
601.762	20359.86
602.12	20620.64
602.478	20942.44
602.836	21253.17
603.194	21445.93
603.552	21689.54
603.91	21882.76
604.268	22427.15
604.625	22589.18
604.983	22919.79
605.341	23143.97
605.698	23483.62
606.056	23678.87
606.413	24092.19
606.771	24361.34
607.128	24600.43
607.485	24774.66
607.843	24973.3
608.2	25402.44
608.557	25641.98
608.914	25842.88
609.272	26185.7
609.629	26402.64
609.986	26764.44
610.343	26860.93
610.7	27254.82
611.057	27293.46
611.414	27583.63
611.771	27733.68
612.127	28159.43
612.484	28238.75
612.841	28482.81
613.198	28611.85
613.554	28669.25
613.911	29153.53
614.267	29094.55
614.624	29352.17
614.98	29626.96
615.337	29839.84
615.693	29934.75
616.05	30066.95
616.406	30461.29
616.762	30474.85
617.118	30677.78
617.475	30795.29
617.831	30955.29
618.187	31159.12
618.543	31451.77
618.899	31694.93
619.255	31607.93
619.611	31844.53
619.967	32061.25
620.323	32112.55
620.678	32188.93
621.034	32162.04
621.39	32294.69
621.746	32356.38
622.101	32787.56
622.457	32634.34
622.812	32790.04
623.168	33041.11
623.523	33073.2
623.879	33365.39
624.234	33089.47
624.589	33331.72
624.945	33446.75
625.3	33668.44
625.655	33586.18
626.01	33591.15
626.365	33637.03
626.72	33781.65
627.075	33870.47
627.43	33877.7
627.785	34001.31
628.14	34136.45
628.495	34283.11
628.85	34187.75
629.205	34164.24
629.559	34424.8
629.914	34247.86
630.269	34443.33
630.623	34255.77
630.978	34278.14
631.332	34693.04
631.687	34690.78
632.041	34526.27
632.396	34662.31
632.75	34547.51
633.104	34782.53
633.459	34613.04
633.813	34543.67
634.167	34629.99
634.521	34674.29
634.875	34762.19
635.229	34658.02
635.583	34580.5
635.937	34637.22
636.291	34588.64
636.645	34619.15
636.999	34651.69
637.352	34697.79
637.706	34529.88
638.06	34735.3
638.413	34648.75
638.767	34491.92
639.121	34736.66
639.474	34568.53
639.828	34651.01
640.181	34671.35
640.534	34830.89
640.888	34823.21
641.241	34635.64
641.594	34672.48
641.947	34780.05
642.301	34720.39
642.654	34812.59
643.007	34919.48
643.36	34681.97
643.713	34677.45
644.066	34901.62
644.419	34623.67
644.771	34411.47
645.124	33961.54
645.477	34122.89
645.83	33898.49
646.182	33831.37
646.535	33791.37
646.888	33990.69
647.24	33870.24
647.593	34006.06
647.945	33833.63
648.298	33766.74
648.65	33698.72
649.002	33613.3
649.355	33879.73
649.707	33690.36
650.059	33844.03
650.411	34208.99
650.763	34114.3
651.115	34825.92
651.467	34527.17
651.819	34667.51
652.171	34638.35
652.523	34497.12
652.875	34481.07
653.227	34401.52
653.578	34625.25
653.93	34637.45
654.282	34490.79
654.633	34425.93
654.985	34585.02
655.337	34538.02
655.688	34424.8
656.039	34633.84
656.391	34299.38
656.742	34431.58
657.094	34461.18
657.445	34549.54
657.796	34315.88
658.147	34523.78
658.498	34347.74
658.849	34405.82
659.2	34284.92
659.551	34207.18
659.902	34477.46
660.253	34433.39
660.604	34340.28
660.955	34223.45
661.306	34479.04
661.656	34469.77
662.007	34461.41
662.358	34351.81
662.708	34359.49
663.059	34428.42
663.409	34205.6
663.76	34502.77
664.11	34502.77
664.461	34565.59
664.811	34411.92
665.161	34445.14
665.511	34234.75
665.862	34358.81
666.212	34476.33
666.562	34504.57
666.912	34457.79
667.262	34433.61
667.612	34373.73
667.962	34413.5
668.312	34389.1
668.662	34548.41
669.011	34461.64
669.361	34412.6
669.711	34452.37
670.06	34263.45
670.41	34215.32
670.76	34142.1
671.109	34360.17
671.459	34318.82
671.808	34268.42
672.157	34367.85
672.507	34081.08
672.856	34118.37
673.205	34261.87
673.554	34220.51
673.904	34177.35
674.253	34435.87
674.602	34223
674.951	33800.18
675.3	33591.38
675.649	34059.84
675.998	34211.47
676.346	34189.33
676.695	34193.85
677.044	34046.73
677.393	34162.21
677.741	34092.61
678.09	33946.62
678.438	33748.66
678.787	33985.26
679.135	33988.43
679.484	33710.7
679.832	33944.14
680.181	33613.3
680.529	33851.48
680.877	33779.85
681.225	33681.77
681.573	33954.3
681.922	33525.62
682.27	33527.65
682.618	33596.35
682.966	33431.38
683.314	33570.81
683.661	33398.61
684.009	33276.13
684.357	33129.47
684.705	33128.11
685.053	33268
685.4	33226.87
685.748	32980.32
686.095	33071.84
686.443	32766.99
686.79	32816.71
687.138	32929.93
687.485	32896.93
687.832	32715.24
688.18	32797.27
688.527	32703.26
688.874	32586.21
689.221	32570.39
689.568	32331.75
689.915	32420.56
690.262	32345.99
690.609	32297.85
690.956	32133.34
691.303	32137.4
691.65	31901.93
691.997	31887.47
692.344	31750.52
692.69	31869.16
693.037	31805.21
693.383	31542.84
693.73	31614.25
694.077	31402.96
694.423	31444.31
694.769	31404.09
695.116	31349.18
695.462	31242.96
695.808	31159.8
696.155	31182.4
696.501	30927.94
696.847	31005.91
697.193	30830.55
697.539	30974.5
697.885	30704.22
698.231	30809.75
698.577	30611.12
698.923	30522.98
699.269	30365.02
699.614	30171.58
699.96	30330.67
700.306	30267.17
700.651	30098.81
700.997	29903.34
701.342	29951.02
701.688	29879.16
702.033	29731.37
702.379	29720.52
702.724	29837.13
703.069	29795.32
703.415	29402.56
703.76	29533.4
704.105	29504.48
704.45	29411.15
704.795	29272.85
705.14	29207.54
705.485	29177.48
705.83	29118.95
706.175	29189.01
706.52	29028.11
706.865	28975.23
707.209	28910.37
707.554	28813.65
707.899	28859.75
708.243	28772.75
708.588	28588.57
708.932	28493.66
709.277	28560.77
709.621	28527.55
709.966	28430.16
710.31	28292.31
710.654	28102.26
710.998	28224.29
711.342	28175.25
711.687	28102.71
712.031	28054.57
712.375	27888.48
712.719	28024.29
713.063	27939.77
713.407	28033.1
713.75	27808.7
714.094	27662.04
714.438	27661.82
714.782	27742.04
715.125	27498.43
715.469	27697.75
715.812	27386.34
716.156	27350.41
716.499	27377.08
716.843	27432.22
717.186	27297.08
717.53	27358.32
717.873	27330.07
718.216	27159.23
718.559	26966.47
718.902	26874.94
719.246	26917.88
719.589	26877.88
719.932	26822.29
720.275	26886.92
720.617	26831.1
720.96	26728.05
721.303	26654.38
721.646	26798.33
721.989	26534.84
722.331	26774.38
722.674	26513.82
723.016	26787.94
723.359	26454.62
723.701	26545.69
724.044	26445.8
724.386	26236.99
724.729	26420.27
725.071	26352.24
725.413	26347.5
725.755	26154.51
726.097	26150.44
726.439	26059.15
726.782	26006.72
727.124	26117.45
727.465	25954.97
727.807	25955.87
728.149	25915.65
728.491	25775.08
728.833	25915.19
729.175	25902.54
729.516	25726.72
729.858	25651.25
730.199	25736.67
730.541	25723.79
730.882	25605.15
731.224	25692.83
731.565	25576.45
731.906	25559.5
732.248	25507.07
732.589	25546.62
732.93	25346.17
733.271	25435.43
733.612	25359.28
733.953	25430.91
734.294	25381.2
734.635	25257.81
734.976	25366.06
735.317	25214.2
735.658	25205.16
735.999	25114.09
736.339	25137.59
736.68	25236.57
737.021	25161.09
737.361	24991.6
737.702	25147.53
738.042	25006.74
738.383	24933.3
738.723	25105.5
739.063	24790.03
739.404	24906.18
739.744	24809.01
740.084	24779.18
740.424	24814.88
740.764	24692.18
741.104	24878.84
741.444	24575.12
741.784	24632.74
742.124	24621.67
742.464	24710.25
742.804	24606.75
743.143	24558.39
743.483	24567.89
743.823	24385.29
744.162	24330.6
744.502	24443.37
744.841	24311.85
745.181	24366.53
745.52	24257.38
745.86	24380.09
746.199	24290.15
746.538	24211.28
746.877	24264.39
747.216	24206.09
747.556	24173.09
747.895	24215.13
748.234	24161.57
748.573	24016.49
748.911	23989.82
749.25	23962.7
749.589	23944.4
749.928	23969.71
750.267	23945.53
750.605	23860.79
750.944	23818.3
751.283	23746.44
751.621	23852.65
751.96	23729.94
752.298	23654.91
752.636	23673.45
752.975	23535.6
753.313	23492.89
753.651	23576.5
753.989	23423.28
754.327	23328.37
754.666	23264.19
755.004	23278.43
755.342	23343.74
755.679	23245.43
756.017	23180.35
756.355	23183.97
756.693	23098.77
757.031	23037.08
757.368	23066
757.706	22935.61
758.044	22924.31
758.381	22929.74
758.719	22907.82
759.056	22841.15
759.394	22820.13
759.731	22616.75
760.068	22680.03
760.405	22438.45
760.743	22530.88
761.08	22549.41
761.417	22410.65
761.754	22316.42
762.091	22339.47
762.428	22176.99
762.765	22140.6
763.102	22245.69
763.438	21976.09
763.775	21945.13
764.112	22017.44
764.449	21883.44
764.785	21810.67
765.122	21632.14
765.458	21639.6
765.795	21564.57
766.131	21578.59
766.467	21587.4
766.804	21358.93
767.14	21302.66
767.476	21304.24
767.812	21181.76
768.148	21266.05
768.485	21022.44
768.821	20953.06
769.157	20916.46
769.492	20912.84
769.828	20861.54
770.164	20628.33
770.5	20572.06
770.836	20750.13
771.171	20565.28
771.507	20533.41
771.842	20358.96
772.178	20384.49
772.513	20323.93
772.849	20302.23
773.184	20153.54
773.519	20152.18
773.855	20053.65
774.19	19923.71
774.525	19887.78
774.86	19988.57
775.195	19914.22
775.53	19645.3
775.865	19692.99
776.2	19609.6
776.535	19419.55
776.87	19405.08
777.205	19343.16
777.539	19299.78
777.874	19265.2
778.209	19109.05
778.543	19097.29
778.878	18998.77
779.212	18907.92
779.547	18844.87
779.881	18909.28
780.215	18821.6
780.55	18831.31
780.884	18658.21
781.218	18578.66
781.552	18610.53
781.886	18476.07
782.22	18408.27
782.554	18386.58
782.888	18116.08
783.222	18117.21
783.556	18034.5
783.889	18007.61
784.223	17915.18
784.557	17847.61
784.89	17890.32
785.224	17746.37
785.557	17653.04
785.891	17638.58
786.224	17600.38
786.558	17602.42
786.891	17442.65
787.224	17428.41
787.557	17294.63
787.891	17362.88
788.224	17225.71
788.557	17287.62
788.89	17198.59
789.223	17176.22
789.556	17013.51
789.888	16929.22
790.221	16955.43
790.554	16792.5
790.887	16820.07
791.219	16700.3
791.552	16651.94
791.884	16554.99
792.217	16576.68
792.549	16503.01
792.882	16406.74
793.214	16317.03
793.546	16373.98
793.879	16162.46
794.211	16174.89
794.543	16232.29
794.875	16129.01
795.207	16172.17
795.539	16019.86
795.871	16070.93
796.203	15907.32
796.535	15792.97
796.867	15852.63
797.198	15728.57
797.53	15785.74
797.862	15616.03
798.193	15662.81
798.525	15563.83
798.856	15700.55
799.188	15493.77
799.519	15394.34
799.85	15323.38
800.182	15338.52
800.513	15270.05
800.844	15200.45
801.175	15239.32
801.506	15175.14
801.837	15124.97
802.168	15070.96
802.499	15083.16
802.83	14993.67
803.161	14955.93
803.491	14930.85
803.822	14926.33
804.153	14802.49
804.483	14723.17
804.814	14715.71
805.145	14727.69
805.475	14700.12
805.805	14571.99
806.136	14534.48
806.466	14543.97
806.796	14553.91
807.126	14385.1
807.457	14385.1
807.787	14449.06
808.117	14278.66
808.447	14315.95
808.777	14359.57
809.107	14303.52
809.436	14194.37
809.766	14202.06
810.096	14063.3
810.426	14059.23
810.755	14080.25
811.085	14080.25
811.414	13891.56
811.744	13875.74
812.073	13904.89
812.403	13870.77
812.732	13779.24
813.061	13754.38
813.39	13683.65
813.719	13703.54
814.049	13706.93
814.378	13610.89
814.707	13574.28
815.036	13575.41
815.365	13470.78
815.693	13416.31
816.022	13405.47
816.351	13416.77
816.68	13287.5
817.008	13420.61
817.337	13313.94
817.665	13247.28
817.994	13308.97
818.322	13262.87
818.651	13133.84
818.979	13120.95
819.307	13171.8
819.636	13179.48
819.964	13067.17
820.292	13124.34
820.62	13051.58
820.948	13048.19
821.276	13057
821.604	13043.89
821.932	12988.75
822.259	13002.77
822.587	12962.99
822.915	12950.56
823.243	13025.36
823.57	13022.88
823.898	12988.3
824.225	12928.87
824.553	12973.61
824.88	12926.84
825.207	12893.39
825.535	12933.16
825.862	13024.46
826.189	12986.95
826.516	12865.59
826.843	12930
827.17	13006.38
827.497	13028.98
827.824	13002.31
828.151	13011.8
828.478	12919.15
828.805	13005.03
829.131	12944.24
829.458	12948.53
829.785	12786.73
830.111	12883.22
830.438	12996.44
830.764	12864.69
831.09	12909.43
831.417	12871.92
831.743	12972.03
832.069	12912.82
832.395	12891.36
832.722	12942.88
833.048	12824.69
833.374	12926.38
833.7	12773.39
834.026	12866.27
834.351	12897.91
834.677	12919.83
835.003	12867.18
835.329	12833.73
835.654	12736.56
835.98	12760.06
836.306	12754.86
836.631	12732.04
836.956	12727.97
837.282	12691.81
837.607	12649.33
837.932	12645.94
838.258	12687.29
838.583	12611.14
838.908	12567.3
839.233	12574.98
839.558	12562.1
839.883	12487.75
840.208	12435.55
840.533	12459.28
840.858	12482.1
841.182	12487.07
841.507	12509.67
841.832	12341.99
842.156	12414.76
842.481	12358.71
842.805	12291.15
843.13	12372.73
843.454	12250.92
843.778	12263.35
844.103	12168.89
844.427	12180.41
844.751	12163.01
845.075	12174.09
845.399	12058.16
845.723	12002.79
846.047	12058.61
846.371	11881.66
846.695	11901.1
847.019	11796.02
847.343	11838.73
847.666	11761.44
847.99	11709.01
848.313	11738.62
848.637	11602.35
848.96	11633.31
849.284	11569.58
849.607	11529.36
849.931	11458.63
850.254	11345.86
850.577	11356.93
850.9	11238.52
851.223	11292.53
851.546	11220.67
851.869	11165.98
852.192	11158.52
852.515	11105.19
852.838	11038.3
853.161	11027.45
853.483	10941.12
853.806	10940.9
854.129	10892.09
854.451	10823.39
854.774	10851.86
855.096	10769.83
855.419	10754.01
855.741	10716.72
856.063	10634.69
856.385	10621.81
856.708	10618.42
857.03	10605.31
857.352	10594.69
857.674	10562.38
857.996	10534.58
858.318	10366
858.64	10406
858.961	10414.58
859.283	10340.46
859.605	10295.27
859.926	10376.17
860.248	10274.25
860.57	10271.09
860.891	10322.84
861.212	10182.73
861.534	10200.81
861.855	10171.65
862.176	10203.07
862.498	10208.94
862.819	10101.15
863.14	10125.1
863.461	10081.49
863.782	10026.35
864.103	10041.94
864.424	10047.36
864.745	10074.48
865.065	10048.94
865.386	9960.13
865.707	9928.04
866.027	9990.19
866.348	9968.95
866.668	9931.66
866.989	9835.39
867.309	9799.01
867.63	9869.97
867.95	9849.85
868.27	9809.86
868.59	9849.63
868.91	9796.3
869.23	9778.44
869.55	9676.3
869.87	9694.38
870.19	9629.97
870.51	9697.54
870.83	9710.87
871.15	9707.03
871.469	9650.76
871.789	9681.04
872.109	9655.28
872.428	9566.02
872.748	9559.24
873.067	9606.24
873.386	9607.83
873.706	9513.59
874.025	9420.26
874.344	9490.09
874.663	9558.11
874.982	9522.63
875.301	9478.79
875.62	9424.1
875.939	9409.87
876.258	9468.17
876.577	9409.41
876.896	9411.22
877.214	9382.3
877.533	9341.39
877.852	9344.33
878.17	9289.64
878.489	9353.82
878.807	9349.98
879.125	9356.53
879.444	9316.31
879.762	9291.9
880.08	9282.86
880.398	9240.38
880.716	9195.41
881.034	9213.71
881.352	9168.06
881.67	9136.43
881.988	9129.19
882.306	9184.11
882.624	9137.33
882.941	9088.07
883.259	9073.15
883.577	9016.66
883.894	8990.67
884.212	8969.43
884.529	8987.73
884.846	8948.18
885.164	8994.28
885.481	8953.83
885.798	8938.01
886.115	8835.19
886.432	8879.48
886.75	8829.99
887.067	8828.86
887.383	8825.7
887.7	8843.1
888.017	8741.18
888.334	8739.37
888.651	8754.06
888.967	8623.22
889.284	8633.84
889.6	8638.13
889.917	8614.63
890.233	8632.03
890.55	8566.27
890.866	8568.76
891.182	8533.5
891.498	8494.41
891.815	8474.52
892.131	8404.47
892.447	8384.13
892.763	8383.9
893.079	8352.04
893.395	8364.02
893.71	8391.36
894.026	8328.99
894.342	8316.34
894.657	8220.97
894.973	8273.85
895.289	8196.11
895.604	8233.17
895.92	8172.61
896.235	8124.93
896.55	8102.78
896.865	8105.72
897.181	8039.28
897.496	7998.6
897.811	7942.79
898.126	7882
898.441	7966.06
898.756	7970.36
899.071	7913.86
899.386	7861.66
899.7	7789.57
900.015	7769.91
900.33	7725.84
900.644	7726.75
900.959	7730.14
901.273	7690.14
901.588	7698.5
901.902	7615.34
902.216	7584.15
902.531	7559.29
902.845	7507.77
903.159	7529.69
903.473	7465.96
903.787	7457.15
904.101	7423.48
904.415	7429.8
904.729	7409.92
905.042	7391.61
905.356	7382.57
905.67	7239.3
905.984	7298.73
906.297	7288.11
906.611	7169.25
906.924	7178.96
907.237	7140.55
907.551	7129.02
907.864	7120.89
908.177	7101.45
908.491	7132.86
908.804	7084.28
909.117	7062.81
909.43	7035.01
909.743	6938.74
910.056	6916.37
910.368	6855.81
910.681	6837.5
910.994	6811.74
911.307	6837.5
911.619	6754.12
911.932	6759.54
912.244	6691.74
912.557	6700.78
912.869	6666.89
913.181	6628.24
913.494	6637.28
913.806	6564.52
914.118	6532.2
914.43	6507.57
914.742	6498.3
915.054	6432.77
915.366	6394.8
915.678	6432.54
915.99	6384.41
916.302	6355.03
916.613	6335.37
916.925	6319.55
917.236	6325.2
917.548	6273.45
917.859	6282.26
918.171	6200.91
918.482	6190.97
918.794	6174.7
919.105	6154.36
919.416	6077.75
919.727	6080.46
920.038	6031.42
920.349	6046.34
920.66	6025.55
920.971	5982.61
921.282	5998.66
921.593	5949.62
921.903	5894.25
922.214	5953.23
922.525	5803.63
922.835	5844.08
923.146	5828.72
923.456	5752.79
923.767	5774.25
924.077	5767.25
924.387	5732
924.697	5684.77
925.008	5660.59
925.318	5664.43
925.628	5647.48
925.938	5600.93
926.248	5566.8
926.558	5536.52
926.867	5542.62
927.177	5542.85
927.487	5484.55
927.796	5426.47
928.106	5421.27
928.416	5420.14
928.725	5419.01
929.034	5370.65
929.344	5381.27
929.653	5365
929.962	5342.63
930.271	5252.23
930.581	5263.99
930.89	5228.96
931.199	5246.13
931.508	5189.64
931.817	5163.42
932.125	5173.59
932.434	5151.45
932.743	5121.84
933.051	5106.93
933.36	5048.85
933.669	5065.35
933.977	5039.13
934.286	5004.33
934.594	4972.69
934.902	4943.32
935.21	4975.63
935.519	4937.21
935.827	4920.72
936.135	4828.07
936.443	4819.25
936.751	4827.61
937.059	4821.96
937.367	4776.77
937.674	4796.2
937.982	4758.69
938.29	4721.18
938.597	4744.45
938.905	4698.58
939.213	4689.54
939.52	4646.38
939.827	4614.06
940.135	4582.2
940.442	4607.51
940.749	4553.27
941.056	4590.11
941.363	4546.49
941.67	4562.76
941.977	4487.96
942.284	4457.23
942.591	4435.31
942.898	4387.62
943.205	4360.73
943.511	4393.73
943.818	4393.5
944.125	4387.85
944.431	4374.07
944.738	4348.98
945.044	4340.85
945.35	4292.71
945.657	4248.65
945.963	4217.01
946.269	4223.34
946.575	4214.75
946.881	4173.85
947.187	4206.16
947.493	4192.83
947.799	4165.71
948.105	4116.22
948.41	4087.29
948.716	4118.03
949.022	4091.14
949.327	4058.82
949.633	4069.22
949.938	4029.67
950.244	4012.72
950.549	3987.86
950.854	3936.34
951.16	3926.17
951.465	3936.11
951.77	3917.81
952.075	3859.5
952.38	3882.1
952.685	3879.39
952.99	3816.34
953.294	3851.37
953.599	3769.79
953.904	3773.63
954.209	3804.59
954.513	3783.12
954.818	3754.2
955.122	3744.03
955.426	3680.75
955.731	3719.62
956.035	3685.5
956.339	3671.49
956.643	3684.14
956.948	3635.33
957.252	3614.54
957.556	3631.94
957.86	3634.65
958.163	3593.52
958.467	3593.75
958.771	3555.56
959.075	3581.32
959.378	3553.07
959.682	3522.56
959.985	3472.17
960.289	3492.73
960.592	3436.69
960.896	3421.32
961.199	3444.82
961.502	3459.51
961.805	3375.9
962.108	3385.62
962.411	3393.3
962.714	3389.68
963.017	3355.34
963.32	3358.05
963.623	3302.68
963.926	3286.86
964.228	3310.59
964.531	3226.98
964.833	3272.17
965.136	3249.12
965.438	3239.86
965.741	3222.68
966.043	3177.04
966.345	3177.49
966.648	3161.44
966.95	3163.7
967.252	3139.52
967.554	3111.73
967.856	3153.98
968.158	3109.92
968.46	3087.77
968.761	3070.82
969.063	3050.71
969.365	3071.5
969.666	3007.55
969.968	2983.59
970.269	3046.64
970.571	2990.15
970.872	2990.83
971.174	2956.25
971.475	2964.84
971.776	2943.82
972.077	2919.19
972.378	2906.53
972.679	2918.74
972.98	2930.26
973.281	2867.66
973.582	2857.72
973.883	2861.56
974.183	2862.47
974.484	2829.7
974.785	2837.83
975.085	2826.76
975.386	2847.55
975.686	2817.27
975.986	2793.32
976.287	2810.04
976.587	2756.03
976.887	2777.05
977.187	2725.75
977.487	2701.12
977.787	2670.83
978.087	2691.62
978.387	2680.33
978.687	2696.6
978.987	2675.81
979.286	2660.66
979.586	2626.32
979.885	2623.38
980.185	2567.33
980.484	2575.02
980.784	2573.89
981.083	2584.96
981.382	2563.94
981.682	2585.86
981.981	2552.64
982.28	2536.37
982.579	2539.31
982.878	2530.72
983.177	2470.84
983.475	2451.18
983.774	2465.87
984.073	2479.43
984.372	2413.21
984.67	2443.27
984.969	2428.13
985.267	2431.74
985.566	2419.09
985.864	2407.56
986.162	2385.42
986.461	2358.07
986.759	2345.64
987.057	2323.95
987.355	2331.63
987.653	2341.8
987.951	2321.24
988.249	2336.15
988.547	2318.53
988.844	2302.48
989.142	2293.44
989.44	2279.21
989.737	2288.47
990.035	2270.39
990.332	2252.54
990.63	2229.72
990.927	2202.6
991.224	2195.82
991.521	2224.97
991.819	2199.43
992.116	2186.55
992.413	2168.47
992.71	2171.64
993.006	2151.07
993.303	2147.91
993.6	2139.32
993.897	2126.44
994.193	2134.58
994.49	2119.44
994.787	2111.75
995.083	2063.17
995.379	2102.94
995.676	2075.37
995.972	2071.08
996.268	2052.54
996.565	2010.06
996.861	2027.69
997.157	2014.13
997.453	2033.11
997.749	2002.6
998.044	2009.83
998.34	1978.87
998.636	1974.13
998.932	1949.04
999.227	1937.07
999.523	1930.74
999.818	1956.95
1000.114	1925.32
1000.409	1917.63
1000.704	1902.72
1001	1907.46
1001.295	1902.72
1001.59	1860.91
1001.885	1879.67
1002.18	1875.15
1002.475	1848.93
1002.77	1825.88
1003.065	1842.15
1003.359	1824.75
1003.654	1807.13
1003.949	1779.11
1004.243	1808.26
1004.538	1769.84
1004.832	1754.25
1005.127	1773.68
1005.421	1729.16
1005.715	1767.13
1006.009	1746.56
1006.304	1683.52
1006.598	1702.27
1006.892	1686.45
1007.186	1665.21
1007.48	1698.88
1007.773	1664.76
1008.067	1645.55
1008.361	1640.13
1008.655	1655.27
1008.948	1654.59
1009.242	1658.88
1009.535	1651.65
1009.829	1598.55
1010.122	1588.6
1010.415	1602.16
1010.708	1596.29
1011.001	1560.58
1011.295	1580.69
1011.588	1563.29
1011.881	1527.81
1012.173	1547.93
1012.466	1501.15
1012.759	1522.84
1013.052	1534.37
1013.344	1547.7
1013.637	1521.71
1013.93	1498.66
1014.222	1474.93
1014.514	1484.65
1014.807	1440.13
1015.099	1452.79
1015.391	1450.53
1015.683	1438.55
1015.976	1410.3
1016.268	1412.56
1016.56	1428.61
1016.851	1421.83
1017.143	1406.69
1017.435	1373.24
1017.727	1374.37
1018.018	1366.91
1018.31	1366.69
1018.602	1359.91
1018.893	1354.03
1019.185	1332.56
1019.476	1345.67
1019.767	1325.33
1020.058	1342.28
1020.35	1334.82
1020.641	1283.3
1020.932	1285.11
1021.223	1293.02
1021.514	1260.25
1021.804	1257.76
1022.095	1254.15
1022.386	1228.61
1022.677	1257.99
1022.967	1223.19
1023.258	1225.22
1023.548	1221.83
1023.839	1208.05
1024.129	1199.23
1024.419	1182.06
1024.709	1201.72
1025	1189.29
1025.29	1182.29
1025.58	1166.92
1025.87	1148.39
1026.16	1147.48
1026.449	1156.98
1026.739	1118.78
1027.029	1117.43
1027.319	1105
1027.608	1099.12
1027.898	1121.5
1028.187	1114.94
1028.477	1088.5
1028.766	1088.5
1029.055	1073.36
1029.344	1086.47
1029.634	1063.87
1029.923	1081.72
1030.212	1040.37
1030.501	1043.08
1030.79	1021.16
1031.078	1032.46
1031.367	1037.43
1031.656	1019.58
1031.945	1014.83
1032.233	989.3
1032.522	1000.82
1032.81	969.18
1033.099	993.82
1033.387	992.01
1033.675	989.07
1033.963	973.03
1034.251	949.75
1034.54	963.31
1034.828	970.77
1035.116	938.9
1035.403	947.94
1035.691	949.98
1035.979	936.42
1036.267	934.16
1036.554	901.84
1036.842	936.64
1037.129	909.98
1037.417	916.53
1037.704	906.59
1037.992	890.77
1038.279	901.39
1038.566	887.6
1038.853	887.6
1039.14	887.6
