Data from red_cardboard_box_FLMS001491_00036.txt Node
Date: Wed Feb 08 11:32:05 GMT 2017
User: dcchb
Spectrometer: FLMS00149
Trigger mode: 0
Integration Time (sec): 2.000000E-2
Scans to average: 10
Electric dark correction enabled: true
Nonlinearity correction enabled: false
Boxcar width: 0
XAxis mode: Wavelengths
Number of Pixels in Spectrum: 2048
>>>>>Begin Spectral Data<<<<<
341.393	6.07
341.776	6.07
342.16	6.07
342.543	-50.2
342.927	-86.35
343.31	-49.07
343.693	-73.92
344.077	-55.62
344.46	-60.37
344.843	-69.18
345.226	-40.71
345.61	-14.27
345.993	-27.15
346.376	-11.78
346.759	2.01
347.142	14.43
347.525	40.87
347.908	53.76
348.291	76.58
348.674	96.47
349.057	117.93
349.44	136.69
349.823	144.15
350.206	162.91
350.588	179.4
350.971	217.14
351.354	236.35
351.737	229.8
352.119	273.64
352.502	266.18
352.884	265.28
353.267	302.11
353.65	276.12
354.032	297.82
354.414	309.57
354.797	310.47
355.179	302.79
355.562	349.79
355.944	321.09
356.326	331.49
356.709	328.78
357.091	334.43
357.473	347.53
357.855	340.3
358.238	354.09
358.62	337.36
359.002	338.72
359.384	331.94
359.766	346.86
360.148	341.88
360.53	345.73
360.912	325.39
361.294	326.97
361.676	334.43
362.057	325.84
362.439	316.8
362.821	313.41
363.203	317.7
363.584	324.93
363.966	333.07
364.348	321.55
364.729	349.57
365.111	318.83
365.493	307.99
365.874	320.19
366.256	308.44
366.637	300.3
367.019	313.41
367.4	301.66
367.781	315.44
368.163	286.97
368.544	304.6
368.925	327.42
369.306	322.45
369.688	310.02
370.069	321.32
370.45	316.8
370.831	301.66
371.212	307.99
371.593	305.95
371.974	296.01
372.355	309.79
372.736	300.75
373.117	305.73
373.498	313.41
373.879	307.76
374.26	295.11
374.641	313.18
375.021	300.53
375.402	325.84
375.783	311.83
376.163	343.24
376.544	328.32
376.925	323.81
377.305	319.74
377.686	317.93
378.066	315.44
378.447	319.74
378.827	320.19
379.208	336.91
379.588	310.25
379.968	318.61
380.349	313.86
380.729	319.06
381.109	331.04
381.489	316.57
381.87	316.8
382.25	329.68
382.63	336.01
383.01	350.92
383.39	336.23
383.77	342.56
384.15	319.51
384.53	332.84
384.91	342.79
385.29	331.94
385.67	326.29
386.049	351.15
386.429	347.76
386.809	338.95
387.189	338.95
387.568	338.72
387.948	338.49
388.328	338.72
388.707	340.3
389.087	346.4
389.466	351.83
389.846	363.35
390.225	373.75
390.605	356.57
390.984	362.45
391.363	345.95
391.743	340.98
392.122	369.91
392.501	347.76
392.881	345.05
393.26	358.61
393.639	368.1
394.018	357.7
394.397	348.21
394.776	344.37
395.155	353.86
395.534	362.45
395.913	359.74
396.292	363.8
396.671	366.29
397.05	372.62
397.429	370.36
397.808	381.88
398.186	360.19
398.565	375.78
398.944	357.7
399.323	360.64
399.701	367.65
400.08	367.19
400.458	353.63
400.837	354.31
401.215	380.98
401.594	343.01
401.972	374.2
402.351	373.3
402.729	376.01
403.107	385.72
403.486	381.2
403.864	376.23
404.242	363.35
404.62	384.59
404.999	359.06
405.377	383.01
405.755	389.79
406.133	392.96
406.511	403.8
406.889	398.61
407.267	397.93
407.645	396.8
408.023	412.62
408.401	404.93
408.779	389.79
409.156	418.72
409.534	396.12
409.912	396.12
410.29	388.66
410.667	399.96
411.045	403.12
411.422	397.48
411.8	416.46
412.178	428.21
412.555	417.36
412.933	432.28
413.31	411.71
413.687	446.74
414.065	422.33
414.442	426.63
414.819	419.4
415.197	444.93
415.574	423.46
415.951	428.21
416.328	435.67
416.705	425.05
417.082	439.96
417.46	441.77
417.837	444.93
418.214	417.14
418.591	431.37
418.967	433.18
419.344	435.89
419.721	450.36
420.098	425.05
420.475	432.73
420.852	432.95
421.228	452.39
421.605	439.06
421.982	460.98
422.358	462.33
422.735	454.2
423.111	460.3
423.488	452.84
423.864	463.69
424.241	467.08
424.617	466.63
424.994	444.48
425.37	456.91
425.746	475.67
426.123	472.73
426.499	497.36
426.875	489
427.251	484.93
427.627	491.03
428.003	500.75
428.379	490.81
428.756	495.78
429.132	486.51
429.507	481.54
429.883	497.13
430.259	502.11
430.635	498.94
431.011	490.58
431.387	531.71
431.763	521.99
432.138	515.21
432.514	519.73
432.89	521.77
433.265	505.04
433.641	528.09
434.016	534.19
434.392	545.27
434.767	540.3
435.143	529
435.518	542.33
435.894	544.59
436.269	548.66
436.644	554.99
437.02	559.28
437.395	557.47
437.77	564.25
438.145	550.01
438.52	589.11
438.895	562.89
439.271	548.88
439.646	573.29
440.021	575.32
440.395	574.19
440.77	591.82
441.145	572.39
441.52	596.34
441.895	609.45
442.27	594.53
442.645	602.44
443.019	612.39
443.394	587.75
443.769	593.63
444.143	591.82
444.518	601.76
444.892	583.91
445.267	603.57
445.641	609.9
446.016	589.11
446.39	626.17
446.764	594.76
447.139	593.85
447.513	619.39
447.887	619.62
448.262	632.95
448.636	608.77
449.01	631.82
449.384	653.74
449.758	625.94
450.132	623.23
450.506	635.89
450.88	642.89
451.254	632.05
451.628	673.85
452.002	677.24
452.376	663.23
452.75	658.03
453.123	658.26
453.497	650.8
453.871	689.67
454.244	683.12
454.618	698.71
454.992	684.02
455.365	705.26
455.739	686.06
456.112	688.32
456.486	711.59
456.859	713.4
457.232	707.3
457.606	700.97
457.979	707.75
458.352	709.11
458.725	727.86
459.099	724.25
459.472	742.78
459.845	738.94
460.218	759.27
460.591	753.4
460.964	740.74
461.337	760.18
461.71	757.24
462.083	784.13
462.456	778.26
462.829	765.6
463.201	788.43
463.574	768.31
463.947	779.16
464.32	816.9
464.692	791.82
465.065	814.64
465.438	811.25
465.81	816
466.183	811.48
466.555	844.7
466.928	831.36
467.3	830.01
467.672	858.03
468.045	866.16
468.417	856.67
468.789	853.51
469.161	870.46
469.534	887.63
469.906	908.2
470.278	879.04
470.65	896.22
471.022	914.98
471.394	908.2
471.766	925.6
472.138	931.92
472.51	948.65
472.882	933.73
473.253	967.86
473.625	983.22
473.997	959.27
474.369	986.16
474.74	983
475.112	1000.62
475.484	1032.26
475.855	1038.81
476.227	1024.58
476.598	1079.72
476.97	1061.19
477.341	1095.31
477.713	1093.5
478.084	1086.95
478.455	1107.74
478.827	1122.2
479.198	1162.88
479.569	1165.82
479.94	1180.51
480.311	1182.54
480.682	1201.07
481.053	1185.03
481.424	1244.01
481.795	1221.86
482.166	1230
482.537	1271.12
482.908	1294.63
483.279	1278.36
483.65	1279.03
484.021	1333.04
484.391	1325.13
484.762	1373.49
485.133	1354.29
485.503	1363.33
485.874	1394.06
486.244	1396.09
486.615	1433.38
486.985	1467.73
487.356	1487.84
487.726	1477.22
488.097	1467.5
488.467	1477.67
488.837	1570.1
489.207	1536.65
489.578	1571.91
489.948	1593.6
490.318	1583.88
490.688	1613.04
491.058	1626.14
491.428	1617.1
491.798	1646.71
492.168	1674.5
492.538	1685.58
492.908	1687.16
493.278	1701.17
493.648	1710.89
494.017	1752.02
494.387	1762.41
494.757	1785.24
495.126	1794.27
495.496	1787.04
495.866	1811
496.235	1834.73
496.605	1831.11
496.974	1835.18
497.344	1879.7
497.713	1865.91
498.082	1887.83
498.452	1889.41
498.821	1958.34
499.19	1929.86
499.559	1935.51
499.928	1924.21
500.298	1956.53
500.667	1976.19
501.036	1966.25
501.405	1983.2
501.774	1977.32
502.143	2040.82
502.512	2004.66
502.88	2010.09
503.249	2034.49
503.618	2078.34
503.987	2068.17
504.356	2073.82
504.724	2119.01
505.093	2113.14
505.462	2147.03
505.83	2124.21
506.199	2133.02
506.567	2193.59
506.936	2141.61
507.304	2206.47
507.672	2180.71
508.041	2189.97
508.409	2219.12
508.777	2285.56
509.145	2270.65
509.514	2252.12
509.882	2289.4
510.25	2279.23
510.618	2320.14
510.986	2305.67
511.354	2319.91
511.722	2346.58
512.09	2354.94
512.458	2367.37
512.826	2400.36
513.193	2384.32
513.561	2406.69
513.929	2425.44
514.297	2466.35
514.664	2467.7
515.032	2478.32
515.4	2512.22
515.767	2475.16
516.135	2524.2
516.502	2535.95
516.869	2524.65
517.237	2544.31
517.604	2573.46
517.972	2610.3
518.339	2591.09
518.706	2576.4
519.073	2652.11
519.44	2643.97
519.808	2674.03
520.175	2707.7
520.542	2714.02
520.909	2741.59
521.276	2725.78
521.643	2772.33
522.009	2770.75
522.376	2760.35
522.743	2823.4
523.11	2842.38
523.477	2857.98
523.843	2851.65
524.21	2908.14
524.577	2953.34
524.943	2948.82
525.31	2959.67
525.676	2993.34
526.043	3022.49
526.409	3055.48
526.776	3052.32
527.142	3058.2
527.508	3085.54
527.874	3092.77
528.241	3114.47
528.607	3138.87
528.973	3163.5
529.339	3180.91
529.705	3206.67
530.071	3241.24
530.437	3256.16
530.803	3283.95
531.169	3302.71
531.535	3319.66
531.901	3296.83
532.267	3304.07
532.632	3382.48
532.998	3375.25
533.364	3397.4
533.73	3369.15
534.095	3443.95
534.461	3423.16
534.826	3430.16
535.192	3505.87
535.557	3483.95
535.923	3505.64
536.288	3517.85
536.653	3534.79
537.019	3555.36
537.384	3556.49
537.749	3598.97
538.114	3607.11
538.479	3608.24
538.845	3637.84
539.21	3626.09
539.575	3678.29
539.94	3642.59
540.305	3723.26
540.67	3706.09
541.034	3701.8
541.399	3756.48
541.764	3791.28
542.129	3761.23
542.494	3766.65
542.858	3772.98
543.223	3852.07
543.587	3812.98
543.952	3845.29
544.316	3916.93
544.681	3882.13
545.045	3850.72
545.41	3930.94
545.774	3921.68
546.138	3942.24
546.503	3961.68
546.867	3960.09
547.231	4007.55
547.595	4053.2
547.959	4030.37
548.324	4023.37
548.688	4092.75
549.052	4059.53
549.416	4149.69
549.779	4134.78
550.143	4156.02
550.507	4145.17
550.871	4191.27
551.235	4232.18
551.599	4243.7
551.962	4238.05
552.326	4267.66
552.689	4293.64
553.053	4266.53
553.417	4325.73
553.78	4358.05
554.143	4410.03
554.507	4388.56
554.87	4418.39
555.234	4481.44
555.597	4484.15
555.96	4552.39
556.323	4535.9
556.686	4541.55
557.05	4586.74
557.413	4616.57
557.776	4663.8
558.139	4691.6
558.502	4703.58
558.865	4731.6
559.228	4797.36
559.59	4787.64
559.953	4810.01
560.316	4893.18
560.679	4894.53
561.041	4897.47
561.404	4936.57
561.767	5040.07
562.129	5055.43
562.492	5096.33
562.854	5093.4
563.217	5137.46
563.579	5215.88
563.941	5214.52
564.304	5313.05
564.666	5310.11
565.028	5356.67
565.39	5436.89
565.753	5450.9
566.115	5476.44
566.477	5529.54
566.839	5584.91
567.201	5627.39
567.563	5662.65
567.925	5747.84
568.287	5715.98
568.648	5786.71
569.01	5828.29
569.372	5885.92
569.734	5957.33
570.095	5989.64
570.457	6010.44
570.819	6101.96
571.18	6131.56
571.542	6227.38
571.903	6238.9
572.265	6345.79
572.626	6375.17
572.987	6401.84
573.349	6492
573.71	6545.11
574.071	6586.47
574.432	6705.33
574.794	6765.67
575.155	6777.65
575.516	6859.23
575.877	6926.12
576.238	6995.95
576.599	7020.13
576.96	7120.69
577.32	7210.63
577.681	7316.62
578.042	7310.97
578.403	7374.92
578.763	7514.8
579.124	7625.08
579.485	7694.23
579.845	7830.27
580.206	7939.65
580.566	7896.71
580.927	8078.18
581.287	8168.57
581.648	8251.51
582.008	8359.75
582.368	8410.6
582.728	8643.36
583.089	8709.35
583.449	8773.3
583.809	8938.04
584.169	9102.56
584.529	9069.56
584.889	9354.53
585.249	9471.81
585.609	9511.59
585.969	9729.43
586.329	9819.6
586.688	10018.92
587.048	10142.98
587.408	10256.2
587.768	10451.67
588.127	10670.88
588.487	10789.29
588.846	10962.17
589.206	11191.32
589.565	11340.24
589.925	11618.2
590.284	11844.41
590.643	12033.55
591.003	12213.66
591.362	12481.23
591.721	12632.86
592.08	12813.19
592.44	13117.59
592.799	13291.6
593.158	13529.56
593.517	13851.36
593.876	14012.94
594.235	14238.92
594.593	14554.84
594.952	14810.43
595.311	15009.75
595.67	15300.59
596.029	15678.2
596.387	15961.36
596.746	16216.72
597.104	16407.9
597.463	16688.35
597.822	17070.03
598.18	17228.45
598.538	17480.19
598.897	18058.93
599.255	18072.26
599.613	18539.6
599.972	18735.07
600.33	19111.79
600.688	19319.01
601.046	19690.3
601.404	19996.96
601.762	20199.67
602.12	20666.32
602.478	20853.89
602.836	21150.38
603.194	21456.81
603.552	21607.54
603.91	21979.05
604.268	22302.44
604.625	22593.28
604.983	22956.43
605.341	23063.09
605.698	23403.2
606.056	23771.32
606.413	23989.85
606.771	24385.32
607.128	24639.78
607.485	24789.38
607.843	25005.87
608.2	25342.58
608.557	25726.07
608.914	25924.49
609.272	26203.8
609.629	26379.62
609.986	26696.44
610.343	26862.54
610.7	27109.99
611.057	27390.44
611.414	27501.85
611.771	27842.63
612.127	28089.18
612.484	28198.55
612.841	28564.87
613.198	28545.21
613.554	28779.33
613.911	29023.39
614.267	29085.99
614.624	29405.75
614.98	29606.2
615.337	29749.7
615.693	29892.97
616.05	30029.46
616.406	30343.35
616.762	30432.39
617.118	30579.28
617.475	30765.26
617.831	30970.91
618.187	31164.58
618.543	31304.01
618.899	31587.62
619.255	31641.85
619.611	31664.68
619.967	31877.1
620.323	32117.32
620.678	32173.14
621.034	32196.64
621.39	32242.29
621.746	32263.76
622.101	32847.7
622.457	32495.39
622.812	32746.91
623.168	32960.24
623.523	33001.14
623.879	33235.93
624.234	33075.94
624.589	33374.69
624.945	33276.16
625.3	33582.59
625.655	33640.9
626.01	33579.2
626.365	33837.73
626.72	33687
627.075	33894.67
627.43	33933.09
627.785	33861
628.14	34094.89
628.495	34145.51
628.85	34192.52
629.205	34080.21
629.559	34385.28
629.914	34355.45
630.269	34396.81
630.623	34377.82
630.978	34244.5
631.332	34524.26
631.687	34659.4
632.041	34493.98
632.396	34592.73
632.75	34448.78
633.104	34606.07
633.459	34489.46
633.813	34611.27
634.167	34539.85
634.521	34558.61
634.875	34769.68
635.229	34661.21
635.583	34490.36
635.937	34627.31
636.291	34615.11
636.645	34713.41
636.999	34625.28
637.352	34706.63
637.706	34471.61
638.06	34796.12
638.413	34606.29
638.767	34674.54
639.121	34730.81
639.474	34504.83
639.828	34583.02
640.181	34859.85
640.534	34804.48
640.888	34559.06
641.241	34579.18
641.594	34666.86
641.947	34774.42
642.301	34644.03
642.654	34763.13
643.007	34660.98
643.36	34703.69
643.713	34589.8
644.066	34778.27
644.419	34614.43
644.771	34390.25
645.124	34050.83
645.477	34055.57
645.83	33915.92
646.182	33887.44
646.535	33787.56
646.888	33844.73
647.24	33629.14
647.593	34030.04
647.945	33913.88
648.298	33636.15
648.65	33652.87
649.002	33623.95
649.355	33851.96
649.707	33795.47
650.059	33894.45
650.411	34125.18
650.763	34448.33
651.115	34775.55
651.467	34482.91
651.819	34682.22
652.171	34506.86
652.523	34560.19
652.875	34450.82
653.227	34387.99
653.578	34674.09
653.93	34630.7
654.282	34397.71
654.633	34369.01
654.985	34496.92
655.337	34482.45
655.688	34365.62
656.039	34592.28
656.391	34215.8
656.742	34284.49
657.094	34474.77
657.445	34459.4
657.796	34358.16
658.147	34416.02
658.498	34432.29
658.849	34488.78
659.2	34312.97
659.551	34212.63
659.902	34490.14
660.253	34423.02
660.604	34391.84
660.955	34232.29
661.306	34408.11
661.656	34405.85
662.007	34352.74
662.358	34467.77
662.708	34311.84
663.059	34463.47
663.409	34169.24
663.76	34488.1
664.11	34509.35
664.461	34566.97
664.811	34442.46
665.161	34338.5
665.511	34326.3
665.862	34463.25
666.212	34562.68
666.562	34496.69
666.912	34474.09
667.262	34337.15
667.612	34418.05
667.962	34447.65
668.312	34444.49
668.662	34627.08
669.011	34376.02
669.361	34460.08
669.711	34501.89
670.06	34440.2
670.41	34179.86
670.76	34256.7
671.109	34303.48
671.459	34343.02
671.808	34302.57
672.157	34262.57
672.507	34091.28
672.856	34100.32
673.205	34324.27
673.554	34237.26
673.904	34144.61
674.253	34274.78
674.602	34124.72
674.951	33757.73
675.3	33615.36
675.649	34169.69
675.998	34029.59
676.346	34046.31
676.695	34192.29
677.044	33973.99
677.393	33957.04
677.741	34079.53
678.09	33904.62
678.438	33797.73
678.787	33948.68
679.135	33889.7
679.484	33710.5
679.832	33894.9
680.181	33694.45
680.529	33807.22
680.877	33765.19
681.225	33642.48
681.573	33837.73
681.922	33765.64
682.27	33527.23
682.618	33612.65
682.966	33339.66
683.314	33543.27
683.661	33432.99
684.009	33343.05
684.357	33235.26
684.705	33073.45
685.053	33140.57
685.4	33111.64
685.748	33021.25
686.095	33090.85
686.443	32892.44
686.79	32919.78
687.138	32833.91
687.485	32840.24
687.832	32739
688.18	32829.39
688.527	32558.21
688.874	32593.47
689.221	32547.59
689.568	32413.13
689.915	32409.97
690.262	32255.39
690.609	32135.4
690.956	32138.56
691.303	32031.9
691.65	31776.54
691.997	31917.1
692.344	31751.68
692.69	31872.58
693.037	31648.63
693.383	31651.34
693.73	31580.16
694.077	31529.54
694.423	31421.74
694.769	31396.43
695.116	31213.84
695.462	31304.01
695.808	31138.14
696.155	31161.19
696.501	31081.64
696.847	31041.19
697.193	30837.13
697.539	30883.68
697.885	30746.51
698.231	30647.08
698.577	30666.06
698.923	30587.87
699.269	30386.07
699.614	30244.6
699.96	30379.74
700.306	30219.52
700.651	30136.58
700.997	30058.84
701.342	29960.31
701.688	29935.68
702.033	29863.14
702.379	29797.38
702.724	29719.19
703.069	29753.09
703.415	29431.29
703.76	29598.06
704.105	29496.6
704.45	29383.83
704.795	29315.81
705.14	29252.08
705.485	29250.28
705.83	29167.79
706.175	29197.17
706.52	28983.62
706.865	28807.58
707.209	28901.13
707.554	28834.24
707.899	28882.15
708.243	28759.44
708.588	28694.81
708.932	28541.82
709.277	28462.27
709.621	28584.53
709.966	28126.46
710.31	28203.52
710.654	28135.96
710.998	28177.31
711.342	28117.65
711.687	28126.92
712.031	27905.68
712.375	27804.66
712.719	28037.65
713.063	27898.67
713.407	27926.24
713.75	27866.13
714.094	27706.36
714.438	27660.26
714.782	27714.95
715.125	27559.25
715.469	27549.53
715.812	27522.64
716.156	27288.97
716.499	27244.45
716.843	27255.07
717.186	27137.34
717.53	27305.47
717.873	27231.12
718.216	27142.99
718.559	26997.45
718.902	26871.58
719.246	26941.64
719.589	26862.54
719.932	26889.43
720.275	26827.51
720.617	26824.8
720.96	26688.54
721.303	26763.34
721.646	26778.7
721.989	26668.88
722.331	26629.55
722.674	26637.24
723.016	26591.81
723.359	26516.56
723.701	26461.65
724.044	26306.17
724.386	26317.47
724.729	26333.97
725.071	26347.75
725.413	26236.57
725.755	26178.04
726.097	26088.1
726.439	25966.97
726.782	26051.94
727.124	26151.37
727.465	25990.02
727.807	25988.67
728.149	25865.73
728.491	25856.69
728.833	25907.09
729.175	25743.02
729.516	25646.53
729.858	25725.85
730.199	25817.15
730.541	25733.76
730.882	25643.59
731.224	25795.23
731.565	25516.59
731.906	25473.88
732.248	25583.25
732.589	25391.39
732.93	25388.68
733.271	25427.1
733.612	25364.5
733.953	25430.94
734.294	25305.52
734.635	25243.15
734.976	25301
735.317	25186.2
735.658	25180.78
735.999	25213.32
736.339	25264.17
736.68	25195.47
737.021	25127.9
737.361	24955.25
737.702	25106.2
738.042	24947.56
738.383	24937.62
738.723	25003.38
739.063	24931.52
739.404	24773.33
739.744	24829.6
740.084	24752.32
740.424	24723.62
740.764	24635.48
741.104	24785.08
741.444	24580.34
741.784	24576.95
742.124	24540.12
742.464	24600.23
742.804	24522.72
743.143	24511.87
743.483	24511.42
743.823	24357.52
744.162	24375.6
744.502	24425.54
744.841	24316.39
745.181	24451.98
745.52	24238.43
745.86	24407.47
746.199	24151.43
746.538	24216.51
746.877	24247.24
747.216	24236.85
747.556	24218.77
747.895	24143.52
748.234	24078.21
748.573	23915.5
748.911	23986.23
749.25	23953.47
749.589	23865.11
749.928	23894.48
750.267	24042.28
750.605	23879.34
750.944	23765.9
751.283	23798.89
751.621	23836.86
751.96	23685.22
752.298	23590.31
752.636	23596.19
752.975	23405.46
753.313	23415.63
753.651	23527.49
753.989	23454.5
754.327	23421.05
754.666	23356.19
755.004	23334.05
755.342	23290.43
755.679	23283.43
756.017	23074.17
756.355	23300.15
756.693	22964.34
757.031	23087.95
757.368	23042.98
757.706	23000.27
758.044	22830.78
758.381	22819.94
758.719	22804.57
759.056	22741.07
759.394	22738.13
759.731	22584.91
760.068	22571.36
760.405	22500.62
760.743	22487.29
761.08	22430.57
761.417	22424.92
761.754	22271.48
762.091	22280.97
762.428	22165.49
762.765	22078.49
763.102	22183.8
763.438	22042.78
763.775	21986.06
764.112	21960.98
764.449	21829.23
764.785	21786.97
765.122	21706.29
765.458	21491.38
765.795	21555.34
766.131	21580.42
766.467	21402.12
766.804	21382.01
767.14	21211.62
767.476	21380.43
767.812	21105.18
768.148	21180.43
768.485	21041
768.821	20957.39
769.157	21044.16
769.492	20853.21
769.828	20932.75
770.164	20665.64
770.5	20735.7
770.836	20609.83
771.171	20464.74
771.507	20492.99
771.842	20335.03
772.178	20379.77
772.513	20314.24
772.849	20258.2
773.184	20102.27
773.519	20193.57
773.855	20101.82
774.19	19871.31
774.525	19963.74
774.86	19755.84
775.195	19925.1
775.53	19765.78
775.865	19660.47
776.2	19586.35
776.535	19472.68
776.87	19462.74
777.205	19280.14
777.539	19173.48
777.874	19318.33
778.209	19128.28
778.543	19044.22
778.878	19009.19
779.212	18954.05
779.547	18851
779.881	19015.29
780.215	18846.93
780.55	18880.38
780.884	18590.22
781.218	18647.62
781.552	18594.74
781.886	18541.18
782.22	18381.64
782.554	18216.89
782.888	18112.49
783.222	18175.31
783.556	18043.11
783.889	17980.74
784.223	17946.39
784.557	17885.38
784.89	17846.28
785.224	17732.61
785.557	17598.61
785.891	17659.62
786.224	17698.94
786.558	17675.67
786.891	17402.68
787.224	17387.31
787.557	17357.26
787.891	17290.82
788.224	17256.24
788.557	17163.36
788.89	17151.16
789.223	17130.59
789.556	16976.93
789.888	16918.85
790.221	16849.02
790.554	16744.62
790.887	16757.27
791.219	16749.14
791.552	16719.31
791.884	16529.71
792.217	16503.72
792.549	16470.95
792.882	16401.57
793.214	16344.85
793.546	16367.68
793.879	16185.08
794.211	16117.74
794.543	16198.64
794.875	16071.19
795.207	16229.83
795.539	16122.49
795.871	16018.08
796.203	15923.62
796.535	15827.35
796.867	15819.44
797.198	15829.16
797.53	15756.39
797.862	15666
798.193	15595.72
798.525	15559.34
798.856	15573.8
799.188	15477.76
799.519	15432.33
799.85	15256.29
800.182	15357.53
800.513	15399.57
800.844	15142.85
801.175	15226.69
801.506	15174.49
801.837	15114.6
802.168	15080.25
802.499	15109.18
802.83	14984.66
803.161	14927.26
803.491	14917.77
803.822	14918.45
804.153	14875.29
804.483	14693.82
804.814	14645.01
805.145	14707.16
805.475	14670.55
805.805	14573.15
806.136	14558.68
806.466	14607.05
806.796	14581.28
807.126	14389.88
807.457	14365.7
807.787	14394.85
808.117	14323.21
808.447	14247.51
808.777	14323.66
809.107	14239.82
809.436	14221.97
809.766	14184.23
810.096	14149.43
810.426	14007.51
810.755	14043.67
811.085	13963.67
811.414	13918.25
811.744	13869.66
812.073	13852.71
812.403	13843.22
812.732	13836.67
813.061	13850.46
813.39	13741.76
813.719	13647.75
814.049	13661.08
814.378	13686.62
814.707	13566.62
815.036	13631.03
815.365	13529.79
815.693	13451.14
816.022	13357.13
816.351	13391.94
816.68	13237.36
817.008	13347.64
817.337	13311.26
817.665	13221.09
817.994	13250.7
818.322	13218.16
818.651	13113.07
818.979	13151.72
819.307	13146.52
819.636	13083.92
819.964	13070.81
820.292	13097.93
820.62	13142.45
820.948	13018.84
821.276	12989.46
821.604	13051.83
821.932	13049.8
822.259	13024.04
822.587	12966.41
822.915	12922.8
823.243	13014.77
823.57	12948.78
823.898	13061.32
824.225	12827.66
824.553	12885.73
824.88	12925.28
825.207	12942.68
825.535	12885.06
825.862	12993.08
826.189	12921.21
826.516	12996.01
826.843	12972.96
827.17	12926.64
827.497	12969.35
827.824	12916.47
828.151	12967.31
828.478	12885.96
828.805	13000.99
829.131	12894.32
829.458	12989.23
829.785	12766.19
830.111	12903.59
830.438	12978.39
830.764	12989.91
831.09	12956.69
831.417	12876.02
831.743	12910.59
832.069	12876.02
832.395	12831.05
832.722	12845.51
833.048	12846.64
833.374	12906.53
833.7	12817.49
834.026	12886.64
834.351	12874.66
834.677	12730.94
835.003	12801.44
835.329	12810.48
835.654	12802.12
835.98	12769.81
836.306	12740.65
836.631	12771.84
836.956	12666.08
837.282	12707.21
837.607	12612.52
837.932	12569.13
838.258	12616.82
838.583	12672.86
838.908	12563.94
839.233	12534.56
839.558	12481.23
839.883	12551.96
840.208	12458.85
840.533	12464.28
840.858	12516.25
841.182	12448.23
841.507	12427.89
841.832	12358.74
842.156	12428.35
842.481	12391.06
842.805	12371.85
843.13	12251.85
843.454	12359.19
843.778	12218.86
844.103	12192.42
844.427	12179.09
844.751	12234.45
845.075	12138.18
845.399	12081.01
845.723	12003.5
846.047	12011.18
846.371	11893.9
846.695	11930.51
847.019	11771.64
847.343	11773.9
847.666	11732.32
847.99	11709.04
848.313	11694.35
848.637	11655.03
848.96	11589.05
849.284	11579.78
849.607	11486
849.931	11449.16
850.254	11363.06
850.577	11260.47
850.9	11226.57
851.223	11219.34
851.546	11184.54
851.869	11092.34
852.192	11119.68
852.515	11077.19
852.838	11060.92
853.161	11024.77
853.483	10954.26
853.806	10996.52
854.129	10861.16
854.451	10857.31
854.774	10833.36
855.096	10766.92
855.419	10735.06
855.741	10705.68
856.063	10637.66
856.385	10587.04
856.708	10616.64
857.03	10576.64
857.352	10658.9
857.674	10489.64
857.996	10447.38
858.318	10431.79
858.64	10402.86
858.961	10354.05
859.283	10289.19
859.605	10311.34
859.926	10380.49
860.248	10260.49
860.57	10284.45
860.891	10302.3
861.212	10203.55
861.534	10194.28
861.855	10127.62
862.176	10173.04
862.498	10247.61
862.819	10145.47
863.14	10144.79
863.461	10137.78
863.782	9970.33
864.103	10063.44
864.424	10029.54
864.745	10090.55
865.065	10018.69
865.386	9931.69
865.707	9999.71
866.027	9956.55
866.348	9858.02
866.668	9908.64
866.989	9749.09
867.309	9848.98
867.63	9886.04
867.95	9821.18
868.27	9835.65
868.59	9852.14
868.91	9828.64
869.23	9749.09
869.55	9759.72
869.87	9678.14
870.19	9685.82
870.51	9647.63
870.83	9639.27
871.15	9651.7
871.469	9623.9
871.789	9659.38
872.109	9671.13
872.428	9583.67
872.748	9595.2
873.067	9608.08
873.386	9547.29
873.706	9542.09
874.025	9515.2
874.344	9446.05
874.663	9542.77
874.982	9489.21
875.301	9529.89
875.62	9446.95
875.939	9428.65
876.258	9412.83
876.577	9448.54
876.896	9382.32
877.214	9372.38
877.533	9386.84
877.852	9332.61
878.17	9399.72
878.489	9292.16
878.807	9281.76
879.125	9273.85
879.444	9283.8
879.762	9318.14
880.08	9283.12
880.398	9232.05
880.716	9205.83
881.034	9238.82
881.352	9202.44
881.67	9147.08
881.988	9142.56
882.306	9134.42
882.624	9130.13
882.941	9144.59
883.259	9102.56
883.577	9041.32
883.894	8987.98
884.212	8991.6
884.529	8987.53
884.846	8928.55
885.164	8915.67
885.481	8909.79
885.798	8860.98
886.115	8867.31
886.432	8835.22
886.75	8825.28
887.067	8807.2
887.383	8711.83
887.7	8792.73
888.017	8690.36
888.334	8802.68
888.651	8710.7
888.967	8665.96
889.284	8648.56
889.6	8627.32
889.917	8564.49
890.233	8587.09
890.55	8505.28
890.866	8612.4
891.182	8495.79
891.498	8476.59
891.815	8417.15
892.131	8451.27
892.447	8416.93
892.763	8362.46
893.079	8385.29
893.395	8421.45
893.71	8352.29
894.026	8323.37
894.342	8261.45
894.657	8240.66
894.973	8214.22
895.289	8198.63
895.604	8147.78
895.92	8119.08
896.235	8084.28
896.55	8115.69
896.865	8139.19
897.181	8060.78
897.496	7972.19
897.811	8003.38
898.126	7943.72
898.441	7970.61
898.756	7939.65
899.071	7917.73
899.386	7877.73
899.7	7810.39
900.015	7758.41
900.33	7731.29
900.644	7707.11
900.959	7731.75
901.273	7692.88
901.588	7670.73
901.902	7585.54
902.216	7590.73
902.531	7527.23
902.845	7623.5
903.159	7493.56
903.473	7484.52
903.787	7426.44
904.101	7406.33
904.415	7438.19
904.729	7405.65
905.042	7401.36
905.356	7308.48
905.67	7288.37
905.984	7340.12
906.297	7211.31
906.611	7177.64
906.924	7211.31
907.237	7144.19
907.551	7122.27
907.864	7103.97
908.177	7054.7
908.491	7050.86
908.804	7039.56
909.117	6938.09
909.43	6979
909.743	6934.48
910.056	6930.86
910.368	6913.01
910.681	6849.06
910.994	6873.46
911.307	6811.32
911.619	6715.28
911.932	6723.41
912.244	6703.07
912.557	6638.67
912.869	6707.82
913.181	6676.86
913.494	6667.37
913.806	6581.95
914.118	6549.63
914.43	6556.41
914.742	6484.55
915.054	6452.23
915.366	6438.22
915.678	6414.04
915.99	6371.33
916.302	6322.07
916.613	6368.39
916.925	6321.16
917.236	6290.88
917.548	6253.82
917.859	6291.33
918.171	6211.79
918.482	6167.49
918.794	6151.22
919.105	6174.95
919.416	6073.26
919.727	6023.99
920.038	6096.99
920.349	6023.09
920.66	5997.78
920.971	5988.29
921.282	6010.44
921.593	5921.85
921.903	5947.16
922.214	5884.79
922.525	5815.41
922.835	5839.82
923.146	5822.64
923.456	5779.25
923.767	5758.46
924.077	5753.49
924.387	5759.14
924.697	5715.08
925.008	5696.09
925.318	5626.04
925.628	5652.25
925.938	5635.3
926.248	5582.88
926.558	5536.78
926.867	5531.35
927.177	5498.58
927.487	5518.02
927.796	5422.88
928.106	5430.79
928.416	5379.27
928.725	5429.89
929.034	5391.92
929.344	5386.72
929.653	5367.74
929.962	5320.74
930.271	5304.69
930.581	5270.34
930.89	5250.46
931.199	5245.71
931.508	5196.22
931.817	5187.63
932.125	5169.78
932.434	5186.28
932.743	5063.12
933.051	5107.41
933.36	5039.61
933.669	5027.64
933.977	4988.99
934.286	4962.78
934.594	4983.8
934.902	4942.21
935.21	4912.38
935.519	4893.63
935.827	4883.01
936.135	4878.71
936.443	4815.44
936.751	4834.42
937.059	4809.11
937.367	4736.34
937.674	4788.77
937.982	4755.33
938.29	4695.89
938.597	4787.64
938.905	4689.57
939.213	4676.46
939.52	4663.13
939.827	4602.79
940.135	4600.75
940.442	4564.6
940.749	4525.5
941.056	4544.03
941.363	4552.62
941.67	4534.32
941.977	4476.46
942.284	4468.78
942.591	4419.74
942.898	4433.53
943.205	4360.08
943.511	4396.92
943.818	4407.09
944.125	4340.65
944.431	4323.47
944.738	4336.13
945.044	4305.62
945.35	4314.21
945.657	4205.28
945.963	4210.93
946.269	4187.66
946.575	4172.52
946.881	4222.01
947.187	4179.75
947.493	4118.28
947.799	4184.04
948.105	4102.24
948.41	4090.49
948.716	4125.74
949.022	4102.69
949.327	4086.42
949.633	4008
949.938	3999.19
950.244	4014.1
950.549	3957.16
950.854	3946.53
951.16	3930.49
951.465	3890.49
951.77	3908.8
952.075	3852.3
952.38	3877.16
952.685	3882.13
952.99	3826.31
953.294	3826.54
953.599	3833.32
953.904	3811.17
954.209	3802.81
954.513	3770.72
954.818	3781.34
955.122	3753.77
955.426	3729.59
955.731	3716.48
956.035	3655.47
956.339	3649.82
956.643	3655.02
956.948	3650.95
957.252	3599.65
957.556	3650.72
957.86	3603.49
958.163	3608.24
958.467	3590.16
958.771	3574.12
959.075	3550.84
959.378	3547.9
959.682	3516.49
959.985	3489.6
960.289	3485.08
960.592	3445.08
960.896	3428.36
961.199	3448.69
961.502	3440.33
961.805	3390.39
962.108	3397.85
962.411	3375.93
962.714	3342.03
963.017	3398.98
963.32	3361.69
963.623	3297.96
963.926	3294.8
964.228	3303.61
964.531	3272.65
964.833	3265.42
965.136	3247.8
965.438	3230.62
965.741	3184.52
966.043	3205.54
966.345	3158.98
966.648	3143.62
966.95	3168.25
967.252	3144.3
967.554	3111.53
967.856	3108.36
968.158	3074.47
968.46	3090.96
968.761	3064.98
969.063	3092.55
969.365	3031.3
969.666	3024.3
969.968	3045.09
970.269	3016.16
970.571	3010.29
970.872	2994.92
971.174	2936.39
971.475	2919.67
971.776	2961.48
972.077	2931.87
972.378	2901.59
972.679	2919.89
972.98	2874.25
973.281	2904.98
973.582	2867.92
973.883	2874.25
974.183	2845.09
974.484	2827.24
974.785	2838.99
975.085	2795.6
975.386	2818.88
975.686	2816.62
975.986	2763.74
976.287	2802.16
976.587	2715.38
976.887	2741.82
977.187	2719.9
977.487	2730.3
977.787	2650.07
978.087	2696.17
978.387	2696.85
978.687	2645.33
978.987	2662.5
979.286	2679.22
979.586	2616.17
979.885	2627.47
980.185	2606
980.484	2589.73
980.784	2588.15
981.083	2604.2
981.382	2581.6
981.682	2593.58
981.981	2575.5
982.28	2542.96
982.579	2512.22
982.878	2515.61
983.177	2520.13
983.475	2514.48
983.774	2492.11
984.073	2448.72
984.372	2483.07
984.67	2461.6
984.969	2440.59
985.267	2407.37
985.566	2385.22
985.864	2412.56
986.162	2415.5
986.461	2344.54
986.759	2380.02
987.057	2364.43
987.355	2319.91
987.653	2323.53
987.951	2303.19
988.249	2289.18
988.547	2322.85
988.844	2326.92
989.142	2245.79
989.44	2276.75
989.737	2288.5
990.035	2246.69
990.332	2239.46
990.63	2217.77
990.927	2218.9
991.224	2211.21
991.521	2187.94
991.819	2202.17
992.116	2203.76
992.413	2199.24
992.71	2171.67
993.006	2157.2
993.303	2168.5
993.6	2141.38
993.897	2133.93
994.193	2100.71
994.49	2152.91
994.787	2087.6
995.083	2077.43
995.379	2089.18
995.676	2095.74
995.972	2058.67
996.268	2043.76
996.565	2041.5
996.861	2035.4
997.157	2016.42
997.453	2002.86
997.749	2011.9
998.044	1982.74
998.34	1958.79
998.636	1959.92
998.932	1959.69
999.227	1945.46
999.523	1929.86
999.818	1922.18
1000.114	1925.8
1000.409	1907.49
1000.704	1899.13
1001	1899.81
1001.295	1876.76
1001.59	1874.95
1001.885	1871.56
1002.18	1856.65
1002.475	1852.8
1002.77	1832.01
1003.065	1809.64
1003.359	1832.47
1003.654	1797.21
1003.949	1807.16
1004.243	1786.14
1004.538	1778.23
1004.832	1780.94
1005.127	1787.95
1005.421	1727.38
1005.715	1736.2
1006.009	1698.23
1006.304	1722.41
1006.598	1699.59
1006.892	1714.05
1007.186	1688.51
1007.48	1695.97
1007.773	1671.34
1008.067	1672.92
1008.361	1670.66
1008.655	1667.5
1008.948	1654.17
1009.242	1642.19
1009.535	1611.68
1009.829	1586.37
1010.122	1565.13
1010.415	1603.32
1010.708	1591.12
1011.001	1562.87
1011.295	1588.18
1011.588	1564.68
1011.881	1521.51
1012.173	1513.15
1012.466	1508.86
1012.759	1522.64
1013.052	1511.34
1013.344	1505.47
1013.637	1519.48
1013.93	1473.83
1014.222	1478.12
1014.514	1455.53
1014.807	1478.35
1015.099	1462.76
1015.391	1441.97
1015.683	1438.58
1015.976	1415.75
1016.268	1423.66
1016.56	1398.13
1016.851	1392.7
1017.143	1420.73
1017.435	1373.95
1017.727	1373.27
1018.018	1373.72
1018.31	1366.04
1018.602	1353.61
1018.893	1350.67
1019.185	1330.78
1019.476	1322.42
1019.767	1325.36
1020.058	1308.86
1020.35	1300.73
1020.641	1290.56
1020.932	1297.34
1021.223	1288.98
1021.514	1276.32
1021.804	1275.87
1022.095	1262.31
1022.386	1247.4
1022.677	1253.5
1022.967	1232.26
1023.258	1221.18
1023.548	1203.78
1023.839	1214.63
1024.129	1201.75
1024.419	1176.89
1024.709	1183.9
1025	1180.73
1025.29	1170.11
1025.58	1141.18
1025.87	1160.62
1026.16	1156.55
1026.449	1152.71
1026.739	1127.17
1027.029	1120.39
1027.319	1127.85
1027.608	1105.03
1027.898	1128.76
1028.187	1121.07
1028.477	1111.81
1028.766	1090.56
1029.055	1086.27
1029.344	1084.46
1029.634	1067.06
1029.923	1054.86
1030.212	1037.68
1030.501	1044.46
1030.79	1030.23
1031.078	1047.63
1031.367	1029.78
1031.656	1037.68
1031.945	1016.67
1032.233	993.17
1032.522	1032.71
1032.81	1000.4
1033.099	991.58
1033.387	964.47
1033.675	998.82
1033.963	984.8
1034.251	974.64
1034.54	958.59
1034.828	988.42
1035.116	963.34
1035.403	946.84
1035.691	885.6
1035.979	929.21
1036.267	921.3
1036.554	938.03
1036.842	921.98
1037.129	920.4
1037.417	902.55
1037.704	918.59
1037.992	891.47
1038.279	900.97
1038.566	876.33
1038.853	876.33
1039.14	876.33
