Data from red_cardboard_box_FLMS001491_00055.txt Node
Date: Wed Feb 08 11:32:46 GMT 2017
User: dcchb
Spectrometer: FLMS00149
Trigger mode: 0
Integration Time (sec): 2.000000E-2
Scans to average: 10
Electric dark correction enabled: true
Nonlinearity correction enabled: false
Boxcar width: 0
XAxis mode: Wavelengths
Number of Pixels in Spectrum: 2048
>>>>>Begin Spectral Data<<<<<
341.393	-18.32
341.776	-18.32
342.16	-18.32
342.543	-53.57
342.927	-76.4
343.31	-77.98
343.693	-64.65
344.077	-63.06
344.46	-59
344.843	-47.92
345.226	-23.06
345.61	-35.27
345.993	-14.25
346.376	-3.86
346.759	2.25
347.142	47.44
347.525	37.05
347.908	49.7
348.291	55.35
348.674	90.15
349.057	107.1
349.44	128.8
349.823	143.03
350.206	167.89
350.588	191.17
350.971	209.92
351.354	218.74
351.737	250.15
352.119	257.15
352.502	257.61
352.884	274.55
353.267	286.31
353.65	308.68
354.032	303.71
354.414	314.55
354.797	315.46
355.179	329.69
355.562	338.06
355.944	356.59
356.326	328.34
356.709	327.66
357.091	338.06
357.473	352.29
357.855	366.53
358.238	348.23
358.62	340.77
359.002	330.15
359.384	331.5
359.766	333.99
360.148	356.13
360.53	324.95
360.912	312.97
361.294	356.36
361.676	340.77
362.057	348.68
362.439	336.25
362.821	336.25
363.203	325.63
363.584	323.59
363.966	334.67
364.348	331.5
364.729	313.42
365.111	317.94
365.493	320.66
365.874	324.27
366.256	308
366.637	322.69
367.019	321.79
367.4	309.58
367.781	322.92
368.163	316.59
368.544	318.17
368.925	310.94
369.306	326.76
369.688	305.51
370.069	303.93
370.45	305.29
370.831	318.17
371.212	308.9
371.593	296.7
371.974	315.23
372.355	317.27
372.736	306.19
373.117	326.76
373.498	310.26
373.879	313.88
374.26	323.82
374.641	332.86
375.021	332.18
375.402	306.87
375.783	324.05
376.163	334.89
376.544	342.58
376.925	338.28
377.305	338.51
377.686	326.76
378.066	322.01
378.447	334.89
378.827	333.99
379.208	344.61
379.588	325.63
379.968	338.73
380.349	340.32
380.729	335.8
381.109	337.83
381.489	338.06
381.87	350.71
382.25	373.54
382.63	345.29
383.01	336.93
383.39	327.21
383.77	354.78
384.15	351.16
384.53	334.67
384.91	323.37
385.29	346.64
385.67	345.97
386.049	352.29
386.429	352.29
386.809	346.42
387.189	353.65
387.568	344.61
387.948	363.37
388.328	356.13
388.707	361.56
389.087	340.77
389.466	360.88
389.846	351.39
390.225	347.32
390.605	356.36
390.984	362.24
391.363	371.05
391.743	363.82
392.122	362.24
392.501	344.38
392.881	359.75
393.26	358.39
393.639	372.18
394.018	359.98
394.397	365.4
394.776	360.2
395.155	373.54
395.534	369.92
395.913	374.44
396.292	390.03
396.671	380.54
397.05	370.15
397.429	391.16
397.808	369.69
398.186	394.55
398.565	385.96
398.944	387.55
399.323	371.73
399.701	396.81
400.08	399.52
400.458	397.94
400.837	404.72
401.215	365.4
401.594	384.61
401.972	378.28
402.351	373.76
402.729	389.13
403.107	402.69
403.486	364.95
403.864	396.13
404.242	397.26
404.62	408.11
404.999	396.36
405.377	387.32
405.755	413.08
406.133	413.31
406.511	423.7
406.889	390.94
407.267	411.73
407.645	411.73
408.023	429.58
408.401	421.67
408.779	416.92
409.156	411.73
409.534	428
409.912	417.6
410.29	417.6
410.667	444.27
411.045	422.35
411.422	428.68
411.8	456.02
412.178	431.61
412.555	433.65
412.933	430.26
413.31	436.13
413.687	451.27
414.065	441.78
414.442	456.92
414.819	460.54
415.197	476.13
415.574	452.4
415.951	465.51
416.328	453.76
416.705	463.02
417.082	471.84
417.46	467.32
417.837	461.67
418.214	457.37
418.591	484.72
418.967	456.7
419.344	468.22
419.721	459.18
420.098	469.8
420.475	475.45
420.852	491.5
421.228	487.43
421.605	471.61
421.982	496.02
422.358	488.56
422.735	502.35
423.111	488.11
423.488	500.54
423.864	505.96
424.241	504.15
424.617	513.42
424.994	504.83
425.37	513.19
425.746	515.9
426.123	503.7
426.499	521.78
426.875	521.55
427.251	503.7
427.627	541.67
428.003	526.98
428.379	545.28
428.756	506.41
429.132	545.06
429.507	528.11
429.883	532.4
430.259	567.43
430.635	532.4
431.011	555.68
431.387	548.67
431.763	570.37
432.138	561.1
432.514	548.22
432.89	562.23
433.265	582.57
433.641	585.06
434.016	584.83
434.392	572.63
434.767	591.38
435.143	576.69
435.518	604.49
435.894	591.38
436.269	590.48
436.644	616.69
437.02	607.65
437.395	624.38
437.77	626.18
438.145	618.27
438.52	601.55
438.895	610.14
439.271	628.67
439.646	633.19
440.021	645.62
440.395	660.53
440.77	642.91
441.145	653.3
441.52	659.4
441.895	658.05
442.27	635.22
442.645	644.71
443.019	649.23
443.394	657.37
443.769	679.29
444.143	663.7
444.518	668.89
444.892	673.64
445.267	666.41
445.641	667.31
446.016	667.31
446.39	675.22
446.764	681.55
447.139	668.44
447.513	698.95
447.887	674.09
448.262	696.46
448.636	679.29
449.01	699.63
449.384	709.8
449.758	700.08
450.132	719.97
450.506	713.41
450.88	719.97
451.254	702.34
451.628	724.71
452.002	744.37
452.376	736.01
452.75	734.88
453.123	737.59
453.497	746.86
453.871	743.02
454.244	770.81
454.618	746.63
454.992	781.89
455.365	768.78
455.739	786.86
456.112	790.93
456.486	775.78
456.859	777.82
457.232	793.19
457.606	779.63
457.979	829.12
458.352	830.02
458.725	811.04
459.099	833.64
459.472	831.38
459.845	829.12
460.218	840.87
460.591	860.98
460.964	860.98
461.337	874.31
461.71	855.33
462.083	867.99
462.456	863.69
462.829	858.72
463.201	882.9
463.574	865.95
463.947	894.2
464.32	897.82
464.692	933.29
465.065	898.72
465.438	924.93
465.81	932.39
466.183	919.74
466.555	929.68
466.928	964.03
467.3	979.17
467.672	987.76
468.045	980.07
468.417	966.06
468.789	981.2
469.161	1011.48
469.534	1033.86
469.906	1021.43
470.278	1019.62
470.65	1028.66
471.022	1060.75
471.394	1046.51
471.766	1084.93
472.138	1085.16
472.51	1078.6
472.882	1137.36
473.253	1105.27
473.625	1150.92
473.997	1154.08
474.369	1123.12
474.74	1155.21
475.112	1172.16
475.484	1193.17
475.855	1206.28
476.227	1231.14
476.598	1232.72
476.97	1234.76
477.341	1270.01
477.713	1269.33
478.084	1283.34
478.455	1311.36
478.827	1317.47
479.198	1321.76
479.569	1329.22
479.94	1338.26
480.311	1369.22
480.682	1418.03
481.053	1432.49
481.424	1437.69
481.795	1484.01
482.166	1494.86
482.537	1478.82
482.908	1526.73
483.279	1541.41
483.65	1517.01
484.021	1580.28
484.391	1596.78
484.762	1586.38
485.133	1609.66
485.503	1610.56
485.874	1658.93
486.244	1675.87
486.615	1707.06
486.985	1721.07
487.356	1712.26
487.726	1765.82
488.097	1779.15
488.467	1805.36
488.837	1813.27
489.207	1820.5
489.578	1890.56
489.948	1854.63
490.318	1899.82
490.688	1911.57
491.058	1918.58
491.428	1950.9
491.798	2000.39
492.168	2015.75
492.538	2024.34
492.908	2051.46
493.278	2064.79
493.648	2069.99
494.017	2076.32
494.387	2088.52
494.757	2112.02
495.126	2158.12
495.496	2144.11
495.866	2159.7
496.235	2169.87
496.605	2199.93
496.974	2219.81
497.344	2255.75
497.713	2235.41
498.082	2250.32
498.452	2253.03
498.821	2301.39
499.19	2308.63
499.559	2335.07
499.928	2333.48
500.298	2357.66
500.667	2373.71
501.036	2365.35
501.405	2371
501.774	2380.26
502.143	2420.49
502.512	2461.84
502.88	2459.81
503.249	2447.61
503.618	2471.11
503.987	2512.91
504.356	2497.77
504.724	2539.58
505.093	2576.42
505.462	2575.96
505.83	2585.68
506.199	2629.07
506.567	2650.54
506.936	2640.59
507.304	2658.22
507.672	2650.31
508.041	2662.29
508.409	2688.73
508.777	2716.75
509.145	2744.32
509.514	2755.17
509.882	2760.59
510.25	2740.03
510.618	2819.57
510.986	2806.01
511.354	2847.59
511.722	2903.41
512.09	2904.77
512.458	2904.99
512.826	2925.56
513.193	2923.3
513.561	2900.93
513.929	2959.68
514.297	2996.07
514.664	3028.38
515.032	3019.57
515.4	3068.83
515.767	3089.62
516.135	3085.33
516.502	3064.76
516.869	3099.79
517.237	3161.48
517.604	3168.04
517.972	3220.01
518.339	3199.45
518.706	3250.52
519.073	3231.09
519.44	3287.36
519.808	3305.66
520.175	3300.24
520.542	3377.75
520.909	3371.42
521.276	3375.04
521.643	3429.73
522.009	3454.81
522.376	3474.02
522.743	3530.97
523.11	3544.3
523.477	3562.15
523.843	3553.34
524.21	3632.88
524.577	3643.96
524.943	3668.59
525.31	3690.28
525.676	3714.24
526.043	3769.15
526.409	3756.95
526.776	3811.86
527.142	3762.15
527.508	3838.53
527.874	3910.62
528.241	3928.24
528.607	3895.7
528.973	3957.4
529.339	3982.71
529.705	3977.51
530.071	4051.4
530.437	4054.79
530.803	4065.64
531.169	4082.82
531.535	4109.93
531.901	4116.49
532.267	4124.85
532.632	4182.25
532.998	4228.8
533.364	4246.43
533.73	4253.89
534.095	4286.88
534.461	4319.87
534.826	4306.09
535.192	4340.21
535.557	4381.34
535.923	4389.93
536.288	4426.08
536.653	4453.65
537.019	4403.03
537.384	4438.74
537.749	4466.08
538.114	4538.4
538.479	4542.24
538.845	4536.14
539.21	4572.52
539.575	4557.83
539.94	4600.99
540.305	4621.56
540.67	4635.57
541.034	4690.48
541.399	4675.34
541.764	4720.77
542.129	4751.05
542.494	4777.71
542.858	4751.95
543.223	4817.26
543.587	4791.05
543.952	4821.1
544.316	4872.85
544.681	4875.56
545.045	4900.87
545.41	4966.86
545.774	4974.77
546.138	4959.86
546.503	5004.83
546.867	5070.36
547.231	5075.56
547.595	5066.97
547.959	5085.95
548.324	5133.86
548.688	5142.68
549.052	5151.71
549.416	5186.52
549.779	5207.98
550.143	5263.8
550.507	5290.24
550.871	5306.74
551.235	5365.72
551.599	5356.23
551.962	5426.06
552.326	5440.97
552.689	5441.42
553.053	5448.88
553.417	5512.38
553.78	5572.72
554.143	5542.44
554.507	5616.34
554.87	5642.78
555.234	5736.11
555.597	5683.45
555.96	5799.16
556.323	5778.14
556.686	5783.79
557.05	5908.08
557.413	5885.48
557.776	5996.21
558.139	5986.95
558.502	5989.43
558.865	6064.01
559.228	6109.66
559.59	6169.09
559.953	6169.09
560.316	6300.84
560.679	6327.05
561.041	6338.8
561.404	6443.88
561.767	6483.88
562.129	6457.44
562.492	6607.5
562.854	6571.79
563.217	6618.12
563.579	6692.69
563.941	6781.95
564.304	6799.13
564.666	6896.3
565.028	6937.43
565.39	6980.59
565.753	7009.29
566.115	7158.22
566.477	7153.47
566.839	7189.63
567.201	7376.06
567.563	7334.48
567.925	7427.59
568.287	7501.48
568.648	7509.39
569.01	7632.78
569.372	7745.32
569.734	7769.95
570.095	7875.49
570.457	7899.21
570.819	7998.87
571.18	8083.39
571.542	8130.39
571.903	8232.76
572.265	8317.96
572.626	8345.53
572.987	8427.56
573.349	8574.22
573.71	8652.19
574.071	8704.84
574.432	8735.58
574.794	8912.97
575.155	9001.56
575.516	9051.5
575.877	9157.26
576.238	9186.64
576.599	9353.19
576.96	9423.24
577.32	9571.26
577.681	9613.74
578.042	9761.76
578.403	9899.84
578.763	9957.24
579.124	10067.74
579.485	10242.43
579.845	10383.44
580.206	10398.58
580.566	10501.63
580.927	10659.37
581.287	10839.25
581.648	10984.56
582.008	11166.7
582.368	11261.38
582.728	11464.32
583.089	11610.08
583.449	11727.81
583.809	11923.74
584.169	12095.49
584.529	12222.49
584.889	12479.66
585.249	12673.78
585.609	12818.18
585.969	13115.8
586.329	13242.35
586.688	13531.16
587.048	13667.2
587.408	13859.73
587.768	14239.84
588.127	14375.88
588.487	14569.09
588.846	14907.62
589.206	15009.99
589.565	15378.11
589.925	15722.51
590.284	15989.85
590.643	16195.27
591.003	16565.2
591.362	16898.75
591.721	17194.11
592.08	17448.34
592.44	17900.98
592.799	18188.66
593.158	18498.03
593.517	18783.45
593.876	19091.91
594.235	19602.41
594.593	19814.15
594.952	20253.69
595.311	20559.22
595.67	20960.11
596.029	21431.96
596.387	21867.43
596.746	22191.04
597.104	22521.2
597.463	22807.3
597.822	23410.67
598.18	23687.27
598.538	24125.23
598.897	24592.33
599.255	24781.48
599.613	25468.92
599.972	25774.45
600.33	26225.74
600.688	26424.6
601.046	26931.71
601.404	27425.71
601.762	27879.93
602.12	28280.82
602.478	28681.27
602.836	29058.66
603.194	29233.34
603.552	29796.72
603.91	30037.84
604.268	30622.46
604.625	30932.05
604.983	31465.15
605.341	31785.36
605.698	32164.11
606.056	32677.32
606.413	32961.61
606.771	33471.65
607.128	33687.46
607.485	33873.22
607.843	34334.9
608.2	34768.79
608.557	35115.9
608.914	35220.75
609.272	35921.98
609.629	36174.18
609.986	36540.27
610.343	36811.9
610.7	37304.09
611.057	37522.16
611.414	37854.13
611.771	38007.12
612.127	38350.16
612.484	38637.84
612.841	38913.09
613.198	39056.36
613.554	39292.74
613.911	39723.01
614.267	40028.31
614.624	40116.22
614.98	40433.05
615.337	40775.64
615.693	40856.99
616.05	41132.92
616.406	41534.71
616.762	41550.31
617.118	41745.33
617.475	41986.23
617.831	42271.87
618.187	42342.15
618.543	42631.41
618.899	42986.88
619.255	42973.09
619.611	43087.67
619.967	43454.44
620.323	43684.49
620.678	43644.94
621.034	43713.64
621.39	43990.02
621.746	44021.65
622.101	44505.93
622.457	44248.99
622.812	44491.7
623.168	44697.12
623.523	44799.03
623.879	45071.34
624.234	44787.51
624.589	45013.27
624.945	45302.98
625.3	45316.08
625.655	45493.03
626.01	45520.6
626.365	45625.45
626.72	45517.66
627.075	45794.26
627.43	45772.34
627.785	45824.32
628.14	46030.19
628.495	46023.41
628.85	46117.19
629.205	45987.7
629.559	46308.82
629.914	46270.63
630.269	46329.84
630.623	46277.41
630.978	46181.6
631.332	46521.02
631.687	46634.24
632.041	46464.98
632.396	46572.55
632.75	46499.1
633.104	46644.64
633.459	46396.96
633.813	46579.55
634.167	46643.73
634.521	46556.95
634.875	46721.92
635.229	46567.57
635.583	46541.59
635.937	46524.19
636.291	46630.62
636.645	46634.92
636.999	46615.03
637.352	46707.46
637.706	46368.03
638.06	46716.72
638.413	46607.12
638.767	46596.5
639.121	46744.75
639.474	46516.28
639.828	46668.36
640.181	46671.53
640.534	46777.29
640.888	46705.2
641.241	46517.18
641.594	46587.46
641.947	46680.57
642.301	46706.33
642.654	46737.97
643.007	46783.84
643.36	46738.87
643.713	46715.14
644.066	46876.49
644.419	46659.55
644.771	46200.58
645.124	45913.58
645.477	45913.35
645.83	45585.91
646.182	45652.34
646.535	45472.24
646.888	45686.24
647.24	45399.7
647.593	45624.32
647.945	45664.55
648.298	45564.44
648.65	45292.35
649.002	45502.07
649.355	45606.24
649.707	45531.44
650.059	45703.19
650.411	46091.2
650.763	46185.44
651.115	46663.39
651.467	46551.08
651.819	46488.93
652.171	46482.83
652.523	46486.9
652.875	46487.35
653.227	46300.92
653.578	46532.77
653.93	46543.17
654.282	46445.54
654.633	46255.72
654.985	46498.42
655.337	46364.42
655.688	46438.31
656.039	46523.51
656.391	46156.06
656.742	46279.9
657.094	46328.71
657.445	46477.18
657.796	46289.16
658.147	46247.13
658.498	46276.06
658.849	46306.56
659.2	46133.01
659.551	45937.31
659.902	46185.89
660.253	46158.55
660.604	46266.79
660.955	46085.55
661.306	46364.87
661.656	46286.68
662.007	46248.04
662.358	46278.32
662.708	46224.53
663.059	46243.74
663.409	45892.34
663.76	46373
664.11	46245.32
664.461	46243.74
664.811	46393.12
665.161	46275.83
665.511	46171.43
665.862	46235.61
666.212	46220.92
666.562	46420.01
666.912	46222.05
667.262	46114.93
667.612	46238.09
667.962	46104.54
668.312	46097.98
668.662	46349.73
669.011	46253.23
669.361	46095.72
669.711	46207.58
670.06	46062.5
670.41	46164.2
670.76	45975.73
671.109	46122.39
671.459	46028.61
671.808	46067.93
672.157	46089.62
672.507	45959.91
672.856	45733.02
673.205	45943.41
673.554	45986.12
673.904	45969.4
674.253	46141.37
674.602	45872.9
674.951	45479.47
675.3	45150.89
675.649	45801.04
675.998	45766.01
676.346	45887.82
676.695	45914.48
677.044	45532.12
677.393	45753.36
677.741	45732.79
678.09	45850.08
678.438	45705.22
678.787	45768.27
679.135	45707.03
679.484	45492.35
679.832	45646.24
680.181	45262.3
680.529	45485.57
680.877	45291
681.225	45358.57
681.573	45517.21
681.922	45236.08
682.27	45082.19
682.618	45176.43
682.966	45195.63
683.314	45251.9
683.661	45044
684.009	44782.99
684.357	44715.87
684.705	44795.64
685.053	44703.9
685.4	44706.83
685.748	44496.44
686.095	44656.89
686.443	44398.82
686.79	44404.24
687.138	44428.87
687.485	44430.68
687.832	44170.8
688.18	44334.87
688.527	44208.77
688.874	43963.8
689.221	43928.55
689.568	43710.93
689.915	43785.5
690.262	43729.68
690.609	43686.97
690.956	43588.44
691.303	43375.34
691.65	43193.2
691.997	43327.43
692.344	43201.56
692.69	43097.84
693.037	43034.56
693.383	42719.54
693.73	42861.91
694.077	42697.17
694.423	42675.7
694.769	42502.82
695.116	42619.88
695.462	42450.4
695.808	42315.48
696.155	42360.23
696.501	41977.87
696.847	42058.77
697.193	41832.11
697.539	41835.72
697.885	41614.48
698.231	41569.29
698.577	41572
698.923	41512.79
699.269	41301.05
699.614	41139.7
699.96	41113.48
700.306	41101.96
700.651	40914.39
700.997	40857.67
701.342	40692.48
701.688	40586.04
702.033	40534.74
702.379	40544.91
702.724	40364.35
703.069	40536.77
703.415	40052.27
703.76	40068.54
704.105	40158.03
704.45	39953.96
704.795	39712.84
705.14	39645.05
705.485	39611.37
705.83	39377.93
706.175	39572.73
706.52	39461.32
706.865	39375.67
707.209	39208.45
707.554	39110.82
707.899	39079.18
708.243	38999.19
708.588	39006.64
708.932	38715.13
709.277	38707.67
709.621	38781.79
709.966	38442.82
710.31	38584.28
710.654	38227.23
710.998	38218.87
711.342	38315.36
711.687	38157.85
712.031	38091.19
712.375	37942.72
712.719	37932.77
713.063	37943.62
713.407	37996.95
713.75	37791.76
714.094	37734.36
714.438	37768.26
714.782	37623.18
715.125	37396.06
715.469	37418.44
715.812	37356.07
716.156	37109.07
716.499	37162.85
716.843	37238.1
717.186	36994.72
717.53	37156.97
717.873	37174.38
718.216	37030.65
718.559	36820.71
718.902	36571
719.246	36675.18
719.589	36631.34
719.932	36452.81
720.275	36496.43
720.617	36468.63
720.96	36448.07
721.303	36421.85
721.646	36349.99
721.989	36250.56
722.331	36373.04
722.674	36155.87
723.016	36156.55
723.359	36157.91
723.701	36162.42
724.044	35931.7
724.386	35795.88
724.729	35836.56
725.071	35847.4
725.413	35643.57
725.755	35750.01
726.097	35523.8
726.439	35394.54
726.782	35419.62
727.124	35510.69
727.465	35465.27
727.807	35249.23
728.149	35265.27
728.491	35287.19
728.833	35155.9
729.175	35031.38
729.516	34972.4
729.858	34987.31
730.199	34908.9
730.541	34825.96
730.882	34945.28
731.224	34992.51
731.565	34797.26
731.906	34818.73
732.248	34814.66
732.589	34589.81
732.93	34506.42
733.271	34533.77
733.612	34569.7
733.953	34579.19
734.294	34522.24
734.635	34438.63
734.976	34429.36
735.317	34254.23
735.658	34204.51
735.999	34293.1
736.339	34069.15
736.68	34189.37
737.021	34097.62
737.361	33969.94
737.702	34199.99
738.042	33957.74
738.383	33985.31
738.723	33913.9
739.063	33899.66
739.404	34018.3
739.744	33789.38
740.084	33706.9
740.424	33718.2
740.764	33649.27
741.104	33750.51
741.444	33559.56
741.784	33340.13
742.124	33529.27
742.464	33309.39
742.804	33334.02
743.143	33339.9
743.483	33207.7
743.823	33175.16
744.162	33204.54
744.502	33192.79
744.841	33051.32
745.181	33237.53
745.52	33107.82
745.86	33068.27
746.199	32998.67
746.538	32885.9
746.877	32983.75
747.216	32837.99
747.556	32927.03
747.895	32954.83
748.234	32684.1
748.573	32603.87
748.911	32647.04
749.25	32586.93
749.589	32524.33
749.928	32599.35
750.267	32529.3
750.605	32375.41
750.944	32353.26
751.283	32252.25
751.621	32337.21
751.96	32101.97
752.298	32112.36
752.636	32187.84
752.975	32012.93
753.313	31864.46
753.651	32141.97
753.989	31939.26
754.327	31843.44
754.666	31701.75
755.004	31725.93
755.342	31638.7
755.679	31684.58
756.017	31443.9
756.355	31615.65
756.693	31413.62
757.031	31461.53
757.368	31275.55
757.706	31188.32
758.044	31162.56
758.381	31031.03
758.719	30956.23
759.056	31037.81
759.394	30788.55
759.731	30661.78
760.068	30630.14
760.405	30568.45
760.743	30531.61
761.08	30503.14
761.417	30301.79
761.754	30285.74
762.091	30229.93
762.428	30126.88
762.765	30046.43
763.102	30193.32
763.438	29990.38
763.775	29796.04
764.112	29904.74
764.449	29690.73
764.785	29642.14
765.122	29375.03
765.458	29321.7
765.795	29265.88
766.131	29417.07
766.467	29191.76
766.804	29013.91
767.14	28896.85
767.476	28904.76
767.812	28755.61
768.148	28787.7
768.485	28673.81
768.821	28357.43
769.157	28475.4
769.492	28337.32
769.828	28297.32
770.164	28069.76
770.5	28067.72
770.836	28109.3
771.171	27916.77
771.507	27794.96
771.842	27629.32
772.178	27563.1
772.513	27601.29
772.849	27426.16
773.184	27427.51
773.519	27408.76
773.855	27325.82
774.19	27120.63
774.525	26969.9
774.86	26954.53
775.195	26812.39
775.53	26834.08
775.865	26715.89
776.2	26519.74
776.535	26341.67
776.87	26357.71
777.205	26201.1
777.539	26036.82
777.874	26157.04
778.209	25840.44
778.543	25864.16
778.878	25652.64
779.212	25743.72
779.547	25540.56
779.881	25653.55
780.215	25454.23
780.55	25547.56
780.884	25276.38
781.218	25299.89
781.552	25175.6
781.886	25049.95
782.22	24966.56
782.554	24753.01
782.888	24635.72
783.222	24567.7
783.556	24435.5
783.889	24429.17
784.223	24266.92
784.557	24174.49
784.89	24292.23
785.224	24100.37
785.557	23890.66
785.891	23962.97
786.224	23914.16
786.558	23901.05
786.891	23542.64
787.224	23679.59
787.557	23572.7
787.891	23475.07
788.224	23454.74
788.557	23317.79
788.89	23278.24
789.223	23245.7
789.556	23043
789.888	23018.36
790.221	22898.37
790.554	22816.56
790.887	22798.48
791.219	22703.8
791.552	22556.68
791.884	22583.35
792.217	22526.17
792.549	22374.54
792.882	22260.87
793.214	22107.88
793.546	22101.33
793.879	22014.1
794.211	21945.85
794.543	21957.15
794.875	21860.65
795.207	21952.85
795.539	21739.98
795.871	21720.77
796.203	21638.74
796.535	21613.88
796.867	21436.03
797.198	21427.9
797.53	21403.26
797.862	21424.73
798.193	21234.68
798.525	21091.41
798.856	21187.45
799.188	20989.49
799.519	20818.2
799.85	20748.59
800.182	20775.48
800.513	20766.45
800.844	20525.1
801.175	20633.79
801.506	20683.28
801.837	20509.5
802.168	20444.19
802.499	20410.3
802.83	20276.06
803.161	20149.51
803.491	20152.45
803.822	20178.21
804.153	20100.47
804.483	19873.36
804.814	19945.9
805.145	19912.91
805.475	19886.02
805.805	19735.29
806.136	19765.57
806.466	19733.25
806.796	19781.61
807.126	19484.45
807.457	19474.28
807.787	19519.47
808.117	19358.57
808.447	19295.75
808.777	19361.96
809.107	19129.43
809.436	19204
809.766	19230.44
810.096	19087.85
810.426	18995.42
810.755	19067.06
811.085	19050.33
811.414	18882.65
811.744	18853.73
812.073	18801.07
812.403	18731.92
812.732	18728.76
813.061	18617.58
813.39	18545.26
813.719	18535.77
814.049	18526.5
814.378	18496.45
814.707	18423.68
815.036	18288.09
815.365	18376.9
815.693	18144.82
816.022	18277.47
816.351	18111.37
816.68	18068.89
817.008	18103.69
817.337	17892.17
817.665	17980.53
817.994	17957.93
818.322	17923.36
818.651	17902.79
818.979	17730.37
819.307	17896.92
819.636	17797.48
819.964	17683.14
820.292	17735.79
820.62	17625.96
820.948	17663.02
821.276	17735.11
821.604	17629.58
821.932	17622.8
822.259	17600.88
822.587	17628.45
822.915	17523.82
823.243	17604.95
823.57	17541.22
823.898	17493.54
824.225	17508.23
824.553	17601.56
824.88	17487.44
825.207	17601.78
825.535	17492.63
825.862	17601.56
826.189	17407.89
826.516	17588.22
826.843	17564.5
827.17	17529.92
827.497	17620.31
827.824	17506.87
828.151	17541.67
828.478	17560.65
828.805	17615.57
829.131	17564.5
829.458	17447.89
829.785	17414.22
830.111	17558.17
830.438	17583.93
830.764	17404.95
831.09	17448.34
831.417	17461.9
831.743	17481.56
832.069	17591.84
832.395	17371.51
832.722	17399.53
833.048	17371.28
833.374	17443.37
833.7	17284.05
834.026	17404.95
834.351	17450.15
834.677	17343.03
835.003	17407.44
835.329	17380.09
835.654	17391.84
835.98	17251.96
836.306	17308.46
836.631	17181
836.956	17242.47
837.282	17077.73
837.607	17092.64
837.932	17146.2
838.258	17098.52
838.583	17105.75
838.908	16949.6
839.233	16954.57
839.558	17022.59
839.883	16886.77
840.208	16862.14
840.533	16854.01
840.858	16800
841.182	16818.53
841.507	16806.1
841.832	16765.65
842.156	16691.07
842.481	16629.83
842.805	16688.59
843.13	16563.39
843.454	16607.91
843.778	16479.1
844.103	16501.92
844.427	16520.68
844.751	16511.64
845.075	16414.7
845.399	16312.55
845.723	16201.82
846.047	16252.44
846.371	16122.95
846.695	16164.76
847.019	16027.81
847.343	15928.61
847.666	15814.49
847.99	15828.04
848.313	15841.83
848.637	15695.62
848.96	15632.34
849.284	15590.31
849.607	15456.53
849.931	15443.65
850.254	15384.89
850.577	15282.75
850.9	15161.17
851.223	15155.97
851.546	15080.95
851.869	15094.5
852.192	15099.02
852.515	14943.77
852.838	14900.84
853.161	14910.55
853.483	14825.81
853.806	14762.31
854.129	14729.32
854.451	14651.13
854.774	14601.86
855.096	14577
855.419	14547.63
855.741	14514.18
856.063	14426.05
856.385	14381.08
856.708	14281.42
857.03	14287.52
857.352	14322.32
857.674	14230.57
857.996	14157.13
858.318	14123.91
858.64	14105.38
858.961	14004.59
859.283	13975.44
859.605	13984.25
859.926	13899.73
860.248	13844.37
860.57	13871.94
860.891	13809.79
861.212	13698.38
861.534	13736.57
861.855	13698.38
862.176	13693.41
862.498	13636.46
862.819	13723.24
863.14	13601.21
863.461	13605.96
863.782	13458.39
864.103	13494.77
864.424	13549.69
864.745	13535.45
865.065	13502
865.386	13457.03
865.707	13501.33
866.027	13391.72
866.348	13368.67
866.668	13326.42
866.989	13258.17
867.309	13159.19
867.63	13186.98
867.95	13264.04
868.27	13269.02
868.59	13210.94
868.91	13179.3
869.23	13099.53
869.55	13027.44
869.87	13061.56
870.19	13057.5
870.51	13069.47
870.83	13076.93
871.15	12915.35
871.469	12979.53
871.789	13008.91
872.109	12953.54
872.428	12869.93
872.748	12928.01
873.067	12881.23
873.386	12932.98
873.706	12803.49
874.025	12839.42
874.344	12856.6
874.663	12861.57
874.982	12825.64
875.301	12749.71
875.62	12727.56
875.939	12697.05
876.258	12646.21
876.577	12638.07
876.896	12670.84
877.214	12582.03
877.533	12620.9
877.852	12577.51
878.17	12593.55
878.489	12541.8
878.807	12487.34
879.125	12547.45
879.444	12475.59
879.762	12471.75
880.08	12441.47
880.398	12402.82
880.716	12427.23
881.034	12346.78
881.352	12384.97
881.67	12273.56
881.988	12312.88
882.306	12354.92
882.624	12265.88
882.941	12224.3
883.259	12100.68
883.577	12093.45
883.894	12094.36
884.212	12099.78
884.529	12055.04
884.846	12050.74
885.164	11955.83
885.481	11883.29
885.798	11971.65
886.115	11874.25
886.432	11881.26
886.75	11819.34
887.067	11841.48
887.383	11809.17
887.7	11832.44
888.017	11771.88
888.334	11722.16
888.651	11672.22
888.967	11630.19
889.284	11548.61
889.6	11548.38
889.917	11531.21
890.233	11519.23
890.55	11439.23
890.866	11440.59
891.182	11380.7
891.498	11393.36
891.815	11270.65
892.131	11271.55
892.447	11260.93
892.763	11268.16
893.079	11206.92
893.395	11154.04
893.71	11188.17
894.026	11138.22
894.342	11065.01
894.657	11013.26
894.973	10935.07
895.289	10912.24
895.604	10963.77
895.92	10867.95
896.235	10825.24
896.55	10804.45
896.865	10838.8
897.181	10739.82
897.496	10735.97
897.811	10696.65
898.126	10719.25
898.441	10691.68
898.756	10597.45
899.071	10609.88
899.386	10552.7
899.7	10452.14
900.015	10436.1
900.33	10375.76
900.644	10320.84
900.959	10379.15
901.273	10308.19
901.588	10305.93
901.902	10206.27
902.216	10215.99
902.531	10134.41
902.845	10106.84
903.159	9998.37
903.473	10004.24
903.787	10014.64
904.101	9974.64
904.415	9939.16
904.729	9876.34
905.042	9845.15
905.356	9759.5
905.67	9748.88
905.984	9816.9
906.297	9704.14
906.611	9623.69
906.924	9659.39
907.237	9614.2
907.551	9569.9
907.864	9488.78
908.177	9595.67
908.491	9572.39
908.804	9512.05
909.117	9355.9
909.43	9369.23
909.743	9277.26
910.056	9225.05
910.368	9236.58
910.681	9221.66
910.994	9130.14
911.307	9095.11
911.619	9033.19
911.932	9093.53
912.244	8938.06
912.557	8987.09
912.869	8909.13
913.181	8910.49
913.494	8885.4
913.806	8806.53
914.118	8742.58
914.43	8730.38
914.742	8716.14
915.054	8675.69
915.366	8638.85
915.678	8602.25
915.99	8593.21
916.302	8538.07
916.613	8436.83
916.925	8443.61
917.236	8450.39
917.548	8340.78
917.859	8399.09
918.171	8294.68
918.482	8280.22
918.794	8239.54
919.105	8204.97
919.416	8180.34
919.727	8162.71
920.038	8185.76
920.349	8059.66
920.66	8051.53
920.971	8046.78
921.282	7977.86
921.593	7958.87
921.903	7892.89
922.214	7803.62
922.525	7887.91
922.835	7803.17
923.146	7778.54
923.456	7743.74
923.767	7669.61
924.077	7682.72
924.387	7638.66
924.697	7605.66
925.008	7552.33
925.318	7557.53
925.628	7447.25
925.938	7553.23
926.248	7418.32
926.558	7412.45
926.867	7404.08
927.177	7320.25
927.487	7266.91
927.796	7255.84
928.106	7214.49
928.416	7187.82
928.725	7170.42
929.034	7150.98
929.344	7189.18
929.653	7132.45
929.962	7042.96
930.271	6927.94
930.581	6962.97
930.89	6976.3
931.199	6884.78
931.508	6931.33
931.817	6862.63
932.125	6874.83
932.434	6834.61
932.743	6756.19
933.051	6741.73
933.36	6644.56
933.669	6686.14
933.977	6613.82
934.286	6602.52
934.594	6557.78
934.902	6577.21
935.21	6558.23
935.519	6520.27
935.827	6507.39
936.135	6502.19
936.443	6383.77
936.751	6399.14
937.059	6400.04
937.367	6343.55
937.674	6322.53
937.982	6345.13
938.29	6301.52
938.597	6273.27
938.905	6196.21
939.213	6137
939.52	6164.8
939.827	6128.19
940.135	6046.38
940.442	6009.55
940.749	6076.89
941.056	6050.22
941.363	6006.83
941.67	6024.01
941.977	5928.19
942.284	5877.12
942.591	5911.24
942.898	5833.73
943.205	5847.29
943.511	5814.07
943.818	5840.06
944.125	5743.34
944.431	5733.62
944.738	5787.4
945.044	5740.17
945.35	5646.17
945.657	5595.77
945.963	5635.77
946.269	5544.92
946.575	5582.66
946.881	5508.09
947.187	5581.76
947.493	5497.69
947.799	5433.52
948.105	5448.66
948.41	5373.18
948.716	5421.09
949.022	5371.82
949.327	5379.28
949.633	5327.08
949.938	5301.77
950.244	5284.59
950.549	5277.81
950.854	5212.73
951.16	5165.73
951.465	5177.25
951.77	5146.29
952.075	5150.13
952.38	5109.23
952.685	5126.86
952.99	5077.14
953.294	5072.62
953.599	5019.97
953.904	4980.65
954.209	4971.83
954.513	4975.9
954.818	4955.34
955.122	4911.04
955.426	4902
955.731	4883.7
956.035	4882.57
956.339	4835.34
956.643	4812.74
956.948	4797.15
957.252	4776.13
957.556	4770.26
957.86	4712.4
958.163	4742.01
958.467	4673.08
958.771	4706.75
959.075	4634.89
959.378	4626.98
959.682	4619.53
959.985	4594.89
960.289	4545.4
960.592	4550.83
960.896	4517.16
961.199	4483.48
961.502	4471.96
961.805	4444.16
962.108	4410.27
962.411	4392.64
962.714	4442.58
963.017	4344.28
963.32	4417.72
963.623	4325.97
963.926	4309.25
964.228	4311.06
964.531	4314
964.833	4276.94
965.136	4237.39
965.438	4217.28
965.741	4260.89
966.043	4174.11
966.345	4198.52
966.648	4116.04
966.95	4156.26
967.252	4118.97
967.554	4120.33
967.856	4090.05
968.158	4073.55
968.46	3998.07
968.761	4071.97
969.063	3999.88
969.365	4038.75
969.666	3964.4
969.968	3938.41
970.269	3909.71
970.571	3933.89
970.872	3920.56
971.174	3865.65
971.475	3869.71
971.776	3843.73
972.077	3811.64
972.378	3824.52
972.679	3798.98
972.98	3805.08
973.281	3780.68
973.582	3748.59
973.883	3749.27
974.183	3711.07
974.484	3694.35
974.785	3690.28
975.085	3696.16
975.386	3686.89
975.686	3635.82
975.986	3601.02
976.287	3580.23
976.587	3565.77
976.887	3600.34
977.187	3573.68
977.487	3564.64
977.787	3572.77
978.087	3510.18
978.387	3481.25
978.687	3466.56
978.987	3481.7
979.286	3480.8
979.586	3430.86
979.885	3387.24
980.185	3391.54
980.484	3375.72
980.784	3313.12
981.083	3364.64
981.382	3344.08
981.682	3389.5
981.981	3296.17
982.28	3268.15
982.579	3244.19
982.878	3272.89
983.177	3224.08
983.475	3254.59
983.774	3213.91
984.073	3207.13
984.372	3195.61
984.67	3216.17
984.969	3176.4
985.267	3133.69
985.566	3120.58
985.864	3126.46
986.162	3116.97
986.461	3107.02
986.759	3066.12
987.057	3043.3
987.355	3028.38
987.653	3006.91
987.951	3003.52
988.249	3013.92
988.547	3018.66
988.844	2980.92
989.142	2988.83
989.44	2978.44
989.737	2931.43
990.035	2939.34
990.332	2887.59
990.63	2890.31
990.927	2869.06
991.224	2855.28
991.521	2853.92
991.819	2803.3
992.116	2837.88
992.413	2836.07
992.71	2811.89
993.006	2772.57
993.303	2767.37
993.6	2775.28
993.897	2763.53
994.193	2724.21
994.49	2734.15
994.787	2713.81
995.083	2661.84
995.379	2658.22
995.676	2665.23
995.972	2629.3
996.268	2651.67
996.565	2659.35
996.861	2618
997.157	2586.36
997.453	2597.43
997.749	2545.46
998.044	2602.4
998.34	2543.2
998.636	2540.03
998.932	2522.41
999.227	2528.96
999.523	2493.48
999.818	2490.54
1000.114	2445.8
1000.409	2445.8
1000.704	2436.98
1001	2453.03
1001.295	2429.53
1001.59	2379.81
1001.885	2421.39
1002.18	2393.14
1002.475	2383.43
1002.77	2364.67
1003.065	2326.48
1003.359	2336.87
1003.654	2320.38
1003.949	2276.31
1004.243	2310.89
1004.538	2280.15
1004.832	2293.48
1005.127	2272.24
1005.421	2193.6
1005.715	2232.24
1006.009	2208.97
1006.304	2213.71
1006.598	2180.04
1006.892	2168.97
1007.186	2161.28
1007.48	2156.54
1007.773	2139.82
1008.067	2112.47
1008.361	2126.26
1008.655	2106.15
1008.948	2098.24
1009.242	2078.12
1009.535	2052.36
1009.829	2048.52
1010.122	2031.8
1010.415	2025.92
1010.708	2022.53
1011.001	1993.83
1011.295	1992.48
1011.588	1986.37
1011.881	1944.79
1012.173	1957.9
1012.466	1938.69
1012.759	1917.68
1013.052	1928.97
1013.344	1909.54
1013.637	1936.88
1013.93	1900.73
1014.222	1891.91
1014.514	1877.68
1014.807	1897.56
1015.099	1842.2
1015.391	1812.82
1015.683	1795.64
1015.976	1784.57
1016.268	1822.08
1016.56	1767.62
1016.851	1793.39
1017.143	1779.83
1017.435	1743.44
1017.727	1709.55
1018.018	1722.2
1018.31	1702.99
1018.602	1687.17
1018.893	1712.03
1019.185	1700.05
1019.476	1685.14
1019.767	1663.67
1020.058	1679.94
1020.35	1651.92
1020.641	1686.5
1020.932	1597.01
1021.223	1612.37
1021.514	1603.79
1021.804	1571.02
1022.095	1571.92
1022.386	1574.18
1022.677	1513.62
1022.967	1548.19
1023.258	1522.21
1023.548	1510
1023.839	1521.3
1024.129	1508.19
1024.419	1505.03
1024.709	1480.17
1025	1464.35
1025.29	1470.68
1025.58	1459.38
1025.87	1417.8
1026.16	1432.04
1026.449	1447.63
1026.739	1392.49
1027.029	1412.38
1027.319	1393.85
1027.608	1379.38
1027.898	1366.05
1028.187	1359.05
1028.477	1333.74
1028.766	1341.87
1029.055	1312.72
1029.344	1314.75
1029.634	1322.66
1029.923	1325.83
1030.212	1307.07
1030.501	1297.35
1030.79	1294.19
1031.078	1298.71
1031.367	1284.25
1031.656	1249.44
1031.945	1239.95
1032.233	1250.35
1032.522	1218.03
1032.81	1220.52
1033.099	1222.33
1033.387	1194.53
1033.675	1209.22
1033.963	1161.76
1034.251	1172.84
1034.54	1187.07
1034.828	1141.88
1035.116	1165.15
1035.403	1154.31
1035.691	1136.91
1035.979	1140.75
1036.267	1126.06
1036.554	1106.17
1036.842	1111.6
1037.129	1084.48
1037.417	1092.39
1037.704	1084.03
1037.992	1096.68
1038.279	1076.79
1038.566	1057.81
1038.853	1057.81
1039.14	1057.81
