Data from red_cardboard_box_FLMS001491_00026.txt Node
Date: Wed Feb 08 11:31:46 GMT 2017
User: dcchb
Spectrometer: FLMS00149
Trigger mode: 0
Integration Time (sec): 2.000000E-2
Scans to average: 10
Electric dark correction enabled: true
Nonlinearity correction enabled: false
Boxcar width: 0
XAxis mode: Wavelengths
Number of Pixels in Spectrum: 2048
>>>>>Begin Spectral Data<<<<<
341.393	-13.4
341.776	-13.4
342.16	-13.4
342.543	-50.69
342.927	-58.15
343.31	-65.38
343.693	-70.13
344.077	-78.49
344.46	-69.67
344.843	-55.66
345.226	-24.48
345.61	-24.25
345.993	-2.1
346.376	-3.69
346.759	21.62
347.142	33.6
347.525	29.53
347.908	60.49
348.291	70.21
348.674	75.63
349.057	102.75
349.44	136.65
349.823	134.84
350.206	148.17
350.588	191.79
350.971	232.47
351.354	232.01
351.737	243.76
352.119	258
352.502	276.53
352.884	288.06
353.267	316.31
353.65	289.87
354.032	314.27
354.414	320.15
354.797	322.63
355.179	338.68
355.562	324.44
355.944	345.91
356.326	328.06
356.709	342.97
357.091	353.82
357.473	348.62
357.855	354.72
358.238	342.07
358.62	360.82
359.002	344.33
359.384	351.11
359.766	325.12
360.148	341.16
360.53	334.61
360.912	362.63
361.294	333.03
361.676	337.55
362.057	346.36
362.439	356.53
362.821	348.62
363.203	323.76
363.584	348.85
363.966	341.39
364.348	334.61
364.729	332.8
365.111	338.9
365.493	328.28
365.874	307.49
366.256	338.9
366.637	349.3
367.019	311.79
367.4	327.6
367.781	331.67
368.163	328.96
368.544	319.47
368.925	307.04
369.306	328.96
369.688	326.7
370.069	318.79
370.45	334.38
370.831	328.96
371.212	323.76
371.593	325.8
371.974	323.54
372.355	323.54
372.736	316.76
373.117	340.49
373.498	330.54
373.879	332.12
374.26	301.39
374.641	312.24
375.021	316.08
375.402	329.64
375.783	287.38
376.163	341.16
376.544	321.73
376.925	308.62
377.305	335.06
377.686	333.48
378.066	348.85
378.447	330.77
378.827	346.59
379.208	335.29
379.588	337.1
379.968	332.12
380.349	339.81
380.729	304.78
381.109	334.38
381.489	327.83
381.87	325.12
382.25	340.71
382.63	350.43
383.01	354.04
383.39	335.97
383.77	359.47
384.15	338.9
384.53	374.38
384.91	359.02
385.29	356.98
385.67	333.25
386.049	354.72
386.429	354.72
386.809	361.73
387.189	362.86
387.568	371.45
387.948	347.94
388.328	352.46
388.707	361.95
389.087	361.73
389.466	356.08
389.846	361.73
390.225	364.67
390.605	337.55
390.984	363.31
391.363	370.99
391.743	365.8
392.122	375.96
392.501	390.2
392.881	368.28
393.26	357.43
393.639	383.2
394.018	370.09
394.397	408.28
394.776	361.5
395.155	361.95
395.534	377.77
395.913	385.46
396.292	395.63
396.671	374.16
397.05	385
397.429	393.82
397.808	366.93
398.186	378.45
398.565	383.42
398.944	364.21
399.323	381.61
399.701	385.91
400.08	393.37
400.458	387.72
400.837	402.4
401.215	405.12
401.594	392.24
401.972	396.98
402.351	397.21
402.729	406.02
403.107	381.84
403.486	403.08
403.864	405.57
404.242	403.08
404.62	404.21
404.999	401.73
405.377	420.26
405.755	425.23
406.133	417.09
406.511	425.91
406.889	444.21
407.267	444.21
407.645	425.23
408.023	440.82
408.401	420.94
408.779	444.89
409.156	430.43
409.534	432.46
409.912	436.08
410.29	439.69
410.667	449.41
411.045	424.1
411.422	440.37
411.8	427.94
412.178	445.12
412.555	469.52
412.933	450.76
413.31	440.37
413.687	462.29
414.065	470.65
414.442	473.14
414.819	450.76
415.197	470.43
415.574	484.89
415.951	473.82
416.328	475.17
416.705	468.39
417.082	479.24
417.46	497.54
417.837	491.44
418.214	446.7
418.591	487.37
418.967	493.25
419.344	483.76
419.721	504.1
420.098	487.83
420.475	500.48
420.852	503.19
421.228	492.8
421.605	495.51
421.982	516.53
422.358	490.76
422.735	518.11
423.111	526.24
423.488	495.96
423.864	529.63
424.241	510.65
424.617	531.21
424.994	517.2
425.37	523.76
425.746	545.68
426.123	535.51
426.499	549.97
426.875	557.88
427.251	574.38
427.627	542.74
428.003	555.85
428.379	563.98
428.756	565.79
429.132	565.79
429.507	560.82
429.883	563.98
430.259	573.25
430.635	585.9
431.011	592.91
431.387	585
431.763	610.31
432.138	604.43
432.514	617.99
432.89	599.69
433.265	621.16
433.641	617.31
434.016	591.55
434.392	623.87
434.767	619.12
435.143	601.5
435.518	643.08
435.894	645.79
436.269	646.47
436.644	664.77
437.02	644.88
437.395	623.19
437.77	641.72
438.145	638.56
438.52	666.35
438.895	657.31
439.271	664.77
439.646	655.28
440.021	688.27
440.395	698.89
440.77	674.71
441.145	696.18
441.52	678.78
441.895	682.17
442.27	700.93
442.645	681.04
443.019	686.92
443.394	726.24
443.769	701.15
444.143	714.03
444.518	740.93
444.892	703.19
445.267	714.03
445.641	718.78
446.016	736.18
446.39	714.49
446.764	733.7
447.139	722.4
447.513	737.99
447.887	743.64
448.262	761.27
448.636	757.65
449.01	739.34
449.384	732.79
449.758	759.01
450.132	774.82
450.506	758.1
450.88	779.12
451.254	760.36
451.628	772.79
452.002	772.11
452.376	789.06
452.75	768.5
453.123	797.87
453.497	791.32
453.871	817.54
454.244	822.05
454.618	818.89
454.992	836.52
455.365	827.25
455.739	841.94
456.112	852.79
456.486	845.1
456.859	830.42
457.232	858.89
457.606	823.86
457.979	873.13
458.352	888.27
458.725	883.07
459.099	876.52
459.472	907.02
459.845	901.83
460.218	891.88
460.591	923.52
460.964	930.75
461.337	917.87
461.71	967.59
462.083	937.53
462.456	957.42
462.829	955.84
463.201	967.59
463.574	956.06
463.947	983.86
464.32	982.95
464.692	969.17
465.065	1003.97
465.438	1010.75
465.81	1011.43
466.183	1016.17
466.555	1033.57
466.928	1024.54
467.3	1035.16
467.672	1024.76
468.045	1088.04
468.417	1078.32
468.789	1101.6
469.161	1084.65
469.534	1100.69
469.906	1107.92
470.278	1116.28
470.65	1134.14
471.022	1131.65
471.394	1165.32
471.766	1178.66
472.138	1166.45
472.51	1180.01
472.882	1213.46
473.253	1232.21
473.625	1242.16
473.997	1248.48
474.369	1250.52
474.74	1275.15
475.112	1288.03
475.484	1298.43
475.855	1311.31
476.227	1304.08
476.598	1325.77
476.97	1349.95
477.341	1358.76
477.713	1384.98
478.084	1393.34
478.455	1417.75
478.827	1457.07
479.198	1450.06
479.569	1478.08
479.94	1525.99
480.311	1530.74
480.682	1529.61
481.053	1581.36
481.424	1573.9
481.795	1617.29
482.166	1601.47
482.537	1631.75
482.908	1674.46
483.279	1682.37
483.65	1707.91
484.021	1736.83
484.391	1740.67
484.762	1786.32
485.133	1771.86
485.503	1805.98
485.874	1834.46
486.244	1824.06
486.615	1882.59
486.985	1857.73
487.356	1900.67
487.726	1934.12
488.097	1976.6
488.467	1991.52
488.837	2015.7
489.207	2007.33
489.578	2042.59
489.948	2101.12
490.318	2115.81
490.688	2093.43
491.058	2119.42
491.428	2181.11
491.798	2156.93
492.168	2218.63
492.538	2204.62
492.908	2227.44
493.278	2273.09
493.648	2242.36
494.017	2296.14
494.387	2292.07
494.757	2323.71
495.126	2333.65
495.496	2395.12
495.866	2400.77
496.235	2426.98
496.605	2435.12
496.974	2465.18
497.344	2463.14
497.713	2476.7
498.082	2502.91
498.452	2522.8
498.821	2526.19
499.19	2575.45
499.559	2587.66
499.928	2568.22
500.298	2575.91
500.667	2612.29
501.036	2612.74
501.405	2691.16
501.774	2640.99
502.143	2701.78
502.512	2690.93
502.88	2749.24
503.249	2754.21
503.618	2769.57
503.987	2770.25
504.356	2790.14
504.724	2797.82
505.093	2831.72
505.462	2837.82
505.83	2880.31
506.199	2893.19
506.567	2955.78
506.936	2928.89
507.304	2963.24
507.672	3019.74
508.041	2999.17
508.409	3001.88
508.777	3007.53
509.145	3092.96
509.514	3050.24
509.882	3086.18
510.25	3067.42
510.618	3104.71
510.986	3122.33
511.354	3178.15
511.722	3182.22
512.09	3221.31
512.458	3232.16
512.826	3293.18
513.193	3259.5
513.561	3285.49
513.929	3328.43
514.297	3310.58
514.664	3375.21
515.032	3371.37
515.4	3414.53
515.767	3401.65
516.135	3455.88
516.502	3447.3
516.869	3499.05
517.237	3487.97
517.604	3550.12
517.972	3574.07
518.339	3602.77
518.706	3599.61
519.073	3617.46
519.44	3628.76
519.808	3697.23
520.175	3719.15
520.542	3745.59
520.909	3752.37
521.276	3773.16
521.643	3849.77
522.009	3838.47
522.376	3871.01
522.743	3923.22
523.11	3904.46
523.477	3924.35
523.843	3997.79
524.21	4006.15
524.577	4082.76
524.943	4062.87
525.31	4113.27
525.676	4191.68
526.043	4184.68
526.409	4162.08
526.776	4212.02
527.142	4241.17
527.508	4262.19
527.874	4304.45
528.241	4387.16
528.607	4381.06
528.973	4423.32
529.339	4415.41
529.705	4495.4
530.071	4472.35
530.437	4536.53
530.803	4566.36
531.169	4594.61
531.535	4567.04
531.901	4598.23
532.267	4671.9
532.632	4674.83
532.998	4746.02
533.364	4719.81
533.73	4738.79
534.095	4779.24
534.461	4812.01
534.826	4819.24
535.192	4854.04
535.557	4917.54
535.923	4905.34
536.288	4972
536.653	4976.97
537.019	4916.41
537.384	4994.83
537.749	5038.44
538.114	5027.37
538.479	5040.25
538.845	5085.9
539.21	5044.99
539.575	5146.69
539.94	5121.83
540.305	5151.88
540.67	5186.46
541.034	5209.74
541.399	5218.32
541.764	5273.69
542.129	5310.75
542.494	5283.41
542.858	5350.75
543.223	5358.66
543.587	5379.9
543.952	5398.43
544.316	5399.56
544.681	5416.06
545.045	5496.06
545.41	5481.14
545.774	5556.39
546.138	5529.05
546.503	5562.95
546.867	5593.45
547.231	5678.88
547.595	5646.11
547.959	5673.23
548.324	5702.6
548.688	5718.65
549.052	5812.43
549.416	5796.84
549.779	5828.02
550.143	5845.88
550.507	5908.02
550.871	5936.72
551.235	5922.49
551.599	5971.52
551.962	6046.55
552.326	6000.9
552.689	6115.47
553.053	6126.32
553.417	6146.43
553.78	6272.53
554.143	6202.7
554.507	6270.05
554.87	6301.23
555.234	6428.01
555.597	6327.45
555.96	6437.5
556.323	6434.79
556.686	6496.26
557.05	6563.37
557.413	6585.74
557.776	6618.06
558.139	6699.41
558.502	6700.32
558.865	6741.22
559.228	6859.18
559.59	6824.83
559.953	6952.51
560.316	6975.79
560.679	7001.1
561.041	7108.22
561.404	7098.05
561.767	7204.49
562.129	7276.12
562.492	7308.89
562.854	7345.95
563.217	7438.6
563.579	7483.57
563.941	7567.87
564.304	7603.35
564.666	7768.99
565.028	7724.25
565.39	7753.85
565.753	7867.97
566.115	7986.61
566.477	8033.39
566.839	8076.33
567.201	8175.76
567.563	8234.97
567.925	8334.4
568.287	8335.53
568.648	8406.49
569.01	8490.78
569.372	8586.6
569.734	8609.87
570.095	8755.18
570.457	8809.42
570.819	8893.25
571.18	8999.24
571.542	9120.37
571.903	9122.4
572.265	9244.66
572.626	9363.98
572.987	9469.06
573.349	9544.54
573.71	9652.1
574.071	9669.51
574.432	9832.67
574.794	10006.45
575.155	10026.56
575.516	10103.62
575.877	10142.04
576.238	10262.03
576.599	10439.2
576.96	10535.7
577.32	10624.51
577.681	10828.57
578.042	10932.52
578.403	11097.04
578.763	11117.83
579.124	11327.99
579.485	11462.68
579.845	11633.97
580.206	11697.25
580.566	11826.96
580.927	11919.62
581.287	12146.73
581.648	12255.2
582.008	12486.15
582.368	12558.02
582.728	12845.24
583.089	12949.19
583.449	13135.18
583.809	13393.93
584.169	13516.41
584.529	13716.86
584.889	14019.9
585.249	14061.93
585.609	14308.93
585.969	14603.84
586.329	14822.82
586.688	15025.52
587.048	15261
587.408	15513.19
587.768	15730.59
588.127	16018.49
588.487	16230.01
588.846	16724.46
589.206	16819.15
589.565	17121.97
589.925	17482.63
590.284	17694.38
590.643	18029.06
591.003	18314.7
591.362	18714.47
591.721	19041.24
592.08	19350.38
592.44	19707.43
592.799	19967.31
593.158	20443.69
593.517	20689.55
593.876	21085.48
594.235	21370.44
594.593	21729.75
594.952	22341.94
595.311	22443.41
595.67	22929.95
596.029	23404.96
596.387	23749.36
596.746	24133.98
597.104	24448.78
597.463	24787.3
597.822	25387.51
598.18	25589.99
598.538	25978.91
598.897	26533.92
599.255	26697.53
599.613	27377.06
599.972	27635.13
600.33	28064.73
600.688	28412.74
601.046	28845.72
601.404	29501.53
601.762	29640.28
602.12	30185.58
602.478	30573.81
602.836	30927.03
603.194	31209.05
603.552	31787.34
603.91	31881.13
604.268	32382.58
604.625	32825.28
604.983	33302.33
605.341	33564.47
605.698	33971.69
606.056	34424.33
606.413	34704.78
606.771	35220.02
607.128	35550.41
607.485	35594.25
607.843	35972.09
608.2	36481.23
608.557	36925.29
608.914	37212.28
609.272	37591.71
609.629	37870.12
609.986	38139.72
610.343	38370.22
610.7	39006.36
611.057	39033.25
611.414	39339.01
611.771	39640.92
612.127	40073.23
612.484	40207.46
612.841	40574.46
613.198	40705.3
613.554	40912.98
613.911	41236.13
614.267	41440.65
614.624	41680.64
614.98	41930.35
615.337	42308.87
615.693	42402.43
616.05	42648.53
616.406	43097.1
616.762	42976.43
617.118	43143.2
617.475	43213.03
617.831	43560.37
618.187	43785.67
618.543	43808.5
618.899	44523.05
619.255	44404.41
619.611	44532.09
619.967	44746.32
620.323	45006.88
620.678	44867.68
621.034	45032.19
621.39	45270.6
621.746	45362.8
622.101	45765.96
622.457	45488.68
622.812	45789.46
623.168	45898.84
623.523	45947.2
623.879	46198.94
624.234	45945.84
624.589	46364.36
624.945	46429.67
625.3	46487.97
625.655	46501.31
626.01	46663.79
626.365	46774.52
626.72	46878.7
627.075	46826.72
627.43	46963.67
627.785	46908.07
628.14	47049.09
628.495	47232.36
628.85	47240.95
629.205	47200.27
629.559	47328.18
629.914	47325.01
630.269	47508.96
630.623	47416.54
630.978	47344.22
631.332	47584.89
631.687	47658.34
632.041	47602.29
632.396	47680.48
632.75	47627.83
633.104	47619.24
633.459	47566.14
633.813	47580.6
634.167	47667.83
634.521	47505.57
634.875	47721.39
635.229	47723.19
635.583	47481.17
635.937	47544.44
636.291	47672.12
636.645	47725
636.999	47674.38
637.352	47753.25
637.706	47374.5
638.06	47719.8
638.413	47670.31
638.767	47729.97
639.121	47843.19
639.474	47490.21
639.828	47641.61
640.181	47795.51
640.534	47736.75
640.888	47605.23
641.241	47574.27
641.594	47733.14
641.947	47736.3
642.301	47575.63
642.654	47626.93
643.007	47759.8
643.36	47741.05
643.713	47607.49
644.066	47774.49
644.419	47438
644.771	47235.98
645.124	46849.09
645.477	46920.5
645.83	46684.58
646.182	46542.21
646.535	46529.55
646.888	46724.58
647.24	46395.77
647.593	46586.5
647.945	46632.15
648.298	46447.3
648.65	46451.82
649.002	46349.22
649.355	46520.74
649.707	46439.84
650.059	46687.06
650.411	46996.21
650.763	47167.05
651.115	47533.59
651.467	47357.78
651.819	47304.67
652.171	47302.87
652.523	47383.54
652.875	47306.93
653.227	47176.09
653.578	47506.93
653.93	47378.12
654.282	47218.12
654.633	47121.18
654.985	47306.71
655.337	47220.83
655.688	47371.57
656.039	47343.77
656.391	46988.07
656.742	47208.18
657.094	47195.3
657.445	47248.18
657.796	47281.17
658.147	47181.97
658.498	47193.72
658.849	47340.61
659.2	47193.72
659.551	47047.96
659.902	47208.86
660.253	47076.66
660.604	47178.8
660.955	46864.91
661.306	47145.36
661.656	47076.43
662.007	47263.77
662.358	47083.21
662.708	47189.65
663.059	47042.31
663.409	46810
663.76	47233.49
664.11	47225.81
664.461	47220.16
664.811	47120.72
665.161	47198.46
665.511	47018.58
665.862	47099.93
666.212	47208.86
666.562	47230.55
666.912	47057.68
667.262	47053.38
667.612	46987.39
667.962	47146.26
668.312	46990.11
668.662	47267.39
669.011	47219.93
669.361	47017.68
669.711	47096.77
670.06	47008.64
670.41	46991.01
670.76	46844.8
671.109	46898.81
671.459	47036.88
671.808	46886.38
672.157	46986.94
672.507	46651.58
672.856	46759.6
673.205	46813.61
673.554	46930.22
673.904	46668.98
674.253	46848.87
674.602	46826.49
674.951	46246.85
675.3	46122.56
675.649	46758.93
675.998	46654.52
676.346	46753.28
676.695	46764.8
677.044	46500.4
677.393	46573.39
677.741	46733.84
678.09	46696.1
678.438	46483
678.787	46562.77
679.135	46535.43
679.484	46381.08
679.832	46476.45
680.181	46208.66
680.529	46315.77
680.877	46170.24
681.225	46167.53
681.573	46288.66
681.922	46121.65
682.27	45941.09
682.618	45964.37
682.966	45982
683.314	45865.62
683.661	45874.43
684.009	45756.69
684.357	45586.53
684.705	45549.47
685.053	45594.21
685.4	45528.45
685.748	45366.87
686.095	45464.95
686.443	45197.61
686.79	45185.86
687.138	45116.26
687.485	45044.17
687.832	45076.71
688.18	45055.24
688.527	44832.87
688.874	44827.23
689.221	44743.61
689.568	44635.82
689.915	44610.28
690.262	44644.86
690.609	44415.03
690.956	44378.42
691.303	44282.61
691.65	44027.92
691.997	44135.94
692.344	43790.87
692.69	43909.96
693.037	43752.23
693.383	43502.97
693.73	43694.6
694.077	43371.9
694.423	43558.78
694.769	43321.5
695.116	43230.66
695.462	43143.43
695.808	42987.73
696.155	43081.96
696.501	42740.95
696.847	42878.58
697.193	42580.96
697.539	42679.03
697.885	42366.05
698.231	42288.76
698.577	42285.82
698.923	42319.95
699.269	41961.54
699.614	41880.64
699.96	41888.55
700.306	41860.98
700.651	41679.74
700.997	41457.82
701.342	41331.95
701.688	41432.74
702.033	41183.25
702.379	41252.4
702.724	41080.21
703.069	41218.73
703.415	40637.28
703.76	40838.18
704.105	40737.16
704.45	40640.89
704.795	40597.05
705.14	40409.71
705.485	40465.31
705.83	40208.36
706.175	40351.86
706.52	40184.18
706.865	39969.05
707.209	39949.39
707.554	39906.9
707.899	39901.93
708.243	39717.53
708.588	39644.99
708.932	39543.52
709.277	39439.57
709.621	39400.7
709.966	39160.93
710.31	39261.27
710.654	38954.16
710.998	39051.56
711.342	38993.03
711.687	38899.02
712.031	38744.67
712.375	38622.42
712.719	38666.71
713.063	38671.23
713.407	38684.56
713.75	38454.06
714.094	38414.74
714.438	38329.54
714.782	38448.86
715.125	38212.03
715.469	38333.16
715.812	38024.24
716.156	37851.36
716.499	37781.99
716.843	37956.9
717.186	37839.16
717.53	37815.66
717.873	37803.91
718.216	37759.84
718.559	37513.52
718.902	37398.49
719.246	37326.41
719.589	37283.92
719.932	37181.78
720.275	37189.01
720.617	37093.42
720.96	37033.76
721.303	37143.13
721.646	37111.95
721.989	36847.1
722.331	36933.42
722.674	36843.48
723.016	36838.73
723.359	36803.71
723.701	36734.78
724.044	36540.66
724.386	36461.34
724.729	36495.24
725.071	36409.59
725.413	36424.51
725.755	36307
726.097	36302.48
726.439	36097.06
726.782	36009.38
727.124	36181.58
727.465	35931.87
727.807	35985.42
728.149	35885.31
728.491	35942.26
728.833	35948.59
729.175	35704.3
729.516	35583.63
729.858	35621.59
730.199	35696.62
730.541	35644.42
730.882	35582.27
731.224	35645.32
731.565	35346.12
731.906	35478.09
732.248	35444.87
732.589	35272.22
732.93	35267.93
733.271	35101.61
733.612	35223.41
733.953	35166.24
734.294	35042.4
734.635	34962.85
734.976	35103.87
735.317	34948.16
735.658	34848.5
735.999	34835.62
736.339	34757.21
736.68	34812.8
737.021	34673.14
737.361	34608.51
737.702	34788.17
738.042	34601.28
738.383	34553.15
738.723	34594.95
739.063	34335.75
739.404	34398.8
739.744	34299.37
740.084	34191.35
740.424	34310.44
740.764	34296.2
741.104	34307.28
741.444	34081.75
741.784	33903.67
742.124	34047.62
742.464	33899.6
742.804	33927.85
743.143	33874.29
743.483	33879.94
743.823	33710
744.162	33739.16
744.502	33707.29
744.841	33687.63
745.181	33757.91
745.52	33543
745.86	33706.84
746.199	33570.8
746.538	33383.68
746.877	33484.92
747.216	33477.02
747.556	33354.31
747.895	33262.56
748.234	33225.72
748.573	33379.16
748.911	33233.41
749.25	33169.45
749.589	32972.4
749.928	33006.97
750.267	33118.38
750.605	32984.15
750.944	32822.8
751.283	32795.45
751.621	32837.48
751.96	32681.56
752.298	32629.81
752.636	32613.54
752.975	32474.78
753.313	32353.65
753.651	32529.24
753.989	32381.68
754.327	32333.99
754.666	32131.74
755.004	32193.43
755.342	32175.81
755.679	32017.62
756.017	31945.76
756.355	32011.07
756.693	31828.47
757.031	31901.01
757.368	31759.09
757.706	31637.97
758.044	31540.79
758.381	31536.05
758.719	31402.27
759.056	31503.96
759.394	31235.94
759.731	31132.44
760.068	31011.77
760.405	30977.87
760.743	30940.13
761.08	31026.23
761.417	30806.8
761.754	30802.06
762.091	30730.65
762.428	30549.86
762.765	30327.27
763.102	30415.63
763.438	30339.92
763.775	30107.84
764.112	30230.32
764.449	30114.84
764.785	30064
765.122	29828.07
765.458	29796.66
765.795	29693.39
766.131	29645.03
766.467	29584.91
766.804	29421.98
767.14	29308.54
767.476	29374.07
767.812	29143.12
768.148	29253.17
768.485	28968.21
768.821	28822.45
769.157	28825.16
769.492	28760.76
769.828	28860.87
770.164	28550.37
770.5	28456.13
770.836	28379.97
771.171	28262.01
771.507	28261.33
771.842	28062.47
772.178	27987.89
772.513	27805.75
772.849	27795.81
773.184	27736.15
773.519	27903.38
773.855	27636.04
774.19	27431.75
774.525	27371.19
774.86	27300.68
775.195	27286.44
775.53	27221.59
775.865	26973.68
776.2	26895.72
776.535	26757.19
776.87	26660.02
777.205	26600.81
777.539	26482.4
777.874	26600.36
778.209	26263.19
778.543	26249.63
778.878	26025.91
779.212	26141.39
779.547	25960.6
779.881	25978.91
780.215	25727.61
780.55	25900.72
780.884	25659.37
781.218	25543.89
781.552	25598.58
781.886	25443.55
782.22	25327.17
782.554	25255.54
782.888	25018.93
783.222	24996.11
783.556	24715.89
783.889	24791.37
784.223	24637.02
784.557	24600.64
784.89	24591.37
785.224	24484.71
785.557	24239.29
785.891	24258.27
786.224	24209.91
786.558	24204.72
786.891	24003.14
787.224	23831.62
787.557	23800.21
787.891	23816.93
788.224	23821.22
788.557	23705.29
788.89	23613.09
789.223	23633.88
789.556	23431.86
789.888	23353.44
790.221	23242.48
790.554	23120.9
790.887	23157.29
791.219	23039.55
791.552	22935.6
791.884	22832.32
792.217	22848.37
792.549	22787.13
792.882	22517.08
793.214	22532.22
793.546	22474.82
793.879	22345.33
794.211	22239.12
794.543	22340.58
794.875	22169.29
795.207	22290.42
795.539	22194.6
795.871	22129.52
796.203	21913.48
796.535	21794.38
796.867	21781.5
797.198	21725.69
797.53	21744.89
797.862	21600.27
798.193	21543.77
798.525	21476.88
798.856	21512.58
799.188	21271.69
799.519	21160.5
799.85	21035.99
800.182	21146.72
800.513	21115.98
800.844	20979.26
801.175	20909.66
801.506	20896.33
801.837	20785.37
802.168	20843
802.499	20775.2
802.83	20562.1
803.161	20533.63
803.491	20453.18
803.822	20458.83
804.153	20297.7
804.483	20128.44
804.814	20131.15
805.145	20219.06
805.475	20122.56
805.805	20047.31
806.136	20042.79
806.466	19940.2
806.796	19857.94
807.126	19760.54
807.457	19728.9
807.787	19687.32
808.117	19660.66
808.447	19572.07
808.777	19639.64
809.107	19561.45
809.436	19462.24
809.766	19422.24
810.096	19502.24
810.426	19271.97
810.755	19322.59
811.085	19253.43
811.414	19278.97
811.744	19054.57
812.073	18971.63
812.403	19107.22
812.732	18946.32
813.061	18876.5
813.39	18762.83
813.719	18727.8
814.049	18857.29
814.378	18759.44
814.707	18598.54
815.036	18670.4
815.365	18558.54
815.693	18375.04
816.022	18429.95
816.351	18382.5
816.68	18333.91
817.008	18306.34
817.337	18159.45
817.665	18204.2
817.994	18227.92
818.322	18195.38
818.651	18095.5
818.979	17970.08
819.307	18109.51
819.636	18007.59
819.964	17857.31
820.292	17918.78
820.62	17994.03
820.948	17770.54
821.276	17923.3
821.604	17878.56
821.932	17917.2
822.259	17935.95
822.587	17893.02
822.915	17768.73
823.243	17893.7
823.57	17760.59
823.898	17873.81
824.225	17750.65
824.553	17771.44
824.88	17676.3
825.207	17885.79
825.535	17774.6
825.862	17791.78
826.189	17770.08
826.516	17736.86
826.843	17897.09
827.17	17881.27
827.497	17819.12
827.824	17800.14
828.151	17845.34
828.478	17804.21
828.805	17823.87
829.131	17691.89
829.458	17655.51
829.785	17630.65
830.111	17730.76
830.438	17667.04
830.764	17713.81
831.09	17769.18
831.417	17611.44
831.743	17721.5
832.069	17743.64
832.395	17628.39
832.722	17674.04
833.048	17651.22
833.374	17698.9
833.7	17556.76
834.026	17615.29
834.351	17576.42
834.677	17590.88
835.003	17611.44
835.329	17541.84
835.654	17557.43
835.98	17451.45
836.306	17427.04
836.631	17412.35
836.956	17446.93
837.282	17463.88
837.607	17330.32
837.932	17390.21
838.258	17375.29
838.583	17259.59
838.908	17230.21
839.233	17271.57
839.558	17215.52
839.883	17161.51
840.208	17142.76
840.533	17052.59
840.858	17079.03
841.182	17145.47
841.507	17027.28
841.832	16900.05
842.156	16940.27
842.481	16852.59
842.805	16901.63
843.13	16808.53
843.454	16785.93
843.778	16818.92
844.103	16667.51
844.427	16674.07
844.751	16678.59
845.075	16646.5
845.399	16447.86
845.723	16394.3
846.047	16401.31
846.371	16298.03
846.695	16272.27
847.019	16158.6
847.343	16102.56
847.666	16051.26
847.99	15918.38
848.313	16053.74
848.637	15867.08
848.96	15791.15
849.284	15783.02
849.607	15725.84
849.931	15545.51
850.254	15443.82
850.577	15504.83
850.9	15392.07
851.223	15336.93
851.546	15313.65
851.869	15176.25
852.192	15324.95
852.515	15169.93
852.838	15002.92
853.161	15081.79
853.483	15079.53
853.806	14969.93
854.129	14952.3
854.451	14855.81
854.774	14824.85
855.096	14779.43
855.419	14795.02
855.741	14625.76
856.063	14515.03
856.385	14600.68
856.708	14549.38
857.03	14444.52
857.352	14548.47
857.674	14383.28
857.996	14394.35
858.318	14272.77
858.64	14267.58
858.961	14206.79
859.283	14181.93
859.605	14144.19
859.926	14220.35
860.248	14112.55
860.57	14047.92
860.891	13970.18
861.212	13932.44
861.534	13942.16
861.855	13834.59
862.176	13912.11
862.498	13949.17
862.819	13919.34
863.14	13766.8
863.461	13797.08
863.782	13666.91
864.103	13670.53
864.424	13630.53
864.745	13729.51
865.065	13701.26
865.386	13633.02
865.707	13575.62
866.027	13645.67
866.348	13629.85
866.668	13475.73
866.989	13456.75
867.309	13415.85
867.63	13437.77
867.95	13486.35
868.27	13399.58
868.59	13366.36
868.91	13356.41
869.23	13279.58
869.55	13232.35
869.87	13249.98
870.19	13286.59
870.51	13216.53
870.83	13324.55
871.15	13216.76
871.469	13197.1
871.789	13174.5
872.109	13158
872.428	13066.48
872.748	13069.19
873.067	13021.06
873.386	12995.75
873.706	13025.58
874.025	13057.21
874.344	12971.57
874.663	13043.65
874.982	12918.23
875.301	12971.34
875.62	12929.76
875.939	12860.38
876.258	12895.64
876.577	12888.4
876.896	12854.51
877.214	12749.65
877.533	12706.49
877.852	12798.24
878.17	12795.3
878.489	12751.23
878.807	12724.57
879.125	12682.08
879.444	12651.35
879.762	12598.92
880.08	12609.77
880.398	12623.55
880.716	12582.42
881.034	12497.68
881.352	12529.09
881.67	12417.23
881.988	12523.67
882.306	12461.3
882.624	12384.24
882.941	12317.35
883.259	12298.59
883.577	12321.19
883.894	12273.5
884.212	12269.89
884.529	12278.7
884.846	12243.9
885.164	12165.49
885.481	12117.58
885.798	12111.25
886.115	12053.17
886.432	12074.19
886.75	12065.6
887.067	12076
887.383	11945.15
887.7	11979.5
888.017	11895.21
888.334	11931.37
888.651	11876.45
888.967	11822.67
889.284	11741.99
889.6	11734.76
889.917	11653.63
890.233	11707.19
890.55	11640.53
890.866	11633.52
891.182	11545.16
891.498	11548.1
891.815	11443.92
892.131	11448.22
892.447	11455.22
892.763	11426.75
893.079	11480.08
893.395	11368.67
893.71	11358.73
894.026	11249.58
894.342	11234.21
894.657	11184.49
894.973	11126.87
895.289	11111.73
895.604	11146.75
895.92	11134.78
896.235	11079.41
896.55	11014.1
896.865	11045.06
897.181	10951.96
897.496	10901.56
897.811	10822.02
898.126	10827.44
898.441	10752.42
898.756	10720.78
899.071	10763.26
899.386	10682.36
899.7	10588.58
900.015	10551.74
900.33	10533.66
900.644	10477.62
900.959	10514.46
901.273	10386.77
901.588	10367.79
901.902	10290.05
902.216	10300.22
902.531	10328.02
902.845	10233.11
903.159	10211.86
903.473	10177.51
903.787	10068.14
904.101	10085.99
904.415	10012.77
904.729	10111.08
905.042	9964.64
905.356	10005.54
905.67	9927.8
905.984	9950.4
906.297	9854.13
906.611	9761.71
906.924	9780.46
907.237	9727.13
907.551	9742.27
907.864	9654.59
908.177	9591.54
908.491	9628.6
908.804	9567.36
909.117	9524.88
909.43	9451.43
909.743	9385.9
910.056	9395.61
910.368	9399
910.681	9316.29
910.994	9262.74
911.307	9170.08
911.619	9207.37
911.932	9180.03
912.244	9175.73
912.557	9095.51
912.869	9088.28
913.181	9001.73
913.494	9004.21
913.806	8983.65
914.118	8877.89
914.43	8845.35
914.742	8855.97
915.054	8769.42
915.366	8775.97
915.678	8769.87
915.99	8688.29
916.302	8573.72
916.613	8601.96
916.925	8575.98
917.236	8554.73
917.548	8477.45
917.859	8467.5
918.171	8469.09
918.482	8420.5
918.794	8363.55
919.105	8401.29
919.416	8255.76
919.727	8253.27
920.038	8200.84
920.349	8194.06
920.66	8163.56
920.971	8192.26
921.282	8061.86
921.593	8052.37
921.903	7984.8
922.214	8002.66
922.525	7944.35
922.835	7906.39
923.146	7865.26
923.456	7781.19
923.767	7790.68
924.077	7756.11
924.387	7740.97
924.697	7661.2
925.008	7634.3
925.318	7659.39
925.628	7559.96
925.938	7577.13
926.248	7525.38
926.558	7459.17
926.867	7383.46
927.177	7436.34
927.487	7408.32
927.796	7317.7
928.106	7346.4
928.416	7287.87
928.725	7296.46
929.034	7201.55
929.344	7258.04
929.653	7233.86
929.962	7136.92
930.271	7155
930.581	7055.56
930.89	7072.96
931.199	7031.61
931.508	6994.32
931.817	6983.47
932.125	6958.16
932.434	6921.78
932.743	6856.92
933.051	6814.44
933.36	6813.31
933.669	6774.67
933.977	6716.59
934.286	6722.69
934.594	6698.28
934.902	6623.48
935.21	6623.71
935.519	6634.33
935.827	6608.34
936.135	6512.75
936.443	6512.53
936.751	6477.05
937.059	6449.93
937.367	6431.17
937.674	6366.54
937.982	6416.48
938.29	6340.78
938.597	6342.81
938.905	6262.59
939.213	6234.12
939.52	6195.92
939.827	6157.51
940.135	6164.74
940.442	6112.76
940.749	6139.2
941.056	6137.85
941.363	6133.1
941.67	6021.92
941.977	5997.06
942.284	5990.96
942.591	5921.36
942.898	5912.32
943.205	5882.94
943.511	5866.67
943.818	5875.93
944.125	5813.11
944.431	5853.11
944.738	5810.4
945.044	5762.04
945.35	5735.15
945.657	5743.28
945.963	5675.26
946.269	5640.01
946.575	5625.77
946.881	5618.99
947.187	5603.4
947.493	5580.57
947.799	5598.2
948.105	5543.74
948.41	5488.37
948.716	5491.99
949.022	5475.72
949.327	5408.37
949.633	5386.68
949.938	5414.93
950.244	5358.88
950.549	5308.94
950.854	5296.29
951.16	5310.98
951.465	5219.68
951.77	5242.73
952.075	5193.01
952.38	5148.95
952.685	5190.75
952.99	5153.47
953.294	5104.43
953.599	5068.04
953.904	5052.45
954.209	5064.65
954.513	5041.6
954.818	5030.31
955.122	4944.88
955.426	4945.79
955.731	4917.99
956.035	4884.77
956.339	4902.4
956.643	4885.9
956.948	4870.99
957.252	4854.94
957.556	4901.72
957.86	4792.12
958.163	4791.44
958.467	4739.47
958.771	4744.21
959.075	4721.84
959.378	4673.25
959.682	4682.07
959.985	4638.68
960.289	4599.36
960.592	4600.71
960.896	4591.45
961.199	4553.26
961.502	4559.81
961.805	4537.66
962.108	4467.16
962.411	4493.6
962.714	4474.39
963.017	4452.69
963.32	4431
963.623	4397.78
963.926	4377.22
964.228	4388.06
964.531	4381.51
964.833	4361.17
965.136	4308.06
965.438	4322.08
965.741	4274.17
966.043	4252.7
966.345	4230.55
966.648	4220.84
966.95	4182.64
967.252	4162.08
967.554	4144.23
967.856	4114.17
968.158	4095.41
968.46	4111.91
968.761	4071.01
969.063	4101.74
969.365	4022.42
969.666	4040.5
969.968	3985.14
970.269	4003.67
970.571	4042.31
970.872	3980.84
971.174	3961.41
971.475	3905.59
971.776	3890
972.077	3891.13
972.378	3862.65
972.679	3868.53
972.98	3861.75
973.281	3847.96
973.582	3810.9
973.883	3788.53
974.183	3769.1
974.484	3791.24
974.785	3754.18
975.085	3732.03
975.386	3720.28
975.686	3680.74
975.986	3677.57
976.287	3692.71
976.587	3624.24
976.887	3665.6
977.187	3627.86
977.487	3608.65
977.787	3532.27
978.087	3560.74
978.387	3555.54
978.687	3512.38
978.987	3511.7
979.286	3502.44
979.586	3496.79
979.885	3450.46
980.185	3415.66
980.484	3402.33
980.784	3407.52
981.083	3379.05
981.382	3385.6
981.682	3361.65
981.981	3368.88
982.28	3348.77
982.579	3280.52
982.878	3292.5
983.177	3259.05
983.475	3281.43
983.774	3276
984.073	3264.25
984.372	3236.91
984.67	3234.42
984.969	3235.32
985.267	3202.11
985.566	3172.5
985.864	3169.34
986.162	3154.42
986.461	3127.3
986.759	3105.84
987.057	3069.68
987.355	3065.61
987.653	3044.82
987.951	3029
988.249	3016.57
988.547	3022.9
988.844	3015.67
989.142	2980.87
989.44	2991.49
989.737	2953.75
990.035	2973.86
990.332	2939.29
990.63	2942.45
990.927	2887.31
991.224	2887.99
991.521	2902.9
991.819	2883.92
992.116	2863.58
992.413	2837.82
992.71	2812.74
993.006	2798.95
993.303	2819.06
993.6	2778.39
993.897	2777.48
994.193	2783.13
994.49	2783.13
994.787	2765.28
995.083	2725.51
995.379	2731.83
995.676	2699.52
995.972	2685.28
996.268	2662.46
996.565	2622.91
996.861	2644.61
997.157	2638.96
997.453	2626.08
997.749	2579.97
998.044	2609.35
998.34	2584.95
998.636	2571.16
998.932	2558.96
999.227	2566.42
999.523	2554.44
999.818	2517.6
1000.114	2479.41
1000.409	2470.15
1000.704	2495.46
1001	2463.82
1001.295	2430.15
1001.59	2410.94
1001.885	2445.74
1002.18	2397.83
1002.475	2388.12
1002.77	2396.93
1003.065	2367.1
1003.359	2343.82
1003.654	2349.25
1003.949	2312.64
1004.243	2310.83
1004.538	2321.9
1004.832	2314.44
1005.127	2300.66
1005.421	2267.67
1005.715	2233.54
1006.009	2254.79
1006.304	2235.58
1006.598	2256.37
1006.892	2187.22
1007.186	2192.87
1007.48	2180.89
1007.773	2160.1
1008.067	2127.78
1008.361	2161.23
1008.655	2143.38
1008.948	2101.8
1009.242	2078.97
1009.535	2085.75
1009.829	2066.77
1010.122	2045.75
1010.415	2043.94
1010.708	2053.21
1011.001	2023.15
1011.295	2026.54
1011.588	1997.39
1011.881	1974.11
1012.173	1962.82
1012.466	1952.19
1012.759	1943.83
1013.052	1946.32
1013.344	1952.65
1013.637	1914.68
1013.93	1917.17
1014.222	1909.94
1014.514	1878.75
1014.807	1873.55
1015.099	1845.76
1015.391	1871.29
1015.683	1820.9
1015.976	1823.38
1016.268	1837.4
1016.56	1822.03
1016.851	1800.79
1017.143	1756.27
1017.435	1763.5
1017.727	1751.52
1018.018	1732.99
1018.31	1767.34
1018.602	1707.46
1018.893	1726.44
1019.185	1727.34
1019.476	1733.9
1019.767	1710.62
1020.058	1681.47
1020.35	1671.52
1020.641	1650.73
1020.932	1664.74
1021.223	1636.72
1021.514	1613.9
1021.804	1609.15
1022.095	1609.6
1022.386	1574.35
1022.677	1566.44
1022.967	1565.31
1023.258	1537.97
1023.548	1533.67
1023.839	1514.69
1024.129	1540.68
1024.419	1524.64
1024.709	1482.6
1025	1498.42
1025.29	1499.78
1025.58	1468.14
1025.87	1450.51
1026.16	1424.52
1026.449	1453.68
1026.739	1423.62
1027.029	1399.89
1027.319	1415.49
1027.608	1414.13
1027.898	1387.24
1028.187	1377.52
1028.477	1351.76
1028.766	1345.2
1029.055	1350.63
1029.344	1367.13
1029.634	1341.59
1029.923	1312.66
1030.212	1320.57
1030.501	1309.27
1030.79	1273.12
1031.078	1294.36
1031.367	1298.65
1031.656	1272.66
1031.945	1248.26
1032.233	1267.69
1032.522	1239.9
1032.81	1251.42
1033.099	1232.67
1033.387	1240.8
1033.675	1215.49
1033.963	1189.05
1034.251	1189.5
1034.54	1194.47
1034.828	1166.45
1035.116	1156.51
1035.403	1158.09
1035.691	1145.66
1035.979	1147.47
1036.267	1128.49
1036.554	1125.32
1036.842	1106.11
1037.129	1127.81
1037.417	1123.06
1037.704	1104.31
1037.992	1096.4
1038.279	1102.27
1038.566	1047.36
1038.853	1047.36
1039.14	1047.36
