Data from red_cardboard_box_FLMS001491_00011.txt Node
Date: Wed Feb 08 11:31:35 GMT 2017
User: dcchb
Spectrometer: FLMS00149
Trigger mode: 0
Integration Time (sec): 2.000000E-2
Scans to average: 10
Electric dark correction enabled: true
Nonlinearity correction enabled: false
Boxcar width: 0
XAxis mode: Wavelengths
Number of Pixels in Spectrum: 2048
>>>>>Begin Spectral Data<<<<<
341.393	-12.02
341.776	-12.02
342.16	-12.02
342.543	-49.08
342.927	-72.58
343.31	-62.19
343.693	-63.32
344.077	-59.48
344.46	-50.66
344.843	-47.05
345.226	-42.98
345.61	-22.41
345.993	-31
346.376	13.97
346.759	5.83
347.142	23.23
347.525	24.14
347.908	49.45
348.291	67.53
348.674	90.12
349.057	104.81
349.44	125.15
349.823	149.33
350.206	173.96
350.588	211.25
350.971	221.87
351.354	209.44
351.737	255.54
352.119	242.44
352.502	291.93
352.884	293.51
353.267	277.46
353.65	292.61
354.032	298.48
354.414	305.26
354.797	320.4
355.179	339.61
355.562	325.82
355.944	349.1
356.326	340.51
356.709	357.01
357.091	336.67
357.473	367.18
357.855	341.87
358.238	338.93
358.62	333.51
359.002	344.58
359.384	364.92
359.766	346.84
360.148	347.52
360.53	355.88
360.912	335.99
361.294	323.11
361.676	359.04
362.057	344.58
362.439	333.51
362.821	351.81
363.203	336.45
363.584	334.41
363.966	307.07
364.348	328.31
364.729	321.31
365.111	322.66
365.493	335.99
365.874	336.67
366.256	316.56
366.637	311.36
367.019	309.33
367.4	314.98
367.781	310.23
368.163	326.95
368.544	311.59
368.925	317.69
369.306	296
369.688	312.27
370.069	314.53
370.45	312.72
370.831	310.46
371.212	307.29
371.593	328.99
371.974	310.01
372.355	310.91
372.736	309.1
373.117	290.57
373.498	323.34
373.879	315.43
374.26	332.15
374.641	307.97
375.021	331.02
375.402	302.1
375.783	317.01
376.163	311.59
376.544	326.28
376.925	312.49
377.305	326.95
377.686	322.44
378.066	326.5
378.447	316.79
378.827	328.54
379.208	316.79
379.588	325.37
379.968	331.7
380.349	313.17
380.729	307.29
381.109	348.88
381.489	317.24
381.87	331.47
382.25	343
382.63	327.63
383.01	357.01
383.39	324.24
383.77	342.32
384.15	324.92
384.53	343.45
384.91	348.2
385.29	337.58
385.67	353.39
386.049	346.84
386.429	328.08
386.809	357.24
387.189	330.57
387.568	322.44
387.948	336.67
388.328	321.76
388.707	337.58
389.087	348.42
389.466	335.32
389.846	347.97
390.225	349.55
390.605	345.71
390.984	368.31
391.363	360.4
391.743	358.14
392.122	360.4
392.501	358.37
392.881	344.58
393.26	356.56
393.639	348.42
394.018	365.15
394.397	366.95
394.776	344.81
395.155	365.37
395.534	366.5
395.913	350.91
396.292	349.1
396.671	368.99
397.05	360.4
397.429	368.76
397.808	359.27
398.186	381.42
398.565	345.94
398.944	369.67
399.323	381.42
399.701	358.82
400.08	384.81
400.458	396.56
400.837	359.04
401.215	379.16
401.594	357.69
401.972	373.73
402.351	376.67
402.729	380.51
403.107	390.91
403.486	368.54
403.864	365.15
404.242	380.74
404.62	372.38
404.999	384.35
405.377	389.55
405.755	375.31
406.133	389.78
406.511	395.65
406.889	388.87
407.267	368.76
407.645	415.31
408.023	392.04
408.401	403.34
408.779	394.3
409.156	404.24
409.534	402.43
409.912	408.53
410.29	396.56
410.667	407.86
411.045	406.95
411.422	401.75
411.8	406.27
412.178	431.58
412.555	405.6
412.933	431.36
413.31	409.21
413.687	430.45
414.065	430
414.442	425.26
414.819	442.21
415.197	435.2
415.574	420.51
415.951	423.22
416.328	433.39
416.705	446.73
417.082	442.66
417.46	452.83
417.837	432.04
418.214	427.29
418.591	409.44
418.967	436.1
419.344	434.07
419.721	445.82
420.098	454.41
420.475	452.15
420.852	445.37
421.228	445.82
421.605	445.82
421.982	456.44
422.358	461.41
422.735	470.68
423.111	451.47
423.488	450.79
423.864	440.4
424.241	470
424.617	455.54
424.994	459.61
425.37	462.32
425.746	454.18
426.123	485.59
426.499	452.83
426.875	474.07
427.251	477.23
427.627	481.75
428.003	490.57
428.379	481.07
428.756	470.91
429.132	508.87
429.507	484.46
429.883	506.16
430.259	499.15
430.635	467.06
431.011	496.67
431.387	500.74
431.763	506.38
432.138	506.16
432.514	530.11
432.89	510.45
433.265	520.85
433.641	505.26
434.016	513.39
434.392	525.82
434.767	497.12
435.143	516.1
435.518	545.25
435.894	560.85
436.269	525.37
436.644	548.87
437.02	529.66
437.395	533.95
437.77	545.71
438.145	562.2
438.52	571.47
438.895	579.6
439.271	554.97
439.646	564.69
440.021	551.36
440.395	565.82
440.77	554.97
441.145	558.59
441.52	575.99
441.895	595.2
442.27	561.98
442.645	573.5
443.019	573.5
443.394	574.41
443.769	566.72
444.143	580.28
444.518	593.61
444.892	601.52
445.267	572.15
445.641	595.2
446.016	593.84
446.39	600.62
446.764	606.5
447.139	609.66
447.513	609.66
447.887	599.72
448.262	605.37
448.636	608.76
449.01	620.73
449.384	600.17
449.758	600.85
450.132	618.7
450.506	632.94
450.88	622.09
451.254	620.96
451.628	621.18
452.002	649.43
452.376	619.15
452.75	622.99
453.123	634.97
453.497	657.12
453.871	644.23
454.244	638.58
454.618	655.76
454.992	643.1
455.365	662.99
455.739	672.48
456.112	667.06
456.486	674.97
456.859	686.49
457.232	695.76
457.606	688.98
457.979	672.26
458.352	694.85
458.725	691.69
459.099	716.77
459.472	692.82
459.845	720.84
460.218	726.49
460.591	708.19
460.964	717.23
461.337	715.42
461.71	744.34
462.083	751.12
462.456	739.37
462.829	748.86
463.201	760.84
463.574	772.37
463.947	786.83
464.32	785.02
464.692	775.76
465.065	765.59
465.438	769.88
465.81	783.67
466.183	782.99
466.555	803.55
466.928	805.81
467.3	789.77
467.672	815.53
468.045	819.15
468.417	829.54
468.789	817.56
469.161	845.59
469.534	841.74
469.906	872.7
470.278	862.76
470.65	849.65
471.022	873.61
471.394	905.02
471.766	881.74
472.138	881.74
472.51	905.92
472.882	936.66
473.253	940.95
473.625	944.34
473.997	953.83
474.369	970.1
474.74	988.63
475.112	964.9
475.484	988.86
475.855	1001.74
476.227	994.96
476.598	1011
476.97	1011.68
477.341	1029.76
477.713	1061.62
478.084	1072.92
478.455	1063.43
478.827	1085.8
479.198	1078.8
479.569	1091.23
479.94	1085.58
480.311	1124.9
480.682	1143.88
481.053	1149.08
481.424	1152.02
481.795	1171.45
482.166	1208.97
482.537	1231.79
482.908	1225.24
483.279	1229.08
483.65	1252.13
484.021	1267.27
484.391	1311.79
484.762	1283.99
485.133	1286.25
485.503	1309.3
485.874	1341.39
486.244	1340.71
486.615	1338.45
486.985	1370.09
487.356	1408.28
487.726	1396.76
488.097	1416.64
488.467	1420.49
488.837	1457.32
489.207	1481.27
489.578	1499.58
489.948	1514.04
490.318	1542.29
490.688	1506.13
491.058	1554.27
491.428	1538.22
491.798	1590.88
492.168	1592.23
492.538	1603.53
492.908	1643.98
493.278	1656.86
493.648	1637.2
494.017	1674.49
494.387	1674.26
494.757	1681.5
495.126	1683.76
495.496	1716.3
495.866	1714.71
496.235	1742.28
496.605	1714.26
496.974	1749.97
497.344	1806.46
497.713	1799.68
498.082	1794.03
498.452	1816.41
498.821	1842.4
499.19	1803.3
499.559	1845.78
499.928	1862.28
500.298	1847.14
500.667	1887.14
501.036	1877.65
501.405	1895.95
501.774	1896.63
502.143	1912.9
502.512	1915.16
502.88	1921.26
503.249	1957.65
503.618	1964.65
503.987	1989.74
504.356	1974.82
504.724	2020.02
505.093	2026.57
505.462	2016.18
505.83	2044.65
506.199	2048.49
506.567	2059.11
506.936	2052.11
507.304	2104.54
507.672	2110.64
508.041	2116.51
508.409	2123.74
508.777	2136.17
509.145	2165.78
509.514	2185.21
509.882	2179.34
510.25	2191.54
510.618	2203.97
510.986	2221.59
511.354	2240.8
511.722	2233.8
512.09	2288.03
512.458	2271.54
512.826	2269.05
513.193	2309.28
513.561	2296.17
513.929	2311.08
514.297	2347.69
514.664	2371.87
515.032	2348.6
515.4	2380.46
515.767	2438.76
516.135	2465.66
516.502	2446.67
516.869	2458.42
517.237	2485.77
517.604	2446
517.972	2490.51
518.339	2524.19
518.706	2503.62
519.073	2509.95
519.44	2554.47
519.808	2545.88
520.175	2586.56
520.542	2604.18
520.909	2620.91
521.276	2633.11
521.643	2671.3
522.009	2683.28
522.376	2704.52
522.743	2707.46
523.11	2703.16
523.477	2750.39
523.843	2785.42
524.21	2784.97
524.577	2777.96
524.943	2821.35
525.31	2838.98
525.676	2880.11
526.043	2865.87
526.409	2904.74
526.776	2909.03
527.142	2916.04
527.508	2990.16
527.874	2993.1
528.241	2977.73
528.607	3008.24
528.973	3065.64
529.339	3048.47
529.705	3078.52
530.071	3097.73
530.437	3142.47
530.803	3163.26
531.169	3156.03
531.535	3177.5
531.901	3172.98
532.267	3221.57
532.632	3242.36
532.998	3234.9
533.364	3291.85
533.73	3259.53
534.095	3304.05
534.461	3300.89
534.826	3340.43
535.192	3386.08
535.557	3401
535.923	3354.9
536.288	3393.99
536.653	3400.09
537.019	3447.78
537.384	3414.78
537.749	3462.69
538.114	3461.11
538.479	3513.09
538.845	3493.43
539.21	3518.06
539.575	3541.79
539.94	3558.51
540.305	3571.39
540.67	3594.21
541.034	3599.86
541.399	3617.72
541.764	3663.59
542.129	3641.9
542.494	3666.3
542.858	3616.59
543.223	3706.3
543.587	3711.27
543.952	3698.84
544.316	3745.62
544.681	3723.25
545.045	3779.97
545.41	3802.34
545.774	3785.39
546.138	3798.5
546.503	3831.5
546.867	3886.86
547.231	3850.7
547.595	3914.2
547.959	3905.39
548.324	3933.41
548.688	3955.11
549.052	3963.47
549.416	4005.05
549.779	4025.84
550.143	4013.86
550.507	4046.18
550.871	4092.51
551.235	4088.66
551.599	4109.91
551.962	4155.78
552.326	4133.18
552.689	4178.6
553.053	4182.22
553.417	4221.99
553.78	4306.51
554.143	4326.62
554.507	4341.76
554.87	4329.11
555.234	4394.19
555.597	4341.09
555.96	4426.51
556.323	4447.3
556.686	4490.46
557.05	4507.18
557.413	4531.59
557.776	4610.23
558.139	4620.63
558.502	4630.34
558.865	4627.86
559.228	4673.51
559.59	4755.99
559.953	4761.41
560.316	4777.01
560.679	4805.26
561.041	4888.19
561.404	4914.86
561.767	4945.82
562.129	4993.95
562.492	4992.82
562.854	5034.85
563.217	5052.25
563.579	5073.04
563.941	5161.18
564.304	5229.88
564.666	5332.92
565.028	5308.07
565.39	5359.59
565.753	5330.44
566.115	5450.66
566.477	5480.72
566.839	5502.64
567.201	5522.52
567.563	5592.58
567.925	5653.37
568.287	5671.67
568.648	5725
569.01	5768.62
569.372	5812.23
569.734	5881.84
570.095	5942.4
570.457	5994.6
570.819	6030.08
571.18	6118.21
571.542	6157.76
571.903	6183.07
572.265	6263.3
572.626	6311.66
572.987	6386.23
573.349	6410.18
573.71	6455.16
574.071	6540.12
574.432	6646.56
574.794	6702.15
575.155	6755.94
575.516	6791.87
575.877	6880.45
576.238	6982.82
576.599	7005.42
576.96	7108.47
577.32	7120.67
577.681	7324.51
578.042	7286.32
578.403	7439.08
578.763	7430.72
579.124	7532.87
579.485	7639.08
579.845	7822.8
580.206	7827.55
580.566	7960.65
580.927	8036.58
581.287	8185.96
581.648	8182.12
582.008	8380.53
582.368	8473.41
582.728	8606.06
583.089	8734.87
583.449	8845.15
583.809	8973.51
584.169	9049.66
584.529	9277.23
584.889	9421.4
585.249	9491.23
585.609	9595.64
585.969	9899.58
586.329	9973.71
586.688	10170.54
587.048	10272.46
587.408	10461.83
587.768	10636.74
588.127	10857.53
588.487	10996.96
588.846	11288.7
589.206	11380
589.565	11568.02
589.925	11918.74
590.284	12030.83
590.643	12360.76
591.003	12593.98
591.362	12841.88
591.721	13015.21
592.08	13314.64
592.44	13606.38
592.799	13854.06
593.158	14159.13
593.517	14386.7
593.876	14608.39
594.235	14884.76
594.593	15122.72
594.952	15463.96
595.311	15671.86
595.67	16059.42
596.029	16414.22
596.387	16711.38
596.746	17110.69
597.104	17326.96
597.463	17569.44
597.822	17927.17
598.18	18193.83
598.538	18512.92
598.897	18941.83
599.255	19017.08
599.613	19732.77
599.972	19906.55
600.33	20275.36
600.688	20550.83
601.046	20918.5
601.404	21314.43
601.762	21579.05
602.12	21986.95
602.478	22391.01
602.836	22620.38
603.194	22915.74
603.552	23166.58
603.91	23416.97
604.268	23858.31
604.625	24185.08
604.983	24556.83
605.341	24693.32
605.698	25143.03
606.056	25526.07
606.413	25759.05
606.771	26128.08
607.128	26376.44
607.485	26544.8
607.843	26745.24
608.2	27173.48
608.557	27572.57
608.914	27720.81
609.272	28056.17
609.629	28397.86
609.986	28829.48
610.343	28660.9
610.7	29289.58
611.057	29377.72
611.414	29622.23
611.771	29774.32
612.127	30212.72
612.484	30355.54
612.841	30773.84
613.198	30748.3
613.554	30925.47
613.911	31275.29
614.267	31474.84
614.624	31568.62
614.98	31835.28
615.337	32136.29
615.693	32290.41
616.05	32308.49
616.406	32818.08
616.762	32847.68
617.118	33065.75
617.475	33138.97
617.831	33441.34
618.187	33576.93
618.543	33678.17
618.899	34008.1
619.255	34090.36
619.611	34089.23
619.967	34358.6
620.323	34670.46
620.678	34577.35
621.034	34658.48
621.39	34751.13
621.746	34842.21
622.101	35335.3
622.457	35152.03
622.812	35257.79
623.168	35447.84
623.523	35600.38
623.879	35731
624.234	35593.82
624.589	35889.64
624.945	35967.15
625.3	36000.82
625.655	36170.53
626.01	36162.17
626.365	36352.45
626.72	36394.48
627.075	36345.67
627.43	36425.44
627.785	36557.87
628.14	36646.9
628.495	36644.87
628.85	36804.19
629.205	36567.36
629.559	37033.11
629.914	36882.38
630.269	36955.82
630.623	36937.07
630.978	36883.51
631.332	37057.51
631.687	37169.6
632.041	37130.28
632.396	37323.27
632.75	37024.75
633.104	37319.43
633.459	37076.27
633.813	37105.65
634.167	37173.22
634.521	37160.79
634.875	37335.02
635.229	37154.91
635.583	37108.81
635.937	37241.69
636.291	37242.14
636.645	37321.01
636.999	37292.08
637.352	37187.23
637.706	37089.6
638.06	37209.6
638.413	37085.31
638.767	37235.81
639.121	37320.11
639.474	37116.5
639.828	37177.74
640.181	37271.75
640.534	37317.62
640.888	37279.2
641.241	37102.03
641.594	37107.68
641.947	37279.2
642.301	37123.05
642.654	37168.92
643.007	37391.29
643.36	37321.46
643.713	37213.22
644.066	37316.94
644.419	37097.97
644.771	36889.16
645.124	36431.77
645.477	36483.52
645.83	36329.62
646.182	36234.26
646.535	36097.31
646.888	36439.9
647.24	36265.67
647.593	36540.24
647.945	36375.95
648.298	36156.75
648.65	36237.87
649.002	36237.87
649.355	36227.03
649.707	36300.47
650.059	36388.38
650.411	36830.85
650.763	36868.59
651.115	37289.37
651.467	37075.14
651.819	37218.64
652.171	37174.8
652.523	36895.26
652.875	37106.55
653.227	36905.88
653.578	37173.67
653.93	37057.97
654.282	36864.75
654.633	36974.35
654.985	37155.82
655.337	37079.66
655.688	37114.69
656.039	37151.52
656.391	36860.01
656.742	36939.33
657.094	37021.13
657.445	37073.11
657.796	36984.75
658.147	36973.45
658.498	36932.32
658.849	37010.74
659.2	36867.01
659.551	36917.18
659.902	36990.4
660.253	36921.02
660.604	36962.15
660.955	36858.2
661.306	37062.94
661.656	36956.5
662.007	36889.84
662.358	36912.43
662.708	37031.53
663.059	36910.4
663.409	36667.69
663.76	36926.67
664.11	36880.8
664.461	37123.95
664.811	37039.21
665.161	36996.72
665.511	36887.8
665.862	36897.74
666.212	37015.71
666.562	37038.31
666.912	36943.84
667.262	36905.88
667.612	36871.3
667.962	36885.09
668.312	36770.29
668.662	37036.5
669.011	36887.12
669.361	36920.79
669.711	36921.02
670.06	36852.32
670.41	36733.46
670.76	36770.74
671.109	36699.33
671.459	36795.83
671.808	36785.66
672.157	36932.09
672.507	36644.42
672.856	36598.09
673.205	36561.03
673.554	36859.1
673.904	36659.78
674.253	36822.49
674.602	36747.01
674.951	36235.39
675.3	36016.41
675.649	36591.09
675.998	36520.58
676.346	36544.31
676.695	36704.76
677.044	36253.02
677.393	36450.75
677.741	36512.44
678.09	36537.53
678.438	36348.61
678.787	36613.46
679.135	36445.55
679.484	36104.77
679.832	36250.3
680.181	36140.02
680.529	36286.91
680.877	36154.04
681.225	36180.25
681.573	36312.45
681.922	36005.11
682.27	36014.38
682.618	35965.11
682.966	35948.16
683.314	36000.82
683.661	35702.52
684.009	35725.57
684.357	35614.61
684.705	35476.99
685.053	35662.3
685.4	35484.45
685.748	35377.78
686.095	35420.5
686.443	35383.21
686.79	35209.65
687.138	35304.57
687.485	35235.87
687.832	35208.98
688.18	35130.79
688.527	35034.52
688.874	34983.9
689.221	34921.3
689.568	34867.52
689.915	34700.97
690.262	34796.1
690.609	34671.59
690.956	34531.93
691.303	34494.42
691.65	34262.79
691.997	34392.95
692.344	34309.56
692.69	34149.57
693.037	34191.6
693.383	33876.81
693.73	33979.63
694.077	33823.25
694.423	33784.38
694.769	33722.69
695.116	33615.34
695.462	33642.24
695.808	33493.09
696.155	33506.65
696.501	33371.74
696.847	33401.79
697.193	32941.69
697.539	33184.62
697.885	33021.46
698.231	32845.42
698.577	32989.82
698.923	32840
699.269	32636.61
699.614	32486.11
699.96	32489.05
700.306	32492.44
700.651	32397.07
700.997	32299.45
701.342	32185.78
701.688	32180.35
702.033	31975.84
702.379	31991.66
702.724	31919.57
703.069	31979
703.415	31714.83
703.76	31701.5
704.105	31738.56
704.45	31498.34
704.795	31352.81
705.14	31435.06
705.485	31504.89
705.83	31251.11
706.175	31405.23
706.52	31210.21
706.865	31078.01
707.209	30997.79
707.554	30903.78
707.899	30995.75
708.243	30834.4
708.588	30853.16
708.932	30598.25
709.277	30538.59
709.621	30618.81
709.966	30268.31
710.31	30436.22
710.654	30164.59
710.998	30279.61
711.342	30280.52
711.687	30125.27
712.031	30098.15
712.375	29894.54
712.719	30000.75
713.063	29941.09
713.407	29972.95
713.75	29902.9
714.094	29637.14
714.438	29635.34
714.782	29635.11
715.125	29547.2
715.469	29574.77
715.812	29426.75
716.156	29252.07
716.499	29321.9
716.843	29451.61
717.186	29234.22
717.53	29322.58
717.873	29217.95
718.216	29181.56
718.559	29055.92
718.902	28969.37
719.246	29037.84
719.589	28800.33
719.932	28915.81
720.275	28714
720.617	28787.68
720.96	28685.98
721.303	28783.61
721.646	28803.49
721.989	28618.87
722.331	28640.33
722.674	28523.95
723.016	28457.51
723.359	28510.39
723.701	28524.41
724.044	28234.02
724.386	28230.18
724.729	28399.44
725.071	28193.34
725.413	28200.35
725.755	28052.33
726.097	28029.96
726.439	27964.42
726.782	27890.75
727.124	28001.26
727.465	27876.96
727.807	27815.05
728.149	27908.83
728.491	27776.18
728.833	27777.31
729.175	27747.02
729.516	27646.46
729.858	27681.04
730.199	27662.73
730.541	27578.44
730.882	27408.28
731.224	27632.23
731.565	27514.04
731.906	27584.77
732.248	27391.55
732.589	27334.38
732.93	27241.28
733.271	27261.61
733.612	27179.13
733.953	27270.2
734.294	27114.5
734.635	27114.05
734.976	27181.39
735.317	27189.07
735.658	26993.82
735.999	26997.21
736.339	26927.84
736.68	26969.19
737.021	26971
737.361	26763.55
737.702	27067.95
738.042	26846.03
738.383	26813.04
738.723	26745.24
739.063	26754.28
739.404	26792.25
739.744	26646.26
740.084	26566.72
740.424	26614.85
740.764	26620.95
741.104	26640.39
741.444	26450.34
741.784	26431.58
742.124	26476.1
742.464	26439.26
742.804	26365.82
743.143	26342.77
743.483	26308.19
743.823	26162.89
744.162	26208.31
744.502	26220.29
744.841	26182.09
745.181	26145.94
745.52	25984.13
745.86	26103.45
746.199	26162.89
746.538	26089.67
746.877	25959.95
747.216	26120.4
747.556	25952.72
747.895	26067.29
748.234	25867.3
748.573	25832.5
748.911	25864.59
749.25	25734.42
749.589	25651.49
749.928	25789.79
750.267	25656.46
750.605	25561.32
750.944	25710.02
751.283	25486.29
751.621	25546.18
751.96	25482
752.298	25558.38
752.636	25442
752.975	25357.71
753.313	25196.58
753.651	25400.19
753.989	25230.71
754.327	25288.56
754.666	25040.66
755.004	25199.3
755.342	25149.8
755.679	25148.22
756.017	24926.76
756.355	24897.61
756.693	24784.39
757.031	24777.84
757.368	24664.39
757.706	24675.69
758.044	24659.42
758.381	24523.38
758.719	24456.94
759.056	24546.43
759.394	24419.43
759.731	24299.66
760.068	24317.74
760.405	24189.6
760.743	24157.29
761.08	24227.8
761.417	24072.55
761.754	23988.71
762.091	24020.34
762.428	23807.02
762.765	23649.51
763.102	23782.84
763.438	23651.77
763.775	23587.13
764.112	23570.41
764.449	23493.8
764.785	23472.79
765.122	23353.69
765.458	23305.11
765.795	23231.89
766.131	23281.15
766.467	23045.23
766.804	22995.51
767.14	22819.7
767.476	22829.19
767.812	22758.91
768.148	22816.98
768.485	22662.86
768.821	22561.62
769.157	22552.13
769.492	22359.6
769.828	22452.47
770.164	22276.66
770.5	22246.38
770.836	22301.52
771.171	22043.67
771.507	22058.13
771.842	21921.87
772.178	21895.43
772.513	21817.01
772.849	21803.9
773.184	21597.58
773.519	21674.19
773.855	21610.69
774.19	21508.54
774.525	21339.51
774.86	21424.93
775.195	21270.13
775.53	21179.51
775.865	21222
776.2	21013.42
776.535	20838.28
776.87	20897.94
777.205	20732.29
777.539	20631.51
777.874	20741.79
778.209	20396.26
778.543	20546.54
778.878	20386.54
779.212	20370.04
779.547	20150.39
779.881	20300.67
780.215	20104.29
780.55	20202.82
780.884	19995.82
781.218	20007.34
781.552	19927.12
781.886	19867.23
782.22	19787.91
782.554	19634.47
782.888	19554.25
783.222	19580.46
783.556	19348.6
783.889	19477.41
784.223	19227.93
784.557	19261.37
784.89	19301.82
785.224	19022.06
785.557	18985
785.891	19097.76
786.224	18913.81
786.558	18956.75
786.891	18842.63
787.224	18772.35
787.557	18648.51
787.891	18671.56
788.224	18586.36
788.557	18522.18
788.89	18518.34
789.223	18343.66
789.556	18279.03
789.888	18354.96
790.221	18245.13
790.554	18068.64
790.887	18081.52
791.219	18021.18
791.552	17957
791.884	17929.43
792.217	17856.89
792.549	17795.42
792.882	17627.74
793.214	17617.35
793.546	17660.28
793.879	17484.92
794.211	17385.04
794.543	17475.66
794.875	17394.75
795.207	17463.23
795.539	17246.28
795.871	17283.8
796.203	17138.94
796.535	17084.25
796.867	17091.49
797.198	16972.84
797.53	16982.56
797.862	16839.51
798.193	16820.31
798.525	16836.35
798.856	16812.62
799.188	16567.43
799.519	16605.4
799.85	16548.45
800.182	16594.55
800.513	16423.93
800.844	16323.14
801.175	16370.15
801.506	16350.71
801.837	16219.87
802.168	16142.13
802.499	16178.06
802.83	16091.96
803.161	16079.76
803.491	15990.27
803.822	16066.65
804.153	15879.99
804.483	15814.46
804.814	15694.91
805.145	15687.45
805.475	15723.16
805.805	15750.73
806.136	15672.09
806.466	15673.44
806.796	15587.34
807.126	15516.61
807.457	15447.24
807.787	15508.48
808.117	15372.89
808.447	15339.89
808.777	15324.3
809.107	15307.8
809.436	15195.26
809.766	15192.33
810.096	15212.21
810.426	15061.71
810.755	15174.47
811.085	15046.34
811.414	14952.33
811.744	14940.58
812.073	14880.24
812.403	14809.51
812.732	14782.85
813.061	14892
813.39	14697.42
813.719	14709.18
814.049	14781.26
814.378	14743.52
814.707	14586.92
815.036	14606.81
815.365	14562.74
815.693	14472.57
816.022	14434.15
816.351	14378.79
816.68	14308.28
817.008	14309.64
817.337	14255.63
817.665	14252.92
817.994	14234.84
818.322	14200.26
818.651	14152.81
818.979	14161.62
819.307	14180.15
819.636	14142.41
819.964	14016.76
820.292	13980.16
820.62	14066.93
820.948	13925.02
821.276	13972.02
821.604	13944.9
821.932	14008.85
822.259	14013.15
822.587	13922.3
822.915	13915.52
823.243	14017.67
823.57	13981.06
823.898	13963.66
824.225	13830.78
824.553	13878.69
824.88	13856.99
825.207	13941.06
825.535	13860.16
825.862	13939.7
826.189	13884.34
826.516	13951
826.843	13985.13
827.17	13985.35
827.497	13967.27
827.824	13948.97
828.151	13925.92
828.478	13881.17
828.805	13929.99
829.131	13851.57
829.458	13803.89
829.785	13787.17
830.111	13793.27
830.438	13856.32
830.764	13832.36
831.09	13852.47
831.417	13765.25
831.743	13888.18
832.069	13910.55
832.395	13767.73
832.722	13840.95
833.048	13787.62
833.374	13857.45
833.7	13722.53
834.026	13816.77
834.351	13736.32
834.677	13782.65
835.003	13849.99
835.329	13755.3
835.654	13728.18
835.98	13727.96
836.306	13679.82
836.631	13642.08
836.956	13653.84
837.282	13679.15
837.607	13621.75
837.932	13510.56
838.258	13578.81
838.583	13505.82
838.908	13485.03
839.233	13408.64
839.558	13447.06
839.883	13447.06
840.208	13302.66
840.533	13391.47
840.858	13353.73
841.182	13383.33
841.507	13412.94
841.832	13250.68
842.156	13334.97
842.481	13275.99
842.805	13241.42
843.13	13159.84
843.454	13148.09
843.778	13103.12
844.103	13082.55
844.427	13052.5
844.751	13060.41
845.075	13034.19
845.399	12960.97
845.723	12842.78
846.047	12823.35
846.371	12741.09
846.695	12743.13
847.019	12718.27
847.343	12595.11
847.666	12575.45
847.99	12561.21
848.313	12464.04
848.637	12338.84
848.96	12414.55
849.284	12401.89
849.607	12281.22
849.931	12272.86
850.254	12305.85
850.577	12033.99
850.9	12076.02
851.223	12048.91
851.546	11888.23
851.869	11895.46
852.192	11877.61
852.515	11833.09
852.838	11815.01
853.161	11807.33
853.483	11791.06
853.806	11705.19
854.129	11733.21
854.451	11630.84
854.774	11518.3
855.096	11613.44
855.419	11510.62
855.741	11497.73
856.063	11435.82
856.385	11444.85
856.708	11342.26
857.03	11389.26
857.352	11367.12
857.674	11288.7
857.996	11261.81
858.318	11177.29
858.64	11186.33
858.961	11189.95
859.283	11212.77
859.605	11049.61
859.926	11171.19
860.248	11040.35
860.57	11051.42
860.891	11055.49
861.212	10919.9
861.534	10904.3
861.855	10865.43
862.176	10911.31
862.498	10871.08
862.819	10870.86
863.14	10852.55
863.461	10766.45
863.782	10771.2
864.103	10733.23
864.424	10700.69
864.745	10762.39
865.065	10783.4
865.386	10724.65
865.707	10682.84
866.027	10726.46
866.348	10652.56
866.668	10632.67
866.989	10512.9
867.309	10502.51
867.63	10545.22
867.95	10627.47
868.27	10471.32
868.59	10573.01
868.91	10469.96
869.23	10517.65
869.55	10386.35
869.87	10405.11
870.19	10366.24
870.51	10427.48
870.83	10484.88
871.15	10402.4
871.469	10397.2
871.789	10382.28
872.109	10351.78
872.428	10274.04
872.748	10317.43
873.067	10230.65
873.386	10294.6
873.706	10270.87
874.025	10138.67
874.344	10144.32
874.663	10238.56
874.982	10187.49
875.301	10138.9
875.62	10096.19
875.939	10070.43
876.258	10128.73
876.577	10058.9
876.896	10092.12
877.214	10009.64
877.533	10105
877.852	10038.34
878.17	10017.32
878.489	9995.18
878.807	9960.83
879.125	9948.17
879.444	9952.92
879.762	9929.87
880.08	9917.44
880.398	9886.03
880.716	9893.93
881.034	9835.41
881.352	9781.17
881.67	9747.72
881.988	9836.99
882.306	9844.22
882.624	9747.05
882.941	9729.42
883.259	9712.92
883.577	9651
883.894	9669.31
884.212	9594.51
884.529	9619.14
884.846	9600.16
885.164	9517
885.481	9576.2
885.798	9525.81
886.115	9460.05
886.432	9485.13
886.75	9419.14
887.067	9474.51
887.383	9451.46
887.7	9460.73
888.017	9353.61
888.334	9412.14
888.651	9259.6
888.967	9298.47
889.284	9265.48
889.6	9304.8
889.917	9140.06
890.233	9182.32
890.55	9111.81
890.866	9106.16
891.182	9159.04
891.498	9073.84
891.815	9050.12
892.131	9008.76
892.447	9045.14
892.763	9002.88
893.079	8983.22
893.395	8915.2
893.71	8953.39
894.026	8936.22
894.342	8871.81
894.657	8771.25
894.973	8762.44
895.289	8827.75
895.604	8823.68
895.92	8627.08
896.235	8650.35
896.55	8669.56
896.865	8658.94
897.181	8573.29
897.496	8557.92
897.811	8579.17
898.126	8468.66
898.441	8460.3
898.756	8436.35
899.071	8451.03
899.386	8430.7
899.7	8356.57
900.015	8278.84
900.33	8254.88
900.644	8286.52
900.959	8289.01
901.273	8279.97
901.588	8241.1
901.902	8172.17
902.216	8159.52
902.531	8108.22
902.845	8134.66
903.159	8062.8
903.473	8038.16
903.787	7924.5
904.101	7964.27
904.415	7999.75
904.729	7923.59
905.042	7946.64
905.356	7869.58
905.67	7884.5
905.984	7865.97
906.297	7795.23
906.611	7682.24
906.924	7699.64
907.237	7686.99
907.551	7644.05
907.864	7578.29
908.177	7656.03
908.491	7588.68
908.804	7526.31
909.117	7506.43
909.43	7431.17
909.743	7391.85
910.056	7389.59
910.368	7369.71
910.681	7288.81
910.994	7339.43
911.307	7314.57
911.619	7173.55
911.932	7225.08
912.244	7145.53
912.557	7172.42
912.869	7144.85
913.181	7058.08
913.494	7094.69
913.806	7035.7
914.118	7026.89
914.43	6962.71
914.742	6973.11
915.054	6949.15
915.366	6839.78
915.678	6863.96
915.99	6810.63
916.302	6791.42
916.613	6771.98
916.925	6800.91
917.236	6749.16
917.548	6692.66
917.859	6716.17
918.171	6618.54
918.482	6601.82
918.794	6570.63
919.105	6628.03
919.416	6540.58
919.727	6467.81
920.038	6464.19
920.349	6465.32
920.66	6445.66
920.971	6444.99
921.282	6420.13
921.593	6331.77
921.903	6273.24
922.214	6292.22
922.525	6272.56
922.835	6276.63
923.146	6198.21
923.456	6242.28
923.767	6134.71
924.077	6193.92
924.387	6126.58
924.697	6113.92
925.008	6037.31
925.318	6074.83
925.628	6011.55
925.938	5988.95
926.248	5954.38
926.558	5959.8
926.867	5922.74
927.177	5853.14
927.487	5856.07
927.796	5762.29
928.106	5782.86
928.416	5774.27
928.725	5743.08
929.034	5738.11
929.344	5702.86
929.653	5725.23
929.962	5702.41
930.271	5618.34
930.581	5611.11
930.89	5605.01
931.199	5570.43
931.508	5583.09
931.817	5576.53
932.125	5558.46
932.434	5494.73
932.743	5432.58
933.051	5416.09
933.36	5367.73
933.669	5360.95
933.977	5335.86
934.286	5293.6
934.594	5314.17
934.902	5304.9
935.21	5291.12
935.519	5262.42
935.827	5254.96
936.135	5220.61
936.443	5190.56
936.751	5145.59
937.059	5102.2
937.367	5099.26
937.674	5082.99
937.982	5082.76
938.29	5088.64
938.597	5090.9
938.905	5007.96
939.213	4969.54
939.52	4965.93
939.827	4939.04
940.135	4911.47
940.442	4901.3
940.749	4912.14
941.056	4810.68
941.363	4832.6
941.67	4857.91
941.977	4805.48
942.284	4786.05
942.591	4743.56
942.898	4741.98
943.205	4729.78
943.511	4692.72
943.818	4680.96
944.125	4628.08
944.431	4629.21
944.738	4627.63
945.044	4620.18
945.35	4553.74
945.657	4538.37
945.963	4535.66
946.269	4536.56
946.575	4544.24
946.881	4529.78
947.187	4478.03
947.493	4457.02
947.799	4442.33
948.105	4449.11
948.41	4412.5
948.716	4346.28
949.022	4346.51
949.327	4317.58
949.633	4256.34
949.938	4335.89
950.244	4283.91
950.549	4228.1
950.854	4211.37
951.16	4177.25
951.465	4155.78
951.77	4184.93
952.075	4203.24
952.38	4132.96
952.685	4108.78
952.99	4098.38
953.294	4145.39
953.599	4055.9
953.904	4052.51
954.209	4050.47
954.513	4049.34
954.818	3964.15
955.122	3982.45
955.426	3982.45
955.731	4003.47
956.035	3874.66
956.339	3903.58
956.643	3884.38
956.948	3871.27
957.252	3842.34
957.556	3931.38
957.86	3869.23
958.163	3825.85
958.467	3813.87
958.771	3805.73
959.075	3788.56
959.378	3782.68
959.682	3735
959.985	3722.12
960.289	3701.1
960.592	3692.74
960.896	3674.44
961.199	3672.86
961.502	3651.16
961.805	3576.59
962.108	3609.35
962.411	3590.82
962.714	3563.48
963.017	3590.15
963.32	3550.82
963.623	3563.03
963.926	3543.59
964.228	3499.53
964.531	3489.81
964.833	3512.41
965.136	3457.95
965.438	3442.8
965.741	3412.98
966.043	3402.35
966.345	3395.35
966.648	3365.29
966.95	3357.38
967.252	3328.91
967.554	3341.56
967.856	3334.79
968.158	3307.44
968.46	3300.44
968.761	3269.25
969.063	3321.68
969.365	3248.69
969.666	3217.27
969.968	3218.63
970.269	3216.6
970.571	3200.33
970.872	3182.02
971.174	3169.14
971.475	3176.37
971.776	3114.45
972.077	3128.91
972.378	3138.41
972.679	3126.66
972.98	3134.34
973.281	3094.34
973.582	3064.06
973.883	3010.05
974.183	3029.26
974.484	3011.4
974.785	3027.45
975.085	2992.87
975.386	3012.76
975.686	2965.08
975.986	2942.48
976.287	2945.87
976.587	2938.19
976.887	2907.9
977.187	2909.03
977.487	2885.31
977.787	2880.79
978.087	2855.48
978.387	2863.39
978.687	2863.16
978.987	2844.63
979.286	2827.45
979.586	2788.58
979.885	2798.3
980.185	2744.97
980.484	2762.82
980.784	2731.64
981.083	2760.79
981.382	2727.8
981.682	2733.67
981.981	2716.27
982.28	2697.29
982.579	2664.07
982.878	2676.5
983.177	2657.74
983.475	2681.24
983.774	2645.99
984.073	2643.05
984.372	2612.77
984.67	2636.05
984.969	2605.76
985.267	2561.7
985.566	2528.25
985.864	2535.26
986.162	2561.7
986.461	2555.14
986.759	2547.46
987.057	2511.08
987.355	2497.75
987.653	2502.49
987.951	2466.56
988.249	2479.67
988.547	2469.72
988.844	2464.3
989.142	2436.5
989.44	2428.37
989.737	2400.12
990.035	2418.43
990.332	2388.37
990.63	2376.17
990.927	2373.45
991.224	2330.29
991.521	2335.49
991.819	2351.08
992.116	2313.34
992.413	2347.47
992.71	2330.29
993.006	2320.12
993.303	2242.61
993.6	2295.49
993.897	2255.27
994.193	2238.32
994.49	2241.48
994.787	2232.22
995.083	2252.78
995.379	2240.8
995.676	2173.23
995.972	2207.58
996.268	2193.8
996.565	2158.54
996.861	2190.86
997.157	2115.61
997.453	2146.57
997.749	2139.34
998.044	2098.89
998.34	2111.31
998.636	2098.21
998.932	2098.66
999.227	2031.99
999.523	2040.13
999.818	2051.88
1000.114	2025.67
1000.409	2076.06
1000.704	2022.28
1001	2029.06
1001.295	2025.22
1001.59	1977.76
1001.885	1989.28
1002.18	1951.32
1002.475	1935.27
1002.77	1971.88
1003.065	1908.83
1003.359	1942.51
1003.654	1929.85
1003.949	1920.13
1004.243	1893.24
1004.538	1884.65
1004.832	1903.18
1005.127	1891.43
1005.421	1859.12
1005.715	1837.42
1006.009	1843.3
1006.304	1826.58
1006.598	1795.16
1006.892	1830.19
1007.186	1812.57
1007.48	1814.83
1007.773	1779.57
1008.067	1739.8
1008.361	1768.95
1008.655	1728.05
1008.948	1743.19
1009.242	1727.14
1009.535	1696.64
1009.829	1712.91
1010.122	1717.88
1010.415	1717.88
1010.708	1683.53
1011.001	1688.05
1011.295	1671.1
1011.588	1676.3
1011.881	1629.07
1012.173	1633.14
1012.466	1654.83
1012.759	1608.05
1013.052	1596.53
1013.344	1604.89
1013.637	1597.2
1013.93	1577.09
1014.222	1579.13
1014.514	1576.41
1014.807	1537.32
1015.099	1525.79
1015.391	1538.22
1015.683	1501.61
1015.976	1509.75
1016.268	1485.57
1016.56	1512.91
1016.851	1498.68
1017.143	1461.16
1017.435	1497.77
1017.727	1474.5
1018.018	1442.63
1018.31	1431.56
1018.602	1414.61
1018.893	1449.64
1019.185	1418.45
1019.476	1397.44
1019.767	1390.88
1020.058	1407.83
1020.35	1402.86
1020.641	1366.25
1020.932	1350.88
1021.223	1353.14
1021.514	1346.36
1021.804	1319.02
1022.095	1315.63
1022.386	1330.77
1022.677	1317.66
1022.967	1313.82
1023.258	1280.15
1023.548	1266.37
1023.839	1291.9
1024.129	1301.84
1024.419	1269.98
1024.709	1245.8
1025	1265.24
1025.29	1231.79
1025.58	1251
1025.87	1235.63
1026.16	1203.54
1026.449	1195.18
1026.739	1229.3
1027.029	1186.59
1027.319	1187.27
1027.608	1186.82
1027.898	1161.06
1028.187	1159.48
1028.477	1169.19
1028.766	1145.46
1029.055	1120.38
1029.344	1118.57
1029.634	1135.3
1029.923	1090.32
1030.212	1130.1
1030.501	1109.53
1030.79	1080.16
1031.078	1070.21
1031.367	1072.92
1031.656	1070.89
1031.945	1062.3
1032.233	1055.07
1032.522	1046.48
1032.81	1013.94
1033.099	1038.12
1033.387	1051.46
1033.675	1027.05
1033.963	1026.82
1034.251	1031.57
1034.54	1012.59
1034.828	1007.39
1035.116	975.53
1035.403	1004
1035.691	968.07
1035.979	965.58
1036.267	965.58
1036.554	956.09
1036.842	954.06
1037.129	974.62
1037.417	970.1
1037.704	966.71
1037.992	943.44
1038.279	910.89
1038.566	938.92
1038.853	938.92
1039.14	938.92
