Data from red_shiny_book_FLMS001491_00003.txt Node
Date: Wed Feb 08 15:23:33 GMT 2017
User: dcchb
Spectrometer: FLMS00149
Trigger mode: 0
Integration Time (sec): 2.000000E-2
Scans to average: 10
Electric dark correction enabled: true
Nonlinearity correction enabled: false
Boxcar width: 0
XAxis mode: Wavelengths
Number of Pixels in Spectrum: 2048
>>>>>Begin Spectral Data<<<<<
341.393	-17.56
341.776	-17.56
342.16	-17.56
342.543	-61.4
342.927	-66.82
343.31	-73.37
343.693	-71.57
344.077	-62.07
344.46	-56.88
344.843	-56.88
345.226	-36.99
345.61	-24.34
345.993	-15.52
346.376	-6.48
346.759	11.37
347.142	22.67
347.525	34.19
347.908	61.09
348.291	88.66
348.674	86.17
349.057	99.95
349.44	126.62
349.823	147.64
350.206	167.75
350.588	203.23
350.971	218.14
351.354	218.37
351.737	224.92
352.119	285.71
352.502	269.89
352.884	280.74
353.267	294.75
353.65	312.83
354.032	327.07
354.414	311.93
354.797	318.71
355.179	329.33
355.562	321.87
355.944	334.3
356.326	347.41
356.709	365.48
357.091	354.64
357.473	343.34
357.855	371.81
358.238	357.8
358.62	341.53
359.002	353.51
359.384	338.37
359.766	351.02
360.148	364.58
360.53	337.24
360.912	339.27
361.294	333.62
361.676	331.59
362.057	351.02
362.439	348.99
362.821	332.49
363.203	349.67
363.584	340.17
363.966	341.08
364.348	345.82
364.729	323
365.111	331.36
365.493	338.82
365.874	345.15
366.256	336.56
366.637	327.07
367.019	313.96
367.4	335.43
367.781	331.14
368.163	317.12
368.544	331.81
368.925	327.75
369.306	317.12
369.688	328.2
370.069	337.24
370.45	304.92
370.831	339.27
371.212	328.42
371.593	337.46
371.974	290.68
372.355	307.63
372.736	329.1
373.117	341.98
373.498	344.02
373.879	344.92
374.26	329.78
374.641	330.01
375.021	334.75
375.402	354.19
375.783	323.23
376.163	349.67
376.544	339.72
376.925	337.01
377.305	359.84
377.686	330.68
378.066	354.64
378.447	347.86
378.827	340.17
379.208	326.84
379.588	334.53
379.968	339.27
380.349	363.45
380.729	353.28
381.109	363.9
381.489	360.74
381.87	372.04
382.25	354.64
382.63	360.97
383.01	345.15
383.39	363
383.77	337.91
384.15	367.29
384.53	383.11
384.91	367.29
385.29	358.48
385.67	361.19
386.049	358.25
386.429	367.74
386.809	377.91
387.189	383.11
387.568	370.68
387.948	362.09
388.328	395.77
388.707	385.37
389.087	386.05
389.466	381.08
389.846	390.34
390.225	372.04
390.605	396.9
390.984	375.65
391.363	385.6
391.743	395.09
392.122	415.65
392.501	392.15
392.881	406.39
393.26	394.41
393.639	418.14
394.018	389.66
394.397	385.37
394.776	395.54
395.155	407.07
395.534	412.94
395.913	400.51
396.292	438.7
396.671	417.91
397.05	414.07
397.429	419.72
397.808	407.74
398.186	423.79
398.565	412.49
398.944	414.75
399.323	412.72
399.701	436.9
400.08	434.64
400.458	455.65
400.837	432.6
401.215	444.13
401.594	447.29
401.972	447.06
402.351	457.23
402.729	437.8
403.107	454.97
403.486	457.91
403.864	449.55
404.242	446.84
404.62	460.85
404.999	449.1
405.377	472.15
405.755	473.96
406.133	466.95
406.511	492.26
406.889	471.24
407.267	468.76
407.645	490.45
408.023	470.79
408.401	477.12
408.779	478.02
409.156	490.45
409.534	509.66
409.912	508.98
410.29	515.09
410.667	532.26
411.045	511.47
411.422	504.92
411.8	513.05
412.178	536.33
412.555	530.9
412.933	544.24
413.31	551.24
413.687	544.46
414.065	541.75
414.442	559.15
414.819	548.3
415.197	560.73
415.574	586.95
415.951	581.52
416.328	574.74
416.705	576.78
417.082	570
417.46	583.56
417.837	595.54
418.214	605.7
418.591	618.36
418.967	621.75
419.344	631.92
419.721	614.74
420.098	635.99
420.475	590.56
420.852	626.04
421.228	633.05
421.605	633.5
421.982	638.02
422.358	630.11
422.735	658.58
423.111	662.2
423.488	680.96
423.864	652.71
424.241	690.22
424.617	669.66
424.994	645.48
425.37	682.09
425.746	678.92
426.123	678.92
426.499	700.84
426.875	701.75
427.251	725.7
427.627	732.03
428.003	726.15
428.379	720.96
428.756	715.53
429.132	707.62
429.507	724.12
429.883	726.15
430.259	724.12
430.635	770.67
431.011	752.14
431.387	773.84
431.763	793.27
432.138	774.97
432.514	779.94
432.89	777.68
433.265	770.9
433.641	793.04
434.016	814.51
434.392	821.07
434.767	830.33
435.143	842.53
435.518	855.64
435.894	857.68
436.269	869.43
436.644	893.15
437.02	896.32
437.395	887.5
437.77	874.4
438.145	897.22
438.52	863.78
438.895	878.92
439.271	892.25
439.646	929.99
440.021	941.74
440.395	961.4
440.77	926.6
441.145	941.06
441.52	940.84
441.895	942.64
442.27	940.16
442.645	929.54
443.019	942.87
443.394	917.33
443.769	947.39
444.143	941.97
444.518	986.71
444.892	984.23
445.267	1018.35
445.641	1006.82
446.016	998.91
446.39	1011.34
446.764	986.71
447.139	990.1
447.513	961.18
447.887	972.7
448.262	967.95
448.636	996.88
449.01	1009.76
449.384	1017.9
449.758	1057.22
450.132	1065.35
450.506	1057.44
450.88	1078.69
451.254	1049.99
451.628	1044.56
452.002	1036.88
452.376	1051.57
452.75	1022.42
453.123	1068.07
453.497	1067.84
453.871	1079.36
454.244	1134.96
454.618	1130.44
454.992	1145.8
455.365	1126.82
455.739	1175.41
456.112	1129.76
456.486	1121.17
456.859	1105.35
457.232	1146.03
457.606	1129.53
457.979	1092.47
458.352	1151.9
458.725	1159.81
459.099	1217.21
459.472	1240.94
459.845	1251.11
460.218	1263.77
460.591	1245.24
460.964	1216.99
461.337	1254.95
461.71	1237.78
462.083	1218.34
462.456	1241.85
462.829	1225.8
463.201	1237.33
463.574	1280.26
463.947	1308.51
464.32	1341.5
464.692	1363.65
465.065	1383.76
465.438	1366.14
465.81	1379.92
466.183	1381.28
466.555	1378.79
466.928	1358
467.3	1339.02
467.672	1360.26
468.045	1382.41
468.417	1363.88
468.789	1415.17
469.161	1468.05
469.534	1498.34
469.906	1510.99
470.278	1541.5
470.65	1550.99
471.022	1571.1
471.394	1546.02
471.766	1552.8
472.138	1509.86
472.51	1529.52
472.882	1546.24
473.253	1581.05
473.625	1590.99
473.997	1608.39
474.369	1652
474.74	1737.2
475.112	1781.72
475.484	1798.89
475.855	1823.53
476.227	1846.12
476.598	1856.52
476.97	1842.73
477.341	1835.05
477.713	1823.75
478.084	1834.37
478.455	1854.03
478.827	1873.02
479.198	1908.95
479.569	1940.58
479.94	2029.17
480.311	2075.04
480.682	2131.54
481.053	2213.8
481.424	2214.7
481.795	2232.1
482.166	2216.96
482.537	2194.14
482.908	2189.39
483.279	2216.96
483.65	2203.18
484.021	2242.5
484.391	2259.9
484.762	2300.12
485.133	2347.13
485.503	2441.59
485.874	2515.71
486.244	2597.97
486.615	2639.78
486.985	2670.96
487.356	2716.61
487.726	2715.03
488.097	2709.15
488.467	2667.12
488.837	2661.7
489.207	2666.67
489.578	2669.6
489.948	2723.61
490.318	2776.72
490.688	2831.63
491.058	2930.16
491.428	3020.33
491.798	3086.77
492.168	3135.36
492.538	3188.91
492.908	3216.71
493.278	3251.51
493.648	3179.87
494.017	3156.37
494.387	3153.66
494.757	3135.81
495.126	3138.52
495.496	3136.26
495.866	3138.07
496.235	3203.15
496.605	3281.79
496.974	3399.08
497.344	3473.2
497.713	3481.11
498.082	3556.81
498.452	3628.45
498.821	3636.59
499.19	3606.98
499.559	3631.84
499.928	3569.24
500.298	3460.54
500.667	3483.14
501.036	3438.17
501.405	3426.2
501.774	3468.23
502.143	3496.93
502.512	3535.8
502.88	3645.62
503.249	3731.05
503.618	3803.36
503.987	3885.39
504.356	3925.62
504.724	3939.63
505.093	3915.9
505.462	3933.98
505.83	3840.2
506.199	3828.9
506.567	3766.75
506.936	3725.4
507.304	3719.97
507.672	3720.2
508.041	3757.94
508.409	3761.55
508.777	3807.65
509.145	3950.48
509.514	3987.54
509.882	4068.44
510.25	4121.32
510.618	4205.61
510.986	4214.2
511.354	4190.92
511.722	4197.25
512.09	4132.84
512.458	4081.77
512.826	3999.97
513.193	3944.37
513.561	3926.75
513.929	3917.93
514.297	3945.73
514.664	3969.91
515.032	4029.12
515.4	4164.25
515.767	4245.61
516.135	4317.47
516.502	4364.02
516.869	4460.97
517.237	4482.44
517.604	4401.99
517.972	4455.77
518.339	4387.07
518.706	4281.99
519.073	4276.57
519.44	4147.53
519.808	4154.09
520.175	4100.98
520.542	4127.87
520.909	4164.93
521.276	4193.18
521.643	4289
522.009	4403.57
522.376	4501.87
522.743	4601.98
523.11	4713.39
523.477	4785.93
523.843	4775.31
524.21	4840.85
524.577	4800.17
524.943	4811.7
525.31	4673.62
525.676	4649.67
526.043	4606.05
526.409	4515.88
526.776	4528.77
527.142	4475.89
527.508	4553.85
527.874	4609.44
528.241	4749.78
528.607	4803.11
528.973	4925.36
529.339	5069.99
529.705	5218.92
530.071	5324
530.437	5380.95
530.803	5402.87
531.169	5376.65
531.535	5354.51
531.901	5255.53
532.267	5210.1
532.632	5157.9
532.998	5085.59
533.364	5044.23
533.73	4978.24
534.095	5065.47
534.461	5083.1
534.826	5197.67
535.192	5305.47
535.557	5412.13
535.923	5519.02
536.288	5646.7
536.653	5746.36
537.019	5842.85
537.384	5966.92
537.749	5967.6
538.114	5940.93
538.479	5861.84
538.845	5879.92
539.21	5737.32
539.575	5628.4
539.94	5601.51
540.305	5500.49
540.67	5467.27
541.034	5516.08
541.399	5554.05
541.764	5680.37
542.129	5752.69
542.494	5912.46
542.858	6048.27
543.223	6136.63
543.587	6265.89
543.952	6312.9
544.316	6437.19
544.681	6464.99
545.045	6530.52
545.41	6489.84
545.774	6407.13
546.138	6332.33
546.503	6240.36
546.867	6226.12
547.231	6112.9
547.595	6007.14
547.959	5979.8
548.324	5965.79
548.688	6042.4
549.052	6119.91
549.416	6153.58
549.779	6266.12
550.143	6366.91
550.507	6546.57
550.871	6685.32
551.235	6733.45
551.599	6814.58
551.962	6888.93
552.326	6860.23
552.689	6813.45
553.053	6752.89
553.417	6710.4
553.78	6686.22
554.143	6562.16
554.507	6434.93
554.87	6309.96
555.234	6289.62
555.597	6228.83
555.96	6312.45
556.323	6341.15
556.686	6429.05
557.05	6536.62
557.413	6700.91
557.776	6784.75
558.139	6945.42
558.502	7052.54
558.865	7132.99
559.228	7278.3
559.59	7255.25
559.953	7275.36
560.316	7315.13
560.679	7236.04
561.041	7123.73
561.404	7044.86
561.767	6944.07
562.129	6793.79
562.492	6764.64
562.854	6693.23
563.217	6600.35
563.579	6600.35
563.941	6741.14
564.304	6847.57
564.666	6892.77
565.028	7048.7
565.39	7246.66
565.753	7401.68
566.115	7516.26
566.477	7679.19
566.839	7743.14
567.201	7857.94
567.563	7882.35
567.925	7840.09
568.287	7795.12
568.648	7688.91
569.01	7594
569.372	7516.48
569.734	7374.57
570.095	7311.74
570.457	7273.33
570.819	7198.75
571.18	7129.15
571.542	7154.23
571.903	7224.51
572.265	7333.44
572.626	7574.79
572.987	7739.08
573.349	7897.94
573.71	8099.07
574.071	8285.05
574.432	8355.33
574.794	8661.54
575.155	8714.19
575.516	8734.76
575.877	8769.11
576.238	8770.69
576.599	8756.68
576.96	8681.88
577.32	8593.74
577.681	8600.52
578.042	8523.24
578.403	8503.12
578.763	8534.76
579.124	8547.42
579.485	8713.97
579.845	8880.97
580.206	9076.67
580.566	9344.01
580.927	9607.05
581.287	9966.14
581.648	10266.24
582.008	10682.5
582.368	10997.52
582.728	11351.64
583.089	11669.82
583.449	12044.5
583.809	12239.97
584.169	12545.05
584.529	12701.66
584.889	12971.25
585.249	13159.95
585.609	13331.7
585.969	13580.05
586.329	13857.33
586.688	14124.44
587.048	14419.58
587.408	14703.41
587.768	15137.98
588.127	15585.42
588.487	16024.28
588.846	16673.08
589.206	17215.21
589.565	17700.4
589.925	18561.84
590.284	19037.54
590.643	19701.25
591.003	20341.68
591.362	20931.5
591.721	21552.05
592.08	21880.17
592.44	22575.52
592.799	23067.26
593.158	23397.87
593.517	23797.19
593.876	24167.8
594.235	24513.1
594.593	24921.68
594.952	25328.22
595.311	25611.37
595.67	26094.3
596.029	26773.6
596.387	27257.21
596.746	27775.61
597.104	28236.84
597.463	28885.19
597.822	29531.72
598.18	30093.52
598.538	30706.83
598.897	31481.5
599.255	31851.89
599.613	33046.21
599.972	33328.69
600.33	33997.82
600.688	34224.71
601.046	34914.18
601.404	35426.26
601.762	35708.28
602.12	36194.37
602.478	36500.58
602.836	36889.04
603.194	36885.65
603.552	37104.18
603.91	37543.72
604.268	37835.91
604.625	37907.55
604.983	38426.18
605.341	38766.73
605.698	39283.56
606.056	39795.41
606.413	40055.06
606.771	40742.73
607.128	41216.61
607.485	41531.41
607.843	42001.9
608.2	42575.45
608.557	43048.88
608.914	43385.82
609.272	43908.52
609.629	44135.41
609.986	44607.71
610.343	44570.42
610.7	45131.09
611.057	45299.67
611.414	45180.8
611.771	45516.16
612.127	45564.07
612.484	45508.48
612.841	45800
613.198	45725.87
613.554	45753.44
613.911	46011.52
614.267	46273.2
614.624	46422.35
614.98	46556.13
615.337	46897.82
615.693	47099.62
616.05	47263.01
616.406	47817.12
616.762	47833.62
617.118	48082.42
617.475	48313.6
617.831	48688.51
618.187	48886.02
618.543	48978.9
618.899	49376.63
619.255	49439.22
619.611	49269.51
619.967	49588.15
620.323	49633.34
620.678	49595.38
621.034	49500.46
621.39	49475.15
621.746	49281.71
622.101	49724.64
622.457	49236.52
622.812	49359.45
623.168	49436.28
623.523	49493.01
623.879	49760.8
624.234	49434.48
624.589	49733.68
624.945	49828.59
625.3	49967.12
625.655	50034.46
626.01	50328.46
626.365	50419.76
626.72	50521.68
627.075	50648.91
627.43	50724.39
627.785	50801.67
628.14	50948.79
628.495	50994.21
628.85	50898.39
629.205	50933.65
629.559	51223.81
629.914	50991.5
630.269	50918.28
630.623	50875.8
630.978	50765.52
631.332	50787.89
631.687	50683.26
632.041	50472.19
632.396	50563.71
632.75	50286.43
633.104	50330.5
633.459	50116.27
633.813	50177.06
634.167	50270.39
634.521	50330.72
634.875	50308.58
635.229	50430.61
635.583	50387.9
635.937	50442.59
636.291	50511.96
636.645	50671.96
636.999	50732.75
637.352	50808.45
637.706	50717.16
638.06	50849.13
638.413	50773.65
638.767	50639.87
639.121	50762.58
639.474	50558.52
639.828	50512.87
640.181	50537.27
640.534	50394
640.888	50285.3
641.241	49962.37
641.594	50028.81
641.947	50054.57
642.301	49789.95
642.654	49761.7
643.007	49615.04
643.36	49761.93
643.713	49605.09
644.066	49780.68
644.419	49564.87
644.771	49418.21
645.124	49080.59
645.477	49062.06
645.83	48889.18
646.182	48929.63
646.535	49067.93
646.888	49066.35
647.24	48966.24
647.593	49317.87
647.945	49348.38
648.298	49139.8
648.65	49090.76
649.002	49063.41
649.355	49202.62
649.707	48936.19
650.059	49201.49
650.411	49424.53
650.763	49278.32
651.115	49688.93
651.467	49336.17
651.819	49325.78
652.171	49025.9
652.523	48905.45
652.875	48874.49
653.227	48742.74
653.578	48898.22
653.93	48782.74
654.282	48557.21
654.633	48544.56
654.985	48648.06
655.337	48727.15
655.688	48827.49
656.039	49043.07
656.391	48847.6
656.742	49049.18
657.094	49009.18
657.445	49288.94
657.796	49230.41
658.147	49254.14
658.498	49270.87
658.849	49454.14
659.2	49388.6
659.551	49248.27
659.902	49430.41
660.253	49329.62
660.604	49278.32
660.955	49006.69
661.306	49110.87
661.656	48908.84
662.007	48834.94
662.358	48627.04
662.708	48467.72
663.059	48543.65
663.409	48278.35
663.76	48474.05
664.11	48299.82
664.461	48159.26
664.811	48319.93
665.161	48204.45
665.511	48230.89
665.862	48201.06
666.212	48434.73
666.562	48482.64
666.912	48507.27
667.262	48550.88
667.612	48566.93
667.962	48694.84
668.312	48730.99
668.662	48888.28
669.011	48906.58
669.361	48810.54
669.711	48905.23
670.06	48863.87
670.41	48830.65
670.76	48746.81
671.109	48788.39
671.459	48606.93
671.808	48604.89
672.157	48608.96
672.507	48242.64
672.856	48229.08
673.205	48090.11
673.554	48060.95
673.904	47821.64
674.253	48041.52
674.602	47785.48
674.951	47250.13
675.3	46984.15
675.649	47464.36
675.998	47525.15
676.346	47462.1
676.695	47655.31
677.044	47343.68
677.393	47551.81
677.741	47591.14
678.09	47662.09
678.438	47637.24
678.787	47898.25
679.135	47860.73
679.484	47773.05
679.832	47888.75
680.181	47794.75
680.529	47966.27
680.877	47802.43
681.225	47839.04
681.573	48004.68
681.922	47822.54
682.27	47718.59
682.618	47693.73
682.966	47495.32
683.314	47568.54
683.661	47263.01
684.009	46956.58
684.357	46866.63
684.705	46657.83
685.053	46678.62
685.4	46499.86
685.748	46344.16
686.095	46145.52
686.443	46018.3
686.79	45900.78
687.138	45912.08
687.485	45913.21
687.832	45722.94
688.18	45855.59
688.527	45638.87
688.874	45671.86
689.221	45597.29
689.568	45544.64
689.915	45597.52
690.262	45780.79
690.609	45713.44
690.956	45593.67
691.303	45684.52
691.65	45726.55
691.997	45661.47
692.344	45488.82
692.69	45397.97
693.037	45533.79
693.383	45175.15
693.73	45308.26
694.077	44958.89
694.423	45046.8
694.769	44750.53
695.116	44491.1
695.462	44496.53
695.808	44123.88
696.155	44350.32
696.501	43840.5
696.847	43601.64
697.193	43394.18
697.539	43340.85
697.885	42972.27
698.231	42970.24
698.577	42844.14
698.923	42670.36
699.269	42575.45
699.614	42428.11
699.96	42418.16
700.306	42372.06
700.651	42237.15
700.997	42252.29
701.342	42262.46
701.688	42277.6
702.033	42321.9
702.379	42380.2
702.724	42305.62
703.069	42370.93
703.415	42094.78
703.76	42234.89
704.105	42249.36
704.45	42036.03
704.795	41899.99
705.14	41847.11
705.485	41730.5
705.83	41706.77
706.175	41718.97
706.52	41611.41
706.865	41165.54
707.209	41276.73
707.554	40936.17
707.899	40924.87
708.243	40651.66
708.588	40338.67
708.932	40139.58
709.277	39994.05
709.621	40019.58
709.966	39633.38
710.31	39671.57
710.654	39185.48
710.998	39394.74
711.342	39312.94
711.687	39280.17
712.031	39010.8
712.375	39039.27
712.719	39068.65
713.063	38980.51
713.407	39208.98
713.75	39087.86
714.094	39070.68
714.438	39037.69
714.782	39103.22
715.125	38997.69
715.469	39222.09
715.812	39090.79
716.156	38947.52
716.499	39081.08
716.843	39093.05
717.186	38913.62
717.53	38986.39
717.873	39038.14
718.216	39045.37
718.559	38639.73
718.902	38436.12
719.246	38399.96
719.589	38338.5
719.932	38135.11
720.275	37972.63
720.617	37915.68
720.96	37687.22
721.303	37644.28
721.646	37610.83
721.989	37253.55
722.331	37359.77
722.674	37168.36
723.016	37110.73
723.359	37014.24
723.701	36971.08
724.044	36729.73
724.386	36439.56
724.729	36595.04
725.071	36547.81
725.413	36677.98
725.755	36625.1
726.097	36420.58
726.439	36289.51
726.782	36417.87
727.124	36668.94
727.465	36445.44
727.807	36528.83
728.149	36489.96
728.491	36534.93
728.833	36602.05
729.175	36432.56
729.516	36480.47
729.858	36559.56
730.199	36594.14
730.541	36417.87
730.882	36328.61
731.224	36538.77
731.565	36294.03
731.906	36267.59
732.248	36294.48
732.589	35924.55
732.93	35929.97
733.271	35695.4
733.612	35697.66
733.953	35627.61
734.294	35370.44
734.635	35151.69
734.976	35273.95
735.317	35097
735.658	34816.56
735.999	34748.31
736.339	34675.54
736.68	34708.54
737.021	34698.37
737.361	34473.06
737.702	34555.09
738.042	34486.4
738.383	34353.29
738.723	34541.99
739.063	34432.39
739.404	34527.75
739.744	34349.45
740.084	34408.21
740.424	34563.91
740.764	34515.32
741.104	34683.68
741.444	34393.52
741.784	34477.58
742.124	34682.77
742.464	34640.97
742.804	34581.99
743.143	34613.85
743.483	34624.92
743.823	34551.48
744.162	34477.58
744.502	34390.13
744.841	34265.61
745.181	34422.67
745.52	34191.04
745.86	34240.75
746.199	34194.65
746.538	33934.09
746.877	34045.5
747.216	33784.27
747.556	33560.77
747.895	33567.32
748.234	33201.68
748.573	33154.45
748.911	33090.05
749.25	32898.64
749.589	32933.22
749.928	32805.99
750.267	32780.9
750.605	32631.98
750.944	32496.39
751.283	32346.34
751.621	32513.57
751.96	32333.23
752.298	32385.66
752.636	32284.42
752.975	32214.36
753.313	32116.51
753.651	32358.54
753.989	32165.1
754.327	32091.2
754.666	32152.22
755.004	32149.96
755.342	32182.05
755.679	32179.79
756.017	31940.25
756.355	32087.59
756.693	32088.72
757.031	32109.51
757.368	31897.54
757.706	32034.03
758.044	31798.56
758.381	31945.22
758.719	31676.98
759.056	31762.17
759.394	31544.33
759.731	31395.18
760.068	31474.72
760.405	31118.12
760.743	31033.38
761.08	30981.63
761.417	30754.29
761.754	30721.75
762.091	30531.7
762.428	30285.83
762.765	30229.56
763.102	30087.19
763.438	29865.73
763.775	29627.99
764.112	29638.16
764.449	29732.17
764.785	29646.3
765.122	29172.41
765.458	29133.54
765.795	29198.4
766.131	29106.42
766.467	28995.92
766.804	28852.42
767.14	28837.28
767.476	28726.32
767.812	28719.54
768.148	28902.36
768.485	28685.19
768.821	28535.14
769.157	28606.78
769.492	28672.31
769.828	28577.85
770.164	28343.05
770.5	28485.2
770.836	28415.59
771.171	28356.16
771.507	28390.28
771.842	28152.55
772.178	28216.28
772.513	28131.31
772.849	28031.42
773.184	27849.51
773.519	27738.78
773.855	27682.96
774.19	27556.41
774.525	27385.11
774.86	27285.23
775.195	27282.29
775.53	26951.9
775.865	26920.27
776.2	26656.32
776.535	26383.78
776.87	26436.44
777.205	26237.57
777.539	26040.06
777.874	26114.86
778.209	25714.87
778.543	25647.08
778.878	25384.49
779.212	25481.66
779.547	25288.9
779.881	25227.66
780.215	25035.12
780.55	25190.82
780.884	24977.04
781.218	24895.01
781.552	24937.72
781.886	24800.32
782.22	24616.6
782.554	24654.34
782.888	24522.82
783.222	24494.79
783.556	24495.92
783.889	24347.23
784.223	24281.92
784.557	24247.12
784.89	24405.3
785.224	24336.61
785.557	24271.07
785.891	24272.88
786.224	24170.06
786.558	24134.35
786.891	23904.98
787.224	23935.49
787.557	23821.59
787.891	23815.72
788.224	23793.34
788.557	23770.97
788.89	23603.29
789.223	23595.61
789.556	23342.96
789.888	23303.19
790.221	23224.09
790.554	22994.72
790.887	22955.85
791.219	22800.83
791.552	22780.26
791.884	22610.1
792.217	22402.19
792.549	22306.6
792.882	22089.66
793.214	22053.5
793.546	21957.01
793.879	21775.77
794.211	21672.5
794.543	21672.5
794.875	21546.4
795.207	21650.12
795.539	21464.36
795.871	21525.15
796.203	21202
796.535	21211.26
796.867	21176.24
797.198	21135.56
797.53	21142.34
797.862	20983.02
798.193	21069.35
798.525	20985.28
798.856	20953.64
799.188	20799.75
799.519	20815.57
799.85	20774.89
800.182	20778.73
800.513	20801.33
800.844	20643.14
801.175	20809.01
801.506	20765.4
801.837	20719.53
802.168	20654.44
802.499	20625.97
802.83	20558.17
803.161	20442.7
803.491	20472.75
803.822	20418.74
804.153	20312.53
804.483	20233.44
804.814	20101.69
805.145	20075.02
805.475	20096.72
805.805	19856.72
806.136	19938.76
806.466	19862.6
806.796	19772.21
807.126	19555.71
807.457	19425.1
807.787	19494.25
808.117	19329.28
808.447	19251.32
808.777	19208.61
809.107	19068.72
809.436	18986.92
809.766	19027.37
810.096	18887.48
810.426	18836.19
810.755	18793.47
811.085	18664.44
811.414	18676.42
811.744	18547.38
812.073	18426.7
812.403	18478.23
812.732	18351.68
813.061	18386.71
813.39	18237.33
813.719	18209.54
814.049	18284.56
814.378	18299.25
814.707	18214.05
815.036	18244.34
815.365	18191
815.693	18046.6
816.022	18070.78
816.351	18116.66
816.68	17934.29
817.008	18186.49
817.337	17954.17
817.665	17974.74
817.994	18142.42
818.322	17986.04
818.651	18060.16
818.979	17929.99
819.307	18007.96
819.636	17922.76
819.964	17843.44
820.292	17832.82
820.62	17838.47
820.948	17846.38
821.276	17796.89
821.604	17771.58
821.932	17804.57
822.259	17705.59
822.587	17721.64
822.915	17670.11
823.243	17750.34
823.57	17547.18
823.898	17602.32
824.225	17457.46
824.553	17494.3
824.88	17417.01
825.207	17460.85
825.535	17339.73
825.862	17272.61
826.189	17229.22
826.516	17280.07
826.843	17372.04
827.17	17248.88
827.497	17267.87
827.824	17211.37
828.151	17263.8
828.478	17172.05
828.805	17311.93
829.131	17111.49
829.458	17179.51
829.785	17105.61
830.111	17153.07
830.438	17170.01
830.764	17301.54
831.09	17283.01
831.417	17137.02
831.743	17231.48
832.069	17286.17
832.395	17159.39
832.722	17388.77
833.048	17285.49
833.374	17339.73
833.7	17264.93
834.026	17420.4
834.351	17306.73
834.677	17323.23
835.003	17449.56
835.329	17482.77
835.654	17336.34
835.98	17265.15
836.306	17339.05
836.631	17240.75
836.956	17258.37
837.282	17286.62
837.607	17239.62
837.932	17125.04
838.258	17096.12
838.583	17119.85
838.908	16930.02
839.233	17022.67
839.558	16970.02
839.883	16895.67
840.208	16828.55
840.533	16793.53
840.858	16764.15
841.182	16778.39
841.507	16750.14
841.832	16631.72
842.156	16526.19
842.481	16572.74
842.805	16417.04
843.13	16406.64
843.454	16357.38
843.778	16219.31
844.103	16208.23
844.427	16135.47
844.751	16117.16
845.075	16039.65
845.399	16070.16
845.723	15863.83
846.047	15945.41
846.371	15777.73
846.695	15801.24
847.019	15705.65
847.343	15579.77
847.666	15635.82
847.99	15525.76
848.313	15493.22
848.637	15373
848.96	15375.26
849.284	15392.89
849.607	15211.87
849.931	15270.4
850.254	15217.3
850.577	15192.44
850.9	15059.11
851.223	15160.12
851.546	15063.4
851.869	14956.29
852.192	15030.86
852.515	14918.1
852.838	14872.45
853.161	14889.62
853.483	14861.37
853.806	14843.97
854.129	14750.42
854.451	14750.64
854.774	14713.58
855.096	14630.87
855.419	14611.66
855.741	14481.05
856.063	14443.31
856.385	14343.42
856.708	14418.67
857.03	14290.54
857.352	14301.16
857.674	14213.71
857.996	14126.7
858.318	14082.86
858.64	14109.08
858.961	13957.67
859.283	13850.33
859.605	13885.36
859.926	13879.93
860.248	13746.6
860.57	13707.28
860.891	13612.14
861.212	13660.95
861.534	13467.51
861.855	13440.17
862.176	13392.26
862.498	13418.47
862.819	13363.34
863.14	13292.15
863.461	13203.34
863.782	13233.85
864.103	13221.64
864.424	13113.4
864.745	13195.2
865.065	13024.36
865.386	13037.24
865.707	13065.94
866.027	13059.84
866.348	13074.53
866.668	13043.57
866.989	13001.99
867.309	12964.7
867.63	13078.37
867.95	13057.35
868.27	12970.58
868.59	13041.99
868.91	12977.36
869.23	12987.3
869.55	12858.04
869.87	13131.7
870.19	13049.67
870.51	13045.83
870.83	13044.25
871.15	12949.56
871.469	13072.04
871.789	13006.73
872.109	12994.08
872.428	12957.02
872.748	13020.97
873.067	12998.6
873.386	13066.39
873.706	12973.29
874.025	12879.51
874.344	12842.9
874.663	12880.41
874.982	12863.91
875.301	12821.65
875.62	12785.72
875.939	12698.72
876.258	12700.08
876.577	12634.09
876.896	12632.51
877.214	12510.25
877.533	12476.13
877.852	12474.32
878.17	12448.56
878.489	12473.19
878.807	12336.7
879.125	12318.84
879.444	12319.29
879.762	12202.24
880.08	12268.9
880.398	12144.61
880.716	12213.99
881.034	12044.05
881.352	12061.22
881.67	11974.9
881.988	11957.72
882.306	11955.69
882.624	11879.98
882.941	11814.45
883.259	11775.35
883.577	11809.03
883.894	11821.23
884.212	11747.33
884.529	11770.61
884.846	11730.16
885.164	11708.24
885.481	11668.01
885.798	11704.17
886.115	11664.62
886.432	11683.38
886.75	11667.11
887.067	11640.44
887.383	11591.18
887.7	11675.02
888.017	11634.11
888.334	11642.7
888.651	11534.91
888.967	11571.52
889.284	11597.05
889.6	11546.66
889.917	11498.75
890.233	11488.81
890.55	11397.96
890.866	11433.22
891.182	11413.78
891.498	11389.83
891.815	11397.74
892.131	11357.51
892.447	11332.88
892.763	11181.25
893.079	11298.76
893.395	11231.19
893.71	11221.24
894.026	11131.53
894.342	11181.47
894.657	11076.39
894.973	11028.26
895.289	11016.5
895.604	11021.93
895.92	10850.86
896.235	10809.5
896.55	10884.08
896.865	10803.18
897.181	10731.54
897.496	10682.95
897.811	10533.8
898.126	10548.27
898.441	10523.41
898.756	10475.28
899.071	10394.37
899.386	10384.66
899.7	10305.56
900.015	10172.23
900.33	10147.83
900.644	10190.54
900.959	10176.75
901.273	10007.72
901.588	10021.95
901.902	9894.5
902.216	9854.05
902.531	9887.72
902.845	9841.62
903.159	9774.5
903.473	9740.61
903.787	9771.57
904.101	9609.76
904.415	9676.88
904.729	9628.52
905.042	9585.81
905.356	9569.76
905.67	9490.89
905.984	9575.41
906.297	9506.49
906.611	9475.53
906.924	9469.65
907.237	9393.04
907.551	9342.65
907.864	9314.85
908.177	9361.41
908.491	9360.5
908.804	9260.84
909.117	9239.83
909.43	9266.49
909.743	9243.9
910.056	9224.46
910.368	9206.16
910.681	9163.9
910.994	9138.81
911.307	9144.46
911.619	8974.75
911.932	9092.03
912.244	8996.22
912.557	8952.6
912.869	8878.26
913.181	8829.44
913.494	8914.86
913.806	8833.96
914.118	8759.39
914.43	8668.54
914.742	8711.25
915.054	8621.99
915.366	8610.92
915.678	8553.52
915.99	8559.62
916.302	8507.19
916.613	8410.24
916.925	8499.51
917.236	8418.38
917.548	8363.47
917.859	8328.44
918.171	8214.54
918.482	8224.94
918.794	8155.34
919.105	8165.96
919.416	8113.08
919.727	7991.95
920.038	7956.25
920.349	7904.5
920.66	7820.2
920.971	7857.27
921.282	7793.54
921.593	7739.08
921.903	7701.34
922.214	7727.33
922.525	7649.36
922.835	7536.37
923.146	7495.47
923.456	7511.51
923.767	7448.24
924.077	7469.7
924.387	7413.66
924.697	7419.54
925.008	7341.12
925.318	7303.38
925.628	7237.17
925.938	7242.37
926.248	7207.11
926.558	7197.17
926.867	7165.31
927.177	7137.96
927.487	7103.84
927.796	7088.92
928.106	7108.58
928.416	7074.69
928.725	7012.09
929.034	6940
929.344	7052.54
929.653	7022.48
929.962	6949.27
930.271	6982.71
930.581	6913.56
930.89	6863.84
931.199	6883.05
931.508	6870.85
931.817	6844.64
932.125	6840.34
932.434	6857.29
932.743	6748.37
933.051	6749.5
933.36	6732.1
933.669	6651.2
933.977	6657.75
934.286	6667.92
934.594	6661.82
934.902	6547.02
935.21	6573.01
935.519	6591.76
935.827	6480.13
936.135	6481.03
936.443	6406.91
936.751	6393.12
937.059	6396.29
937.367	6333.69
937.674	6304.76
937.982	6310.41
938.29	6223.18
938.597	6259.79
938.905	6168.5
939.213	6098.67
939.52	6085.11
939.827	6112.68
940.135	6107.25
940.442	6032.68
940.749	5998.33
941.056	5964.89
941.363	5867.49
941.67	5886.24
941.977	5802.18
942.284	5787.72
942.591	5802.18
942.898	5721.05
943.205	5762.86
943.511	5697.55
943.818	5676.76
944.125	5631.79
944.431	5579.58
944.738	5625.01
945.044	5544.78
945.35	5539.36
945.657	5463.2
945.963	5551.11
946.269	5445.35
946.575	5450.77
946.881	5386.37
947.187	5393.6
947.493	5356.99
947.799	5372.36
948.105	5359.48
948.41	5314.06
948.716	5303.66
949.022	5269.54
949.327	5305.47
949.633	5225.24
949.938	5187.05
950.244	5213.49
950.549	5186.15
950.854	5190.67
951.16	5147.28
951.465	5099.6
951.77	5075.19
952.075	5112.48
952.38	5029.77
952.685	5092.59
952.99	5048.75
953.294	5091.01
953.599	4990.22
953.904	4976.66
954.209	4963.1
954.513	4980.96
954.818	4963.56
955.122	4958.36
955.426	4914.97
955.731	4868.87
956.035	4880.17
956.339	4877.68
956.643	4872.26
956.948	4813.05
957.252	4805.37
957.556	4794.29
957.86	4730.79
958.163	4758.36
958.467	4710.46
958.771	4707.07
959.075	4682.43
959.378	4658.48
959.682	4656.45
959.985	4596.11
960.289	4595.66
960.592	4498.94
960.896	4504.58
961.199	4485.83
961.502	4513.17
961.805	4457.35
962.108	4456.68
962.411	4406.28
962.714	4364.93
963.017	4379.16
963.32	4332.16
963.623	4294.65
963.926	4323.35
964.228	4280.18
964.531	4227.53
964.833	4217.59
965.136	4184.82
965.438	4154.09
965.741	4189.56
966.043	4130.81
966.345	4085.61
966.648	4072.51
966.95	4083.81
967.252	4006.29
967.554	4035.22
967.856	3989.8
968.158	3982.79
968.46	3969.23
968.761	3942.57
969.063	3913.19
969.365	3920.42
969.666	3893.3
969.968	3846.98
970.269	3850.36
970.571	3841.33
970.872	3849.23
971.174	3824.15
971.475	3814.89
971.776	3779.63
972.077	3750.93
972.378	3763.81
972.679	3725.62
972.98	3781.67
973.281	3738.5
973.582	3733.08
973.883	3691.72
974.183	3643.36
974.484	3686.98
974.785	3647.66
975.085	3688.79
975.386	3666.87
975.686	3616.47
975.986	3634.55
976.287	3612.41
976.587	3579.64
976.887	3552.29
977.187	3548.23
977.487	3547.32
977.787	3540.54
978.087	3543.93
978.387	3533.76
978.687	3505.74
978.987	3492.63
979.286	3482.01
979.586	3437.49
979.885	3420.77
980.185	3424.61
980.484	3414.44
980.784	3415.12
981.083	3367.89
981.382	3363.6
981.682	3338.74
981.981	3306.2
982.28	3339.42
982.579	3308.23
982.878	3285.41
983.177	3265.52
983.475	3274.33
983.774	3211.51
984.073	3183.72
984.372	3158.63
984.67	3177.39
984.969	3163.15
985.267	3159.08
985.566	3114.11
985.864	3114.11
986.162	3047.45
986.461	3093.55
986.759	3045.64
987.057	3024.4
987.355	2988.92
987.653	3027.79
987.951	2998.86
988.249	2976.94
988.547	2975.36
988.844	2974
989.142	2958.18
989.44	2921.35
989.737	2898.07
990.035	2859.88
990.332	2837.96
990.63	2853.1
990.927	2863.95
991.224	2789.6
991.521	2804.52
991.819	2765.87
992.116	2760
992.413	2754.8
992.71	2774.01
993.006	2738.53
993.303	2737.17
993.6	2736.04
993.897	2713.22
994.193	2682.49
994.49	2649.94
994.787	2668.02
995.083	2643.39
995.379	2647.46
995.676	2612.43
995.972	2617.85
996.268	2624.86
996.565	2605.2
996.861	2567.69
997.157	2578.08
997.453	2557.52
997.749	2561.13
998.044	2541.47
998.34	2536.73
998.636	2507.12
998.932	2498.76
999.227	2505.54
999.523	2497.63
999.818	2506.45
1000.114	2458.54
1000.409	2468.93
1000.704	2468.03
1001	2451.53
1001.295	2425.09
1001.59	2419.89
1001.885	2402.27
1002.18	2423.28
1002.475	2362.49
1002.77	2355.49
1003.065	2355.49
1003.359	2356.39
1003.654	2339.9
1003.949	2322.72
1004.243	2304.64
1004.538	2328.37
1004.832	2286.34
1005.127	2258.09
1005.421	2242.27
1005.715	2244.76
1006.009	2242.05
1006.304	2222.61
1006.598	2200.01
1006.892	2205.21
1007.186	2152.56
1007.48	2202.95
1007.773	2116.85
1008.067	2146.91
1008.361	2119.56
1008.655	2110.52
1008.948	2106.91
1009.242	2103.07
1009.535	2088.38
1009.829	2051.99
1010.122	2029.4
1010.415	2035.27
1010.708	2009.06
1011.001	2022.16
1011.295	1994.14
1011.588	1972.22
1011.881	1948.49
1012.173	1926.57
1012.466	1907.37
1012.759	1913.24
1013.052	1918.44
1013.344	1898.33
1013.637	1900.36
1013.93	1873.92
1014.222	1846.8
1014.514	1832.34
1014.807	1817.42
1015.099	1818.1
1015.391	1826.92
1015.683	1809.74
1015.976	1790.98
1016.268	1767.26
1016.56	1750.31
1016.851	1756.86
1017.143	1748.5
1017.435	1751.21
1017.727	1710.53
1018.018	1710.76
1018.31	1735.39
1018.602	1664.66
1018.893	1668.28
1019.185	1637.77
1019.476	1642.74
1019.767	1620.59
1020.058	1633.93
1020.35	1592.8
1020.641	1613.36
1020.932	1578.79
1021.223	1623.76
1021.514	1594.6
1021.804	1562.29
1022.095	1569.07
1022.386	1569.52
1022.677	1547.83
1022.967	1522.29
1023.258	1512.8
1023.548	1479.81
1023.839	1511.22
1024.129	1498.79
1024.419	1479.35
1024.709	1473.25
1025	1464.44
1025.29	1433.03
1025.58	1461.5
1025.87	1457.21
1026.16	1430.09
1026.449	1409.75
1026.739	1405.23
1027.029	1433.93
1027.319	1403.2
1027.608	1380.83
1027.898	1387.15
1028.187	1356.42
1028.477	1379.7
1028.766	1343.31
1029.055	1356.65
1029.344	1329.75
1029.634	1341.5
1029.923	1320.26
1030.212	1304.44
1030.501	1310.54
1030.79	1293.82
1031.078	1253.15
1031.367	1296.53
1031.656	1278.23
1031.945	1249.98
1032.233	1267.61
1032.522	1226.71
1032.81	1232.58
1033.099	1232.35
1033.387	1223.54
1033.675	1218.57
1033.963	1207.04
1034.251	1203.65
1034.54	1171.11
1034.828	1171.11
1035.116	1181.28
1035.403	1168.4
1035.691	1124.56
1035.979	1131.11
1036.267	1116.88
1036.554	1125.69
1036.842	1110.1
1037.129	1107.84
1037.417	1129.98
1037.704	1096.76
1037.992	1078.91
1038.279	1077.33
1038.566	1054.28
1038.853	1054.28
1039.14	1054.28
