Data from red_cardboard_box_FLMS001491_00048.txt Node
Date: Wed Feb 08 11:32:28 GMT 2017
User: dcchb
Spectrometer: FLMS00149
Trigger mode: 0
Integration Time (sec): 2.000000E-2
Scans to average: 10
Electric dark correction enabled: true
Nonlinearity correction enabled: false
Boxcar width: 0
XAxis mode: Wavelengths
Number of Pixels in Spectrum: 2048
>>>>>Begin Spectral Data<<<<<
341.393	-33.22
341.776	-33.22
342.16	-33.22
342.543	-60.11
342.927	-68.47
343.31	-79.55
343.693	-82.71
344.077	-49.72
344.46	-53.56
344.843	-55.37
345.226	-44.07
345.61	-37.74
345.993	-5.65
346.376	5.2
346.759	0
347.142	28.25
347.525	48.36
347.908	58.98
348.291	66.66
348.674	94.01
349.057	106.89
349.44	147.79
349.823	142.6
350.206	166.78
350.588	212.2
350.971	212.88
351.354	219.43
351.737	249.94
352.119	251.97
352.502	261.24
352.884	262.59
353.267	286.55
353.65	291.97
354.032	301.24
354.414	303.95
354.797	294
355.179	323.61
355.562	306.66
355.944	351.18
356.326	320.9
356.709	356.37
357.091	327
357.473	330.61
357.855	343.49
358.238	336.71
358.62	324.96
359.002	345.3
359.384	322.7
359.766	347.56
360.148	349.82
360.53	329.93
360.912	321.8
361.294	314.79
361.676	325.42
362.057	323.38
362.439	347.11
362.821	318.64
363.203	315.47
363.584	321.8
363.966	309.37
364.348	310.05
364.729	328.8
365.111	327.9
365.493	326.77
365.874	305.53
366.256	314.57
366.637	325.87
367.019	322.25
367.4	320.67
367.781	322.48
368.163	316.6
368.544	318.86
368.925	330.16
369.306	333.32
369.688	337.17
370.069	302.59
370.45	314.57
370.831	306.43
371.212	297.62
371.593	300.56
371.974	319.31
372.355	312.31
372.736	321.57
373.117	326.32
373.498	316.6
373.879	317.05
374.26	324.06
374.641	337.17
375.021	320.67
375.402	335.13
375.783	316.38
376.163	321.35
376.544	318.18
376.925	305.75
377.305	330.61
377.686	304.4
378.066	320.9
378.447	328.8
378.827	322.7
379.208	347.34
379.588	339.2
379.968	310.73
380.349	334.91
380.729	318.64
381.109	315.47
381.489	330.39
381.87	332.65
382.25	335.13
382.63	345.08
383.01	328.58
383.39	330.61
383.77	337.17
384.15	337.39
384.53	349.82
384.91	338.52
385.29	342.59
385.67	336.71
386.049	357.05
386.429	342.59
386.809	342.82
387.189	330.84
387.568	368.8
387.948	331.06
388.328	358.41
388.707	341.69
389.087	348.47
389.466	352.99
389.846	350.95
390.225	355.47
390.605	367.45
390.984	366.09
391.363	366.77
391.743	365.41
392.122	370.61
392.501	375.13
392.881	344.4
393.26	378.97
393.639	367.9
394.018	364.96
394.397	364.96
394.776	361.35
395.155	363.38
395.534	367.67
395.913	375.36
396.292	402.02
396.671	384.4
397.05	381.23
397.429	377.84
397.808	364.96
398.186	379.2
398.565	381.46
398.944	363.15
399.323	368.35
399.701	367.67
400.08	360.67
400.458	387.11
400.837	376.04
401.215	383.27
401.594	374.68
401.972	412.87
402.351	396.83
402.729	387.11
403.107	390.95
403.486	390.95
403.864	395.24
404.242	394.79
404.62	392.31
404.999	391.18
405.377	402.48
405.755	418.97
406.133	399.31
406.511	416.71
406.889	429.14
407.267	418.29
407.645	411.97
408.023	414.9
408.401	396.83
408.779	392.76
409.156	416.26
409.534	428.69
409.912	440.67
410.29	428.01
410.667	421.46
411.045	406.32
411.422	430.27
411.8	438.18
412.178	450.38
412.555	409.93
412.933	434.11
413.31	435.92
413.687	422.81
414.065	430.05
414.442	427.79
414.819	424.85
415.197	450.16
415.574	450.84
415.951	465.98
416.328	470.95
416.705	445.19
417.082	449.71
417.46	449.93
417.837	472.76
418.214	450.38
418.591	457.62
418.967	477.5
419.344	477.05
419.721	481.12
420.098	426.88
420.475	479.08
420.852	454.45
421.228	488.35
421.605	490.16
421.982	486.31
422.358	494.22
422.735	489.25
423.111	504.85
423.488	503.49
423.864	496.48
424.241	522.25
424.617	490.61
424.994	501.23
425.37	496.94
425.746	491.29
426.123	501
426.499	510.72
426.875	506.43
427.251	522.92
427.627	505.52
428.003	534.45
428.379	528.57
428.756	523.83
429.132	533.09
429.507	537.61
429.883	525.18
430.259	526.54
430.635	524.05
431.011	543.04
431.387	545.3
431.763	554.56
432.138	546.65
432.514	543.71
432.89	563.15
433.265	567.67
433.641	564.28
434.016	566.76
434.392	577.16
434.767	565.86
435.143	564.05
435.518	585.3
435.894	582.13
436.269	596.82
436.644	595.24
437.02	606.09
437.395	582.81
437.77	599.98
438.145	611.28
438.52	597.95
438.895	596.82
439.271	608.8
439.646	638.18
440.021	629.14
440.395	618.06
440.77	622.36
441.145	628.01
441.52	620.55
441.895	619.19
442.27	642.02
442.645	638.85
443.019	663.49
443.394	653.32
443.769	669.13
444.143	642.02
444.518	651.73
444.892	656.93
445.267	637.05
445.641	675.01
446.016	663.94
446.39	647.67
446.764	678.85
447.139	669.59
447.513	680.21
447.887	692.64
448.262	680.21
448.636	692.41
449.01	703.94
449.384	688.8
449.758	677.5
450.132	699.87
450.506	704.39
450.88	694.22
451.254	702.58
451.628	708.46
452.002	721.11
452.376	719.98
452.75	705.97
453.123	717.04
453.497	748.23
453.871	747.1
454.244	736.7
454.618	732.18
454.992	746.65
455.365	742.13
455.739	747.32
456.112	768.34
456.486	783.26
456.859	743.71
457.232	743.26
457.606	778.96
457.979	814.22
458.352	820.09
458.725	801.33
459.099	801.56
459.472	811.96
459.845	807.44
460.218	844.27
460.591	821.67
460.964	841.56
461.337	840.43
461.71	846.08
462.083	849.47
462.456	863.25
462.829	864.16
463.201	864.84
463.574	858.51
463.947	892.63
464.32	875.68
464.692	898.28
465.065	900.99
465.438	896.7
465.81	903.03
466.183	932.63
466.555	919.98
466.928	924.27
467.3	906.42
467.672	948.45
468.045	981.22
468.417	969.01
468.789	969.01
469.161	973.53
469.534	993.87
469.906	984.15
470.278	1003.82
470.65	1025.51
471.022	1029.35
471.394	1037.49
471.766	1058.96
472.138	1056.47
472.51	1103.47
472.882	1085.85
473.253	1097.37
473.625	1084.27
473.997	1153.42
474.369	1140.08
474.74	1125.39
475.112	1137.37
475.484	1175.79
475.855	1182.57
476.227	1191.61
476.598	1190.03
476.97	1171.95
477.341	1258.95
477.713	1239.06
478.084	1241.1
478.455	1289.68
478.827	1279.29
479.198	1333.98
479.569	1341.43
479.94	1367.87
480.311	1344.82
480.682	1364.71
481.053	1414.2
481.424	1408.32
481.795	1427.76
482.166	1431.37
482.537	1462.56
482.908	1489
483.279	1485.16
483.65	1509.79
484.021	1528.55
484.391	1528.77
484.762	1575.1
485.133	1609.9
485.503	1615.55
485.874	1614.42
486.244	1628.21
486.615	1667.07
486.985	1673.85
487.356	1724.25
487.726	1682.22
488.097	1770.12
488.467	1767.41
488.837	1781.2
489.207	1798.82
489.578	1847.18
489.948	1837.24
490.318	1851.93
490.688	1882.66
491.058	1908.2
491.428	1928.76
491.798	1938.48
492.168	1980.06
492.538	1973.28
492.908	1980.51
493.278	2004.69
493.648	2015.99
494.017	2046.73
494.387	2045.14
494.757	2096.89
495.126	2116.55
495.496	2131.47
495.866	2136.44
496.235	2127.63
496.605	2166.27
496.974	2150.23
497.344	2173.5
497.713	2197.91
498.082	2209.43
498.452	2237.23
498.821	2257.12
499.19	2247.4
499.559	2277.68
499.928	2277
500.298	2305.25
500.667	2338.92
501.036	2342.31
501.405	2357.9
501.774	2364.23
502.143	2381.41
502.512	2406.26
502.88	2401.52
503.249	2415.76
503.618	2431.8
503.987	2454.17
504.356	2460.05
504.724	2477.9
505.093	2492.59
505.462	2497.56
505.83	2519.48
506.199	2549.31
506.567	2554.74
506.936	2565.58
507.304	2582.3
507.672	2616.88
508.041	2648.29
508.409	2643.77
508.777	2681.96
509.145	2688.74
509.514	2705.92
509.882	2694.39
510.25	2717.22
510.618	2757.22
510.986	2761.51
511.354	2781.62
511.722	2828.4
512.09	2805.35
512.458	2844.9
512.826	2852.13
513.193	2852.58
513.561	2861.17
513.929	2932.13
514.297	2970.32
514.664	2969.41
515.032	2976.87
515.4	3014.38
515.767	2990.66
516.135	3028.39
516.502	3023.42
516.869	3080.82
517.237	3066.59
517.604	3070.65
517.972	3127.15
518.339	3149.07
518.706	3107.71
519.073	3204.44
519.44	3208.05
519.808	3203.53
520.175	3250.31
520.542	3292.34
520.909	3312.46
521.276	3295.28
521.643	3322.17
522.009	3354.26
522.376	3417.76
522.743	3397.88
523.11	3469.97
523.477	3484.65
523.843	3487.14
524.21	3516.97
524.577	3560.36
524.943	3577.76
525.31	3595.39
525.676	3625.67
526.043	3636.06
526.409	3685.78
526.776	3721.26
527.142	3708.15
527.508	3744.53
527.874	3774.59
528.241	3818.2
528.607	3814.59
528.973	3841.93
529.339	3892.78
529.705	3894.81
530.071	3935.72
530.437	3927.35
530.803	3986.79
531.169	3991.53
531.535	3986.56
531.901	4005.77
532.267	4050.29
532.632	4094.36
532.998	4069.95
533.364	4149.5
533.73	4130.06
534.095	4203.51
534.461	4213
534.826	4186.1
535.192	4257.06
535.557	4279.89
535.923	4255.48
536.288	4317.17
536.653	4351.75
537.019	4290.73
537.384	4377.06
537.749	4361.47
538.114	4404.4
538.479	4420.67
538.845	4462.26
539.21	4413.9
539.575	4449.83
539.94	4471.52
540.305	4571.41
540.67	4513.78
541.034	4555.13
541.399	4622.25
541.764	4584.06
542.129	4598.3
542.494	4628.13
542.858	4640.1
543.223	4661.57
543.587	4737.73
543.952	4753.32
544.316	4745.86
544.681	4760.78
545.045	4816.82
545.41	4776.37
545.774	4853.66
546.138	4827.44
546.503	4903.83
546.867	4852.98
547.231	4966.42
547.595	4965.75
547.959	4990.15
548.324	5007.78
548.688	5005.52
549.052	5054.56
549.416	5094.1
549.779	5078.28
550.143	5113.99
550.507	5127.77
550.871	5151.28
551.235	5185.17
551.599	5252.74
551.962	5230.6
552.326	5278.51
552.689	5319.41
553.053	5309.69
553.417	5352.63
553.78	5469.69
554.143	5438.05
554.507	5451.38
554.87	5528.89
555.234	5543.81
555.597	5525.05
555.96	5607.08
556.323	5636.91
556.686	5636.24
557.05	5676.69
557.413	5740.64
557.776	5761.43
558.139	5811.37
558.502	5839.39
558.865	5852.5
559.228	5926.17
559.59	5985.83
559.953	6044.59
560.316	6060.86
560.679	6141.31
561.041	6143.34
561.404	6211.14
561.767	6259.27
562.129	6273.96
562.492	6317.57
562.854	6360.28
563.217	6431.24
563.579	6466.95
563.941	6554.63
564.304	6591.24
564.666	6668.53
565.028	6681.63
565.39	6769.54
565.753	6850.67
566.115	6895.41
566.477	6885.69
566.839	6978.8
567.201	7015.63
567.563	7124.11
567.925	7210.43
568.287	7186.03
568.648	7292.24
569.01	7315.06
569.372	7483.65
569.734	7520.93
570.095	7590.53
570.457	7671.21
570.819	7676.18
571.18	7789.85
571.542	7800.92
571.903	7919.11
572.265	8004.99
572.626	8045.21
572.987	8035.27
573.349	8209.05
573.71	8216.96
574.071	8338.99
574.432	8406.33
574.794	8562.94
575.155	8577.63
575.516	8591.86
575.877	8693.56
576.238	8851.07
576.599	8957.73
576.96	9024.4
577.32	9068.69
577.681	9183.71
578.042	9297.83
578.403	9396.14
578.763	9491.28
579.124	9560.65
579.485	9706.64
579.845	9790.03
580.206	9952.05
580.566	10044.48
580.927	10139.17
581.287	10308.88
581.648	10436.11
582.008	10547.75
582.368	10688.98
582.728	10880.17
583.089	11003.78
583.449	11182.53
583.809	11296.65
584.169	11499.58
584.529	11630.43
584.889	11808.73
585.249	11960.36
585.609	12112.9
585.969	12350.64
586.329	12450.29
586.688	12702.04
587.048	12947.46
587.408	13146.1
587.768	13325.98
588.127	13509.93
588.487	13777.26
588.846	14069.69
589.206	14211.15
589.565	14494.53
589.925	14803
590.284	14986.05
590.643	15304.91
591.003	15510.78
591.362	15869.64
591.721	16117.54
592.08	16422.39
592.44	16760.01
592.799	17068.25
593.158	17266.89
593.517	17647.45
593.876	17941
594.235	18256.02
594.593	18606.97
594.952	18975.32
595.311	19218.93
595.67	19642.42
596.029	20196.53
596.387	20427.94
596.746	20817.98
597.104	20986.57
597.463	21463.62
597.822	21819.99
598.18	22112.41
598.538	22498.17
598.897	23005.72
599.255	23094.76
599.613	23807.96
599.972	23964.34
600.33	24381.51
600.688	24722.97
601.046	25147.36
601.404	25544.19
601.762	25882.94
602.12	26283.6
602.478	26752.97
602.836	27085.39
603.194	27108.44
603.552	27734.64
603.91	27915.42
604.268	28564.9
604.625	28630.43
604.983	29309.74
605.341	29222.28
605.698	29735.49
606.056	30188.36
606.413	30473.55
606.771	30876.93
607.128	31204.15
607.485	31301.1
607.843	31709.67
608.2	32013.85
608.557	32450.22
608.914	32689.76
609.272	33039.13
609.629	33302.18
609.986	33576.29
610.343	33733.8
610.7	34229.61
611.057	34454.46
611.414	34695.36
611.771	34936.93
612.127	35307.55
612.484	35388.22
612.841	35677.03
613.198	35908.66
613.554	36129.9
613.911	36393.39
614.267	36695.98
614.624	36819.37
614.98	37049.42
615.337	37232.24
615.693	37457.55
616.05	37590.88
616.406	38000.81
616.762	38062.73
617.118	38288.26
617.475	38321.48
617.831	38681.92
618.187	38785.19
618.543	38898.19
618.899	39245.3
619.255	39262.7
619.611	39440.09
619.967	39608
620.323	39791.72
620.678	39818.61
621.034	39903.36
621.39	39970.25
621.746	40116.23
622.101	40648.2
622.457	40489.33
622.812	40727.97
623.168	40748.76
623.523	40881.86
623.879	41082.54
624.234	40837.8
624.589	41155.3
624.945	41264.68
625.3	41415.41
625.655	41393.49
626.01	41457.89
626.365	41689.07
626.72	41624.67
627.075	41735.85
627.43	41848.17
627.785	41695.63
628.14	41959.57
628.495	42051.78
628.85	42069.4
629.205	41982.85
629.559	42221.71
629.914	42273.46
630.269	42311.2
630.623	42135.39
630.978	42220.36
631.332	42411.99
631.687	42602.27
632.041	42220.58
632.396	42471.43
632.75	42377.42
633.104	42573.12
633.459	42414.93
633.813	42393.46
634.167	42368.6
634.521	42518.2
634.875	42640.91
635.229	42474.14
635.583	42369.73
635.937	42408.15
636.291	42406.57
636.645	42506.68
636.999	42423.29
637.352	42508.49
637.706	42280.47
638.06	42578.77
638.413	42422.61
638.767	42500.58
639.121	42552.78
639.474	42301.49
639.828	42440.47
640.181	42517.75
640.534	42641.14
640.888	42562.72
641.241	42254.03
641.594	42351.88
641.947	42590.97
642.301	42447.7
642.654	42586
643.007	42552.55
643.36	42464.87
643.713	42388.72
644.066	42595.04
644.419	42369.73
644.771	42010.19
645.124	41800.48
645.477	41650.88
645.83	41353.71
646.182	41226.26
646.535	41265.13
646.888	41392.81
647.24	41224
647.593	41532.24
647.945	41403.21
648.298	41263.55
648.65	41266.26
649.002	41139.26
649.355	41346.94
649.707	41247.73
650.059	41329.53
650.411	41886.58
650.763	41872.57
651.115	42353.91
651.467	42183.75
651.819	42259
652.171	42148.95
652.523	42145.78
652.875	42137.42
653.227	41908.95
653.578	42438.21
653.93	42187.37
654.282	42000.7
654.633	42014.71
654.985	42094.49
655.337	42190.3
655.688	42078.22
656.039	42298.55
656.391	41920.25
656.742	42013.13
657.094	41963.19
657.445	42155.95
657.796	42027.14
658.147	42033.92
658.498	41851.1
658.849	42012
659.2	41919.8
659.551	41883.87
659.902	41950.99
660.253	42062.4
660.604	42033.92
660.955	41754.61
661.306	41835.51
661.656	41915.28
662.007	42063.75
662.358	42000.03
662.708	41889.97
663.059	41930.2
663.409	41637.78
663.76	41942.4
664.11	42062.62
664.461	41850.88
664.811	41982.85
665.161	42030.53
665.511	41831.44
665.862	41808.17
666.212	42065.33
666.562	41894.04
666.912	41881.38
667.262	41815.4
667.612	41830.99
667.962	41708.73
668.312	41830.54
668.662	42050.42
669.011	41899.69
669.361	41828.05
669.711	41886.13
670.06	41685.01
670.41	41728.39
670.76	41602.07
671.109	41808.17
671.459	41753.7
671.808	41642.97
672.157	41781.05
672.507	41484.11
672.856	41561.17
673.205	41658.79
673.554	41865.11
673.904	41577.44
674.253	41937.43
674.602	41572.47
674.951	41084.8
675.3	40957.12
675.649	41649.75
675.998	41610.21
676.346	41501.28
676.695	41664.44
677.044	41272.14
677.393	41403.21
677.741	41567.04
678.09	41397.33
678.438	41284.34
678.787	41389.19
679.135	41341.96
679.484	41099.94
679.832	41223.55
680.181	41163.21
680.529	41193.27
680.877	41004.57
681.225	40908.98
681.573	41282.76
681.922	40927.29
682.27	40868.53
682.618	40783.33
682.966	40754.86
683.314	40822.2
683.661	40748.31
684.009	40580.85
684.357	40465.83
684.705	40384.25
685.053	40402.78
685.4	40403.91
685.748	40108.1
686.095	40254.53
686.443	40090.25
686.79	40151.71
687.138	40137.48
687.485	40046.4
687.832	40075.78
688.18	39955.56
688.527	39740.42
688.874	39811.38
689.221	39711.27
689.568	39565.74
689.915	39443.03
690.262	39449.13
690.609	39420.43
690.956	39268.12
691.303	39166.43
691.65	39011.63
691.997	38932.31
692.344	38798.98
692.69	38778.87
693.037	38877.85
693.383	38473.34
693.73	38663.62
694.077	38495.48
694.423	38374.58
694.769	38312.44
695.116	38168.71
695.462	38261.37
695.808	38045.55
696.155	37907.03
696.501	37930.53
696.847	37832.23
697.193	37513.14
697.539	37665.68
697.885	37399.92
698.231	37413.71
698.577	37385.46
698.923	37283.09
699.269	37097.78
699.614	36912.25
699.96	36882.42
700.306	36870.67
700.651	36789.09
700.997	36765.59
701.342	36673.61
701.688	36408.76
702.033	36407.63
702.379	36368.08
702.724	36409.21
703.069	36277.46
703.415	36024.82
703.76	35878.15
704.105	36000.18
704.45	35898.04
704.795	35685.39
705.14	35610.59
705.485	35504.15
705.83	35418.5
706.175	35421.22
706.52	35458.5
706.865	35227.32
707.209	35132.41
707.554	35083.82
707.899	35125.86
708.243	34970.83
708.588	34955.01
708.932	34712.08
709.277	34733.55
709.621	34762.25
709.966	34488.81
710.31	34544.85
710.654	34322.49
710.998	34391.41
711.342	34435.48
711.687	34291.53
712.031	34132.89
712.375	34061.93
712.719	34059.9
713.063	34108.48
713.407	34136.96
713.75	33905.78
714.094	33894.48
714.438	33797.3
714.782	33901.26
715.125	33665.78
715.469	33617.65
715.812	33530.87
716.156	33308.28
716.499	33449.06
716.843	33395.96
717.186	33158.9
717.53	33337.65
717.873	33312.12
718.216	33369.29
718.559	33079.81
718.902	32845.01
719.246	32907.16
719.589	32856.76
719.932	32782.87
720.275	32740.38
720.617	32700.38
720.96	32771.34
721.303	32558.01
721.646	32777.44
721.989	32471.01
722.331	32567.96
722.674	32445.93
723.016	32468.75
723.359	32470.56
723.701	32246.16
724.044	32210.9
724.386	32002.77
724.729	32242.77
725.071	32098.59
725.413	32130.23
725.755	32025.82
726.097	31931.36
726.439	31859.5
726.782	31749.67
727.124	31918.71
727.465	31737.47
727.807	31737.7
728.149	31709.67
728.491	31735.21
728.833	31709.9
729.175	31552.16
729.516	31493.86
729.858	31367.54
730.199	31516.01
730.541	31369.34
730.882	31337.03
731.224	31433.07
731.565	31210.03
731.906	31198.95
732.248	31247.99
732.589	31194.66
732.93	31080.99
733.271	30994.67
733.612	31012.74
733.953	31030.37
734.294	30903.37
734.635	30936.81
734.976	31027.66
735.317	30794.67
735.658	30754.9
735.999	30761
736.339	30695.69
736.68	30794.22
737.021	30638.06
737.361	30457.96
737.702	30666.09
738.042	30550.16
738.383	30476.49
738.723	30612.53
739.063	30377.51
739.404	30469.26
739.744	30328.69
740.084	30332.08
740.424	30381.8
740.764	30250.05
741.104	30299.32
741.444	30161.69
741.784	30088.47
742.124	30221.8
742.464	30044.63
742.804	29906.11
743.143	30005.99
743.483	29988.59
743.823	29731.42
744.162	29713.79
744.502	29922.6
744.841	29653.68
745.181	29925.99
745.52	29759.67
745.86	29633.8
746.199	29595.61
746.538	29584.08
746.877	29708.37
747.216	29660.01
747.556	29475.38
747.895	29593.8
748.234	29404.2
748.573	29361.04
748.911	29383.86
749.25	29442.84
749.589	29374.59
749.928	29219.8
750.267	29206.01
750.605	29079.01
750.944	29081.95
751.283	29126.47
751.621	29134.6
751.96	28952.23
752.298	28949.07
752.636	28966.02
752.975	28736.87
753.313	28841.05
753.651	28812.58
753.989	28697.55
754.327	28589.3
754.666	28547.5
755.004	28488.29
755.342	28520.83
755.679	28500.72
756.017	28224.12
756.355	28404.68
756.693	28253.72
757.031	28230.44
757.368	28111.13
757.706	28153.61
758.044	28018.47
758.381	28100.73
758.719	27922.2
759.056	27938.47
759.394	27789.33
759.731	27779.16
760.068	27738.25
760.405	27635.88
760.743	27519.95
761.08	27437.02
761.417	27354.99
761.754	27259.62
762.091	27387.75
762.428	27157.03
762.765	27100.3
763.102	27157.7
763.438	27044.71
763.775	26874.1
764.112	26797.04
764.449	26797.26
764.785	26742.35
765.122	26628
765.458	26443.37
765.795	26558.17
766.131	26441.56
766.467	26317.27
766.804	26230.04
767.14	26152.98
767.476	26063.27
767.812	25906.66
768.148	26072.99
768.485	25860.56
768.821	25673
769.157	25680
769.492	25647.91
769.828	25613.11
770.164	25318.2
770.5	25302.16
770.836	25395.94
771.171	25052
771.507	25143.52
771.842	24856.3
772.178	24887.03
772.513	24876.41
772.849	24897.65
773.184	24661.05
773.519	24778.56
773.855	24570.88
774.19	24494.5
774.525	24411.56
774.86	24440.26
775.195	24403.88
775.53	24199.36
775.865	24062.64
776.2	23898.81
776.535	23807.28
776.87	23734.07
777.205	23707.85
777.539	23650.9
777.874	23622.66
778.209	23411.36
778.543	23339.73
778.878	23324.81
779.212	23289.56
779.547	23084.82
779.881	23120.97
780.215	23069.68
780.55	23099.73
780.884	22839.17
781.218	22937.48
781.552	22809.8
781.886	22696.58
782.22	22560.54
782.554	22459.97
782.888	22371.39
783.222	22153.09
783.556	22177.04
783.889	22140.43
784.223	21913.32
784.557	21883.72
784.89	22010.95
785.224	21774.34
785.557	21869.93
785.891	21683.95
786.224	21582.48
786.558	21626.1
786.891	21532.77
787.224	21408.93
787.557	21346.33
787.891	21298.65
788.224	21273.11
788.557	21203.96
788.89	21027.7
789.223	21032.22
789.556	20882.39
789.888	20840.81
790.221	20806.23
790.554	20534.6
790.887	20572.79
791.219	20485.11
791.552	20474.94
791.884	20400.59
792.217	20413.93
792.549	20264.33
792.882	20041.96
793.214	19949.31
793.546	19999.02
793.879	19858.01
794.211	19800.16
794.543	19955.86
794.875	19812.59
795.207	19853.26
795.539	19725.58
795.871	19702.76
796.203	19526.72
796.535	19463.22
796.867	19458.92
797.198	19423.67
797.53	19352.94
797.862	19210.79
798.193	19291.02
798.525	19182.77
798.856	19097.58
799.188	18898.71
799.519	18938.71
799.85	18780.3
800.182	18865.04
800.513	18718.38
800.844	18664.14
801.175	18763.57
801.506	18685.38
801.837	18610.58
802.168	18617.82
802.499	18500.3
802.83	18456.01
803.161	18455.79
803.491	18330.37
803.822	18288.33
804.153	18244.49
804.483	18075.68
804.814	18007.89
805.145	18038.17
805.475	18025.74
805.805	17897.38
806.136	17895.57
806.466	17875.01
806.796	17791.85
807.126	17608.8
807.457	17633.43
807.787	17595.92
808.117	17573.55
808.447	17510.5
808.777	17491.74
809.107	17430.5
809.436	17383.95
809.766	17376.72
810.096	17309.15
810.426	17292.65
810.755	17299.66
811.085	17174.46
811.414	17210.85
811.744	16941.93
812.073	16978.99
812.403	17031.87
812.732	16917.07
813.061	16887.69
813.39	16870.97
813.719	16740.35
814.049	16872.78
814.378	16754.36
814.707	16683.86
815.036	16606.12
815.365	16579.68
815.693	16487.48
816.022	16432.56
816.351	16394.15
816.68	16382.17
817.008	16388.27
817.337	16290.19
817.665	16221.27
817.994	16317.76
818.322	16260.14
818.651	16138.11
818.979	16121.61
819.307	16179.91
819.636	16074.38
819.964	15948.73
820.292	16119.58
820.62	16049.97
820.948	16070.76
821.276	16002.07
821.604	15892.69
821.932	15997.09
822.259	15952.35
822.587	15911.45
822.915	15946.25
823.243	16038.67
823.57	15829.19
823.898	15894.95
824.225	15842.07
824.553	15888.17
824.88	15922.97
825.207	15965.91
825.535	15915.51
825.862	15921.62
826.189	15867.38
826.516	15901.5
826.843	15832.13
827.17	15867.61
827.497	15906.02
827.824	15843.88
828.151	15886.81
828.478	15866.93
828.805	15889.98
829.131	15790.09
829.458	15768.4
829.785	15793.03
830.111	15798
830.438	15882.75
830.764	15836.19
831.09	15870.77
831.417	15800.94
831.743	15816.53
832.069	15831.67
832.395	15666.71
832.722	15727.04
833.048	15776.08
833.374	15723.2
833.7	15656.76
834.026	15687.95
834.351	15714.39
834.677	15679.36
835.003	15711
835.329	15663.77
835.654	15699.47
835.98	15505.81
836.306	15601.62
836.631	15542.87
836.956	15608.18
837.282	15609.99
837.607	15576.31
837.932	15475.75
838.258	15468.29
838.583	15462.42
838.908	15432.81
839.233	15475.3
839.558	15344
839.883	15234.18
840.208	15217.45
840.533	15240.96
840.858	15355.08
841.182	15270.33
841.507	15215.42
841.832	15186.27
842.156	15175.87
842.481	15057.46
842.805	15046.84
843.13	15039.83
843.454	14927.97
843.778	14959.15
844.103	15004.35
844.427	14896.33
844.751	14970.23
845.075	14930.45
845.399	14798.71
845.723	14732.49
846.047	14708.99
846.371	14607.07
846.695	14542.67
847.019	14420.86
847.343	14446.63
847.666	14305.84
847.99	14300.64
848.313	14309
848.637	14229.68
848.96	14197.59
849.284	14109.69
849.607	14036.24
849.931	13956.7
850.254	13914.89
850.577	13872.63
850.9	13739.98
851.223	13737.04
851.546	13651.84
851.869	13625.4
852.192	13655.23
852.515	13495.01
852.838	13544.28
853.161	13504.5
853.483	13434
853.806	13366.2
854.129	13323.04
854.451	13262.7
854.774	13256.37
855.096	13194.46
855.419	13127.34
855.741	13177.51
856.063	13075.59
856.385	13104.51
856.708	13036.72
857.03	12992.88
857.352	12918.3
857.674	12925.99
857.996	12912.65
858.318	12761.7
858.64	12854.8
858.961	12669.95
859.283	12721.7
859.605	12703.17
859.926	12621.14
860.248	12688.48
860.57	12513.8
860.891	12582.49
861.212	12514.02
861.534	12392.67
861.855	12451.42
862.176	12414.14
862.498	12390.63
862.819	12431.76
863.14	12401.71
863.461	12279.45
863.782	12264.54
864.103	12244.42
864.424	12175.27
864.745	12289.17
865.065	12237.87
865.386	12207.59
865.707	12208.04
866.027	12097.99
866.348	12121.72
866.668	12100.02
866.989	12102.05
867.309	11949.97
867.63	12089.85
867.95	12058.44
868.27	12023.86
868.59	12006.69
868.91	11943.87
869.23	11856.19
869.55	11872.68
869.87	11869.07
870.19	11864.09
870.51	11945.22
870.83	11876.98
871.15	11828.62
871.469	11845.56
871.789	11757.88
872.109	11775.51
872.428	11713.14
872.748	11686.02
873.067	11670.65
873.386	11682.18
873.706	11699.35
874.025	11592.69
874.344	11547.04
874.663	11628.17
874.982	11649.41
875.301	11596.98
875.62	11537.55
875.939	11514.73
876.258	11571.9
876.577	11534.16
876.896	11539.58
877.214	11477.21
877.533	11418.91
877.852	11427.5
878.17	11355.63
878.489	11473.6
878.807	11400.38
879.125	11317.22
879.444	11294.39
879.762	11364.45
880.08	11233.83
880.398	11267.95
880.716	11255.3
881.034	11231.8
881.352	11217.56
881.67	11206.49
881.988	11236.77
882.306	11187.95
882.624	11104.34
882.941	11067.05
883.259	11098.01
883.577	11007.17
883.894	11132.14
884.212	10980.5
884.529	10973.5
884.846	10912.03
885.164	10938.24
885.481	10907.96
885.798	10879.94
886.115	10770.11
886.432	10810.11
886.75	10759.49
887.067	10813.73
887.383	10690.79
887.7	10807.85
888.017	10639.72
888.334	10611.25
888.651	10638.14
888.967	10610.57
889.284	10521.76
889.6	10516.56
889.917	10408.77
890.233	10540.06
890.55	10468.65
890.866	10425.26
891.182	10313.63
891.498	10293.06
891.815	10355.21
892.131	10248.77
892.447	10250.8
892.763	10232.73
893.079	10211.48
893.395	10257.81
893.71	10187.75
894.026	10099.17
894.342	10020.75
894.657	10002.67
894.973	10046.06
895.289	10030.24
895.604	9959.96
895.92	9981.66
896.235	9886.52
896.55	9856.69
896.865	9814.43
897.181	9764.26
897.496	9744.6
897.811	9748.44
898.126	9728.33
898.441	9640.88
898.756	9647.43
899.071	9612.85
899.386	9639.07
899.7	9534.89
900.015	9473.2
900.33	9461.9
900.644	9353.43
900.959	9414.89
901.273	9387.32
901.588	9295.57
901.902	9356.59
902.216	9300.77
902.531	9235.46
902.845	9193.43
903.159	9148.46
903.473	9128.35
903.787	9054.9
904.101	9021.23
904.415	9078.41
904.729	9001.57
905.042	9014
905.356	8950.27
905.67	8928.13
905.984	8922.25
906.297	8872.76
906.611	8789.6
906.924	8792.31
907.237	8706.89
907.551	8619.43
907.864	8643.16
908.177	8685.65
908.491	8624.63
908.804	8620.11
909.117	8552.54
909.43	8485.88
909.743	8433.45
910.056	8456.95
910.368	8446.56
910.681	8331.53
910.994	8300.8
911.307	8280.91
911.619	8228.26
911.932	8246.34
912.244	8197.75
912.557	8157.07
912.869	8127.47
913.181	8085.21
913.494	8107.36
913.806	7908.94
914.118	8014.93
914.43	7912.11
914.742	7906.91
915.054	7903.3
915.366	7861.49
915.678	7812
915.99	7779.23
916.302	7742.85
916.613	7757.31
916.925	7626.92
917.236	7678.22
917.548	7608.84
917.859	7590.31
918.171	7547.82
918.482	7564.09
918.794	7502.63
919.105	7492.46
919.416	7392.35
919.727	7385.34
920.038	7352.8
920.349	7317.1
920.66	7315.06
920.971	7297.89
921.282	7253.82
921.593	7237.32
921.903	7151.22
922.214	7143.99
922.525	7139.47
922.835	7065.12
923.146	7061.06
923.456	7017.44
923.767	6979.48
924.077	6972.7
924.387	6953.49
924.697	6896.32
925.008	6882.98
925.318	6838.92
925.628	6831.23
925.938	6817
926.248	6770.22
926.558	6714.85
926.867	6721.41
927.177	6735.19
927.487	6708.07
927.796	6528.19
928.106	6580.39
928.416	6565.48
928.725	6664.23
929.034	6463.33
929.344	6511.47
929.653	6522.31
929.962	6468.08
930.271	6407.74
930.581	6395.76
930.89	6332.94
931.199	6300.4
931.508	6313.28
931.817	6271.02
932.125	6224.92
932.434	6184.92
932.743	6149.67
933.051	6151.93
933.36	6168.88
933.669	6054.98
933.977	6086.17
934.286	6066.51
934.594	6021.99
934.902	5970.01
935.21	5937.47
935.519	5958.04
935.827	5969.33
936.135	5900.41
936.443	5834.2
936.751	5812.28
937.059	5816.34
937.367	5793.52
937.674	5838.26
937.982	5789.68
938.29	5730.47
938.597	5736.57
938.905	5605.5
939.213	5628.1
939.52	5629.68
939.827	5591.27
940.135	5519.85
940.442	5552.4
940.749	5481.44
941.056	5547.88
941.363	5429.69
941.67	5450.48
941.977	5448.9
942.284	5392.4
942.591	5387.88
942.898	5360.99
943.205	5327.09
943.511	5312.4
943.818	5324.83
944.125	5262.46
944.431	5240.09
944.738	5251.61
945.044	5217.94
945.35	5149.02
945.657	5127.55
945.963	5151.5
946.269	5131.16
946.575	5066.53
946.881	5060.66
947.187	5064.05
947.493	5057.72
947.799	4993.99
948.105	4967.1
948.41	4960.77
948.716	4934.79
949.022	4903.37
949.327	4901.57
949.633	4823.38
949.938	4869.02
950.244	4809.59
950.549	4788.8
950.854	4759.42
951.16	4753.1
951.465	4747.22
951.77	4762.81
952.075	4719.42
952.38	4666.54
952.685	4656.37
952.99	4629.03
953.294	4630.16
953.599	4620.67
953.904	4582.03
954.209	4575.25
954.513	4569.82
954.818	4540.9
955.122	4482.59
955.426	4496.83
955.731	4445.76
956.035	4408.7
956.339	4458.19
956.643	4394.23
956.948	4382.71
957.252	4356.95
957.556	4377.74
957.86	4349.49
958.163	4291.64
958.467	4318.98
958.771	4274.69
959.075	4224.97
959.378	4266.55
959.682	4206.67
959.985	4203.73
960.289	4163.73
960.592	4184.07
960.896	4141.81
961.199	4116.05
961.502	4089.16
961.805	4077.41
962.108	4039.67
962.411	4033.34
962.714	4000.35
963.017	3990.86
963.32	4034.02
963.623	3960.57
963.926	3957.18
964.228	3932.1
964.531	3951.53
964.833	3930.74
965.136	3907.02
965.438	3863.85
965.741	3847.13
966.043	3868.6
966.345	3850.29
966.648	3807.58
966.95	3777.08
967.252	3782.73
967.554	3764.19
967.856	3803.29
968.158	3723.07
968.46	3724.2
968.761	3720.81
969.063	3674.03
969.365	3648.27
969.666	3659.79
969.968	3586.35
970.269	3606.01
970.571	3632.9
970.872	3588.61
971.174	3558.55
971.475	3505.9
971.776	3523.52
972.077	3513.81
972.378	3517.42
972.679	3518.78
972.98	3502.96
973.281	3490.98
973.582	3431.77
973.883	3395.62
974.183	3446.92
974.484	3395.84
974.785	3352
975.085	3362.17
975.386	3372.11
975.686	3359.46
975.986	3308.16
976.287	3349.74
976.587	3290.08
976.887	3260.48
977.187	3273.59
977.487	3268.84
977.787	3196.98
978.087	3197.43
978.387	3234.49
978.687	3161.72
978.987	3195.4
979.286	3168.73
979.586	3164.44
979.885	3184.55
980.185	3076.08
980.484	3090.09
980.784	3076.98
981.083	3095.06
981.382	3096.42
981.682	3054.83
981.981	3088.73
982.28	3066.59
982.579	3032.69
982.878	3025.91
983.177	2971.22
983.475	2946.36
983.774	2968.06
984.073	2948.4
984.372	2946.36
984.67	2892.58
984.969	2886.03
985.267	2938
985.566	2870.88
985.864	2871.34
986.162	2862.52
986.461	2853.48
986.759	2839.02
987.057	2790.44
987.355	2780.72
987.653	2792.92
987.951	2752.24
988.249	2765.35
988.547	2773.49
988.844	2684.9
989.142	2745.01
989.44	2715.63
989.737	2705.69
990.035	2692.58
990.332	2667.27
990.63	2657.11
990.927	2656.88
991.224	2619.82
991.521	2627.05
991.819	2605.13
992.116	2607.16
992.413	2589.76
992.71	2573.72
993.006	2564.9
993.303	2559.03
993.6	2534.17
993.897	2546.6
994.193	2494.17
994.49	2500.73
994.787	2511.8
995.083	2487.84
995.379	2468.86
995.676	2473.38
995.972	2428.18
996.268	2448.98
996.565	2445.81
996.861	2429.54
997.157	2411.24
997.453	2373.95
997.749	2392.48
998.044	2337.57
998.34	2354.74
998.636	2333.27
998.932	2345.25
999.227	2313.61
999.523	2294.18
999.818	2274.06
1000.114	2264.8
1000.409	2254.86
1000.704	2235.42
1001	2251.92
1001.295	2203.11
1001.59	2212.15
1001.885	2185.25
1002.18	2224.35
1002.475	2179.15
1002.77	2149.77
1003.065	2136.22
1003.359	2148.42
1003.654	2143.22
1003.949	2111.81
1004.243	2086.5
1004.538	2089.66
1004.832	2075.43
1005.127	2089.21
1005.421	2087.4
1005.715	2052.15
1006.009	2060.96
1006.304	1992.26
1006.598	2044.47
1006.892	2007.4
1007.186	1989.55
1007.48	1980.96
1007.773	1957.01
1008.067	1962.43
1008.361	1940.29
1008.655	1931.47
1008.948	1939.61
1009.242	1912.27
1009.535	1890.8
1009.829	1879.05
1010.122	1890.57
1010.415	1889.44
1010.708	1867.3
1011.001	1850.35
1011.295	1867.97
1011.588	1796.79
1011.881	1842.89
1012.173	1792.04
1012.466	1801.99
1012.759	1804.25
1013.052	1778.26
1013.344	1764.47
1013.637	1750.69
1013.93	1769.9
1014.222	1752.72
1014.514	1712.27
1014.807	1730.35
1015.099	1726.96
1015.391	1712.05
1015.683	1702.78
1015.976	1670.24
1016.268	1664.36
1016.56	1689.22
1016.851	1639.05
1017.143	1614.65
1017.435	1627.3
1017.727	1618.94
1018.018	1597.92
1018.31	1584.59
1018.602	1583.01
1018.893	1578.26
1019.185	1552.95
1019.476	1550.69
1019.767	1529.68
1020.058	1538.49
1020.35	1530.81
1020.641	1509.34
1020.932	1489.45
1021.223	1500.53
1021.514	1472.73
1021.804	1458.04
1022.095	1470.47
1022.386	1456.68
1022.677	1420.98
1022.967	1422.11
1023.258	1409.45
1023.548	1416.69
1023.839	1395.44
1024.129	1381.66
1024.419	1392.73
1024.709	1413.75
1025	1384.82
1025.29	1359.51
1025.58	1347.54
1025.87	1316.58
1026.16	1336.01
1026.449	1312.28
1026.739	1300.08
1027.029	1310.02
1027.319	1316.12
1027.608	1283.81
1027.898	1303.69
1028.187	1265.5
1028.477	1270.02
1028.766	1250.14
1029.055	1236.8
1029.344	1292.85
1029.634	1235.67
1029.923	1219.85
1030.212	1210.14
1030.501	1219.85
1030.79	1197.93
1031.078	1174.21
1031.367	1197.93
1031.656	1175.56
1031.945	1146.64
1032.233	1126.07
1032.522	1155.9
1032.81	1131.5
1033.099	1161.1
1033.387	1123.13
1033.675	1107.32
1033.963	1134.66
1034.251	1114.32
1034.54	1086.75
1034.828	1098.73
1035.116	1075.68
1035.403	1096.92
1035.691	1062.12
1035.979	1075.9
1036.267	1053.53
1036.554	1048.79
1036.842	1055.11
1037.129	1030.48
1037.417	1030.48
1037.704	1007.43
1037.992	1010.59
1038.279	989.13
1038.566	1017.15
1038.853	1017.15
1039.14	1017.15
