Data from red_cardboard_box_FLMS001491_00032.txt Node
Date: Wed Feb 08 11:32:05 GMT 2017
User: dcchb
Spectrometer: FLMS00149
Trigger mode: 0
Integration Time (sec): 2.000000E-2
Scans to average: 10
Electric dark correction enabled: true
Nonlinearity correction enabled: false
Boxcar width: 0
XAxis mode: Wavelengths
Number of Pixels in Spectrum: 2048
>>>>>Begin Spectral Data<<<<<
341.393	-4.84
341.776	-4.84
342.16	-4.84
342.543	-71.96
342.927	-83.26
343.31	-78.74
343.693	-86.65
344.077	-82.58
344.46	-58.4
344.843	-62.92
345.226	-55.24
345.61	-21.57
345.993	-17.73
346.376	8.49
346.759	11.65
347.142	40.8
347.525	59.33
347.908	67.7
348.291	81.71
348.674	95.27
349.057	98.88
349.44	102.27
349.823	144.53
350.206	168.71
350.588	201.7
350.971	209.84
351.354	224.75
351.737	218.43
352.119	254.13
352.502	258.65
352.884	268.37
353.267	278.99
353.65	296.16
354.032	276.73
354.414	297.29
354.797	295.03
355.179	297.07
355.562	318.76
355.944	317.86
356.326	349.27
356.709	326.45
357.091	349.04
357.473	330.29
357.855	342.27
358.238	320.34
358.62	341.36
359.002	335.26
359.384	334.13
359.766	354.24
360.148	345.2
360.53	367.35
360.912	315.37
361.294	307.92
361.676	320.8
362.057	337.07
362.439	324.64
362.821	324.64
363.203	321.47
363.584	307.24
363.966	307.92
364.348	303.85
364.729	324.19
365.111	322.6
365.493	318.99
365.874	310.4
366.256	313.11
366.637	299.33
367.019	301.14
367.4	312.89
367.781	303.4
368.163	307.01
368.544	295.49
368.925	305.2
369.306	323.51
369.688	318.31
370.069	308.59
370.45	296.39
370.831	320.34
371.212	308.37
371.593	301.59
371.974	284.87
372.355	315.83
372.736	326.67
373.117	314.7
373.498	305.2
373.879	309.72
374.26	324.64
374.641	315.37
375.021	322.83
375.402	324.64
375.783	314.24
376.163	307.69
376.544	306.79
376.925	303.4
377.305	323.51
377.686	331.42
378.066	314.24
378.447	299.78
378.827	306.33
379.208	302.94
379.588	339.1
379.968	322.83
380.349	333.23
380.729	299.78
381.109	320.57
381.489	313.11
381.87	310.18
382.25	320.12
382.63	319.44
383.01	333.68
383.39	337.97
383.77	342.04
384.15	316.5
384.53	326.9
384.91	322.83
385.29	323.06
385.67	321.7
386.049	329.61
386.429	312.21
386.809	335.03
387.189	343.62
387.568	342.04
387.948	333
388.328	362.15
388.707	342.49
389.087	343.85
389.466	349.72
389.846	322.38
390.225	358.76
390.605	349.27
390.984	346.56
391.363	357.41
391.743	329.16
392.122	323.06
392.501	347.46
392.881	347.69
393.26	358.08
393.639	355.82
394.018	367.12
394.397	372.77
394.776	351.53
395.155	354.02
395.534	352.43
395.913	357.41
396.292	357.18
396.671	346.11
397.05	346.56
397.429	358.31
397.808	350.4
398.186	340.01
398.565	354.69
398.944	358.76
399.323	355.82
399.701	365.09
400.08	363.06
400.458	363.28
400.837	373.22
401.215	358.31
401.594	344.52
401.972	374.35
402.351	365.09
402.729	358.99
403.107	364.41
403.486	360.12
403.864	356.5
404.242	358.76
404.62	376.39
404.999	396.73
405.377	373.68
405.755	369.38
406.133	382.49
406.511	376.61
406.889	393.11
407.267	385.2
407.645	378.65
408.023	400.34
408.401	392.89
408.779	397.4
409.156	394.92
409.534	398.31
409.912	398.31
410.29	402.38
410.667	401.25
411.045	411.64
411.422	413.45
411.8	430.62
412.178	403.73
412.555	429.95
412.933	402.15
413.31	410.74
413.687	415.26
414.065	435.37
414.442	421.81
414.819	435.37
415.197	436.73
415.574	415.71
415.951	437.18
416.328	441.92
416.705	414.81
417.082	440.34
417.46	436.95
417.837	409.83
418.214	420.23
418.591	429.49
418.967	451.19
419.344	442.15
419.721	444.86
420.098	427.01
420.475	425.43
420.852	446.22
421.228	445.54
421.605	448.93
421.982	453.45
422.358	423.17
422.735	464.3
423.111	460.23
423.488	452.77
423.864	467.46
424.241	480.79
424.617	467.91
424.994	472.66
425.37	483.96
425.746	472.66
426.123	484.41
426.499	459.32
426.875	507.23
427.251	488.25
427.627	473.34
428.003	492.54
428.379	482.37
428.756	462.26
429.132	492.09
429.507	499.32
429.883	489.38
430.259	493.45
430.635	493.22
431.011	496.61
431.387	494.35
431.763	498.65
432.138	507.91
432.514	512.66
432.89	532.54
433.265	503.16
433.641	515.14
434.016	528.47
434.392	518.76
434.767	526.21
435.143	528.02
435.518	527.12
435.894	529.15
436.269	532.99
436.644	536.38
437.02	558.3
437.395	569.38
437.77	552.43
438.145	557.63
438.52	554.01
438.895	557.4
439.271	584.29
439.646	556.72
440.021	566.67
440.395	579.77
440.77	577.29
441.145	588.81
441.52	572.32
441.895	594.46
442.27	579.77
442.645	585.87
443.019	596.27
443.394	605.99
443.769	603.5
444.143	612.54
444.518	602.37
444.892	594.46
445.267	585.87
445.641	598.08
446.016	600.34
446.39	637.4
446.764	613.22
447.139	601.02
447.513	607.79
447.887	636.72
448.262	652.77
448.636	613.22
449.01	623.39
449.384	630.84
449.758	615.25
450.132	623.16
450.506	625.87
450.88	671.97
451.254	667
451.628	666.1
452.002	679.66
452.376	650.28
452.75	650.28
453.123	648.92
453.497	661.13
453.871	664.97
454.244	674.69
454.618	669.26
454.992	673.56
455.365	672.65
455.739	695.7
456.112	681.92
456.486	686.66
456.859	684.18
457.232	709.71
457.606	716.04
457.979	705.65
458.352	706.55
458.725	728.47
459.099	723.72
459.472	727.11
459.845	706.78
460.218	723.95
460.591	735.7
460.964	728.02
461.337	757.4
461.71	759.66
462.083	744.51
462.456	769.15
462.829	759.2
463.201	775.93
463.574	769.37
463.947	805.98
464.32	783.84
464.692	802.14
465.065	821.35
465.438	818.64
465.81	812.08
466.183	815.02
466.555	823.83
466.928	830.39
467.3	828.81
467.672	846.21
468.045	834.68
468.417	871.52
468.789	883.95
469.161	869.03
469.534	877.62
469.906	900.22
470.278	878.75
470.65	892.53
471.022	916.94
471.394	896.83
471.766	932.98
472.138	940.22
472.51	946.09
472.882	963.27
473.253	948.58
473.625	978.41
473.997	1002.36
474.369	960.33
474.74	987.67
475.112	1017.95
475.484	1019.76
475.855	1025.64
476.227	1040.55
476.598	1048.69
476.97	1054.11
477.341	1088.23
477.713	1087.56
478.084	1114.9
478.455	1101.12
478.827	1132.07
479.198	1129.36
479.569	1155.58
479.94	1137.27
480.311	1188.34
480.682	1169.14
481.053	1232.41
481.424	1227.21
481.795	1243.48
482.166	1261.56
482.537	1248.23
482.908	1301.79
483.279	1294.1
483.65	1290.49
484.021	1304.73
484.391	1324.61
484.762	1361.67
485.133	1342.24
485.503	1382.24
485.874	1399.19
486.244	1412.52
486.615	1423.82
486.985	1413.88
487.356	1434.89
487.726	1468.56
488.097	1531.84
488.467	1511.95
488.837	1509.01
489.207	1532.29
489.578	1539.75
489.948	1544.95
490.318	1551.72
490.688	1611.84
491.058	1642.34
491.428	1631.04
491.798	1650.25
492.168	1668.33
492.538	1668.78
492.908	1702.23
493.278	1720.08
493.648	1739.74
494.017	1770.25
494.387	1723.47
494.757	1734.54
495.126	1766.86
495.496	1758.72
495.866	1813.64
496.235	1818.16
496.605	1837.82
496.974	1820.19
497.344	1876.01
497.713	1854.09
498.082	1877.14
498.452	1883.24
498.821	1886.18
499.19	1938.16
499.559	1913.75
499.928	1913.98
500.298	1944.93
500.667	1940.42
501.036	1985.39
501.405	1981.54
501.774	1999.4
502.143	2031.26
502.512	2036.68
502.88	2017.7
503.249	2045.72
503.618	2027.87
503.987	2078.49
504.356	2104.03
504.724	2112.84
505.093	2121.2
505.462	2133.63
505.83	2120.07
506.199	2142.67
506.567	2167.53
506.936	2148.09
507.304	2190.13
507.672	2185.38
508.041	2191.26
508.409	2253.4
508.777	2260.18
509.145	2252.05
509.514	2250.24
509.882	2264.93
510.25	2301.08
510.618	2280.07
510.986	2335.43
511.354	2330.69
511.722	2330.46
512.09	2368.43
512.458	2407.52
512.826	2402.1
513.193	2419.95
513.561	2376.56
513.929	2428.76
514.297	2457.92
514.664	2477.12
515.032	2499.27
515.4	2495.2
515.767	2484.13
516.135	2508.99
516.502	2519.61
516.869	2553.28
517.237	2555.54
517.604	2594.64
517.972	2607.52
518.339	2600.74
518.706	2609.55
519.073	2658.81
519.44	2626.95
519.808	2684.35
520.175	2703.11
520.542	2696.78
520.909	2715.08
521.276	2738.36
521.643	2779.72
522.009	2751.92
522.376	2807.96
522.743	2812.26
523.11	2855.87
523.477	2878.24
523.843	2875.98
524.21	2929.32
524.577	2937.68
524.943	2954.85
525.31	2968.86
525.676	3009.99
526.043	3037.56
526.409	3028.52
526.776	3039.82
527.142	3081.63
527.508	3095.86
527.874	3156.2
528.241	3128.41
528.607	3147.61
528.973	3158.24
529.339	3191.68
529.705	3221.74
530.071	3232.13
530.437	3233.71
530.803	3260.38
531.169	3282.98
531.535	3319.81
531.901	3343.54
532.267	3305.8
532.632	3369.08
532.998	3361.39
533.364	3378.12
533.73	3414.05
534.095	3485.01
534.461	3448.4
534.826	3492.24
535.192	3468.96
535.557	3503.54
535.923	3535.4
536.288	3553.93
536.653	3576.08
537.019	3573.37
537.384	3583.99
537.749	3571.78
538.114	3567.04
538.479	3552.35
538.845	3625.79
539.21	3657.88
539.575	3649.3
539.94	3691.56
540.305	3696.75
540.67	3718.67
541.034	3759.12
541.399	3756.19
541.764	3779.01
542.129	3779.01
542.494	3789.41
542.858	3814.49
543.223	3833.7
543.587	3826.24
543.952	3836.41
544.316	3877.77
544.681	3853.13
545.045	3906.24
545.41	3945.33
545.774	3968.84
546.138	3935.16
546.503	3968.16
546.867	3968.38
547.231	3991.21
547.595	4035.28
547.959	4002.73
548.324	4015.61
548.688	4050.19
549.052	4090.42
549.416	4108.95
549.779	4106.69
550.143	4151.66
550.507	4173.12
550.871	4191.2
551.235	4222.16
551.599	4241.82
551.962	4290.64
552.326	4273.46
552.689	4320.47
553.053	4289.28
553.417	4322.73
553.78	4356.4
554.143	4390.29
554.507	4412.21
554.87	4440.91
555.234	4478.43
555.597	4448.82
555.96	4488.82
556.323	4530.4
556.686	4614.02
557.05	4616.73
557.413	4607.92
557.776	4636.16
558.139	4690.17
558.502	4716.61
558.865	4698.08
559.228	4744.18
559.59	4832.32
559.953	4797.52
560.316	4879.55
560.679	4878.42
561.041	4921.35
561.404	4964.29
561.767	4992.54
562.129	5009.71
562.492	5131.07
562.854	5164.51
563.217	5112.08
563.579	5174.91
563.941	5223.27
564.304	5282.47
564.666	5318.86
565.028	5364.28
565.39	5394.34
565.753	5453.32
566.115	5486.08
566.477	5559.3
566.839	5564.95
567.201	5609.92
567.563	5693.31
567.925	5719.98
568.287	5727.89
568.648	5783.25
569.01	5818.51
569.372	5925.4
569.734	5932.63
570.095	6024.38
570.457	6047.2
570.819	6169.46
571.18	6137.82
571.542	6251.04
571.903	6262.79
572.265	6293.07
572.626	6365.16
572.987	6400.18
573.349	6474.99
573.71	6538.26
574.071	6626.85
574.432	6678.6
574.794	6765.37
575.155	6806.95
575.516	6929.21
575.877	6961.98
576.238	6985.03
576.599	7041.07
576.96	7062.31
577.32	7187.06
577.681	7278.13
578.042	7370.78
578.403	7464.79
578.763	7529.65
579.124	7620.49
579.485	7715.86
579.845	7807.83
580.206	7864.78
580.566	7973.25
580.927	8097.77
581.287	8245.79
581.648	8240.59
582.008	8394.48
582.368	8483.07
582.728	8572.11
583.089	8699.56
583.449	8808.03
583.809	8964.19
584.169	9078.08
584.529	9204.4
584.889	9368.69
585.249	9458.18
585.609	9589.03
585.969	9775.69
586.329	9897.72
586.688	10060.88
587.048	10135.45
587.408	10278.27
587.768	10502
588.127	10671.94
588.487	10827.87
588.846	11127.07
589.206	11193.73
589.565	11426.27
589.925	11591.23
590.284	11718.46
590.643	11998.46
591.003	12230.09
591.362	12491.78
591.721	12680.02
592.08	12890.18
592.44	13053.12
592.799	13348.25
593.158	13622.14
593.517	13877.95
593.876	14096.48
594.235	14278.62
594.593	14608.78
594.952	14851.94
595.311	15116.79
595.67	15361.31
596.029	15683.1
596.387	15959.71
596.746	16282.41
597.104	16465.23
597.463	16770.53
597.822	17125.33
598.18	17213.01
598.538	17457.97
598.897	17944.51
599.255	18083.95
599.613	18605.97
599.972	18893.64
600.33	19101.77
600.688	19345.61
601.046	19788.08
601.404	20048.64
601.762	20280.72
602.12	20713.71
602.478	20885.68
602.836	21280.92
603.194	21440.02
603.552	21793.68
603.91	22017.4
604.268	22350.95
604.625	22534.9
604.983	22969.01
605.341	23267.54
605.698	23488.55
606.056	23805.6
606.413	23919.27
606.771	24302.76
607.128	24599.03
607.485	24726.03
607.843	25082.63
608.2	25327.6
608.557	25729.17
608.914	25848.26
609.272	26226.1
609.629	26495.02
609.986	26712.87
610.343	26848.01
610.7	27263.37
611.057	27392.63
611.414	27449.57
611.771	27787.42
612.127	28050.01
612.484	28281.19
612.841	28522.32
613.198	28673.95
613.554	28801.4
613.911	29048.63
614.267	29196.87
614.624	29400.94
614.98	29695.62
615.337	29816.07
615.693	29954.14
616.05	30128.83
616.406	30501.92
616.762	30345.32
617.118	30660.79
617.475	30835.47
617.831	31057.16
618.187	31124.96
618.543	31335.12
618.899	31641.1
619.255	31773.98
619.611	31684.27
619.967	31973.07
620.323	32106.63
620.678	32200.18
621.034	32142.11
621.39	32258.49
621.746	32289
622.101	32725.82
622.457	32588.65
622.812	32806.04
623.168	33071.12
623.523	33141.63
623.879	33388.63
624.234	33158.58
624.589	33407.16
624.945	33570.09
625.3	33630.2
625.655	33551.11
626.01	33743.65
626.365	33798.56
626.72	33795.17
627.075	33851.21
627.43	33967.14
627.785	33800.37
628.14	34091.21
628.495	34291.65
628.85	34195.16
629.205	34150.42
629.559	34424.98
629.914	34346.79
630.269	34416.85
630.623	34408.04
630.978	34257.08
631.332	34586.34
631.687	34577.97
632.041	34545.66
632.396	34608.48
632.75	34639.22
633.104	34620.69
633.459	34577.75
633.813	34540.46
634.167	34686.22
634.521	34609.61
634.875	34702.72
635.229	34849.15
635.583	34637.86
635.937	34582.95
636.291	34623.17
636.645	34650.06
636.999	34772.77
637.352	34781.36
637.706	34572.78
638.06	34793.34
638.413	34790.62
638.767	34634.24
639.121	34732.55
639.474	34633.57
639.828	34692.55
640.181	34645.77
640.534	34810.06
640.888	34594.7
641.241	34557.64
641.594	34724.19
641.947	34839.66
642.301	34686.67
642.654	34700.91
643.007	34682.15
643.36	34743.62
643.713	34802.6
644.066	34819.32
644.419	34645.32
644.771	34417.53
645.124	34068.16
645.477	33927.14
645.83	33796.3
646.182	33750.65
646.535	33766.7
646.888	34027.26
647.24	33857.77
647.593	33927.14
647.945	33954.26
648.298	33832.46
648.65	33689.64
649.002	33812.8
649.355	33842.63
649.707	33749.97
650.059	33935.96
650.411	34313.35
650.763	34441.71
651.115	34788.14
651.467	34670.18
651.819	34606.22
652.171	34573.68
652.523	34542.27
652.875	34434.25
653.227	34439.22
653.578	34613
653.93	34575.94
654.282	34430.63
654.633	34450.07
654.985	34503.85
655.337	34561.25
655.688	34469.28
656.039	34563.06
656.391	34325.55
656.742	34371.43
657.094	34401.93
657.445	34540.69
657.796	34573.23
658.147	34396.06
658.498	34330.98
658.849	34392.44
659.2	34478.77
659.551	34295.95
659.902	34501.82
660.253	34356.51
660.604	34485.55
660.955	34201.26
661.306	34514.93
661.656	34415.95
662.007	34394.48
662.358	34422.72
662.708	34467.92
663.059	34459.11
663.409	34184.09
663.76	34606
664.11	34500.46
664.461	34514.93
664.811	34523.51
665.161	34485.32
665.511	34320.58
665.862	34437.87
666.212	34499.78
666.562	34487.13
666.912	34450.52
667.262	34568.71
667.612	34335.27
667.962	34558.31
668.312	34418.21
668.662	34505.66
669.011	34536.17
669.361	34474.47
669.711	34469.28
670.06	34290.52
670.41	34278.32
670.76	34293.24
671.109	34401.71
671.459	34388.83
671.808	34272.22
672.157	34295.04
672.507	34203.97
672.856	34232.45
673.205	34178.44
673.554	34424.98
673.904	34203.75
674.253	34312.9
674.602	34241.71
674.951	33705.46
675.3	33628.4
675.649	34150.64
675.998	34107.93
676.346	34036.97
676.695	34324.42
677.044	33918.78
677.393	33979.35
677.741	34161.49
678.09	34063.19
678.438	33918.78
678.787	34046.46
679.135	33866.36
679.484	33787.26
679.832	33908.61
680.181	33735.06
680.529	33898.67
680.877	33764.44
681.225	33752.23
681.573	33789.97
681.922	33730.31
682.27	33573.03
682.618	33648.51
682.966	33488.51
683.314	33585.68
683.661	33416.65
684.009	33277.22
684.357	33093.04
684.705	33074.96
685.053	33144.11
685.4	33207.84
685.748	33071.35
686.095	32957.68
686.443	32839.94
686.79	32827.74
687.138	33039.48
687.485	32798.13
687.832	32717.46
688.18	32799.26
688.527	32647.18
688.874	32609.67
689.221	32505.49
689.568	32489.67
689.915	32405.15
690.262	32351.59
690.609	32319.5
690.956	32081.77
691.303	32144.59
691.65	32088.77
691.997	32017.14
692.344	31901.44
692.69	31882.23
693.037	31802.45
693.383	31554.78
693.73	31682.46
694.077	31511.84
694.423	31506.87
694.769	31451.28
695.116	31441.56
695.462	31302.13
695.808	31170.38
696.155	31244.28
696.501	30981.46
696.847	31047.67
697.193	30805.64
697.539	30859.88
697.885	30597.29
698.231	30671.41
698.577	30693.11
698.923	30565.88
699.269	30452.66
699.614	30369.27
699.96	30258.54
700.306	30291.08
700.651	30092.67
700.997	30018.55
701.342	29994.59
701.688	30005.89
702.033	29817.42
702.379	29845.22
702.724	29686.13
703.069	29800.25
703.415	29501.27
703.76	29546.92
704.105	29588.5
704.45	29395.96
704.795	29367.04
705.14	29243.43
705.485	29226.03
705.83	29095.18
706.175	29123.66
706.52	29119.36
706.865	28989.87
707.209	28946.26
707.554	28892.25
707.899	28822.42
708.243	28686.15
708.588	28679.82
708.932	28395.99
709.277	28420.85
709.621	28538.36
709.966	28330.23
710.31	28310.34
710.654	28042.1
710.998	28085.04
711.342	28270.34
711.687	28021.54
712.031	27955.32
712.375	27947.64
712.719	27926.17
713.063	27757.82
713.407	27951.03
713.75	27808.89
714.094	27791.26
714.438	27808.44
714.782	27782.45
715.125	27514.88
715.469	27762.11
715.812	27427.65
716.156	27354.21
716.499	27339.52
716.843	27344.27
717.186	27178.4
717.53	27364.83
717.873	27271.73
718.216	27181.56
718.559	27095.91
718.902	26900.66
719.246	26905.18
719.589	26953.77
719.932	26828.12
720.275	26865.64
720.617	26827.67
720.96	26817.05
721.303	26702.7
721.646	26702.02
721.989	26703.15
722.331	26644.85
722.674	26682.82
723.016	26686.43
723.359	26548.81
723.701	26563.5
724.044	26415.03
724.386	26243.5
724.729	26386.1
725.071	26293.45
725.413	26282.37
725.755	26284.86
726.097	26166.44
726.439	26110.85
726.782	26094.81
727.124	26074.92
727.465	25926.68
727.807	25950.63
728.149	25978.43
728.491	25895.94
728.833	25909.5
729.175	25763.74
729.516	25759.68
729.858	25731.2
730.199	25823.18
730.541	25607.82
730.882	25735.5
731.224	25724.42
731.565	25550.19
731.906	25599
732.248	25576.86
732.589	25543.64
732.93	25357.43
733.271	25416.63
733.612	25366.01
733.953	25351.32
734.294	25321.04
734.635	25317.43
734.976	25300.7
735.317	25287.37
735.658	25227.03
735.999	25119.24
736.339	25048.73
736.68	25198.33
737.021	25106.36
737.361	24974.84
737.702	25087.83
738.042	25066.81
738.383	24957.66
738.723	24973.48
739.063	24936.42
739.404	25057.32
739.744	24891.68
740.084	24822.53
740.424	24764.67
740.764	24797.67
741.104	24775.75
741.444	24512.48
741.784	24662.08
742.124	24651.68
742.464	24703.43
742.804	24561.29
743.143	24610.78
743.483	24557.22
743.823	24396.1
744.162	24418.47
744.502	24457.34
744.841	24317.23
745.181	24404.91
745.52	24232.26
745.86	24298.02
746.199	24239.72
746.538	24273.39
746.877	24242.2
747.216	24225.25
747.556	24225.25
747.895	24225.93
748.234	24060.74
748.573	23952.94
748.911	23998.82
749.25	24081.53
749.589	23948.88
749.928	23906.84
750.267	23944.58
750.605	23922.21
750.944	23878.37
751.283	23806.51
751.621	23835.43
751.96	23711.82
752.298	23630.69
752.636	23736.23
752.975	23697.36
753.313	23453.97
753.651	23598.15
753.989	23416.23
754.327	23540.75
754.666	23298.72
755.004	23324.26
755.342	23318.16
755.679	23257.14
756.017	23072.97
756.355	23239.29
756.693	23046.53
757.031	23119.75
757.368	22999.75
757.706	22903.71
758.044	22918.17
758.381	22910.49
758.719	22801.34
759.056	22876.14
759.394	22718.17
759.731	22653.77
760.068	22634.56
760.405	22566.54
760.743	22533.09
761.08	22509.37
761.417	22468.91
761.754	22375.81
762.091	22348.01
762.428	22204.74
762.765	22076.38
763.102	22129.04
763.438	22004.29
763.775	21973.33
764.112	21934.69
764.449	21974.69
764.785	21851.98
765.122	21681.59
765.458	21562.27
765.795	21634.36
766.131	21619.45
766.467	21500.8
766.804	21291.77
767.14	21277.76
767.476	21238.89
767.812	21196.41
768.148	21160.93
768.485	21089.97
768.821	20995.06
769.157	21025.34
769.492	20996.41
769.828	20956.86
770.164	20759.81
770.5	20723.65
770.836	20643.2
771.171	20638.45
771.507	20567.04
771.842	20307.39
772.178	20340.38
772.513	20300.38
772.849	20243.21
773.184	20252.25
773.519	20211.12
773.855	20062.2
774.19	19929.77
774.525	19906.72
774.86	19922.77
775.195	19890
775.53	19766.84
775.865	19676.9
776.2	19479.39
776.535	19499.95
776.87	19375.66
777.205	19397.58
777.539	19255.67
777.874	19272.84
778.209	19131.6
778.543	19108.33
778.878	19056.8
779.212	18906.52
779.547	18951.95
779.881	18844.15
780.215	18695
780.55	18739.75
780.884	18638.28
781.218	18645.96
781.552	18601.67
781.886	18460.21
782.22	18376.59
782.554	18395.8
782.888	18220.66
783.222	18154.9
783.556	18134.34
783.889	18004.17
784.223	17905.65
784.557	17857.96
784.89	17893.89
785.224	17786.33
785.557	17729.38
785.891	17684.86
786.224	17650.96
786.558	17576.84
786.891	17473.79
787.224	17375.49
787.557	17374.81
787.891	17358.77
788.224	17302.27
788.557	17353.34
788.89	17188.38
789.223	17085.1
789.556	17002.84
789.888	16979.57
790.221	16844.66
790.554	16900.02
790.887	16773.47
791.219	16699.12
791.552	16633.81
791.884	16641.05
792.217	16554.49
792.549	16569.41
792.882	16301.62
793.214	16282.64
793.546	16348.17
793.879	16237.89
794.211	16246.71
794.543	16192.7
794.875	16115.18
795.207	16154.28
795.539	16060.04
795.871	16015.98
796.203	15934.85
796.535	15902.99
796.867	15840.16
797.198	15701.18
797.53	15769.88
797.862	15694.18
798.193	15745.93
798.525	15512.26
798.856	15580.96
799.188	15420.96
799.519	15464.35
799.85	15325.37
800.182	15378.48
800.513	15311.36
800.844	15190.24
801.175	15290.8
801.506	15276.11
801.837	15096
802.168	15089.45
802.499	15112.05
802.83	14960.19
803.161	14962.45
803.491	14934.42
803.822	14876.57
804.153	14830.7
804.483	14771.04
804.814	14714.77
805.145	14625.96
805.475	14601.1
805.805	14578.05
806.136	14631.61
806.466	14588.44
806.796	14509.8
807.126	14448.11
807.457	14426.64
807.787	14348.68
808.117	14309.13
808.447	14254.89
808.777	14241.33
809.107	14206.31
809.436	14152.07
809.766	14239.53
810.096	14059.42
810.426	14094.45
810.755	14065.07
811.085	14037.95
811.414	13950.95
811.744	13832.08
812.073	13898.29
812.403	13875.24
812.732	13822.36
813.061	13844.28
813.39	13706.43
813.719	13691.29
814.049	13726.55
814.378	13696.26
814.707	13534.01
815.036	13538.3
815.365	13500.34
815.693	13407.91
816.022	13463.28
816.351	13341.7
816.68	13441.58
817.008	13412.43
817.337	13148.48
817.665	13233.68
817.994	13282.26
818.322	13210.63
818.651	13162.27
818.979	13146.9
819.307	13254.69
819.636	13088.14
819.964	13059.67
820.292	13037.98
820.62	13122.95
820.948	12988.03
821.276	12960.24
821.604	13035.72
821.932	13088.82
822.259	13061.03
822.587	12925.89
822.915	12946.45
823.243	13046.79
823.57	12858.32
823.898	12935.83
824.225	12941.26
824.553	12882.5
824.88	12947.36
825.207	13009.73
825.535	12916.4
825.862	12974.93
826.189	12936.74
826.516	12972.44
826.843	13069.39
827.17	13034.59
827.497	12985.1
827.824	12973.12
828.151	12995.49
828.478	12945.55
828.805	13026
829.131	12932.44
829.458	12878.66
829.785	12861.48
830.111	12879.56
830.438	12932.22
830.764	12991.42
831.09	12889.73
831.417	12877.53
831.743	12895.16
832.069	12943.97
832.395	12852.22
832.722	12855.61
833.048	12854.25
833.374	12925.89
833.7	12814.93
834.026	12840.69
834.351	12886.12
834.677	12856.06
835.003	12825.78
835.329	12869.39
835.654	12819.68
835.98	12767.48
836.306	12764.99
836.631	12660.81
836.956	12751.66
837.282	12701.49
837.607	12551.21
837.932	12608.16
838.258	12636.18
838.583	12648.16
838.908	12605.22
839.233	12517.09
839.558	12590.76
839.883	12513.24
840.208	12576.97
840.533	12421.72
840.858	12445.68
841.182	12505.34
841.507	12444.32
841.832	12395.51
842.156	12392.8
842.481	12362.51
842.805	12342.4
843.13	12298.33
843.454	12235.51
843.778	12251.1
844.103	12278
844.427	12133.14
844.751	12247.49
845.075	12135.4
845.399	12019.25
845.723	12027.38
846.047	12029.64
846.371	11871.91
846.695	11956.65
847.019	11885.01
847.343	11729.08
847.666	11674.17
847.99	11725.02
848.313	11693.38
848.637	11606.83
848.96	11617.67
849.284	11542.65
849.607	11468.98
849.931	11463.33
850.254	11373.61
850.577	11322.54
850.9	11287.74
851.223	11268.76
851.546	11134.3
851.869	11105.6
852.192	11198.93
852.515	11007.97
852.838	10999.39
853.161	11023.79
853.483	10908.54
853.806	10917.81
854.129	10923
854.451	10911.25
854.774	10745.83
855.096	10876.9
855.419	10729.11
855.741	10740.86
856.063	10729.34
856.385	10680.52
856.708	10552.84
857.03	10609.57
857.352	10522.11
857.674	10579.51
857.996	10497.03
858.318	10426.29
858.64	10426.07
858.961	10432.17
859.283	10383.13
859.605	10359.18
859.926	10358.05
860.248	10392.17
860.57	10296.58
860.891	10254.77
861.212	10239.63
861.534	10165.96
861.855	10195.57
862.176	10123.02
862.498	10205.73
862.819	10186.75
863.14	10091.61
863.461	10093.42
863.782	10001.45
864.103	10019.98
864.424	9971.39
864.745	10030.82
865.065	10006.42
865.386	9941.33
865.707	9957.83
866.027	9969.13
866.348	9840.77
866.668	9920.09
866.989	9904.27
867.309	9825.63
867.63	9843.94
867.95	9890.94
868.27	9768.01
868.59	9834.22
868.91	9771.4
869.23	9770.49
869.55	9673.32
869.87	9756.25
870.19	9691.62
870.51	9651.85
870.83	9704.5
871.15	9753.54
871.469	9638.97
871.789	9698.63
872.109	9609.59
872.428	9526.66
872.748	9608.91
873.067	9533.44
873.386	9554.68
873.706	9522.59
874.025	9531.63
874.344	9518.97
874.663	9545.19
874.982	9485.08
875.301	9481.91
875.62	9431.74
875.939	9514.91
876.258	9419.99
876.577	9452.76
876.896	9365.3
877.214	9369.82
877.533	9380.22
877.852	9387
878.17	9365.08
878.489	9432.65
878.807	9338.86
879.125	9324.63
879.444	9331.86
879.762	9280.34
880.08	9241.47
880.398	9287.79
880.716	9249.38
881.034	9172.09
881.352	9255.7
881.67	9141.81
881.988	9195.59
882.306	9143.62
882.624	9167.57
882.941	9141.81
883.259	9051.87
883.577	9013.22
883.894	9026.56
884.212	8986.78
884.529	9006.44
884.846	8954.24
885.164	8930.06
885.481	8925.77
885.798	8946.33
886.115	8823.4
886.432	8807.35
886.75	8791.76
887.067	8837.63
887.383	8787.69
887.7	8822.49
888.017	8821.14
888.334	8723.29
888.651	8732.78
888.967	8715.6
889.284	8636.06
889.6	8647.81
889.917	8590.41
890.233	8589.51
890.55	8555.83
890.866	8576.85
891.182	8588.6
891.498	8535.72
891.815	8450.3
892.131	8484.88
892.447	8408.04
892.763	8406.69
893.079	8420.02
893.395	8372.56
893.71	8363.97
894.026	8355.16
894.342	8290.53
894.657	8230.19
894.973	8248.95
895.289	8221.38
895.604	8193.81
895.92	8100.25
896.235	8095.51
896.55	8113.13
896.865	8043.53
897.181	8034.94
897.496	8013.02
897.811	8019.13
898.126	7963.53
898.441	7903.65
898.756	7907.04
899.071	7843.08
899.386	7898.22
899.7	7741.39
900.015	7774.39
900.33	7700.72
900.644	7699.81
900.959	7773.03
901.273	7627.05
901.588	7649.42
901.902	7590.66
902.216	7598.8
902.531	7585.46
902.845	7576.65
903.159	7545.69
903.473	7515.86
903.787	7468.41
904.101	7393.15
904.415	7457.56
904.729	7365.13
905.042	7347.96
905.356	7346.15
905.67	7300.5
905.984	7336.43
906.297	7314.06
906.611	7196.32
906.924	7187.96
907.237	7099.83
907.551	7073.16
907.864	7140.5
908.177	7108.41
908.491	7058.47
908.804	7064.8
909.117	6979.83
909.43	6959.94
909.743	6920.4
910.056	6940.96
910.368	6832.26
910.681	6878.14
910.994	6828.87
911.307	6792.04
911.619	6778.25
911.932	6785.26
912.244	6673.85
912.557	6714.3
912.869	6639.05
913.181	6671.36
913.494	6612.38
913.806	6548.66
914.118	6545.72
914.43	6536
914.742	6503.68
915.054	6471.6
915.366	6479.05
915.678	6399.51
915.99	6425.72
916.302	6367.64
916.613	6325.84
916.925	6324.71
917.236	6289.23
917.548	6255.33
917.859	6230.7
918.171	6250.13
918.482	6223.01
918.794	6179.85
919.105	6166.74
919.416	6112.06
919.727	6106.63
920.038	6097.59
920.349	6087.65
920.66	6036.35
920.971	6000.65
921.282	6020.99
921.593	5938.95
921.903	5887.2
922.214	5867.77
922.525	5918.62
922.835	5797.94
923.146	5818.28
923.456	5809.92
923.767	5770.37
924.077	5743.7
924.387	5706.42
924.697	5710.94
925.008	5694.89
925.318	5665.51
925.628	5658.28
925.938	5611.28
926.248	5605.86
926.558	5542.35
926.867	5543.26
927.177	5512.07
927.487	5474.33
927.796	5439.98
928.106	5402.02
928.416	5405.63
928.725	5403.6
929.034	5366.09
929.344	5415.8
929.653	5381.68
929.962	5315.24
930.271	5268.69
930.581	5268.01
930.89	5292.42
931.199	5222.36
931.508	5153.89
931.817	5216.94
932.125	5153.89
932.434	5160.67
932.743	5112.08
933.051	5047.9
933.36	5037.73
933.669	5012.88
933.977	4974.01
934.286	4998.87
934.594	4971.75
934.902	4913.44
935.21	4937.17
935.519	4929.72
935.827	4837.06
936.135	4846.1
936.443	4817.63
936.751	4795.48
937.059	4804.52
937.367	4826.67
937.674	4776.05
937.982	4728.59
938.29	4715.48
938.597	4796.61
938.905	4691.08
939.213	4657.41
939.52	4657.86
939.827	4585.77
940.135	4571.08
940.442	4571.76
940.749	4537.41
941.056	4575.15
941.363	4534.47
941.67	4546.22
941.977	4477.3
942.284	4409.73
942.591	4430.07
942.898	4432.1
943.205	4416.96
943.511	4374.93
943.818	4374.02
944.125	4364.08
944.431	4337.41
944.738	4304.87
945.044	4325.66
945.35	4302.84
945.657	4209.51
945.963	4214.71
946.269	4226.68
946.575	4224.87
946.881	4190.53
947.187	4198.89
947.493	4185.55
947.799	4146.23
948.105	4108.04
948.41	4083.64
948.716	4106.69
949.022	4060.81
949.327	4077.53
949.633	4059.91
949.938	4043.18
950.244	4044.54
950.549	3983.3
950.854	3941.04
951.16	3943.75
951.465	3919.35
951.77	3899.46
952.075	3886.58
952.38	3864.66
952.685	3855.39
952.99	3814.72
953.294	3831.21
953.599	3829.63
953.904	3806.58
954.209	3821.27
954.513	3789.18
954.818	3783.76
955.122	3727.03
955.426	3751.44
955.731	3733.36
956.035	3694.04
956.339	3652.01
956.643	3671.22
956.948	3649.52
957.252	3680.93
957.556	3606.59
957.86	3639.58
958.163	3587.38
958.467	3572.24
958.771	3527.72
959.075	3512.13
959.378	3534.5
959.682	3515.29
959.985	3506.7
960.289	3475.97
960.592	3433.03
960.896	3434.84
961.199	3399.81
961.502	3420.15
961.805	3412.01
962.108	3345.58
962.411	3362.75
962.714	3328.63
963.017	3355.75
963.32	3340.6
963.623	3320.72
963.926	3311.45
964.228	3292.02
964.531	3290.66
964.833	3233.71
965.136	3259.48
965.438	3233.04
965.741	3228.97
966.043	3211.34
966.345	3191
966.648	3128.86
966.95	3129.54
967.252	3112.59
967.554	3122.53
967.856	3117.79
968.158	3087.5
968.46	3056.77
968.761	3074.17
969.063	3078.24
969.365	3057.22
969.666	3025.13
969.968	3063.32
970.269	3035.08
970.571	3012.7
970.872	3004.79
971.174	2964.12
971.475	2961.63
971.776	2929.54
972.077	2864.23
972.378	2920.73
972.679	2909.43
972.98	2906.49
973.281	2875.98
973.582	2869.88
973.883	2883.22
974.183	2829.21
974.484	2794.4
974.785	2824.01
975.085	2859.71
975.386	2822.65
975.686	2804.12
975.986	2784.91
976.287	2753.5
976.587	2740.62
976.887	2726.61
977.187	2740.85
977.487	2731.81
977.787	2736.1
978.087	2689.1
978.387	2680.73
978.687	2704.91
978.987	2645.48
979.286	2651.81
979.586	2650
979.885	2612.71
980.185	2581.75
980.484	2584.01
980.784	2566.84
981.083	2557.12
981.382	2579.72
981.682	2535.2
981.981	2582.21
982.28	2552.15
982.579	2508.08
982.878	2531.36
983.177	2481.42
983.475	2474.41
983.774	2487.52
984.073	2454.3
984.372	2418.37
984.67	2443.45
984.969	2432.38
985.267	2451.81
985.566	2422.66
985.864	2388.54
986.162	2367.07
986.461	2355.77
986.759	2365.04
987.057	2352.83
987.355	2370.69
987.653	2347.18
987.951	2316.45
988.249	2323.46
988.547	2301.54
988.844	2310.35
989.142	2311.25
989.44	2262.67
989.737	2287.98
990.035	2267.64
990.332	2245.72
990.63	2232.61
990.927	2216.79
991.224	2199.39
991.521	2208.88
991.819	2191.48
992.116	2201.43
992.413	2171.14
992.71	2166.4
993.006	2170.69
993.303	2158.49
993.6	2149.22
993.897	2119.62
994.193	2156.91
994.49	2113.97
994.787	2105.38
995.083	2094.31
995.379	2059.28
995.676	2088.43
995.972	2066.29
996.268	2037.59
996.565	2040.3
996.861	2030.36
997.157	2029.9
997.453	2020.41
997.749	1991.49
998.044	1977.93
998.34	1960.53
998.636	1954.88
998.932	1978.83
999.227	1916.01
999.523	1950.58
999.818	1938.38
1000.114	1912.17
1000.409	1918.49
1000.704	1911.04
1001	1899.51
1001.295	1867.65
1001.59	1926.86
1001.885	1858.84
1002.18	1825.62
1002.475	1835.33
1002.77	1832.62
1003.065	1819.29
1003.359	1802.11
1003.654	1790.14
1003.949	1791.04
1004.243	1762.57
1004.538	1741.32
1004.832	1782.23
1005.127	1742.23
1005.421	1757.6
1005.715	1735.22
1006.009	1718.05
1006.304	1734.77
1006.598	1691.83
1006.892	1694.32
1007.186	1694.55
1007.48	1676.69
1007.773	1673.76
1008.067	1647.32
1008.361	1644.6
1008.655	1644.6
1008.948	1600.54
1009.242	1659.07
1009.535	1630.59
1009.829	1570.71
1010.122	1572.74
1010.415	1595.11
1010.708	1562.57
1011.001	1566.41
1011.295	1562.12
1011.588	1564.61
1011.881	1526.64
1012.173	1574.1
1012.466	1536.81
1012.759	1482.12
1013.052	1489.13
1013.344	1502.46
1013.637	1487.32
1013.93	1509.69
1014.222	1501.56
1014.514	1452.29
1014.807	1456.59
1015.099	1432.86
1015.391	1464.95
1015.683	1419.07
1015.976	1424.04
1016.268	1443.03
1016.56	1423.14
1016.851	1399.41
1017.143	1389.7
1017.435	1382.92
1017.727	1363.48
1018.018	1366.42
1018.31	1356.7
1018.602	1348.79
1018.893	1345.63
1019.185	1305.4
1019.476	1335.01
1019.767	1315.57
1020.058	1309.47
1020.35	1302.24
1020.641	1308.34
1020.932	1260.66
1021.223	1281.45
1021.514	1249.59
1021.804	1250.49
1022.095	1245.97
1022.386	1245.74
1022.677	1235.8
1022.967	1232.86
1023.258	1229.47
1023.548	1203.03
1023.839	1205.75
1024.129	1199.19
1024.419	1193.32
1024.709	1205.75
1025	1177.5
1025.29	1169.14
1025.58	1169.36
1025.87	1151.74
1026.16	1163.94
1026.449	1143.83
1026.739	1130.94
1027.029	1132.98
1027.319	1118.52
1027.608	1117.61
1027.898	1129.81
1028.187	1086.65
1028.477	1095.69
1028.766	1084.84
1029.055	1078.52
1029.344	1090.95
1029.634	1070.61
1029.923	1056.82
1030.212	1058.4
1030.501	1022.25
1030.79	1039.2
1031.078	1027.22
1031.367	999.2
1031.656	1022.93
1031.945	1013.89
1032.233	1002.36
1032.522	1006.2
1032.81	971.85
1033.099	997.39
1033.387	967.79
1033.675	993.32
1033.963	979.54
1034.251	951.74
1034.54	959.2
1034.828	920.33
1035.116	940.67
1035.403	964.85
1035.691	947.9
1035.979	928.46
1036.267	935.92
1036.554	926.88
1036.842	917.84
1037.129	925.53
1037.417	900.67
1037.704	883.04
1037.992	888.92
1038.279	862.03
1038.566	908.8
1038.853	908.8
1039.14	908.8
