Data from red_shiny_book_FLMS001491_00075.txt Node
Date: Wed Feb 08 15:25:21 GMT 2017
User: dcchb
Spectrometer: FLMS00149
Trigger mode: 0
Integration Time (sec): 2.000000E-2
Scans to average: 10
Electric dark correction enabled: true
Nonlinearity correction enabled: false
Boxcar width: 0
XAxis mode: Wavelengths
Number of Pixels in Spectrum: 2048
>>>>>Begin Spectral Data<<<<<
341.393	-4.72
341.776	-4.72
342.16	-4.72
342.543	-58.5
342.927	-57.37
343.31	-80.65
343.693	-66.18
344.077	-72.96
344.46	-67.99
344.843	-48.78
345.226	-27.77
345.61	-42.23
345.993	-20.54
346.376	-8.33
346.759	14.04
347.142	35.28
347.525	33.7
347.908	72.79
348.291	86.13
348.674	97.88
349.057	95.62
349.44	132
349.823	139.01
350.206	160.48
350.588	195.96
350.971	209.06
351.354	226.69
351.737	265.56
352.119	252.45
352.502	271.21
352.884	272.79
353.267	305.1
353.65	293.58
354.032	310.75
354.414	306.46
354.797	322.51
355.179	305.1
355.562	317.76
355.944	314.37
356.326	332.45
356.709	344.88
357.091	343.75
357.473	329.51
357.855	326.8
358.238	340.13
358.62	321.83
359.002	330.42
359.384	341.49
359.766	349.85
360.148	327.93
360.53	339.23
360.912	322.28
361.294	329.74
361.676	333.58
362.057	332.67
362.439	309.85
362.821	325.22
363.203	329.29
363.584	328.16
363.966	340.13
364.348	323.41
364.729	315.95
365.111	325.67
365.493	334.26
365.874	322.28
366.256	329.29
366.637	308.95
367.019	319.79
367.4	317.99
367.781	297.65
368.163	305.78
368.544	298.78
368.925	321.15
369.306	324.31
369.688	313.47
370.069	315.5
370.45	325.67
370.831	322.51
371.212	313.24
371.593	300.59
371.974	329.96
372.355	317.53
372.736	314.37
373.117	330.19
373.498	320.7
373.879	328.38
374.26	313.92
374.641	312.56
375.021	318.44
375.402	335.39
375.783	332
376.163	343.3
376.544	335.61
376.925	318.66
377.305	318.89
377.686	352.34
378.066	319.12
378.447	326.8
378.827	326.12
379.208	357.76
379.588	338.78
379.968	330.87
380.349	351.21
380.729	337.65
381.109	334.03
381.489	336.29
381.87	334.71
382.25	354.6
382.63	349.17
383.01	339.68
383.39	364.54
383.77	342.17
384.15	337.42
384.53	323.86
384.91	340.36
385.29	348.49
385.67	376.29
386.049	359.57
386.429	338.78
386.809	359.34
387.189	363.63
387.568	362.05
387.948	349.85
388.328	376.52
388.707	342.62
389.087	365.22
389.466	375.39
389.846	370.41
390.225	376.52
390.605	366.12
390.984	357.53
391.363	359.57
391.743	385.33
392.122	381.04
392.501	386.68
392.881	393.46
393.26	360.47
393.639	391.88
394.018	371.32
394.397	371.09
394.776	388.72
395.155	384.2
395.534	394.37
395.913	388.27
396.292	384.42
396.671	416.29
397.05	395.27
397.429	392.11
397.808	404.09
398.186	390.07
398.565	380.36
398.944	404.54
399.323	407.7
399.701	395.5
400.08	406.8
400.458	397.08
400.837	402.5
401.215	405.22
401.594	408.61
401.972	423.07
402.351	409.28
402.729	407.25
403.107	422.39
403.486	415.84
403.864	417.64
404.242	446.34
404.62	427.59
404.999	434.82
405.377	419.9
405.755	412.45
406.133	418.32
406.511	442.05
406.889	428.72
407.267	452.22
407.645	449.51
408.023	438.89
408.401	446.34
408.779	458.77
409.156	455.16
409.534	476.4
409.912	454.25
410.29	455.61
410.667	456.74
411.045	454.48
411.422	463.74
411.8	482.73
412.178	487.93
412.555	497.87
412.933	487.93
413.31	501.94
413.687	497.64
414.065	481.82
414.442	513.46
414.819	503.29
415.197	515.49
415.574	509.17
415.951	525.66
416.328	520.69
416.705	518.21
417.082	509.39
417.46	544.87
417.837	541.48
418.214	529.96
418.591	512.78
418.967	546
419.344	538.77
419.721	545.32
420.098	529.73
420.475	566.12
420.852	560.47
421.228	575.38
421.605	556.62
421.982	561.82
422.358	573.57
422.735	570.41
423.111	585.32
423.488	579.45
423.864	580.35
424.241	593.46
424.617	626.9
424.994	617.64
425.37	614.48
425.746	621.48
426.123	619.22
426.499	597.07
426.875	618.54
427.251	616.28
427.627	621.03
428.003	608.15
428.379	647.02
428.756	618.77
429.132	643.18
429.507	643.4
429.883	656.06
430.259	650.18
430.635	650.63
431.011	656.73
431.387	666
431.763	678.2
432.138	684.08
432.514	669.16
432.89	698.54
433.265	707.81
433.641	705.55
434.016	715.72
434.392	713.68
434.767	752.55
435.143	732.21
435.518	714.13
435.894	731.99
436.269	713.46
436.644	735.6
437.02	750.52
437.395	736.73
437.77	764.53
438.145	783.74
438.52	796.84
438.895	798.43
439.271	767.01
439.646	757.75
440.021	783.06
440.395	781.02
440.77	767.69
441.145	787.13
441.52	811.76
441.895	818.09
442.27	801.59
442.645	821.93
443.019	852.66
443.394	850.63
443.769	829.61
444.143	823.96
444.518	841.14
444.892	821.7
445.267	827.8
445.641	832.55
446.016	830.97
446.39	846.11
446.764	837.29
447.139	873
447.513	849.05
447.887	851.53
448.262	870.74
448.636	889.27
449.01	883.85
449.384	856.73
449.758	862.6
450.132	892.66
450.506	860.8
450.88	874.13
451.254	876.39
451.628	877.29
452.002	920.46
452.376	923.39
452.75	924.07
453.123	942.83
453.497	951.42
453.871	958.42
454.244	929.27
454.618	954.13
454.992	946.44
455.365	939.89
455.739	937.4
456.112	967.69
456.486	948.03
456.859	948.48
457.232	996.16
457.606	990.51
457.979	999.55
458.352	1026.89
458.725	1028.48
459.099	999.78
459.472	1007.69
459.845	1006.56
460.218	995.26
460.591	1011.75
460.964	996.61
461.337	1029.61
461.71	1046.55
462.083	1065.54
462.456	1088.14
462.829	1090.4
463.201	1080.68
463.574	1095.59
463.947	1100.79
464.32	1127
464.692	1116.16
465.065	1088.36
465.438	1127.91
465.81	1132.43
466.183	1117.96
466.555	1125.65
466.928	1135.59
467.3	1132.65
467.672	1176.95
468.045	1218.98
468.417	1206.1
468.789	1206.1
469.161	1234.57
469.534	1272.99
469.906	1285.64
470.278	1241.13
470.65	1265.08
471.022	1267.11
471.394	1272.31
471.766	1254.68
472.138	1244.97
472.51	1284.51
472.882	1319.32
473.253	1336.94
473.625	1366.55
473.997	1390.5
474.369	1405.19
474.74	1420.33
475.112	1453.32
475.484	1442.7
475.855	1461.23
476.227	1437.28
476.598	1494.68
476.97	1443.15
477.341	1466.66
477.713	1505.3
478.084	1512.98
478.455	1524.06
478.827	1593.66
479.198	1661.68
479.569	1670.72
479.94	1711.4
480.311	1727.67
480.682	1716.37
481.053	1763.82
481.424	1783.48
481.795	1766.31
482.166	1758.63
482.537	1766.08
482.908	1778.29
483.279	1775.12
483.65	1844.27
484.021	1864.39
484.391	1930.82
484.762	1949.13
485.133	2011.5
485.503	2047.66
485.874	2084.49
486.244	2064.15
486.615	2145.28
486.985	2140.99
487.356	2129.92
487.726	2148.22
488.097	2136.02
488.467	2148.9
488.837	2155.68
489.207	2205.85
489.578	2217.37
489.948	2270.25
490.318	2319.06
490.688	2354.77
491.058	2423.02
491.428	2466.86
491.798	2505.05
492.168	2563.12
492.538	2535.1
492.908	2575.55
493.278	2560.41
493.648	2530.13
494.017	2578.94
494.387	2558.15
494.757	2540.3
495.126	2547.53
495.496	2586.17
495.866	2604.25
496.235	2613.97
496.605	2691.71
496.974	2760.18
497.344	2804.02
497.713	2864.59
498.082	2850.57
498.452	2923.79
498.821	2876.11
499.19	2896
499.559	2896.45
499.928	2878.6
500.298	2853.51
500.667	2825.49
501.036	2821.87
501.405	2818.26
501.774	2858.94
502.143	2889.44
502.512	2911.82
502.88	2960.4
503.249	3001.98
503.618	3068.2
503.987	3088.76
504.356	3135.99
504.724	3158.36
505.093	3113.84
505.462	3169.66
505.83	3102.77
506.199	3077.69
506.567	3082.66
506.936	3021.87
507.304	3012.83
507.672	3022.32
508.041	3031.36
508.409	3048.76
508.777	3057.35
509.145	3145.71
509.514	3192.94
509.882	3235.42
510.25	3246.04
510.618	3317.68
510.986	3328.75
511.354	3352.93
511.722	3347.06
512.09	3318.59
512.458	3293.95
512.826	3247.85
513.193	3215.31
513.561	3187.74
513.929	3207.4
514.297	3178.02
514.664	3220.73
515.032	3197.01
515.4	3281.75
515.767	3325.14
516.135	3333.05
516.502	3416.89
516.869	3487.39
517.237	3484
517.604	3478.58
517.972	3546.83
518.339	3515.64
518.706	3497.56
519.073	3461.63
519.44	3420.96
519.808	3435.19
520.175	3322.88
520.542	3370.34
520.909	3391.13
521.276	3374.4
521.643	3399.03
522.009	3431.8
522.376	3508.64
522.743	3526.04
523.11	3625.92
523.477	3671.34
523.843	3766.03
524.21	3785.92
524.577	3828.4
524.943	3793.15
525.31	3816.2
525.676	3792.47
526.043	3785.69
526.409	3694.17
526.776	3713.6
527.142	3649.2
527.508	3642.42
527.874	3686.03
528.241	3660.27
528.607	3774.62
528.973	3802.87
529.339	3837.44
529.705	3940.26
530.071	4041.28
530.437	4081.05
530.803	4133.03
531.169	4217.32
531.535	4234.27
531.901	4231.1
532.267	4241.5
532.632	4252.12
532.998	4243.76
533.364	4167.38
533.73	4157.21
534.095	4113.37
534.461	4144.78
534.826	4137.32
535.192	4072.46
535.557	4173.48
535.923	4153.82
536.288	4230.43
536.653	4317.65
537.019	4383.19
537.384	4456.63
537.749	4578.89
538.114	4639.91
538.479	4673.58
538.845	4690.07
539.21	4691.88
539.575	4712.45
539.94	4672.67
540.305	4676.97
540.67	4626.8
541.034	4545.67
541.399	4531.66
541.764	4525.78
542.129	4510.64
542.494	4517.65
542.858	4580.92
543.223	4553.13
543.587	4624.09
543.952	4746.12
544.316	4804.87
544.681	4893.23
545.045	4938.2
545.41	5039.9
545.774	5088.93
546.138	5118.76
546.503	5133.23
546.867	5151.76
547.231	5140.01
547.595	5082.15
547.959	5053.91
548.324	4953.34
548.688	4883.06
549.052	4903.18
549.416	4856.4
549.779	4773.69
550.143	4844.19
550.507	4882.39
550.871	4876.06
551.235	4907.7
551.599	5002.83
551.962	5084.64
552.326	5162.6
552.689	5249.61
553.053	5290.06
553.417	5364.18
553.78	5454.57
554.143	5353.56
554.507	5385.2
554.87	5374.58
555.234	5342.94
555.597	5290.51
555.96	5194.47
556.323	5176.62
556.686	5081.93
557.05	5138.88
557.413	5067.47
557.776	5041.48
558.139	5077.86
558.502	5037.64
558.865	5117.63
559.228	5231.98
559.59	5257.74
559.953	5351.75
560.316	5471.75
560.679	5556.27
561.041	5637.85
561.404	5715.81
561.767	5731.85
562.129	5762.59
562.492	5721.91
562.854	5685.98
563.217	5629.26
563.579	5620.22
563.941	5538.87
564.304	5520.56
564.666	5488.7
565.028	5367.34
565.39	5355.37
565.753	5387.91
566.115	5365.54
566.477	5393.11
566.839	5396.04
567.201	5545.42
567.563	5611.86
567.925	5701.35
568.287	5819.08
568.648	5898.18
569.01	5979.76
569.372	6057.95
569.734	6128.23
570.095	6123.48
570.457	6195.12
570.819	6227.66
571.18	6193.99
571.542	6135.69
571.903	6089.36
572.265	6059.53
572.626	5959.42
572.987	5939.76
573.349	5918.52
573.71	5813.89
574.071	5921.45
574.432	5942.92
574.794	6032.19
575.155	6049.81
575.516	6117.61
575.877	6272.41
576.238	6432.85
576.599	6574.32
576.96	6759.4
577.32	6850.02
577.681	7037.36
578.042	7131.82
578.403	7219.27
578.763	7332.94
579.124	7460.4
579.485	7493.62
579.845	7579.26
580.206	7544.69
580.566	7612.26
580.927	7699.94
581.287	7752.37
581.648	7772.25
582.008	8054.05
582.368	8210.66
582.728	8350.77
583.089	8582.18
583.449	8813.36
583.809	9117.98
584.169	9452.44
584.529	9762.03
584.889	10226.65
585.249	10512.52
585.609	10883.81
585.969	11385.27
586.329	11745.03
586.688	12112.03
587.048	12491.23
587.408	12840.14
587.768	13184.54
588.127	13511.99
588.487	13834.24
588.846	14260.22
589.206	14388.35
589.565	14636.25
589.925	15075.79
590.284	15436.23
590.643	15738.15
591.003	16218.81
591.362	16725.46
591.721	16993.03
592.08	17514.14
592.44	18030.51
592.799	18497.39
593.158	18997.49
593.517	19601.09
593.876	20127.41
594.235	20647.39
594.593	21157.89
594.952	21854.59
595.311	22218.43
595.67	22796.94
596.029	23394.22
596.387	23765.28
596.746	24198.49
597.104	24494.98
597.463	25031.23
597.822	25386.93
598.18	25616.08
598.538	26077.76
598.897	26425.77
599.255	26507.35
599.613	27343.04
599.972	27433.21
600.33	27871.84
600.688	28232.51
601.046	28634.98
601.404	29137.12
601.762	29446.94
602.12	30092.34
602.478	30566.91
602.836	31077.63
603.194	31383.38
603.552	31897.49
603.91	32240.08
604.268	32852.5
604.625	33043.91
604.983	33638.92
605.341	33792.36
605.698	34217.43
606.056	34584.88
606.413	34784.2
606.771	35050.86
607.128	35434.35
607.485	35431.86
607.843	35646.32
608.2	35920.21
608.557	36252.86
608.914	36323.82
609.272	36663.47
609.629	36912.73
609.986	37303.45
610.343	37280.86
610.7	37750.67
611.057	37936.66
611.414	38149.31
611.771	38618
612.127	38913.36
612.484	39129.85
612.841	39596.5
613.198	39672.66
613.554	39810.96
613.911	40386.99
614.267	40554.44
614.624	40673.99
614.98	40962.12
615.337	41315.78
615.693	41344.93
616.05	41323.46
616.406	41737.69
616.762	41576.56
617.118	41651.36
617.475	41688.65
617.831	41878.7
618.187	41783.11
618.543	41871.7
618.899	42165.02
619.255	42062.2
619.611	42095.87
619.967	42433.04
620.323	42607.72
620.678	42539.7
621.034	42369.76
621.39	42772.01
621.746	42950.09
622.101	43482.5
622.457	43386.01
622.812	43621.93
623.168	43746.67
623.523	43941.02
623.879	44128.59
624.234	44068.93
624.589	44273.67
624.945	44310.73
625.3	44317.06
625.655	44393.89
626.01	44357.28
626.365	44336.26
626.72	44268.69
627.075	44204.52
627.43	44127.46
627.785	43961.13
628.14	44190.73
628.495	44137.4
628.85	44007.23
629.205	43893.56
629.559	44131.07
629.914	44061.02
630.269	44040
630.623	44144.86
630.978	44061.24
631.332	44415.36
631.687	44410.84
632.041	44425.75
632.396	44534.68
632.75	44438.86
633.104	44806.31
633.459	44567.67
633.813	44670.27
634.167	44741.9
634.521	44823.03
634.875	44837.04
635.229	44805.86
635.583	44596.82
635.937	44703.03
636.291	44573.09
636.645	44380.1
636.999	44344.62
637.352	44461.46
637.706	44094.91
638.06	44170.39
638.413	43950.51
638.767	43864.64
639.121	43819.89
639.474	43486.34
639.828	43517.53
640.181	43708.03
640.534	43675.94
640.888	43589.62
641.241	43524.53
641.594	43669.16
641.947	43862.83
642.301	43830.06
642.654	43969.72
643.007	43968.59
643.36	43824.86
643.713	43982.6
644.066	44162.71
644.419	44025.09
644.771	43650.18
645.124	43444.99
645.477	43358.66
645.83	43155.96
646.182	42878.9
646.535	42774.5
646.888	42944.44
647.24	42593.03
647.593	42704.67
647.945	42483.88
648.298	42183.33
648.65	42214.06
649.002	41961.18
649.355	42054.74
649.707	41905.82
650.059	42054.74
650.411	42471
650.763	42418.12
651.115	42786.25
651.467	42684.56
651.819	42685.46
652.171	42631
652.523	42686.82
652.875	42662.64
653.227	42569.76
653.578	42938.11
653.93	42870.31
654.282	42876.64
654.633	42945.11
654.985	43027.15
655.337	43007.71
655.688	42998.45
656.039	43245.44
656.391	42765.46
656.742	43041.16
657.094	43006.36
657.445	42916.64
657.796	42885
658.147	42748.51
658.498	42591.45
658.849	42558.91
659.2	42566.59
659.551	42332.02
659.902	42309.42
660.253	42082.31
660.604	42190.56
660.955	41880.96
661.306	42121.18
661.656	41955.99
662.007	41986.95
662.358	41952.82
662.708	41941.75
663.059	41794.86
663.409	41840.06
663.76	42243.21
664.11	42248.63
664.461	42384
664.811	42377.9
665.161	42280.5
665.511	42273.72
665.862	42475.3
666.212	42589.19
666.562	42623.54
666.912	42555.75
667.262	42460.61
667.612	42421.29
667.962	42467.16
668.312	42224.68
668.662	42517.1
669.011	42360.72
669.361	42163.67
669.711	42101.07
670.06	41968.64
670.41	41846.61
670.76	41739.72
671.109	41735.43
671.459	41595.54
671.808	41422.89
672.157	41579.95
672.507	41120.98
672.856	41256.34
673.205	41378.15
673.554	41333.18
673.904	41203.69
674.253	41440.97
674.602	41451.37
674.951	40934.09
675.3	40751.5
675.649	41345.16
675.998	41393.52
676.346	41599.61
676.695	41789.21
677.044	41570.69
677.393	41628.76
677.741	41852.49
678.09	41644.13
678.438	41657.69
678.787	41611.82
679.135	41718.25
679.484	41501.99
679.832	41596.9
680.181	41215.44
680.529	41372.5
680.877	41333.18
681.225	41069.68
681.573	41340.41
681.922	40858.84
682.27	40674.21
682.618	40666.53
682.966	40482.58
683.314	40396.03
683.661	40323.94
684.009	40077.62
684.357	39976.38
684.705	40004.63
685.053	39975.02
685.4	39905.19
685.748	39671.75
686.095	39609.61
686.443	39550.17
686.79	39563.51
687.138	39716.5
687.485	39841.47
687.832	39707.91
688.18	39845.31
688.527	39689.38
688.874	39600.34
689.221	39667.91
689.568	39683.5
689.915	39563.51
690.262	39643.05
690.609	39528.48
690.956	39442.61
691.303	39454.58
691.65	39220.47
691.997	39201.71
692.344	38838.33
692.69	38836.75
693.037	38812.12
693.383	38522.86
693.73	38639.92
694.077	38183.88
694.423	38176.65
694.769	37966.94
695.116	37839.03
695.462	37690.79
695.808	37422.55
696.155	37442.66
696.501	37168.99
696.847	37224.36
697.193	36888.78
697.539	37003.8
697.885	36824.6
698.231	36747.31
698.577	36732.62
698.923	36704.37
699.269	36605.62
699.614	36463.02
699.96	36451.5
700.306	36582.34
700.651	36483.36
700.997	36531.72
701.342	36470.03
701.688	36450.37
702.033	36448.11
702.379	36329.24
702.724	36382.12
703.069	36450.37
703.415	36087.21
703.76	36129.93
704.105	35995.01
704.45	35977.84
704.795	35596.83
705.14	35616.72
705.485	35546.21
705.83	35138.77
706.175	35171.31
706.52	35067.35
706.865	34953.69
707.209	34752.11
707.554	34540.59
707.899	34691.55
708.243	34351.89
708.588	34216.53
708.932	34037.55
709.277	34040.94
709.621	33969.08
709.966	33623.55
710.31	33734.96
710.654	33615.64
710.998	33685.02
711.342	33650.89
711.687	33560.73
712.031	33537
712.375	33331.13
712.719	33438.02
713.063	33461.07
713.407	33640.27
713.75	33478.92
714.094	33451.8
714.438	33523.21
714.782	33627.17
715.125	33435.53
715.469	33485.48
715.812	33287.29
716.156	33276.22
716.499	33256.33
716.843	33344.91
717.186	33073.96
717.53	33232.37
717.873	33216.1
718.216	33062.44
718.559	32722.11
718.902	32576.57
719.246	32638.72
719.589	32377.48
719.932	32344.04
720.275	32079.64
720.617	32060.88
720.96	31947.89
721.303	31910.15
721.646	31831.96
721.989	31617.05
722.331	31660.89
722.674	31612.98
723.016	31575.24
723.359	31480.1
723.701	31427.45
724.044	31309.71
724.386	31194.69
724.729	31227.23
725.071	31274.91
725.413	31298.87
725.755	31321.69
726.097	31226.1
726.439	31085.99
726.782	31155.37
727.124	31280.11
727.465	31080.34
727.807	31209.38
728.149	31199.21
728.491	31188.81
728.833	31259.55
729.175	31090.28
729.516	31027.24
729.858	31046.44
730.199	31072.66
730.541	30917.63
730.882	30742.95
731.224	30933.45
731.565	30784.76
731.906	30726
732.248	30658.88
732.589	30487.14
732.93	30378.44
733.271	30320.81
733.612	30258.89
733.953	30220.02
734.294	30118.33
734.635	29937.77
734.976	29863.2
735.317	29736.65
735.658	29629.76
735.999	29697.1
736.339	29611.23
736.68	29557.44
737.021	29511.12
737.361	29354.74
737.702	29497.33
738.042	29465.47
738.383	29346.6
738.723	29458.91
739.063	29405.13
739.404	29393.61
739.744	29488.97
740.084	29385.47
740.424	29478.35
740.764	29378.01
741.104	29538.01
741.444	29354.28
741.784	29323.78
742.124	29429.76
742.464	29345.25
742.804	29350.67
743.143	29377.33
743.483	29339.37
743.823	29324.45
744.162	29216.21
744.502	29250.78
744.841	29187.96
745.181	29272.25
745.52	29032.71
745.86	29039.94
746.199	28863.68
746.538	28841.3
746.877	28902.09
747.216	28721.53
747.556	28565.6
747.895	28547.07
748.234	28231.15
748.573	28220.3
748.911	28176.46
749.25	27983.7
749.589	27861.44
749.928	27919.97
750.267	27882.68
750.605	27862.57
750.944	27765.85
751.283	27627.55
751.621	27669.36
751.96	27520.89
752.298	27447.67
752.636	27471.17
752.975	27424.84
753.313	27300.55
753.651	27335.58
753.989	27382.36
754.327	27317.5
754.666	27329.48
755.004	27405.64
755.342	27349.37
755.679	27361.34
756.017	27324.73
756.355	27347.78
756.693	27135.59
757.031	27204.96
757.368	27140.56
757.706	27108.47
758.044	27011.75
758.381	27204.96
758.719	26951.18
759.056	26938.08
759.394	26875.48
759.731	26616.96
760.068	26688.14
760.405	26450.41
760.743	26396.17
761.08	26396.4
761.417	26234.14
761.754	26172.9
762.091	25980.81
762.428	25868.73
762.765	25660.37
763.102	25778.79
763.438	25487.49
763.775	25353.94
764.112	25259.03
764.449	25329.31
764.785	25133.38
765.122	24998.47
765.458	24832.37
765.795	24773.61
766.131	24851.13
766.467	24590.79
766.804	24466.05
767.14	24461.76
767.476	24398.71
767.812	24347.41
768.148	24424.7
768.485	24337.02
768.821	24273.74
769.157	24226.51
769.492	24223.57
769.828	24190.58
770.164	24082.33
770.5	24085.5
770.836	24123.69
771.171	23985.61
771.507	23902.45
771.842	23740.65
772.178	23844.6
772.513	23773.41
772.849	23629.24
773.184	23575.68
773.519	23679.63
773.855	23561.44
774.19	23301.11
774.525	23269.02
774.86	23274.22
775.195	23190.83
775.53	23094.79
775.865	22870.39
776.2	22755.81
776.535	22511.98
776.87	22548.36
777.205	22349.95
777.539	22241.03
777.874	22264.3
778.209	21952.22
778.543	21969.85
778.878	21840.13
779.212	21691.21
779.547	21488.5
779.881	21610.31
780.215	21351.78
780.55	21416.19
780.884	21330.54
781.218	21241.28
781.552	21172.35
781.886	21072.47
782.22	20954.05
782.554	20881.51
782.888	20722.2
783.222	20660.73
783.556	20638.58
783.889	20555.87
784.223	20466.83
784.557	20490.56
784.89	20652.14
785.224	20429.32
785.557	20294.86
785.891	20359.04
786.224	20325.82
786.558	20321.3
786.891	20200.85
787.224	20133.28
787.557	20238.37
787.891	20135.77
788.224	20111.82
788.557	20122.89
788.89	20008.99
789.223	19956.34
789.556	19793.86
789.888	19770.36
790.221	19714.54
790.554	19671.15
790.887	19642
791.219	19557.25
791.552	19498.95
791.884	19279.52
792.217	19239.07
792.549	19169.02
792.882	19033.43
793.214	18789.59
793.546	18829.14
793.879	18654
794.211	18649.71
794.543	18591.4
794.875	18575.36
795.207	18505.08
795.539	18331.3
795.871	18267.12
796.203	18122.94
796.535	17970.86
796.867	18061.7
797.198	17916.17
797.53	17951.42
797.862	17763.18
798.193	17785.1
798.525	17725.89
798.856	17700.58
799.188	17590.3
799.519	17475.95
799.85	17436.18
800.182	17481.6
800.513	17465.33
800.844	17323.64
801.175	17446.35
801.506	17391.66
801.837	17481.38
802.168	17325
802.499	17320.48
802.83	17218.11
803.161	17178.11
803.491	17154.38
803.822	17223.98
804.153	17146.24
804.483	16974.05
804.814	17031.22
805.145	17016.98
805.475	17028.06
805.805	16884.33
806.136	16984.89
806.466	16926.81
806.796	16869.42
807.126	16704
807.457	16626.03
807.787	16655.41
808.117	16572.47
808.447	16553.94
808.777	16333.84
809.107	16423.33
809.436	16372.03
809.766	16344.91
810.096	16240.51
810.426	16091.13
810.755	16048.42
811.085	15999.38
811.414	15894.3
811.744	15763.46
812.073	15760.07
812.403	15784.7
812.732	15651.59
813.061	15600.75
813.39	15542.9
813.719	15431.71
814.049	15426.74
814.378	15309.91
814.707	15319.85
815.036	15398.49
815.365	15207.99
815.693	15200.53
816.022	15181.55
816.351	15166.86
816.68	15107.88
817.008	15183.36
817.337	15072.17
817.665	15074.89
817.994	15112.17
818.322	15137.26
818.651	15025.17
818.979	14971.39
819.307	15074.89
819.636	15053.64
819.964	14914.44
820.292	14993.98
820.62	15016.81
820.948	14887.32
821.276	15070.14
821.604	15022.01
821.932	14968.67
822.259	15066.3
822.587	14991.72
822.915	15044.83
823.243	15086.41
823.57	15019.97
823.898	15008.22
824.225	14904.27
824.553	14949.24
824.88	14926.87
825.207	15003.93
825.535	14916.47
825.862	15017.26
826.189	14938.84
826.516	14943.59
826.843	14896.59
827.17	14872.63
827.497	14854.55
827.824	14790.6
828.151	14790.37
828.478	14799.64
828.805	14758.51
829.131	14664.73
829.458	14577.27
829.785	14554.45
830.111	14569.14
830.438	14631.96
830.764	14504.05
831.09	14633.99
831.417	14511.06
831.743	14483.26
832.069	14569.81
832.395	14357.62
832.722	14542.47
833.048	14356.03
833.374	14417.05
833.7	14460.44
834.026	14464.05
834.351	14457.05
834.677	14408.01
835.003	14505.86
835.329	14404.85
835.654	14481.91
835.98	14416.6
836.306	14514.22
836.631	14425.19
836.956	14495.01
837.282	14524.39
837.607	14411.17
837.932	14474.68
838.258	14495.92
838.583	14409.14
838.908	14350.61
839.233	14403.94
839.558	14424.51
839.883	14324.4
840.208	14289.14
840.533	14363.49
840.858	14343.61
841.182	14315.81
841.507	14257.28
841.832	14228.13
842.156	14245.98
842.481	14227
842.805	14147.45
843.13	14147.9
843.454	14097.96
843.778	13965.31
844.103	13981.58
844.427	13823.85
844.751	13929.38
845.075	13890.96
845.399	13829.04
845.723	13640.35
846.047	13610.52
846.371	13536.4
846.695	13450.3
847.019	13375.72
847.343	13359.45
847.666	13320.13
847.99	13137.76
848.313	13210.3
848.637	13082.4
848.96	12950.65
849.284	13036.97
849.607	12920.59
849.931	12865.68
850.254	12763.76
850.577	12629.3
850.9	12605.57
851.223	12598.79
851.546	12565.57
851.869	12488.74
852.192	12571.9
852.515	12402.41
852.838	12390.66
853.161	12355.41
853.483	12291.68
853.806	12306.15
854.129	12336.88
854.451	12273.15
854.774	12194.28
855.096	12263.21
855.419	12211.01
855.741	12169.43
856.063	12151.35
856.385	12083.33
856.708	12162.65
857.03	12045.14
857.352	12100.95
857.674	12046.27
857.996	12060.28
858.318	11943.44
858.64	11948.41
858.961	11915.2
859.283	11919.26
859.605	11854.41
859.926	11924.46
860.248	11817.34
860.57	11791.13
860.891	11839.94
861.212	11653.28
861.534	11692.6
861.855	11673.85
862.176	11641.98
862.498	11647.63
862.819	11540.29
863.14	11541.42
863.461	11432.95
863.782	11514.08
864.103	11505.49
864.424	11348.2
864.745	11344.81
865.065	11279.28
865.386	11199.28
865.707	11221.43
866.027	11190.02
866.348	11090.36
866.668	11144.82
866.989	11103.92
867.309	11014.88
867.63	11066.18
867.95	11029.12
868.27	10940.53
868.59	10917.48
868.91	10920.87
869.23	10839.29
869.55	10814.66
869.87	10852.17
870.19	10862.57
870.51	10811.27
870.83	10899.85
871.15	10820.53
871.469	10790.25
871.789	10816.02
872.109	10765.85
872.428	10802.91
872.748	10878.16
873.067	10776.24
873.386	10814.89
873.706	10686.75
874.025	10681.78
874.344	10727.66
874.663	10734.44
874.982	10739.18
875.301	10745.06
875.62	10715.9
875.939	10726.98
876.258	10724.94
876.577	10766.75
876.896	10695.11
877.214	10672.29
877.533	10728.33
877.852	10658.73
878.17	10729.92
878.489	10718.84
878.807	10695.79
879.125	10624.61
879.444	10608.79
879.762	10638.84
880.08	10515.23
880.398	10474.33
880.716	10521.79
881.034	10469.58
881.352	10525.18
881.67	10456.25
881.988	10405.4
882.306	10402.92
882.624	10398.17
882.941	10258.52
883.259	10225.3
883.577	10180.1
883.894	10166.54
884.212	10140.33
884.529	10148.24
884.846	10065.75
885.164	10033.66
885.481	10066.88
885.798	10007.67
886.115	9910.5
886.432	9991.18
886.75	9828.7
887.067	9922.71
887.383	9819.88
887.7	9841.8
888.017	9771.75
888.334	9757.51
888.651	9720.22
888.967	9670.96
889.284	9665.31
889.6	9661.24
889.917	9592.32
890.233	9541.7
890.55	9506.22
890.866	9548.25
891.182	9485.65
891.498	9412.21
891.815	9458.54
892.131	9422.38
892.447	9374.47
892.763	9351.19
893.079	9306.45
893.395	9378.31
893.71	9311.65
894.026	9333.79
894.342	9293.12
894.657	9316.62
894.973	9246.11
895.289	9334.25
895.604	9272.33
895.92	9173.35
896.235	9221.25
896.55	9162.73
896.865	9183.74
897.181	9182.16
897.496	9186.91
897.811	9120.24
898.126	9126.79
898.441	9099.68
898.756	9057.87
899.071	9043.63
899.386	9042.5
899.7	8946.23
900.015	8919.12
900.33	8897.87
900.644	8856.74
900.959	8861.26
901.273	8793.47
901.588	8712.79
901.902	8690.65
902.216	8718.22
902.531	8649.52
902.845	8575.4
903.159	8504.89
903.473	8473.93
903.787	8456.98
904.101	8370.88
904.415	8375.4
904.729	8296.76
905.042	8315.74
905.356	8226.03
905.67	8237.33
905.984	8143.32
906.297	8199.13
906.611	8098.12
906.924	8049.53
907.237	8012.7
907.551	7988.29
907.864	7904.68
908.177	7905.58
908.491	7824.46
908.804	7776.09
909.117	7788.75
909.43	7713.5
909.743	7668.75
910.056	7659.26
910.368	7620.62
910.681	7617.68
910.994	7547.85
911.307	7527.74
911.619	7471.02
911.932	7487.51
912.244	7471.47
912.557	7377.91
912.869	7366.16
913.181	7385.6
913.494	7350.57
913.806	7356.22
914.118	7309.67
914.43	7335.2
914.742	7215.21
915.054	7223.57
915.366	7236.45
915.678	7228.76
915.99	7149.22
916.302	7158.71
916.613	7080.07
916.925	7161.87
917.236	7102.67
917.548	7072.16
917.859	7124.36
918.171	7043.91
918.482	6991.03
918.794	6982.9
919.105	7010.92
919.416	6932.05
919.727	6978.38
920.038	6929.79
920.349	6859.06
920.66	6814.09
920.971	6784.26
921.282	6842.56
921.593	6710.59
921.903	6728.44
922.214	6666.52
922.525	6675.33
922.835	6677.82
923.146	6575.45
923.456	6633.75
923.767	6561.44
924.077	6563.7
924.387	6514.21
924.697	6480.08
925.008	6409.58
925.318	6404.38
925.628	6412.74
925.938	6391.95
926.248	6238.96
926.558	6312.86
926.867	6209.13
927.177	6179.3
927.487	6191.05
927.796	6089.13
928.106	6083.94
928.416	6075.12
928.725	5970.49
929.034	5937.05
929.344	5937.27
929.653	5937.27
929.962	5862.92
930.271	5882.59
930.581	5766.2
930.89	5826.54
931.199	5747.67
931.508	5721.23
931.817	5733.44
932.125	5723.95
932.434	5671.97
932.743	5602.82
933.051	5670.61
933.36	5574.8
933.669	5549.71
933.977	5576.6
934.286	5494.57
934.594	5509.49
934.902	5450.05
935.21	5502.71
935.519	5431.75
935.827	5448.25
936.135	5425.65
936.443	5371.64
936.751	5409.38
937.059	5381.81
937.367	5345.88
937.674	5346.33
937.982	5312.88
938.29	5275.82
938.597	5315.37
938.905	5285.31
939.213	5231.3
939.52	5186.56
939.827	5290.96
940.135	5211.42
940.442	5163.28
940.749	5131.42
941.056	5197.63
941.363	5132.32
941.67	5062.72
941.977	5096.62
942.284	5050.97
942.591	5034.25
942.898	4969.84
943.205	5049.16
943.511	4984.53
943.818	5020.69
944.125	4919.9
944.431	4946.34
944.738	4867.7
945.044	4934.81
945.35	4862.73
945.657	4850.3
945.963	4811.2
946.269	4813.24
946.575	4797.19
946.881	4742.73
947.187	4729.4
947.493	4704.76
947.799	4704.99
948.105	4649.4
948.41	4615.73
948.716	4620.92
949.022	4531.66
949.327	4568.27
949.633	4495.28
949.938	4509.97
950.244	4494.6
950.549	4403.53
950.854	4444.43
951.16	4445.56
951.465	4375.96
951.77	4375.28
952.075	4340.03
952.38	4313.14
952.685	4269.75
952.99	4244.89
953.294	4240.37
953.599	4267.94
953.904	4197.88
954.209	4176.64
954.513	4168.05
954.818	4161.05
955.122	4123.54
955.426	4091.9
955.731	4099.36
956.035	4049.87
956.339	4025.91
956.643	4070.2
956.948	4022.75
957.252	3973.48
957.556	4003.76
957.86	3984.56
958.163	3973.03
958.467	3940.04
958.771	3946.59
959.075	3902.98
959.378	3897.33
959.682	3898.68
959.985	3850.1
960.289	3870.89
960.592	3883.54
960.896	3845.58
961.199	3855.97
961.502	3848.97
961.805	3782.53
962.108	3812.36
962.411	3788.4
962.714	3768.29
963.017	3785.92
963.32	3776.2
963.623	3800.83
963.926	3715.86
964.228	3712.7
964.531	3705.69
964.833	3727.16
965.136	3675.64
965.438	3667.5
965.741	3677.45
966.043	3646.03
966.345	3645.36
966.648	3625.92
966.95	3578.69
967.252	3589.54
967.554	3544.57
967.856	3549.54
968.158	3510.9
968.46	3526.72
968.761	3486.94
969.063	3512.93
969.365	3457.11
969.666	3407.4
969.968	3422.54
970.269	3411.24
970.571	3404.46
970.872	3393.84
971.174	3357.68
971.475	3326.27
971.776	3331.24
972.077	3317
972.378	3326.27
972.679	3299.38
972.98	3260.28
973.281	3262.09
973.582	3248.53
973.883	3237.46
974.183	3184.8
974.484	3195.88
974.785	3166.72
975.085	3161.53
975.386	3152.49
975.686	3121.3
975.986	3144.13
976.287	3070.91
976.587	3067.29
976.887	3030.46
977.187	3026.84
977.487	3023.23
977.787	2952.27
978.087	2997.24
978.387	2945.94
978.687	2944.36
978.987	2934.41
979.286	2903.45
979.586	2930.57
979.885	2901.42
980.185	2879.5
980.484	2881.76
980.784	2859.39
981.083	2842.89
981.382	2838.82
981.682	2860.97
981.981	2828.65
982.28	2825.26
982.579	2813.06
982.878	2834.76
983.177	2782.33
983.475	2736.68
983.774	2763.8
984.073	2724.93
984.372	2704.82
984.67	2741.2
984.969	2698.94
985.267	2707.75
985.566	2668.66
985.864	2677.7
986.162	2683.35
986.461	2666.4
986.759	2638.83
987.057	2660.07
987.355	2647.42
987.653	2641.09
987.951	2604.93
988.249	2611.49
988.547	2612.39
988.844	2577.81
989.142	2576.91
989.44	2545.95
989.737	2531.26
990.035	2520.41
990.332	2532.62
990.63	2502.79
990.927	2545.5
991.224	2503.24
991.521	2506.63
991.819	2454.65
992.116	2491.26
992.413	2457.14
992.71	2472.05
993.006	2465.73
993.303	2481.54
993.6	2423.47
993.897	2421.43
994.193	2401.55
994.49	2387.99
994.787	2382.79
995.083	2331.27
995.379	2343.7
995.676	2327.2
995.972	2312.96
996.268	2306.18
996.565	2245.62
996.861	2276.13
997.157	2288.56
997.453	2255.34
997.749	2247.43
998.044	2204.26
998.34	2210.82
998.636	2217.82
998.932	2222.34
999.227	2182.12
999.523	2161.33
999.818	2188.67
1000.114	2135.57
1000.409	2144.38
1000.704	2097.83
1001	2090.82
1001.295	2089.46
1001.59	2089.92
1001.885	2053.08
1002.18	2047.66
1002.475	2029.35
1002.77	2022.35
1003.065	2037.49
1003.359	2037.04
1003.654	2028.22
1003.949	1999.52
1004.243	1963.82
1004.538	1964.72
1004.832	1936.7
1005.127	1954.33
1005.421	1901.67
1005.715	1882.46
1006.009	1895.8
1006.304	1910.94
1006.598	1870.04
1006.892	1908.68
1007.186	1836.59
1007.48	1846.99
1007.773	1841.79
1008.067	1824.16
1008.361	1826.42
1008.655	1787.1
1008.948	1796.82
1009.242	1808.12
1009.535	1795.69
1009.829	1752.07
1010.122	1777.83
1010.415	1749.36
1010.708	1740.32
1011.001	1743.71
1011.295	1734.9
1011.588	1722.69
1011.881	1715.24
1012.173	1721.34
1012.466	1679.53
1012.759	1685.41
1013.052	1661
1013.344	1672.75
1013.637	1669.59
1013.93	1668.91
1014.222	1638.18
1014.514	1633.43
1014.807	1622.58
1015.099	1626.88
1015.391	1643.83
1015.683	1601.34
1015.976	1623.26
1016.268	1588.01
1016.56	1586.2
1016.851	1563.83
1017.143	1560.89
1017.435	1590.95
1017.727	1552.76
1018.018	1545.98
1018.31	1547.33
1018.602	1535.58
1018.893	1500.55
1019.185	1507.11
1019.476	1474.79
1019.767	1487.67
1020.058	1481.8
1020.35	1461.23
1020.641	1417.84
1020.932	1428.92
1021.223	1427.34
1021.514	1432.53
1021.804	1400.9
1022.095	1415.81
1022.386	1372.42
1022.677	1363.16
1022.967	1354.57
1023.258	1376.72
1023.548	1334.46
1023.839	1336.49
1024.129	1348.69
1024.419	1320.45
1024.709	1321.12
1025	1315.02
1025.29	1279.09
1025.58	1301.91
1025.87	1265.53
1026.16	1270.5
1026.449	1268.92
1026.739	1241.35
1027.029	1236.61
1027.319	1198.87
1027.608	1218.75
1027.898	1213.1
1028.187	1197.06
1028.477	1195.03
1028.766	1181.69
1029.055	1167
1029.344	1189.15
1029.634	1167.46
1029.923	1148.92
1030.212	1137.4
1030.501	1133.33
1030.79	1146.89
1031.078	1129.26
1031.367	1115.93
1031.656	1099.21
1031.945	1100.56
1032.233	1093.78
1032.522	1097.17
1032.81	1088.14
1033.099	1081.58
1033.387	1085.42
1033.675	1062.37
1033.963	1043.84
1034.251	1065.99
1034.54	1032.09
1034.828	1040
1035.116	1021.02
1035.403	1022.83
1035.691	994.13
1035.979	1016.5
1036.267	1016.27
1036.554	1013.33
1036.842	980.79
1037.129	1013.33
1037.417	975.14
1037.704	979.44
1037.992	974.01
1038.279	974.92
1038.566	968.82
1038.853	968.82
1039.14	968.82
