Data from red_shiny_book_FLMS001491_00059.txt Node
Date: Wed Feb 08 15:25:03 GMT 2017
User: dcchb
Spectrometer: FLMS00149
Trigger mode: 0
Integration Time (sec): 2.000000E-2
Scans to average: 10
Electric dark correction enabled: true
Nonlinearity correction enabled: false
Boxcar width: 0
XAxis mode: Wavelengths
Number of Pixels in Spectrum: 2048
>>>>>Begin Spectral Data<<<<<
341.393	0.96
341.776	0.96
342.16	0.96
342.543	-59.15
342.927	-63.44
343.31	-82.65
343.693	-73.84
344.077	-55.99
344.46	-48.53
344.843	-63.9
345.226	-32.03
345.61	-32.49
345.993	-26.84
346.376	3.45
346.759	11.58
347.142	17.01
347.525	52.26
347.908	56.33
348.291	58.59
348.674	112.14
349.057	104.91
349.44	125.7
349.823	147.85
350.206	170.22
350.588	211.35
350.971	228.3
351.354	235.76
351.737	251.58
352.119	242.99
352.502	264.23
352.884	302.2
353.267	286.15
353.65	294.74
354.032	315.3
354.414	306.94
354.797	340.16
355.179	334.74
355.562	323.66
355.944	329.99
356.326	337.22
356.709	357.56
357.091	340.61
357.473	340.16
357.855	374.96
358.238	341.29
358.62	342.42
359.002	361.85
359.384	355.75
359.766	338.13
360.148	345.81
360.53	353.27
360.912	348.52
361.294	348.52
361.676	365.02
362.057	354.62
362.439	351.23
362.821	331.8
363.203	362.76
363.584	327.73
363.966	344.91
364.348	347.84
364.729	335.64
365.111	362.53
365.493	329.31
365.874	346.49
366.256	333.38
366.637	333.83
367.019	347.17
367.4	362.98
367.781	316.88
368.163	357.34
368.544	324.34
368.925	309.88
369.306	325.47
369.688	344.45
370.069	349.88
370.45	310.78
370.831	327.73
371.212	332.48
371.593	335.41
371.974	352.14
372.355	324.57
372.736	335.41
373.117	349.65
373.498	344.91
373.879	341.29
374.26	348.52
374.641	333.83
375.021	333.16
375.402	344.23
375.783	364.11
376.163	359.14
376.544	352.36
376.925	362.76
377.305	369.99
377.686	353.27
378.066	354.62
378.447	341.52
378.827	358.24
379.208	373.83
379.588	348.75
379.968	346.04
380.349	343.1
380.729	364.11
381.109	347.17
381.489	341.97
381.87	381.97
382.25	372.02
382.63	371.35
383.01	376.77
383.39	380.16
383.77	366.37
384.15	356.21
384.53	387.62
384.91	379.71
385.29	381.97
385.67	407.28
386.049	390.55
386.429	374.74
386.809	373.38
387.189	369.76
387.568	388.97
387.948	380.61
388.328	394.17
388.707	411.35
389.087	409.09
389.466	422.87
389.846	426.49
390.225	396.66
390.605	412.25
390.984	383.32
391.363	384
391.743	405.92
392.122	399.59
392.501	419.71
392.881	430.55
393.26	448.18
393.639	428.52
394.018	424.68
394.397	420.84
394.776	443.43
395.155	441.63
395.534	425.81
395.913	433.27
396.292	409.99
396.671	447.5
397.05	446.82
397.429	427.62
397.808	428.29
398.186	447.28
398.565	447.28
398.944	446.37
399.323	459.03
399.701	452.02
400.08	447.05
400.458	467.39
400.837	480.95
401.215	465.81
401.594	458.58
401.972	456.77
402.351	450.67
402.729	438.69
403.107	449.31
403.486	499.7
403.864	477.33
404.242	479.82
404.62	499.03
404.999	525.69
405.377	510.78
405.755	488.63
406.133	496.09
406.511	505.81
406.889	522.3
407.267	514.85
407.645	537.9
408.023	509.65
408.401	556.2
408.779	539.03
409.156	527.95
409.534	519.59
409.912	529.08
410.29	540.83
410.667	540.38
411.045	554.62
411.422	563.43
411.8	593.26
412.178	591.45
412.555	578.35
412.933	598.23
413.31	603.88
413.687	600.49
414.065	598.91
414.442	588.29
414.819	614.28
415.197	605.46
415.574	639.36
415.951	639.59
416.328	635.07
416.705	647.5
417.082	640.27
417.46	642.07
417.837	649.53
418.214	637.33
418.591	637.1
418.967	675.74
419.344	675.52
419.721	698.8
420.098	685.69
420.475	703.09
420.852	686.14
421.228	700.15
421.605	705.35
421.982	683.43
422.358	687.27
422.735	700.38
423.111	692.24
423.488	726.14
423.864	734.05
424.241	739.47
424.617	747.38
424.994	754.39
425.37	771.34
425.746	748.74
426.123	764.1
426.499	769.53
426.875	773.82
427.251	757.1
427.627	778.57
428.003	791.22
428.379	832.58
428.756	847.94
429.132	837.1
429.507	837.55
429.883	842.97
430.259	854.27
430.635	860.37
431.011	816.31
431.387	845.46
431.763	851.11
432.138	842.29
432.514	912.8
432.89	869.64
433.265	910.77
433.641	915.06
434.016	942.86
434.392	929.07
434.767	948.28
435.143	922.29
435.518	944.89
435.894	923.42
436.269	940.82
436.644	960.48
437.02	991.44
437.395	990.54
437.77	1015.17
438.145	1040.48
438.52	1038.22
438.895	1053.81
439.271	1023.31
439.646	1018.56
440.021	1027.15
440.395	1015.4
440.77	1021.95
441.145	1042.74
441.52	1089.07
441.895	1073.02
442.27	1144.43
442.645	1124.77
443.019	1121.61
443.394	1122.51
443.769	1102.4
444.143	1053.14
444.518	1087.03
444.892	1066.02
445.267	1086.81
445.641	1114.6
446.016	1129.07
446.39	1143.3
446.764	1182.62
447.139	1177.2
447.513	1198.22
447.887	1173.13
448.262	1186.92
448.636	1143.76
449.01	1131.55
449.384	1146.92
449.758	1108.73
450.132	1155.28
450.506	1154.83
450.88	1192.34
451.254	1259.91
451.628	1242.74
452.002	1240.02
452.376	1283.41
452.75	1263.53
453.123	1264.43
453.497	1247.26
453.871	1215.84
454.244	1237.76
454.618	1266.92
454.992	1230.08
455.365	1274.83
455.739	1323.19
456.112	1332.45
456.486	1353.92
456.859	1366.12
457.232	1429.62
457.606	1395.95
457.979	1393.24
458.352	1380.13
458.725	1390.08
459.099	1348.72
459.472	1364.77
459.845	1377.42
460.218	1396.86
460.591	1404.31
460.964	1431.88
461.337	1499.23
461.71	1552.56
462.083	1577.19
462.456	1550.75
462.829	1546.46
463.201	1517.08
463.574	1539.9
463.947	1517.98
464.32	1474.14
464.692	1498.32
465.065	1503.75
465.438	1515.95
465.81	1621.26
466.183	1647.47
466.555	1687.92
466.928	1715.27
467.3	1725.43
467.672	1773.12
468.045	1718.43
468.417	1772.44
468.789	1709.16
469.161	1695.15
469.534	1665.78
469.906	1687.24
470.278	1692.44
470.65	1788.94
471.022	1775.6
471.394	1858.54
471.766	1877.52
472.138	1957.52
472.51	1988.25
472.882	2061.47
473.253	2076.16
473.625	2035.94
473.997	2036.61
474.369	1960.23
474.74	1968.14
475.112	1975.6
475.484	1989.83
475.855	2021.92
476.227	2040.23
476.598	2153.22
476.97	2213.56
477.341	2324.29
477.713	2340.79
478.084	2422.37
478.455	2463.72
478.827	2431.4
479.198	2472.53
479.569	2459.88
479.94	2432.08
480.311	2402.93
480.682	2404.06
481.053	2476.38
481.424	2514.11
481.795	2541.23
482.166	2654.45
482.537	2737.39
482.908	2860.09
483.279	2925.18
483.65	2988.23
484.021	3045.85
484.391	3063.03
484.762	3009.02
485.133	2975.8
485.503	2960.2
485.874	2952.3
486.244	2914.78
486.615	2959.75
486.985	3035.68
487.356	3090.14
487.726	3190.71
488.097	3350.25
488.467	3417.37
488.837	3542.34
489.207	3633.86
489.578	3689.45
489.948	3668.43
490.318	3722.44
490.688	3669.56
491.058	3595.22
491.428	3591.83
491.798	3500.53
492.168	3599.96
492.538	3616.23
492.908	3627.53
493.278	3743.69
493.648	3879.95
494.017	3937.35
494.387	4141.87
494.757	4181.64
495.126	4278.59
495.496	4336.67
495.866	4309.1
496.235	4333.95
496.605	4231.36
496.974	4209.66
497.344	4110.46
497.713	4061.87
498.082	4085.37
498.452	4086.73
498.821	4121.53
499.19	4193.84
499.559	4347.96
499.928	4445.59
500.298	4568.3
500.667	4694.62
501.036	4764.23
501.405	4806.26
501.774	4809.65
502.143	4775.3
502.512	4705.02
502.88	4616.21
503.249	4505.25
503.618	4412.14
503.987	4427.06
504.356	4408.75
504.724	4478.13
505.093	4463.67
505.462	4580.05
505.83	4735.75
506.199	4898.91
506.567	5007.61
506.936	5134.38
507.304	5210.77
507.672	5201.28
508.041	5238.79
508.409	5208.73
508.777	5154.72
509.145	5026.82
509.514	4841.74
509.882	4819.59
510.25	4744.11
510.618	4775.07
510.986	4784.11
511.354	4890.55
511.722	4974.84
512.09	5099.81
512.458	5177.1
512.826	5368.5
513.193	5477.43
513.561	5552.45
513.929	5592.23
514.297	5626.12
514.664	5605.78
515.032	5481.04
515.4	5361.27
515.767	5315.85
516.135	5168.28
516.502	5073.14
516.869	5070.21
517.237	5148.85
517.604	5138
517.972	5189.3
518.339	5337.09
518.706	5450.99
519.073	5659.79
519.44	5799.68
519.808	5975.94
520.175	5984.31
520.542	6050.07
520.909	6059.11
521.276	5969.84
521.643	5894.82
522.009	5839.9
522.376	5696.63
522.743	5578.21
523.11	5493.7
523.477	5498.67
523.843	5493.47
524.21	5560.14
524.577	5709.96
524.943	5839.68
525.31	6020.69
525.676	6242.38
526.043	6399.66
526.409	6529.38
526.776	6715.13
527.142	6781.8
527.508	6767.56
527.874	6767.56
528.241	6590.62
528.607	6488.93
528.973	6415.71
529.339	6298.65
529.705	6207.58
530.071	6171.65
530.437	6108.6
530.803	6136.62
531.169	6228.14
531.535	6387.23
531.901	6540.68
532.267	6810.72
532.632	7036.48
532.998	7165.97
533.364	7351.28
533.73	7453.87
534.095	7595.34
534.461	7627.2
534.826	7497.26
535.192	7450.03
535.557	7295.23
535.923	7169.59
536.288	6996.93
536.653	6893.21
537.019	6857.05
537.384	6800.78
537.749	6802.36
538.114	6906.99
538.479	7098.4
538.845	7287.1
539.21	7411.39
539.575	7643.92
539.94	7929.79
540.305	8118.26
540.67	8257.24
541.034	8375.66
541.399	8403.45
541.764	8358.03
542.129	8315.77
542.494	8137.92
542.858	8003.91
543.223	7810.7
543.587	7660.65
543.952	7499.07
544.316	7387.66
544.681	7431.05
545.045	7516.92
545.41	7582.23
545.774	7785.16
546.138	7977.47
546.503	8184.47
546.867	8360.74
547.231	8651.58
547.595	8831.01
547.959	8965.24
548.324	9009.09
548.688	9054.28
549.052	9000.27
549.416	8872.59
549.779	8751.01
550.143	8555.99
550.507	8436.22
550.871	8182.21
551.235	8049.79
551.599	7948.77
551.962	7912.62
552.326	7918.04
552.689	8067.64
553.053	8130.24
553.417	8312.83
553.78	8565.03
554.143	8779.94
554.507	9002.53
554.87	9209.08
555.234	9390.32
555.597	9379.02
555.96	9482.07
556.323	9512.12
556.686	9418.11
557.05	9244.33
557.413	9195.75
557.776	8962.53
558.139	8841.86
558.502	8638.7
558.865	8440.74
559.228	8385.37
559.59	8340.4
559.953	8357.12
560.316	8514.41
560.679	8682.77
561.041	8852.48
561.404	9081.17
561.767	9307.61
562.129	9519.58
562.492	9799.12
562.854	9952.34
563.217	10023.07
563.579	10072.56
563.941	10220.35
564.304	10225.1
564.666	10023.97
565.028	9864.66
565.39	9770.65
565.753	9547.83
566.115	9357.78
566.477	9251.11
566.839	9043.66
567.201	9022.19
567.563	9016.32
567.925	9090.44
568.287	9225.8
568.648	9381.28
569.01	9528.85
569.372	9922.96
569.734	10059.23
570.095	10377.18
570.457	10617.86
570.819	10771.07
571.18	10990.05
571.542	11097.62
571.903	11032.08
572.265	11025.3
572.626	10862.82
572.987	10726.1
573.349	10514.81
573.71	10470.06
574.071	10241.37
574.432	10055.61
574.794	10105.78
575.155	9949.85
575.516	9864.43
575.877	10065.55
576.238	10207.92
576.599	10433.91
576.96	10616.27
577.32	10920.67
577.681	11337.61
578.042	11696.02
578.403	12052.85
578.763	12317.02
579.124	12697.12
579.485	12863.22
579.845	13105.47
580.206	13130.56
580.566	13097.79
580.927	13186.6
581.287	13206.71
581.648	13179.82
582.008	13197.68
582.368	13175.76
582.728	13307.73
583.089	13288.75
583.449	13503.43
583.809	13699.13
584.169	14122.17
584.529	14417.3
584.889	14996.05
585.249	15442.81
585.609	16017.49
585.969	16778.37
586.329	17440.95
586.688	18153.25
587.048	18722.73
587.408	19255.14
587.768	19836.6
588.127	20332.63
588.487	20735.78
588.846	21207.86
589.206	21507.51
589.565	21754.74
589.925	22224.78
590.284	22379.81
590.643	22598.78
591.003	22887.82
591.362	23302.95
591.721	23640.11
592.08	24036.03
592.44	24599.18
592.799	25220.86
593.158	25793.28
593.517	26539.7
593.876	27290.41
594.235	28070.28
594.593	28804.04
594.952	29694.64
595.311	30232.48
595.67	31038.56
596.029	32051.64
596.387	32551.97
596.746	33144.04
597.104	33580.87
597.463	34041.87
597.822	34699.26
598.18	34856.54
598.538	35172.24
598.897	35518.67
599.255	35461.95
599.613	36321.81
599.972	36431.41
600.33	36725.42
600.688	37021.23
601.046	37452.18
601.404	38044.93
601.762	38509.78
602.12	39112.25
602.478	39931.21
602.836	40417.3
603.194	40870.39
603.552	41637.38
603.91	42146.74
604.268	42870.34
604.625	43184.68
604.983	43825.12
605.341	44178.1
605.698	44743.74
606.056	45171.98
606.413	45264.4
606.771	45754.33
607.128	45837.72
607.485	45933.09
607.843	45981.45
608.2	46279.29
608.557	46389.57
608.914	46407.2
609.272	46653.97
609.629	46903
609.986	47116.11
610.343	47161.53
610.7	47670.44
611.057	47898.46
611.414	48177.32
611.771	48552.68
612.127	48974.59
612.484	49259.55
612.841	49628.81
613.198	49862.02
613.554	50205.52
613.911	50588.1
614.267	50813.41
614.624	50949.23
614.98	51111.03
615.337	51447.97
615.693	51474.18
616.05	51401.64
616.406	51671.47
616.762	51435.99
617.118	51550.34
617.475	51437.8
617.831	51414.07
618.187	51439.61
618.543	51375.88
618.899	51568.42
619.255	51559.15
619.611	51511.92
619.967	51774.51
620.323	51897.67
620.678	51887.05
621.034	51986.71
621.39	52190.77
621.746	52338.34
622.101	52914.82
622.457	52762.28
622.812	53067.14
623.168	53183.74
623.523	53340.8
623.879	53523.62
624.234	53440.23
624.589	53564.52
624.945	53722.03
625.3	53739.66
625.655	53617.4
626.01	53510.06
626.365	53524.52
626.72	53452.89
627.075	53297.41
627.43	53120.02
627.785	53002.96
628.14	53007.93
628.495	52978.55
628.85	52876.18
629.205	52829.63
629.559	53033.92
629.914	52968.83
630.269	53068.72
630.623	53102.16
630.978	53107.36
631.332	53378.99
631.687	53592.77
632.041	53534.24
632.396	53840.45
632.75	53679.55
633.104	53910.73
633.459	53887
633.813	53886.55
634.167	53931.29
634.521	54007.68
634.875	53944.17
635.229	53975.13
635.583	53637.29
635.937	53649.04
636.291	53498.76
636.645	53429.84
636.999	53214.25
637.352	53194.36
637.706	52898.1
638.06	52993.47
638.413	52667.15
638.767	52651.55
639.121	52686.81
639.474	52473.03
639.828	52616.3
640.181	52670.31
640.534	52820.81
640.888	52728.61
641.241	52718.22
641.594	52835.73
641.947	53072.79
642.301	53091.09
642.654	53249.05
643.007	53340.57
643.36	53402.72
643.713	53404.75
644.066	53533.56
644.419	53360.91
644.771	53163.86
645.124	52913.24
645.477	52730.2
645.83	52422.86
646.182	52291.34
646.535	52112.81
646.888	52113.26
647.24	51773.84
647.593	51754.63
647.945	51706.49
648.298	51354.41
648.65	51299.72
649.002	51085.27
649.355	51216.34
649.707	51050.24
650.059	51199.16
650.411	51576.33
650.763	51622.88
651.115	52078.01
651.467	52139.93
651.819	52189.87
652.171	52268.74
652.523	52194.84
652.875	52313.48
653.227	52334.73
653.578	52592.35
653.93	52619.69
654.282	52554.61
654.633	52522.07
654.985	52585.34
655.337	52552.57
655.688	52507.6
656.039	52555.06
656.391	52187.38
656.742	52303.09
657.094	52132.25
657.445	52119.36
657.796	51848.18
658.147	51815.87
658.498	51537.23
658.849	51589.89
659.2	51400.29
659.551	51371.14
659.902	51330.23
660.253	51254.98
660.604	51356.67
660.955	51199.16
661.306	51440.74
661.656	51419.04
662.007	51528.87
662.358	51542.43
662.708	51614.52
663.059	51758.92
663.409	51664.23
663.76	52071.91
664.11	52081.85
664.461	52238.91
664.811	52181.96
665.161	52298.57
665.511	52249.76
665.862	52235.97
666.212	52297.44
666.562	52160.27
666.912	52059.48
667.262	52023.32
667.612	51855.19
667.962	51765.7
668.312	51537.23
668.662	51566.61
669.011	51371.36
669.361	51192.38
669.711	50955.33
670.06	50987.19
670.41	50784.48
670.76	50693.86
671.109	50742
671.459	50751.26
671.808	50706.75
672.157	50838.72
672.507	50643.47
672.856	50777.7
673.205	50919.4
673.554	51102.22
673.904	51104.93
674.253	51306.73
674.602	51297.01
674.951	50972.95
675.3	50953.74
675.649	51642.54
675.998	51509.89
676.346	51587.63
676.695	51654.52
677.044	51436.9
677.393	51517.57
677.741	51570.68
678.09	51338.14
678.438	51188.54
678.787	51237.81
679.135	51069.67
679.484	50696.8
679.832	50673.53
680.181	50294.1
680.529	50319.19
680.877	50103.37
681.225	49950.38
681.573	50206.19
681.922	49913.32
682.27	49744.74
682.618	49728.01
682.966	49692.76
683.314	49749.93
683.661	49633.1
684.009	49686.21
684.357	49616.15
684.705	49756.26
685.053	49853.66
685.4	49839.42
685.748	49800.1
686.095	49958.06
686.443	49982.7
686.79	49957.61
687.138	50127.55
687.485	50138.17
687.832	50134.33
688.18	50123.26
688.527	49888.24
688.874	50060.44
689.221	49859.54
689.568	49598.53
689.915	49502.48
690.262	49401.7
690.609	49242.15
690.956	49038.09
691.303	48986.34
691.65	48510.65
691.997	48415.05
692.344	48156.3
692.69	47848.97
693.037	47935.52
693.383	47401.75
693.73	47481.75
694.077	47166.73
694.423	47237.01
694.769	47072.72
695.116	47103.45
695.462	47053.73
695.808	46989.33
696.155	47135.99
696.501	46914.3
696.847	47011.02
697.193	46976
697.539	47058.93
697.885	47026.16
698.231	46948.2
698.577	47080.63
698.923	47160.85
699.269	47030.01
699.614	46858.26
699.96	46961.76
700.306	47009.89
700.651	46746.4
700.997	46601.54
701.342	46484.03
701.688	46425.95
702.033	46253.53
702.379	46056.25
702.724	45784.62
703.069	45821.45
703.415	45197.74
703.76	45187.12
704.105	44926.56
704.45	44760.01
704.795	44311.21
705.14	44214.04
705.485	44042.51
705.83	44032.57
706.175	43850.65
706.52	43746.7
706.865	43607.5
707.209	43552.81
707.554	43424.23
707.899	43574.73
708.243	43260.16
708.588	43367.05
708.932	43302.19
709.277	43431.23
709.621	43579.48
709.966	43408.86
710.31	43564.11
710.654	43420.84
710.998	43625.35
711.342	43607.5
711.687	43616.54
712.031	43548.97
712.375	43377
712.719	43500.61
713.063	43352.81
713.407	43472.13
713.75	43292.48
714.094	43006.61
714.438	42944.69
714.782	42948.98
715.125	42441.2
715.469	42577.69
715.812	42322.33
716.156	41835.11
716.499	41769.35
716.843	41804.83
717.186	41417.27
717.53	41362.13
717.873	41311.51
718.216	41138.86
718.559	40886.67
718.902	40622.27
719.246	40661.13
719.589	40473.57
719.932	40288.26
720.275	40434.02
720.617	40595.6
720.96	40521.7
721.303	40577.29
721.646	40676.05
721.989	40514.25
722.331	40651.19
722.674	40695.03
723.016	40776.39
723.359	40730.96
723.701	40832.88
724.044	40689.83
724.386	40558.99
724.729	40828.59
725.071	40704.52
725.413	40746.78
725.755	40773.67
726.097	40664.3
726.439	40378.2
726.782	40336.17
727.124	40565.77
727.465	40099.79
727.807	39846.92
728.149	39750.42
728.491	39683.76
728.833	39500.94
729.175	39320.15
729.516	39229.99
729.858	38913.61
730.199	38927.39
730.541	38807.62
730.882	38478.82
731.224	38479.5
731.565	38188.66
731.906	38207.19
732.248	38174.65
732.589	38081.99
732.93	38039.51
733.271	37931.49
733.612	37959.28
733.953	38048.1
734.294	38012.62
734.635	38085.38
734.976	38208.32
735.317	38099.62
735.658	38224.59
735.999	38326.51
736.339	38241.54
736.68	38437.46
737.021	38404.92
737.361	38297.58
737.702	38613.73
738.042	38495.54
738.383	38389.1
738.723	38455.54
739.063	38501.42
739.404	38426.62
739.744	38284.02
740.084	38260.75
740.424	38166.74
740.764	38173.52
741.104	38121.77
741.444	37820.98
741.784	37549.58
742.124	37613.98
742.464	37399.07
742.804	37187.55
743.143	36930.61
743.483	36873.44
743.823	36571.75
744.162	36433.45
744.502	36543.95
744.841	36233.68
745.181	36328.59
745.52	36207.69
745.86	36135.38
746.199	36035.27
746.538	35952.11
746.877	35929.96
747.216	35977.64
747.556	35994.36
747.895	36070.97
748.234	35901.26
748.573	36023.29
748.911	35952.56
749.25	36136.73
749.589	36021.03
749.928	36288.14
750.267	36355.71
750.605	36289.27
750.944	36266.67
751.283	36152.55
751.621	36248.14
751.96	36131.08
752.298	35999.56
752.636	36139.22
752.975	35947.59
753.313	35970.86
753.651	35916.4
753.989	35690.64
754.327	35559.57
754.666	35359.35
755.004	35448.39
755.342	35341.05
755.679	35011.57
756.017	34820.84
756.355	34951.91
756.693	34612.03
757.031	34515.31
757.368	34106.5
757.706	34053.17
758.044	33828.09
758.381	33785.16
758.719	33569.57
759.056	33509.68
759.394	33349.24
759.731	33192.63
760.068	33152.63
760.405	32913.54
760.743	32899.3
761.08	32879.19
761.417	32846.88
761.754	32839.87
762.091	32745.18
762.428	32648.69
762.765	32676.03
763.102	32887.55
763.438	32647.11
763.775	32668.12
764.112	32902.24
764.449	32854.33
764.785	32791.74
765.122	32613.66
765.458	32636.26
765.795	32664.96
766.131	32675.81
766.467	32643.94
766.804	32542.7
767.14	32410.05
767.476	32397.85
767.812	32238.76
768.148	32320.11
768.485	32012.32
768.821	31834.47
769.157	31744.08
769.492	31484.65
769.828	31540.7
770.164	31184.55
770.5	31030.2
770.836	30844.22
771.171	30700.94
771.507	30410.33
771.842	30232.26
772.178	30116.55
772.513	29871.14
772.849	29690.8
773.184	29544.36
773.519	29496.91
773.855	29327.19
774.19	29136.69
774.525	29001.78
774.86	28943.7
775.195	28877.72
775.53	28633.88
775.865	28617.16
776.2	28328.13
776.535	28395.02
776.87	28444.73
777.205	28334.23
777.539	28199.09
777.874	28333.1
778.209	28068.02
778.543	28149.82
778.878	28112.99
779.212	28275.02
779.547	28098.3
779.881	28203.16
780.215	28035.93
780.55	28193.67
780.884	28010.17
781.218	27911.86
781.552	27914.35
781.886	27871.19
782.22	27668.26
782.554	27720.46
782.888	27361.6
783.222	27332.45
783.556	27223.75
783.889	27139.91
784.223	26950.53
784.557	26848.84
784.89	26833.93
785.224	26643.42
785.557	26377.67
785.891	26250.67
786.224	26139.93
786.558	26068.07
786.891	25764.35
787.224	25559.84
787.557	25496.79
787.891	25293.4
788.224	25257.25
788.557	25144.93
788.89	25092.28
789.223	24861.1
789.556	24685.96
789.888	24649.35
790.221	24566.42
790.554	24455.01
790.887	24363.26
791.219	24273.54
791.552	24375.01
791.884	24200.32
792.217	24127.78
792.549	24099.54
792.882	23922.37
793.214	23944.51
793.546	24121
793.879	23961.46
794.211	23839.43
794.543	23936.83
794.875	23901.8
795.207	24007.11
795.539	23951.29
795.871	23936.38
796.203	23775.7
796.535	23745.19
796.867	23865.87
797.198	23683.05
797.53	23746.32
797.862	23556.05
798.193	23655.03
798.525	23391.08
798.856	23470.63
799.188	23231.76
799.519	23141.37
799.85	23041.94
800.182	22933.69
800.513	22807.37
800.844	22682.62
801.175	22669.52
801.506	22570.54
801.837	22424.55
802.168	22225.91
802.499	22154.05
802.83	21967.39
803.161	21908.86
803.491	21693.05
803.822	21790.67
804.153	21663.67
804.483	21326.5
804.814	21248.99
805.145	21208.76
805.475	21237.46
805.805	21073.85
806.136	21133.51
806.466	21069.56
806.796	21047.41
807.126	20891.03
807.457	20809.68
807.787	20901.65
808.117	20793.18
808.447	20778.04
808.777	20780.53
809.107	20816.68
809.436	20661.89
809.766	20741.88
810.096	20711.15
810.426	20705.27
810.755	20755.22
811.085	20834.76
811.414	20679.51
811.744	20597.93
812.073	20677.7
812.403	20666.86
812.732	20511.16
813.061	20599.51
813.39	20473.42
813.719	20421.89
814.049	20566.07
814.378	20527.2
814.707	20374.66
815.036	20346.87
815.365	20266.42
815.693	20170.83
816.022	20027.1
816.351	19995.91
816.68	19873.43
817.008	19903.04
817.337	19687.45
817.665	19665.08
817.994	19535.14
818.322	19487.68
818.651	19374.91
818.979	19257.4
819.307	19225.09
819.636	19055.83
819.964	18993.46
820.292	19015.15
820.62	18917.53
820.948	18858.54
821.276	18820.8
821.604	18749.39
821.932	18806.57
822.259	18744.87
822.587	18635.05
822.915	18609.74
823.243	18750.52
823.57	18553.92
823.898	18682.96
824.225	18590.98
824.553	18680.02
824.88	18780.58
825.207	18684.31
825.535	18811.31
825.862	18898.99
826.189	18854.93
826.516	19024.64
826.843	19103.28
827.17	19023.74
827.497	19144.19
827.824	19101.02
828.151	19203.85
828.478	19113.68
828.805	19277.29
829.131	19176.05
829.458	19185.09
829.785	19169.27
830.111	19241.36
830.438	19376.95
830.764	19378.3
831.09	19414.69
831.417	19265.09
831.743	19317.51
832.069	19274.13
832.395	19174.92
832.722	19198.87
833.048	19138.08
833.374	19029.84
833.7	18953.68
834.026	19085.2
834.351	19080.01
834.677	18950.74
835.003	18851.99
835.329	18880.69
835.654	18758.66
835.98	18583.52
836.306	18577.87
836.631	18484.09
836.956	18479.12
837.282	18344.66
837.607	18242.51
837.932	18176.08
838.258	18168.84
838.583	18109.18
838.908	17993.48
839.233	18012.24
839.558	17978.57
839.883	17866.93
840.208	17819.25
840.533	17907.83
840.858	17881.39
841.182	17755.97
841.507	17857.67
841.832	17802.3
842.156	17750.1
842.481	17807.5
842.805	17745.13
843.13	17712.59
843.454	17737.44
843.778	17715.52
844.103	17641.63
844.427	17817.44
844.751	17827.16
845.075	17880.04
845.399	17892.02
845.723	17736.99
846.047	17716.65
846.371	17572.7
846.695	17677.33
847.019	17578.8
847.343	17492.48
847.666	17512.59
847.99	17418.81
848.313	17449.09
848.637	17276.89
848.96	17359.15
849.284	17234.41
849.607	17083.9
849.931	17044.81
850.254	16899.95
850.577	16868.77
850.9	16663.8
851.223	16640.52
851.546	16574.99
851.869	16503.13
852.192	16470.36
852.515	16283.47
852.838	16194.66
853.161	16146.3
853.483	15954.67
853.806	15966.64
854.129	15903.37
854.451	15732.3
854.774	15694.33
855.096	15525.07
855.419	15498.86
855.741	15358.97
856.063	15252.99
856.385	15202.37
856.708	15020.68
857.03	15081.92
857.352	15047.34
857.674	15014.8
857.996	15012.54
858.318	14946.56
858.64	14901.36
858.961	14816.16
859.283	14878.08
859.605	14745.43
859.926	14816.16
860.248	14774.36
860.57	14719.44
860.891	14709.05
861.212	14650.29
861.534	14678.54
861.855	14690.52
862.176	14683.96
862.498	14656.17
862.819	14715.15
863.14	14762.15
863.461	14634.7
863.782	14645.32
864.103	14697.75
864.424	14706.11
864.745	14718.31
865.065	14650.29
865.386	14655.04
865.707	14632.89
866.027	14711.31
866.348	14640.8
866.668	14655.04
866.989	14584.53
867.309	14526.45
867.63	14600.58
867.95	14564.65
868.27	14485.33
868.59	14470.41
868.91	14337.31
869.23	14327.59
869.55	14308.61
869.87	14283.3
870.19	14279.91
870.51	14301.83
870.83	14345.67
871.15	14193.81
871.469	14092.79
871.789	14113.36
872.109	14060.25
872.428	13973.02
872.748	13997.43
873.067	13924.21
873.386	13862.97
873.706	13787.72
874.025	13635.18
874.344	13611.45
874.663	13563.32
874.982	13555.41
875.301	13500.27
875.62	13496.65
875.939	13432.92
876.258	13402.64
876.577	13351.57
876.896	13343.66
877.214	13334.62
877.533	13308.63
877.852	13261.18
878.17	13225.25
878.489	13260.5
878.807	13252.59
879.125	13255.08
879.444	13245.81
879.762	13220.73
880.08	13237.67
880.398	13188.18
880.716	13171.24
881.034	13152.93
881.352	13177.34
881.67	13205.36
881.988	13129.43
882.306	13224.57
882.624	13291.68
882.941	13139.15
883.259	13224.12
883.577	13230.44
883.894	13168.3
884.212	13195.87
884.529	13214.62
884.846	13088.3
885.164	13189.77
885.481	13109.54
885.798	13143.21
886.115	12973.27
886.432	13060.73
886.75	13057.11
887.067	12993.39
887.383	12942.32
887.7	12990.68
888.017	12896.67
888.334	12973.73
888.651	12841.98
888.967	12795.65
889.284	12695.99
889.6	12641.08
889.917	12583
890.233	12556.56
890.55	12394.98
890.866	12380.52
891.182	12368.77
891.498	12318.38
891.815	12223.92
892.131	12166.74
892.447	12103.02
892.763	12088.55
893.079	12027.76
893.395	11914.77
893.71	11858.5
894.026	11844.04
894.342	11778.28
894.657	11621.9
894.973	11673.87
895.289	11665.51
895.604	11624.61
895.92	11488.34
896.235	11443.15
896.55	11445.86
896.865	11406.99
897.181	11392.98
897.496	11380.32
897.811	11315.92
898.126	11284.05
898.441	11263.26
898.756	11249.7
899.071	11116.15
899.386	11137.62
899.7	11148.92
900.015	11104.62
900.33	10987.11
900.644	11063.72
900.959	11048.58
901.273	11090.39
901.588	11011.52
901.902	10897.17
902.216	10968.13
902.531	10968.81
902.845	10934.68
903.159	10849.04
903.473	10825.31
903.787	10839.09
904.101	10780.79
904.415	10705.76
904.729	10766.1
905.042	10719.77
905.356	10724.29
905.67	10710.06
905.984	10663.05
906.297	10627.12
906.611	10585.54
906.924	10599.33
907.237	10481.59
907.551	10567.24
907.864	10420.57
908.177	10521.59
908.491	10384.64
908.804	10349.61
909.117	10240.01
909.43	10247.7
909.743	10142.16
910.056	10076.85
910.368	10006.8
910.681	9974.26
910.994	9955.5
911.307	9923.19
911.619	9825.11
911.932	9783.75
912.244	9666.69
912.557	9659.46
912.869	9596.41
913.181	9461.95
913.494	9443.65
913.806	9426.25
914.118	9360.71
914.43	9214.96
914.742	9290.43
915.054	9167.5
915.366	9163.66
915.678	9068.74
915.99	9057.9
916.302	8954.4
916.613	8903.78
916.925	8906.94
917.236	8843.67
917.548	8822.65
917.859	8820.39
918.171	8731.13
918.482	8642.99
918.794	8691.35
919.105	8713.27
919.416	8614.29
919.727	8627.85
920.038	8578.36
920.349	8565.48
920.66	8481.87
920.971	8534.97
921.282	8544.01
921.593	8489.55
921.903	8416.33
922.214	8421.3
922.525	8409.1
922.835	8355.77
923.146	8377.24
923.456	8320.74
923.767	8279.16
924.077	8291.82
924.387	8258.6
924.697	8257.69
925.008	8243.46
925.318	8261.76
925.628	8219.28
925.938	8114.87
926.248	8087.75
926.558	8067.87
926.867	8097.7
927.177	8034.65
927.487	8036.46
927.796	7935.67
928.106	7956.23
928.416	7917.14
928.725	7883.47
929.034	7847.31
929.344	7785.16
929.653	7774.32
929.962	7686.86
930.271	7614.09
930.581	7660.19
930.89	7563.25
931.199	7565.73
931.508	7537.26
931.817	7448.9
932.125	7443.02
932.434	7425.4
932.743	7316.25
933.051	7277.61
933.36	7228.34
933.669	7205.29
933.977	7186.99
934.286	7142.69
934.594	7092.98
934.902	7022.92
935.21	6971.17
935.519	6956.03
935.827	6930.95
936.135	6874.45
936.443	6837.62
936.751	6737.51
937.059	6702.03
937.367	6659.54
937.674	6627.9
937.982	6667
938.29	6537.74
938.597	6520.56
938.905	6497.74
939.213	6458.42
939.52	6445.76
939.827	6505.65
940.135	6447.34
940.442	6378.87
940.749	6338.65
941.056	6367.12
941.363	6283.51
941.67	6332.55
941.977	6281.7
942.284	6205.54
942.591	6280.8
942.898	6206
943.205	6214.13
943.511	6173.91
943.818	6180.91
944.125	6126
944.431	6178.65
944.738	6133.45
945.044	6114.02
945.35	6087.35
945.657	6063.4
945.963	6073.8
946.269	6034.02
946.575	6021.37
946.881	5960.8
947.187	6044.19
947.493	5975.27
947.799	6001.03
948.105	5935.27
948.41	5876.29
948.716	5900.01
949.022	5865.44
949.327	5887.13
949.633	5827.02
949.938	5744.99
950.244	5770.98
950.549	5712.67
950.854	5742.73
951.16	5754.26
951.465	5668.16
951.77	5617.31
952.075	5615.73
952.38	5564.66
952.685	5608.04
952.99	5486.92
953.294	5530.31
953.599	5439.91
953.904	5429.74
954.209	5435.85
954.513	5394.72
954.818	5365.34
955.122	5326.47
955.426	5273.82
955.731	5268.39
956.035	5212.57
956.339	5156.76
956.643	5173.03
956.948	5114.95
957.252	5102.75
957.556	5116.76
957.86	5070.21
958.163	5034.27
958.467	4963.32
958.771	4941.17
959.075	4932.36
959.378	4874.28
959.682	4870.89
959.985	4889.87
960.289	4860.49
960.592	4817.78
960.896	4766.94
961.199	4788.63
961.502	4718.35
961.805	4668.41
962.108	4699.37
962.411	4665.92
962.714	4625.02
963.017	4668.86
963.32	4659.37
963.623	4596.55
963.926	4575.98
964.228	4545.25
964.531	4565.81
964.833	4576.43
965.136	4507.73
965.438	4468.41
965.741	4483.78
966.043	4498.47
966.345	4444.91
966.648	4506.6
966.95	4446.72
967.252	4434.52
967.554	4415.76
967.856	4399.49
968.158	4338.93
968.46	4356.55
968.761	4366.27
969.063	4360.62
969.365	4308.64
969.666	4286.72
969.968	4294.86
970.269	4261.64
970.571	4279.04
970.872	4209.44
971.174	4217.35
971.475	4224.58
971.776	4223.22
972.077	4204.92
972.378	4158.14
972.679	4181.42
972.98	4205.14
973.281	4099.61
973.582	4130.8
973.883	4109.78
974.183	4087.63
974.484	4085.6
974.785	4035.88
975.085	4001.76
975.386	4005.15
975.686	4020.74
975.986	3960.18
976.287	3966.96
976.587	3915.66
976.887	3915.43
977.187	3877.92
977.487	3839.05
977.787	3819.62
978.087	3796.34
978.387	3774.19
978.687	3767.42
978.987	3748.66
979.286	3722.67
979.586	3688.32
979.885	3656.23
980.185	3683.58
980.484	3671.37
980.784	3616.91
981.083	3568.78
981.382	3602.9
981.682	3585.5
981.981	3546.18
982.28	3486.29
982.579	3509.12
982.878	3479.06
983.177	3436.58
983.475	3408.78
983.774	3379.85
984.073	3400.87
984.372	3370.36
984.67	3388.22
984.969	3342.12
985.267	3357.48
985.566	3310.93
985.864	3291.27
986.162	3240.65
986.461	3228.67
986.759	3250.82
987.057	3210.14
987.355	3228.45
987.653	3237.49
987.951	3211.5
988.249	3210.14
988.547	3151.16
988.844	3166.07
989.142	3129.47
989.44	3115.68
989.737	3130.37
990.035	3105.51
990.332	3095.34
990.63	3079.3
990.927	3074.78
991.224	3089.47
991.521	3111.84
991.819	3047.89
992.116	3063.93
992.413	3032.07
992.71	3006.31
993.006	3014.67
993.303	3038.85
993.6	2995.01
993.897	2976.48
994.193	2982.8
994.49	3003.37
994.787	2939.87
995.083	2955.46
995.379	2871.17
995.676	2879.3
995.972	2854.9
996.268	2866.87
996.565	2845.18
996.861	2859.19
997.157	2811.73
997.453	2792.3
997.749	2820.77
998.044	2811.73
998.34	2776.25
998.636	2780.77
998.932	2742.81
999.227	2750.27
999.523	2746.2
999.818	2703.71
1000.114	2678.86
1000.409	2671.4
1000.704	2641.79
1001	2659.65
1001.295	2622.81
1001.59	2628.46
1001.885	2632.53
1002.18	2590.27
1002.475	2577.39
1002.77	2530.84
1003.065	2552.98
1003.359	2522.25
1003.654	2479.09
1003.949	2480.44
1004.243	2464.62
1004.538	2449.26
1004.832	2420.56
1005.127	2403.84
1005.421	2419.2
1005.715	2420.56
1006.009	2383.5
1006.304	2361.8
1006.598	2328.58
1006.892	2309.83
1007.186	2284.74
1007.48	2277.28
1007.773	2250.62
1008.067	2235.25
1008.361	2212.43
1008.655	2226.44
1008.948	2221.02
1009.242	2208.81
1009.535	2174.24
1009.829	2176.27
1010.122	2128.59
1010.415	2137.63
1010.708	2114.58
1011.001	2095.37
1011.295	2069.38
1011.588	2071.64
1011.881	2074.35
1012.173	2052.43
1012.466	2051.98
1012.759	2060.12
1013.052	2005.2
1013.344	2004.98
1013.637	2019.21
1013.93	1994.81
1014.222	1984.64
1014.514	1988.48
1014.807	1951.42
1015.099	1986.67
1015.391	1962.72
1015.683	1924.07
1015.976	1937.86
1016.268	1903.28
1016.56	1905.77
1016.851	1880.23
1017.143	1894.92
1017.435	1887.24
1017.727	1879.78
1018.018	1873.45
1018.31	1835.26
1018.602	1832.55
1018.893	1820.35
1019.185	1802.72
1019.476	1800.91
1019.767	1776.28
1020.058	1785.09
1020.35	1767.24
1020.641	1764.98
1020.932	1752.78
1021.223	1731.99
1021.514	1680.69
1021.804	1692.67
1022.095	1728.15
1022.386	1696.28
1022.677	1695.15
1022.967	1676.17
1023.258	1648.6
1023.548	1656.74
1023.839	1642.5
1024.129	1648.83
1024.419	1606.57
1024.709	1578.77
1025	1597.53
1025.29	1574.93
1025.58	1588.26
1025.87	1555.72
1026.16	1557.76
1026.449	1523.63
1026.739	1547.81
1027.029	1527.7
1027.319	1506.68
1027.608	1510.98
1027.898	1486.35
1028.187	1472.56
1028.477	1476.4
1028.766	1472.33
1029.055	1426.69
1029.344	1441.37
1029.634	1428.04
1029.923	1409.28
1030.212	1407.25
1030.501	1400.02
1030.79	1365.44
1031.078	1361.38
1031.367	1341.26
1031.656	1346.91
1031.945	1324.32
1032.233	1330.87
1032.522	1299.01
1032.81	1314.37
1033.099	1274.83
1033.387	1288.38
1033.675	1255.84
1033.963	1268.95
1034.251	1258.55
1034.54	1244.54
1034.828	1215.62
1035.116	1216.75
1035.403	1216.07
1035.691	1183.98
1035.979	1205.9
1036.267	1185.79
1036.554	1165.9
1036.842	1171.1
1037.129	1152.57
1037.417	1165.9
1037.704	1137.65
1037.992	1162.51
1038.279	1129.52
1038.566	1118.22
1038.853	1118.22
1039.14	1118.22
