Data from red_cardboard_box_FLMS001491_00061.txt Node
Date: Wed Feb 08 11:32:55 GMT 2017
User: dcchb
Spectrometer: FLMS00149
Trigger mode: 0
Integration Time (sec): 2.000000E-2
Scans to average: 10
Electric dark correction enabled: true
Nonlinearity correction enabled: false
Boxcar width: 0
XAxis mode: Wavelengths
Number of Pixels in Spectrum: 2048
>>>>>Begin Spectral Data<<<<<
341.393	-11.31
341.776	-11.31
342.16	-11.31
342.543	-53.57
342.927	-68.03
343.31	-82.72
343.693	-71.42
344.077	-68.03
344.46	-60.13
344.843	-56.51
345.226	-54.48
345.61	-21.03
345.993	-37.3
346.376	-1.14
346.759	23.71
347.142	33.88
347.525	37.05
347.908	66.88
348.291	77.05
348.674	113.66
349.057	100.55
349.44	126.08
349.823	134.45
350.206	179.42
350.588	218.96
350.971	205.86
351.354	233.2
351.737	248.11
352.119	262.8
352.502	253.09
352.884	257.15
353.267	276.14
353.65	300.99
354.032	296.25
354.414	313.88
354.797	325.4
355.179	314.55
355.562	339.64
355.944	320.2
356.326	330.15
356.709	350.49
357.091	322.92
357.473	332.41
357.855	333.31
358.238	339.86
358.62	357.26
359.002	335.12
359.384	338.51
359.766	318.17
360.148	328.34
360.53	324.5
360.912	362.46
361.294	335.34
361.676	335.12
362.057	327.21
362.439	334.21
362.821	312.97
363.203	334.89
363.584	333.31
363.966	300.09
364.348	333.31
364.729	317.94
365.111	323.59
365.493	320.43
365.874	325.4
366.256	302.35
366.637	320.66
367.019	315.91
367.4	306.87
367.781	315.91
368.163	299.41
368.544	313.65
368.925	319.53
369.306	351.62
369.688	330.6
370.069	330.15
370.45	292.86
370.831	326.08
371.212	331.73
371.593	297.38
371.974	302.8
372.355	311.62
372.736	326.98
373.117	323.59
373.498	311.84
373.879	288.11
374.26	311.16
374.641	294.22
375.021	308.9
375.402	318.17
375.783	333.08
376.163	330.15
376.544	311.62
376.925	337.6
377.305	318.17
377.686	334.21
378.066	343.25
378.447	322.01
378.827	317.72
379.208	309.58
379.588	319.75
379.968	330.37
380.349	345.06
380.729	327.43
381.109	331.05
381.489	330.37
381.87	332.41
382.25	324.5
382.63	329.24
383.01	335.8
383.39	328.11
383.77	323.82
384.15	329.47
384.53	355.68
384.91	344.61
385.29	335.8
385.67	345.97
386.049	340.77
386.429	329.69
386.809	341.9
387.189	316.14
387.568	364.5
387.948	340.77
388.328	356.59
388.707	342.35
389.087	352.07
389.466	358.62
389.846	340.99
390.225	352.52
390.605	355.46
390.984	365.4
391.363	351.39
391.743	356.13
392.122	350.71
392.501	340.77
392.881	357.94
393.26	365.17
393.639	347.55
394.018	359.07
394.397	380.77
394.776	358.17
395.155	351.62
395.534	373.99
395.913	364.27
396.292	346.87
396.671	361.33
397.05	359.75
397.429	357.49
397.808	358.62
398.186	358.85
398.565	365.17
398.944	366.53
399.323	367.43
399.701	365.85
400.08	363.59
400.458	381.22
400.837	388
401.215	382.35
401.594	375.12
401.972	372.86
402.351	364.95
402.729	382.57
403.107	394.33
403.486	372.18
403.864	396.36
404.242	388
404.62	390.71
404.999	371.05
405.377	392.74
405.755	394.33
406.133	396.36
406.511	399.52
406.889	398.17
407.267	399.75
407.645	391.39
408.023	387.55
408.401	391.61
408.779	404.72
409.156	401.78
409.534	406.53
409.912	414.21
410.29	411.05
410.667	407.88
411.045	403.37
411.422	425.51
411.8	418.51
412.178	416.47
412.555	412.63
412.933	411.73
413.31	404.95
413.687	427.32
414.065	433.87
414.442	432.52
414.819	440.2
415.197	420.09
415.574	432.74
415.951	443.36
416.328	453.99
416.705	430.26
417.082	439.52
417.46	439.07
417.837	438.84
418.214	437.04
418.591	437.71
418.967	441.56
419.344	434.78
419.721	457.83
420.098	461.22
420.475	465.51
420.852	445.85
421.228	456.92
421.605	457.6
421.982	454.44
422.358	442.91
422.735	466.41
423.111	474.32
423.488	460.76
423.864	453.08
424.241	491.72
424.617	465.51
424.994	479.75
425.37	490.14
425.746	453.76
426.123	495.34
426.499	464.83
426.875	492.63
427.251	498.05
427.627	496.7
428.003	484.72
428.379	495.57
428.756	504.38
429.132	512.74
429.507	512.29
429.883	502.35
430.259	512.97
430.635	497.6
431.011	513.64
431.387	534.21
431.763	518.62
432.138	557.03
432.514	545.73
432.89	547.99
433.265	526.53
433.641	535.79
434.016	532.4
434.392	566.98
434.767	546.41
435.143	544.15
435.518	547.77
435.894	539.86
436.269	571.95
436.644	567.88
437.02	556.36
437.395	578.95
437.77	590.25
438.145	579.63
438.52	549.35
438.895	586.86
439.271	575.34
439.646	562.68
440.021	616.24
440.395	602.46
440.77	585.51
441.145	581.21
441.52	605.85
441.895	603.36
442.27	607.2
442.645	609.46
443.019	598.16
443.394	610.59
443.769	607.2
444.143	618.05
444.518	609.46
444.892	612.17
445.267	613.98
445.641	637.94
446.016	632.96
446.39	642
446.764	629.8
447.139	619.4
447.513	616.24
447.887	647.88
448.262	618.27
448.636	649.46
449.01	646.97
449.384	641.55
449.758	668.22
450.132	672.74
450.506	651.49
450.88	662.57
451.254	649.69
451.628	673.19
452.002	664.83
452.376	668.44
452.75	685.84
453.123	671.15
453.497	671.61
453.871	694.2
454.244	698.27
454.618	696.92
454.992	690.59
455.365	685.17
455.739	696.01
456.112	720.42
456.486	720.19
456.859	736.01
457.232	718.61
457.606	723.81
457.979	726.52
458.352	754.77
458.725	743.47
459.099	741.89
459.472	758.38
459.845	733.53
460.218	773.3
460.591	804.26
460.964	785.05
461.337	773.3
461.71	782.79
462.083	795.22
462.456	776.46
462.829	806.74
463.201	802.68
463.574	780.08
463.947	804.03
464.32	810.81
464.692	847.65
465.065	818.27
465.438	842.45
465.81	857.36
466.183	855.1
466.555	901.66
466.928	878.83
467.3	856.01
467.672	866.86
468.045	924.26
468.417	879.28
468.789	934.88
469.161	917.93
469.534	928.78
469.906	911.83
470.278	912.73
470.65	947.76
471.022	919.28
471.394	971.03
471.766	968.1
472.138	950.92
472.51	972.16
472.882	994.08
473.253	1004.48
473.625	1039.51
473.997	1037.02
474.369	1014.87
474.74	1032.73
475.112	1074.08
475.484	1086.51
475.855	1069.34
476.227	1107.08
476.598	1111.14
476.97	1121.54
477.341	1110.01
477.713	1140.52
478.084	1143.46
478.455	1160.86
478.827	1194.98
479.198	1199.73
479.569	1208.99
479.94	1213.97
480.311	1221.65
480.682	1265.26
481.053	1291.03
481.424	1284.25
481.795	1310.23
482.166	1316.56
482.537	1321.53
482.908	1359.05
483.279	1376.67
483.65	1363.34
484.021	1395.66
484.391	1392.94
484.762	1439.27
485.133	1434.3
485.503	1444.69
485.874	1472.04
486.244	1512.04
486.615	1504.81
486.985	1541.41
487.356	1545.48
487.726	1547.74
488.097	1595.42
488.467	1559.94
488.837	1622.77
489.207	1614.63
489.578	1641.3
489.948	1646.72
490.318	1657.57
490.688	1679.72
491.058	1722.43
491.428	1746.38
491.798	1745.25
492.168	1748.19
492.538	1812.37
492.908	1790.22
493.278	1810.33
493.648	1826.6
494.017	1827.51
494.387	1848.52
494.757	1849.43
495.126	1856.89
495.496	1891.01
495.866	1914.51
496.235	1921.97
496.605	1915.42
496.974	1957.45
497.344	1967.17
497.713	1984.11
498.082	1990.89
498.452	2026.6
498.821	2030.67
499.19	2031.8
499.559	2051.23
499.928	2018.92
500.298	2072.25
500.667	2074.06
501.036	2083.77
501.405	2083.32
501.774	2114.96
502.143	2135.3
502.512	2152.92
502.88	2172.36
503.249	2152.25
503.618	2171.68
503.987	2208.29
504.356	2182.53
504.724	2220.94
505.093	2218.23
505.462	2272.92
505.83	2250.32
506.199	2276.08
506.567	2312.47
506.936	2323.54
507.304	2312.02
507.672	2334.61
508.041	2345.69
508.409	2363.09
508.777	2365.35
509.145	2424.1
509.514	2381.62
509.882	2439.47
510.25	2445.57
510.618	2422.52
510.986	2464.1
511.354	2479.69
511.722	2483.31
512.09	2516.3
512.458	2530.99
512.826	2519.69
513.193	2540.94
513.561	2588.84
513.929	2594.72
514.297	2627.26
514.664	2604.89
515.032	2643.98
515.4	2672.68
515.767	2681.05
516.135	2727.15
516.502	2715.39
516.869	2728.95
517.237	2738.22
517.604	2747.03
517.972	2790.87
518.339	2794.71
518.706	2812.34
519.073	2857.54
519.44	2844.88
519.808	2861.61
520.175	2886.01
520.542	2929.85
520.909	2904.54
521.276	2912.23
521.643	2972.56
522.009	2971.66
522.376	3020.47
522.743	3017.99
523.11	3082.84
523.477	3096.63
523.843	3074.03
524.21	3164.2
524.577	3154.93
524.943	3177.3
525.31	3203.74
525.676	3202.16
526.043	3300.69
526.409	3286.23
526.776	3273.35
527.142	3308.15
527.508	3353.57
527.874	3382.04
528.241	3382.04
528.607	3376.17
528.973	3426.79
529.339	3421.36
529.705	3488.93
530.071	3495.26
530.437	3548.59
530.803	3552.21
531.169	3547.46
531.535	3534.13
531.901	3588.14
532.267	3642.83
532.632	3647.8
532.998	3652.55
533.364	3662.94
533.73	3677.86
534.095	3716.95
534.461	3722.6
534.826	3782.71
535.192	3778.19
535.557	3782.94
535.923	3771.86
536.288	3840.56
536.653	3851.18
537.019	3840.79
537.384	3884.63
537.749	3881.24
538.114	3884.86
538.479	3934.57
538.845	3899.54
539.21	3926.89
539.575	3953.78
539.94	3977.06
540.305	4009.82
540.67	4026.77
541.034	4064.74
541.399	4056.15
541.764	4047.56
542.129	4152.87
542.494	4096.6
542.858	4161.68
543.223	4172.76
543.587	4193.55
543.952	4159.42
544.316	4173.44
544.681	4236.71
545.045	4245.07
545.41	4280.78
545.774	4316.93
546.138	4269.03
546.503	4328.23
546.867	4354.45
547.231	4392.19
547.595	4381.57
547.959	4416.82
548.324	4410.94
548.688	4449.36
549.052	4477.16
549.416	4478.74
549.779	4496.14
550.143	4565.29
550.507	4514.9
550.871	4608.45
551.235	4605.97
551.599	4613.42
551.962	4642.12
552.326	4631.95
552.689	4750.82
553.053	4709.69
553.417	4757.15
553.78	4825.4
554.143	4788.56
554.507	4813.42
554.87	4837.82
555.234	4972.74
555.597	4876.69
555.96	4968.89
556.323	5001.21
556.686	5035.33
557.05	5049.57
557.413	5061.1
557.776	5083.47
558.139	5146.97
558.502	5162.79
558.865	5178.38
559.228	5222.9
559.59	5250.47
559.953	5306.74
560.316	5380.41
560.679	5377.02
561.041	5431.03
561.404	5483.23
561.767	5497.69
562.129	5522.78
562.492	5648.42
562.854	5653.4
563.217	5639.84
563.579	5747.63
563.941	5731.81
564.304	5847.52
564.666	5873.28
565.028	5948.98
565.39	5946.27
565.753	6028.53
566.115	6100.84
566.477	6118.24
566.839	6182.42
567.201	6202.31
567.563	6272.36
567.925	6378.58
568.287	6363.43
568.648	6495.63
569.01	6478.91
569.372	6577.67
569.734	6570.66
570.095	6696.76
570.457	6715.06
570.819	6738.57
571.18	6845
571.542	6887.71
571.903	6949.63
572.265	6963.64
572.626	7142.4
572.987	7104.66
573.349	7209.51
573.71	7303.97
574.071	7343.07
574.432	7408.83
574.794	7527.25
575.155	7546.23
575.516	7635.49
575.877	7740.35
576.238	7740.57
576.599	7900.8
576.96	7950.96
577.32	7996.61
577.681	8137.17
578.042	8235.25
578.403	8340.56
578.763	8367
579.124	8488.35
579.485	8613.09
579.845	8693.54
580.206	8752.07
580.566	8851.5
580.927	8946.19
581.287	9126.07
581.648	9158.84
582.008	9313.87
582.368	9404.03
582.728	9569.45
583.089	9726.06
583.449	9813.29
583.809	9910.46
584.169	10099.61
584.529	10162.88
584.889	10432.71
585.249	10445.59
585.609	10580.5
585.969	10921.73
586.329	10939.36
586.688	11117.21
587.048	11324.43
587.408	11444.66
587.768	11680.36
588.127	11809.62
588.487	12025.66
588.846	12314.69
589.206	12385.87
589.565	12620.67
589.925	12952.19
590.284	13091.62
590.643	13360.31
591.003	13615.9
591.362	13770.7
591.721	14080.75
592.08	14391.7
592.44	14634.4
592.799	14870.33
593.158	15102.64
593.517	15438.68
593.876	15630.76
594.235	16011.54
594.593	16278.2
594.952	16606.1
595.311	16780.11
595.67	17224.84
596.029	17593.42
596.387	17807.65
596.746	18293.97
597.104	18474.08
597.463	18761.3
597.822	19098.47
598.18	19338.91
598.538	19740.71
598.897	20129.85
599.255	20249.62
599.613	20916.05
599.972	21101.58
600.33	21476.94
600.688	21656.37
601.046	22234.88
601.404	22625.61
601.762	22817.69
602.12	23269.43
602.478	23628.52
602.836	24028.73
603.194	24137.88
603.552	24534.71
603.91	24831.65
604.268	25279.55
604.625	25651.97
604.983	26015.8
605.341	26142.12
605.698	26676.8
606.056	26978.49
606.413	27304.58
606.771	27565.36
607.128	27926.48
607.485	28150.43
607.843	28556.98
608.2	28944.54
608.557	29175.26
608.914	29517.18
609.272	29858.86
609.629	30070.83
609.986	30428.56
610.343	30509.92
610.7	30985.61
611.057	31368.43
611.414	31407.07
611.771	31772.03
612.127	31984.68
612.484	32323.66
612.841	32598.9
613.198	32676.41
613.554	32953.92
613.911	33393.91
614.267	33497.86
614.624	33679.1
614.98	33993.89
615.337	34175.13
615.693	34453.32
616.05	34493.32
616.406	34874.78
616.762	34941.21
617.118	35152.96
617.475	35372.84
617.831	35601.08
618.187	35774.64
618.543	35927.63
618.899	36328.3
619.255	36396.32
619.611	36436.09
619.967	36750.88
620.323	36947.71
620.678	36874.72
621.034	37166.69
621.39	37092.57
621.746	37146.58
622.101	37836.05
622.457	37596.06
622.812	37762.38
623.168	37902.04
623.523	38004.41
623.879	38306.78
624.234	38005.31
624.589	38324.18
624.945	38428.58
625.3	38580.21
625.655	38664.28
626.01	38828.57
626.365	38792.86
626.72	39048
627.075	38919.87
627.43	39122.12
627.785	38982.46
628.14	39069.69
628.495	39373.19
628.85	39282.57
629.205	39177.94
629.559	39580.19
629.914	39602.56
630.269	39606.18
630.623	39528.66
630.978	39537.48
631.332	39742.9
631.687	39952.16
632.041	39788.09
632.396	39874.87
632.75	39737.47
633.104	39893.63
633.459	39774.08
633.813	39787.87
634.167	39900.63
634.521	39878.71
634.875	39984.47
635.229	40051.14
635.583	39812.72
635.937	39926.39
636.291	39842.33
636.645	39976.34
636.999	39878.94
637.352	40056.33
637.706	40002.55
638.06	40057.01
638.413	39968.65
638.767	39874.19
639.121	39997.35
639.474	39907.64
639.828	39979.73
640.181	40177.01
640.534	40094.3
640.888	40152.83
641.241	39891.37
641.594	40165.03
641.947	40173.17
642.301	40134.75
642.654	40200.96
643.007	40177.01
643.36	40172.04
643.713	40153.28
644.066	40219.49
644.419	39988.99
644.771	39576.8
645.124	39557.14
645.477	39337.71
645.83	39128
646.182	39090.03
646.535	39036.25
646.888	39175.45
647.24	39028.11
647.593	39220.88
647.945	39168.45
648.298	39010.49
648.65	39019.07
649.002	38913.76
649.355	39092.97
649.707	39092.29
650.059	39100.65
650.411	39538.61
650.763	39737.47
651.115	40157.35
651.467	39925.94
651.819	40026.5
652.171	39743.57
652.523	39839.62
652.875	39978.37
653.227	39879.16
653.578	40059.5
653.93	39974.75
654.282	39861.99
654.633	39663.58
654.985	39741.77
655.337	39758.71
655.688	39792.16
656.039	39997.58
656.391	39651.6
656.742	39727.08
657.094	39815.66
657.445	40002.55
657.796	39849.56
658.147	39836.68
658.498	39667.87
658.849	39822.22
659.2	39724.59
659.551	39609.57
659.902	39813.4
660.253	39694.76
660.604	39750.13
660.955	39520.3
661.306	39679.17
661.656	39683.91
662.007	39762.1
662.358	39644.14
662.708	39769.56
663.059	39688.21
663.409	39502.9
663.76	39798.26
664.11	39724.59
664.461	39795.1
664.811	39733.4
665.161	39770.01
665.511	39636.46
665.862	39710.35
666.212	39817.47
666.562	39781.31
666.912	39623.8
667.262	39813.63
667.612	39699.06
667.962	39631.49
668.312	39631.94
668.662	39925.04
669.011	39816.57
669.361	39536.8
669.711	39710.13
670.06	39643.46
670.41	39689.11
670.76	39509.23
671.109	39751.48
671.459	39521.43
671.808	39557.14
672.157	39593.75
672.507	39297.71
672.856	39466.29
673.205	39453.86
673.554	39628.32
673.904	39501.32
674.253	39732.95
674.602	39511.49
674.951	38887.32
675.3	38744.73
675.649	39439.85
675.998	39372.51
676.346	39466.52
676.695	39585.16
677.044	39242.12
677.393	39323.92
677.741	39231.95
678.09	39308.33
678.438	39160.31
678.787	39239.18
679.135	39155.57
679.484	38972.97
679.832	39260.42
680.181	38950.83
680.529	39128
680.877	39047.32
681.225	38857.04
681.573	39094.78
681.922	38836.7
682.27	38800.1
682.618	38847.1
682.966	38794.67
683.314	38709.7
683.661	38616.6
684.009	38446.88
684.357	38342.71
684.705	38359.88
685.053	38393.78
685.4	38294.8
685.748	38225.2
686.095	38238.08
686.443	38137.74
686.79	38009.83
687.138	38156.5
687.485	38034.69
687.832	37844.41
688.18	37931.19
688.527	37609.17
688.874	37850.06
689.221	37630.86
689.568	37591.77
689.915	37469.74
690.262	37542.95
690.609	37312
690.956	37180.93
691.303	37083.3
691.65	37077.66
691.997	37197.65
692.344	36811.22
692.69	36880.15
693.037	36875.4
693.383	36550.44
693.73	36568.74
694.077	36500.95
694.423	36564.22
694.769	36366.26
695.116	36353.83
695.462	36455.52
695.808	36193.61
696.155	36218.92
696.501	36001.98
696.847	35943.22
697.193	35637.69
697.539	35805.37
697.885	35432.05
698.231	35466.62
698.577	35541.65
698.923	35364.48
699.269	35308.66
699.614	35100.08
699.96	35046.3
700.306	35069.35
700.651	34840.65
700.997	34818.05
701.342	34728.11
701.688	34583.71
702.033	34452.19
702.379	34560.43
702.724	34397.95
703.069	34464.84
703.415	34197.5
703.76	34167.9
704.105	34284.51
704.45	34084.51
704.795	33968.81
705.14	33876.16
705.485	33757.74
705.83	33659.44
706.175	33731.75
706.52	33649.04
706.865	33594.36
707.209	33476.17
707.554	33391.65
707.899	33453.34
708.243	33165.67
708.588	33157.98
708.932	32927.93
709.277	32912.34
709.621	33059.68
709.966	32792.34
710.31	32868.27
710.654	32487.27
710.998	32745.34
711.342	32726.81
711.687	32583.54
712.031	32503.99
712.375	32322.98
712.719	32435.07
713.063	32286.59
713.407	32338.34
713.75	32205.92
714.094	32117.33
714.438	32045.7
714.782	32135.41
715.125	31996.66
715.469	32002.31
715.812	31813.39
716.156	31640.74
716.499	31678.02
716.843	31641.41
717.186	31534.3
717.53	31818.36
717.873	31544.69
718.216	31513.51
718.559	31280.52
718.902	31036.91
719.246	31319.84
719.589	31231.71
719.932	31117.13
720.275	31147.42
720.617	31026.97
720.96	30911.72
721.303	31082.11
721.646	31082.78
721.989	30932.28
722.331	30875.11
722.674	30848.44
723.016	30866.97
723.359	30675.56
723.701	30807.09
724.044	30582.46
724.386	30354.67
724.729	30546.75
725.071	30482.57
725.413	30455.23
725.755	30532.97
726.097	30331.84
726.439	30219.08
726.782	30121
727.124	30359.87
727.465	30117.84
727.807	30071.74
728.149	29980.67
728.491	29932.53
728.833	29959.2
729.175	29840.33
729.516	29950.61
729.858	29839.65
730.199	29820.44
730.541	29869.26
730.882	29744.51
731.224	29844.85
731.565	29630.62
731.906	29626.33
732.248	29746.1
732.589	29470.85
732.93	29311.53
733.271	29440.79
733.612	29345.88
733.953	29440.79
734.294	29254.58
734.635	29282.38
734.976	29449.61
735.317	29197.86
735.658	29215.94
735.999	29128.26
736.339	29135.94
736.68	29182.72
737.021	29061.37
737.361	29047.58
737.702	29091.2
738.042	28994.03
738.383	28827.93
738.723	28876.06
739.063	28826.35
739.404	28947.25
739.744	28711.77
740.084	28657.09
740.424	28718.1
740.764	28717.65
741.104	28759.23
741.444	28505
741.784	28439.46
742.124	28590.19
742.464	28543.64
742.804	28438.79
743.143	28449.86
743.483	28368.51
743.823	28282.18
744.162	28257.1
744.502	28253.25
744.841	28176.19
745.181	28388.17
745.52	28116.76
745.86	28150.21
746.199	28210.77
746.538	28175.52
746.877	28169.64
747.216	27956.09
747.556	28013.94
747.895	28086.93
748.234	27978.01
748.573	27768.75
748.911	27842.64
749.25	27849.42
749.589	27801.74
749.928	27763.55
750.267	27769.43
750.605	27659.6
750.944	27658.24
751.283	27496.44
751.621	27547.51
751.96	27444.69
752.298	27442.65
752.636	27401.3
752.975	27440.62
753.313	27195.88
753.651	27347.74
753.989	27186.62
754.327	27175.32
754.666	27011.03
755.004	27039.95
755.342	27028.88
755.679	26967.64
756.017	26728.1
756.355	26877.7
756.693	26700.98
757.031	26778.49
757.368	26571.04
757.706	26683.13
758.044	26634.99
758.381	26470.7
758.719	26439.06
759.056	26421.89
759.394	26201.56
759.731	26285.85
760.068	26215.57
760.405	26051.73
760.743	26039.98
761.08	25993.65
761.417	25928.34
761.754	25991.84
762.091	25803.6
762.428	25733.32
762.765	25592.08
763.102	25712.3
763.438	25568.58
763.775	25521.35
764.112	25406.78
764.449	25329.72
764.785	25213.11
765.122	25220.79
765.458	25062.6
765.795	24895.6
766.131	24971.98
766.467	24901.7
766.804	24802.72
767.14	24633.01
767.476	24677.08
767.812	24532.9
768.148	24564.31
768.485	24364.54
768.821	24309.4
769.157	24099.01
769.492	24237.77
769.828	24145.57
770.164	23941.73
770.5	23943.76
770.836	23985.12
771.171	23870.32
771.507	23717.78
771.842	23590.1
772.178	23558.24
772.513	23457.22
772.849	23452.02
773.184	23355.08
773.519	23363.21
773.855	23170.9
774.19	23209.55
774.525	23103.11
774.86	22973.39
775.195	22989.66
775.53	22777.24
775.865	22667.19
776.2	22626.06
776.535	22404.14
776.87	22478.26
777.205	22400.07
777.539	22292.73
777.874	22326.86
778.209	22208.22
778.543	22078.5
778.878	21980.88
779.212	21977.26
779.547	21789.02
779.881	21902.91
780.215	21642.58
780.55	21749.7
780.884	21577.27
781.218	21570.94
781.552	21492.75
781.886	21478.52
782.22	21325.53
782.554	21285.08
782.888	21066.1
783.222	20987.68
783.556	20964.18
783.889	20826.33
784.223	20773.68
784.557	20644.41
784.89	20645.09
785.224	20565.32
785.557	20510.41
785.891	20469.05
786.224	20397.42
786.558	20407.58
786.891	20195.39
787.224	20176.4
787.557	20120.81
787.891	20152.22
788.224	20070.64
788.557	20051.21
788.89	19853.7
789.223	19900.71
789.556	19838.56
789.888	19658.45
790.221	19622.75
790.554	19476.31
790.887	19426.82
791.219	19341.17
791.552	19353.83
791.884	19220.5
792.217	19247.84
792.549	19162.87
792.882	18949.77
793.214	18965.14
793.546	18974.63
793.879	18849.43
794.211	18739.61
794.543	18858.7
794.875	18723.34
795.207	18724.24
795.539	18493.06
795.871	18613.73
796.203	18427.75
796.535	18363.34
796.867	18348.66
797.198	18236.79
797.53	18307.3
797.862	18075.67
798.193	18213.97
798.525	18036.12
798.856	18027.08
799.188	17870.48
799.519	17875
799.85	17756.13
800.182	17760.42
800.513	17840.65
800.844	17539.19
801.175	17740.54
801.506	17634.78
801.837	17494.44
802.168	17456.7
802.499	17416.93
802.83	17362.69
803.161	17277.95
803.491	17334.22
803.822	17217.61
804.153	17121.12
804.483	17058.29
804.814	17010.61
805.145	16935.59
805.475	16940.33
805.805	16901.24
806.136	16928.13
806.466	16865.53
806.796	16811.07
807.126	16622.15
807.457	16606.33
807.787	16600.23
808.117	16602.49
808.447	16505.31
808.777	16594.13
809.107	16445.66
809.436	16383.28
809.766	16402.72
810.096	16349.61
810.426	16234.36
810.755	16288.37
811.085	16168.6
811.414	16102.16
811.744	16031.88
812.073	16056.96
812.403	16106.46
812.732	15965.67
813.061	15954.37
813.39	15869.17
813.719	15795.5
814.049	15884.99
814.378	15780.81
814.707	15685.22
815.036	15748.05
815.365	15639.57
815.693	15398.68
816.022	15491.78
816.351	15478.45
816.68	15352.8
817.008	15474.16
817.337	15417.66
817.665	15342.18
817.994	15404.78
818.322	15368.85
818.651	15186.71
818.979	15149.64
819.307	15318.91
819.636	15191.22
819.964	15146.48
820.292	15127.27
820.62	15094.28
820.948	15018.57
821.276	15113.03
821.604	15046.6
821.932	15151.68
822.259	15002.08
822.587	14969.76
822.915	15026.94
823.243	15036.43
823.57	14992.81
823.898	15006.37
824.225	14944.23
824.553	14981.06
824.88	14953.94
825.207	14967.5
825.535	15003.43
825.862	14981.74
826.189	14890.22
826.516	14992.36
826.843	14988.07
827.17	15001.17
827.497	14941.97
827.824	14929.99
828.151	15028.74
828.478	14934.51
828.805	14968.86
829.131	14965.24
829.458	14848.18
829.785	14920.72
830.111	14894.06
830.438	15029.65
830.764	14988.97
831.09	14858.13
831.417	14824
831.743	14850.22
832.069	14854.28
832.395	14828.75
832.722	14875.3
833.048	14733.84
833.374	14815.87
833.7	14811.57
834.026	14875.98
834.351	14774.96
834.677	14743.33
835.003	14771.35
835.329	14836.66
835.654	14808.41
835.98	14758.92
836.306	14713.5
836.631	14704.68
836.956	14661.07
837.282	14703.55
837.607	14560.28
837.932	14582.2
838.258	14540.39
838.583	14605.25
838.908	14454.3
839.233	14479.83
839.558	14505.59
839.883	14404.8
840.208	14414.3
840.533	14396.67
840.858	14473.28
841.182	14487.97
841.507	14384.92
841.832	14306.05
842.156	14212.72
842.481	14315.77
842.805	14250.91
843.13	14208.65
843.454	14176.11
843.778	14087.53
844.103	14191.93
844.427	14130.24
844.751	14054.98
845.075	13960.52
845.399	13945.38
845.723	13882.78
846.047	13859.96
846.371	13775.44
846.695	13777.48
847.019	13696.12
847.343	13612.74
847.666	13522.34
847.99	13532.51
848.313	13498.39
848.637	13290.03
848.96	13356.47
849.284	13299.98
849.607	13306.75
849.931	13191.05
850.254	13106.08
850.577	13037.38
850.9	13000.1
851.223	12986.76
851.546	12885.75
851.869	12850.72
852.192	12918.52
852.515	12771.63
852.838	12670.84
853.161	12675.13
853.483	12691.18
853.806	12678.52
854.129	12593.78
854.451	12526.66
854.774	12532.76
855.096	12442.6
855.419	12345.88
855.741	12387
856.063	12307.23
856.385	12218.87
856.708	12250.51
857.03	12158.76
857.352	12232.88
857.674	12129.84
857.996	12091.19
858.318	12029.95
858.64	12067.69
858.961	12000.8
859.283	11965.32
859.605	11948.37
859.926	11895.72
860.248	11923.97
860.57	11881.71
860.891	11902.05
861.212	11785.89
861.534	11666.12
861.855	11733.24
862.176	11729.62
862.498	11704.54
862.819	11788.83
863.14	11634.71
863.461	11608.72
863.782	11534.15
864.103	11574.14
864.424	11541.38
864.745	11634.48
865.065	11496.41
865.386	11427.48
865.707	11490.98
866.027	11528.27
866.348	11378.67
866.668	11447.37
866.989	11378.44
867.309	11263.64
867.63	11317.43
867.95	11376.86
868.27	11304.32
868.59	11325.79
868.91	11272.23
869.23	11255.06
869.55	11136.42
869.87	11198.34
870.19	11095.74
870.51	11254.38
870.83	11199.92
871.15	11131.44
871.469	11173.03
871.789	11195.62
872.109	11093.48
872.428	11056.87
872.748	11063.88
873.067	10988.4
873.386	11039.24
873.706	11080.15
874.025	10932.35
874.344	10904.33
874.663	11002.86
874.982	10889.87
875.301	10947.95
875.62	10868.63
875.939	10893.48
876.258	10882.86
876.577	10778.91
876.896	10841.96
877.214	10747.5
877.533	10760.83
877.852	10815.29
878.17	10710.66
878.489	10720.61
878.807	10773.71
879.125	10727.84
879.444	10747.73
879.762	10714.96
880.08	10679.71
880.398	10612.14
880.716	10638.8
881.034	10545.25
881.352	10543.21
881.67	10574.62
881.988	10556.09
882.306	10600.16
882.624	10555.64
882.941	10433.61
883.259	10460.28
883.577	10407.17
883.894	10323.78
884.212	10308.64
884.529	10293.5
884.846	10318.81
885.164	10333.05
885.481	10218.93
885.798	10206.72
886.115	10181.87
886.432	10159.72
886.75	10122.66
887.067	10163.56
887.383	10079.72
887.7	10116.1
888.017	10063.68
888.334	10082.66
888.651	10000.63
888.967	9983.45
889.284	9989.78
889.6	9917.92
889.917	9986.62
890.233	9829.56
890.55	9804.25
890.866	9781.42
891.182	9763.12
891.498	9766.73
891.815	9749.79
892.131	9716.79
892.447	9669.79
892.763	9649
893.079	9622.11
893.395	9661.65
893.71	9580.75
894.026	9560.64
894.342	9540.53
894.657	9383.02
894.973	9408.55
895.289	9411.04
895.604	9388.44
895.92	9317.93
896.235	9295.33
896.55	9260.76
896.865	9265.73
897.181	9200.87
897.496	9243.81
897.811	9180.31
898.126	9139.18
898.441	9122.46
898.756	9098.05
899.071	9079.3
899.386	8961.78
899.7	8962.01
900.015	8893.99
900.33	8891.05
900.644	8841.34
900.959	8869.36
901.273	8838.62
901.588	8799.53
901.902	8808.12
902.216	8794.56
902.531	8717.95
902.845	8671.17
903.159	8651.96
903.473	8608.35
903.787	8573.55
904.101	8484.73
904.415	8533.32
904.729	8501.46
905.042	8478.63
905.356	8382.82
905.67	8458.52
905.984	8388.69
906.297	8351.63
906.611	8335.13
906.924	8298.98
907.237	8273.44
907.551	8209.04
907.864	8159.55
908.177	8189.6
908.491	8171.75
908.804	8028.48
909.117	8052.88
909.43	8004.07
909.743	7986.22
910.056	7947.12
910.368	7932.21
910.681	7840.23
910.994	7826.67
911.307	7804.98
911.619	7832.77
911.932	7748.26
912.244	7701.03
912.557	7703.29
912.869	7656.73
913.181	7636.85
913.494	7644.53
913.806	7579.67
914.118	7527.02
914.43	7446.57
914.742	7484.31
915.054	7350.08
915.366	7422.84
915.678	7323.18
915.99	7332.9
916.302	7318.66
916.613	7302.17
916.925	7283.86
917.236	7224.65
917.548	7189.4
917.859	7215.84
918.171	7135.39
918.482	7105.11
918.794	7092
919.105	7056.52
919.416	6949.18
919.727	6995.73
920.038	6950.31
920.349	6892.46
920.66	6865.57
920.971	6929.07
921.282	6881.16
921.593	6788.06
921.903	6779.69
922.214	6720.49
922.525	6743.09
922.835	6694.5
923.146	6665.8
923.456	6669.42
923.767	6635.97
924.077	6557.1
924.387	6504.9
924.697	6504
925.008	6504.9
925.318	6460.61
925.628	6445.47
925.938	6434.39
926.248	6350.1
926.558	6346.03
926.867	6294.06
927.177	6334.96
927.487	6272.82
927.796	6162.54
928.106	6214.06
928.416	6149.2
928.725	6203.89
929.034	6131.58
929.344	6157.79
929.653	6128.86
929.962	6106.04
930.271	6021.07
930.581	6004.12
930.89	6019.94
931.199	5928.87
931.508	5913.5
931.817	5967.96
932.125	5861.53
932.434	5850.45
932.743	5865.59
933.051	5774.98
933.36	5762.09
933.669	5772.72
933.977	5673.28
934.286	5721.87
934.594	5645.94
934.902	5644.36
935.21	5618.6
935.519	5637.58
935.827	5583.79
936.135	5589.44
936.443	5582.66
936.751	5517.81
937.059	5466.73
937.367	5446.17
937.674	5458.15
937.982	5454.76
938.29	5433.29
938.597	5451.14
938.905	5393.29
939.213	5327.08
939.52	5341.99
939.827	5294.99
940.135	5247.08
940.442	5221.32
940.749	5203.92
941.056	5230.58
941.363	5150.36
941.67	5143.35
941.977	5116.46
942.284	5098.83
942.591	5070.59
942.898	5017.48
943.205	5010.7
943.511	4994.2
943.818	5009.8
944.125	4953.98
944.431	4993.75
944.738	4958.27
945.044	4906.75
945.35	4891.38
945.657	4862.68
945.963	4847.77
946.269	4835.79
946.575	4802.35
946.881	4724.83
947.187	4753.76
947.493	4725.06
947.799	4722.8
948.105	4710.37
948.41	4667.43
948.716	4690.26
949.022	4647.1
949.327	4636.7
949.633	4586.08
949.938	4600.99
950.244	4554.44
950.549	4497.49
950.854	4508.12
951.16	4541.34
951.465	4443.71
951.77	4420.89
952.075	4448
952.38	4406.42
952.685	4448.91
952.99	4390.83
953.294	4346.76
953.599	4331.62
953.904	4299.76
954.209	4287.78
954.513	4290.27
954.818	4309.93
955.122	4278.52
955.426	4269.7
955.731	4240.33
956.035	4219.08
956.339	4169.59
956.643	4121.01
956.948	4149.03
957.252	4128.69
957.556	4131.63
957.86	4110.16
958.163	4105.64
958.467	4130.95
958.771	4033.55
959.075	4055.25
959.378	4024.29
959.682	4005.08
959.985	3931.63
960.289	3943.61
960.592	3919.66
960.896	3924.63
961.199	3898.41
961.502	3869.94
961.805	3829.72
962.108	3808.02
962.411	3807.34
962.714	3852.77
963.017	3786.33
963.32	3820
963.623	3801.92
963.926	3740.23
964.228	3723.96
964.531	3721.02
964.833	3730.51
965.136	3700
965.438	3683.28
965.741	3632.21
966.043	3641.47
966.345	3617.52
966.648	3609.61
966.95	3612.32
967.252	3518.09
967.554	3564.41
967.856	3564.64
968.158	3505.43
968.46	3518.99
968.761	3514.92
969.063	3464.98
969.365	3442.16
969.666	3455.26
969.968	3468.37
970.269	3480.35
970.571	3408.71
970.872	3412.55
971.174	3364.42
971.475	3344.3
971.776	3335.49
972.077	3311.31
972.378	3312.67
972.679	3285.55
972.98	3319.45
973.281	3304.76
973.582	3227.7
973.883	3218.88
974.183	3240.58
974.484	3204.65
974.785	3224.76
975.085	3178.43
975.386	3176.85
975.686	3167.59
975.986	3194.03
976.287	3175.5
976.587	3091.2
976.887	3115.16
977.187	3137.53
977.487	3066.35
977.787	3033.8
978.087	3048.72
978.387	3066.35
978.687	3042.39
978.987	3029.06
979.286	2991.77
979.586	2957.65
979.885	2955.16
980.185	2908.38
980.484	2911.77
980.784	2907.03
981.083	2914.26
981.382	2916.52
981.682	2912.23
981.981	2882.4
982.28	2851.66
982.579	2844.43
982.878	2870.42
983.177	2822.96
983.475	2857.09
983.774	2808.05
984.073	2801.72
984.372	2804.88
984.67	2775.73
984.969	2773.25
985.267	2730.76
985.566	2736.41
985.864	2720.82
986.162	2712.46
986.461	2691.21
986.759	2656.87
987.057	2641.95
987.355	2650.54
987.653	2668.84
987.951	2614.83
988.249	2580.93
988.547	2611.22
988.844	2570.99
989.142	2585.68
989.44	2549.75
989.737	2551.56
990.035	2523.76
990.332	2544.55
990.63	2486.7
990.927	2503.2
991.224	2524.44
991.521	2487.15
991.819	2480.82
992.116	2457.32
992.413	2467.72
992.71	2419.58
993.006	2428.85
993.303	2421.84
993.6	2394.05
993.897	2409.41
994.193	2380.71
994.49	2388.62
994.787	2392.69
995.083	2373.48
995.379	2357.89
995.676	2321.96
995.972	2312.24
996.268	2273.37
996.565	2268.85
996.861	2278.57
997.157	2272.69
997.453	2251
997.749	2252.36
998.044	2243.99
998.34	2238.8
998.636	2201.74
998.932	2168.97
999.227	2193.6
999.523	2157.67
999.818	2182.3
1000.114	2135.3
1000.409	2144.11
1000.704	2134.17
1001	2134.17
1001.295	2098.01
1001.59	2108.86
1001.885	2102.98
1002.18	2089.2
1002.475	2075.19
1002.77	2068.18
1003.065	2040.84
1003.359	2031.8
1003.654	2016.43
1003.949	2029.09
1004.243	2009.42
1004.538	2004.23
1004.832	1988.63
1005.127	1954.28
1005.421	1992.7
1005.715	1933.95
1006.009	1932.82
1006.304	1967.17
1006.598	1902.76
1006.892	1892.82
1007.186	1886.72
1007.48	1884
1007.773	1855.3
1008.067	1877.45
1008.361	1848.98
1008.655	1819.37
1008.948	1802.65
1009.242	1854.4
1009.535	1797.45
1009.829	1813.27
1010.122	1804.91
1010.415	1774.4
1010.708	1786.38
1011.001	1768.07
1011.295	1766.49
1011.588	1749.54
1011.881	1747.06
1012.173	1697.57
1012.466	1691.47
1012.759	1716.32
1013.052	1702.54
1013.344	1688.76
1013.637	1696.66
1013.93	1684.69
1014.222	1662.32
1014.514	1650.79
1014.807	1585.25
1015.099	1628.64
1015.391	1636.78
1015.683	1571.02
1015.976	1626.38
1016.268	1601.07
1016.56	1581.19
1016.851	1558.81
1017.143	1571.24
1017.435	1532.83
1017.727	1555.43
1018.018	1527.86
1018.31	1512.04
1018.602	1532.83
1018.893	1452.83
1019.185	1480.17
1019.476	1459.38
1019.767	1473.39
1020.058	1488.99
1020.35	1485.37
1020.641	1432.94
1020.932	1451.47
1021.223	1437.24
1021.514	1440.17
1021.804	1401.53
1022.095	1408.54
1022.386	1371.7
1022.677	1352.72
1022.967	1370.57
1023.258	1346.62
1023.548	1333.74
1023.839	1345.94
1024.129	1338.03
1024.419	1323.79
1024.709	1317.01
1025	1315.66
1025.29	1284.92
1025.58	1295.55
1025.87	1276.11
1026.16	1266.17
1026.449	1270.69
1026.739	1255.77
1027.029	1263
1027.319	1227.07
1027.608	1216.9
1027.898	1250.12
1028.187	1207.41
1028.477	1187.07
1028.766	1217.81
1029.055	1190.46
1029.344	1191.37
1029.634	1178.94
1029.923	1178.71
1030.212	1158.6
1030.501	1145.72
1030.79	1150.69
1031.078	1133.06
1031.367	1150.92
1031.656	1138.49
1031.945	1118.83
1032.233	1097.58
1032.522	1101.2
1032.81	1099.17
1033.099	1102.78
1033.387	1072.95
1033.675	1084.48
1033.963	1056.68
1034.251	1042.44
1034.54	1057.81
1034.828	1060.3
1035.116	1026.17
1035.403	1051.03
1035.691	1006.29
1035.979	1006.06
1036.267	1011.48
1036.554	1007.64
1036.842	1005.84
1037.129	983.46
1037.417	980.98
1037.704	982.78
1037.992	987.98
1038.279	971.94
1038.566	950.92
1038.853	950.92
1039.14	950.92
