Data from red_cardboard_box_FLMS001491_00057.txt Node
Date: Wed Feb 08 11:32:47 GMT 2017
User: dcchb
Spectrometer: FLMS00149
Trigger mode: 0
Integration Time (sec): 2.000000E-2
Scans to average: 10
Electric dark correction enabled: true
Nonlinearity correction enabled: false
Boxcar width: 0
XAxis mode: Wavelengths
Number of Pixels in Spectrum: 2048
>>>>>Begin Spectral Data<<<<<
341.393	-35.62
341.776	-35.62
342.16	-35.62
342.543	-53.93
342.927	-58.9
343.31	-71.33
343.693	-72.91
344.077	-64.09
344.46	-52.34
344.843	-51.67
345.226	-35.62
345.61	-27.49
345.993	-15.73
346.376	-13.25
346.759	11.84
347.142	12.29
347.525	50.93
347.908	37.15
348.291	82.57
348.674	91.61
349.057	118.05
349.44	138.16
349.823	151.04
350.206	164.6
350.588	203.24
350.971	218.84
351.354	238.5
351.737	258.16
352.119	261.09
352.502	264.48
352.884	262.9
353.267	267.42
353.65	297.7
354.032	313.07
354.414	313.3
354.797	320.53
355.179	318.95
355.562	328.44
355.944	324.37
356.326	351.04
356.709	338.15
357.091	336.57
357.473	352.84
357.855	333.41
358.238	346.74
358.62	347.42
359.002	347.87
359.384	352.39
359.766	342.67
360.148	344.48
360.53	355.78
360.912	357.14
361.294	364.37
361.676	326.63
362.057	343.58
362.439	333.86
362.821	327.76
363.203	324.6
363.584	337.93
363.966	329.12
364.348	310.59
364.729	313.07
365.111	313.75
365.493	343.35
365.874	298.61
366.256	323.69
366.637	330.02
367.019	337.48
367.4	321.21
367.781	320.08
368.163	310.59
368.544	320.98
368.925	328.21
369.306	363.69
369.688	314.88
370.069	296.57
370.45	299.96
370.831	317.82
371.212	312.39
371.593	310.36
371.974	317.14
372.355	308.1
372.736	330.7
373.117	337.03
373.498	330.7
373.879	332.28
374.26	341.54
374.641	299.96
375.021	320.53
375.402	300.42
375.783	320.08
376.163	332.96
376.544	332.28
376.925	321.43
377.305	317.59
377.686	333.64
378.066	331.38
378.447	315.33
378.827	336.57
379.208	346.74
379.588	334.31
379.968	337.03
380.349	369.79
380.729	331.83
381.109	343.35
381.489	333.86
381.87	361.43
382.25	319.62
382.63	353.75
383.01	351.04
383.39	340.64
383.77	339.74
384.15	334.99
384.53	337.7
384.91	341.32
385.29	350.58
385.67	330.7
386.049	340.19
386.429	328.44
386.809	355.1
387.189	347.65
387.568	347.87
387.948	343.8
388.328	355.56
388.707	357.36
389.087	356.23
389.466	377.7
389.846	374.31
390.225	367.53
390.605	357.59
390.984	383.58
391.363	361.88
391.743	376.12
392.122	353.75
392.501	361.66
392.881	375.67
393.26	382.45
393.639	373.41
394.018	379.74
394.397	362.56
394.776	384.93
395.155	367.76
395.534	373.86
395.913	392.16
396.292	362.79
396.671	374.76
397.05	374.09
397.429	377.48
397.808	376.35
398.186	402.33
398.565	360.53
398.944	389.23
399.323	371.15
399.701	384.26
400.08	393.07
400.458	388.55
400.837	407.31
401.215	394.88
401.594	377.02
401.972	387.65
402.351	395.78
402.729	393.97
403.107	396.46
403.486	400.98
403.864	414.76
404.242	404.82
404.62	403.01
404.999	394.42
405.377	408.89
405.755	394.65
406.133	412.73
406.511	382.45
406.889	424.03
407.267	431.26
407.645	424.25
408.023	437.59
408.401	396.91
408.779	421.77
409.156	423.8
409.534	422.9
409.912	435.33
410.29	429.9
410.667	423.8
411.045	436.23
411.422	435.33
411.8	440.75
412.178	443.69
412.555	431.26
412.933	432.16
413.31	433.75
413.687	447.76
414.065	468.77
414.442	447.98
414.819	455.67
415.197	457.7
415.574	440.53
415.951	455.67
416.328	444.14
416.705	451.82
417.082	442.56
417.46	476.46
417.837	491.37
418.214	439.17
418.591	480.52
418.967	487.53
419.344	488.89
419.721	477.59
420.098	465.61
420.475	475.1
420.852	463.12
421.228	476.23
421.605	487.53
421.982	486.4
422.358	500.18
422.735	478.72
423.111	474.65
423.488	488.21
423.864	507.19
424.241	495.66
424.617	503.35
424.994	515.1
425.37	525.04
425.746	483.24
426.123	528.43
426.499	503.12
426.875	507.87
427.251	517.59
427.627	529.56
428.003	527.08
428.379	538.38
428.756	553.29
429.132	541.77
429.507	533.4
429.883	513.52
430.259	554.65
430.635	548.54
431.011	567.75
431.387	558.04
431.763	546.96
432.138	583.8
432.514	554.19
432.89	566.85
433.265	597.58
433.641	558.49
434.016	572.73
434.392	587.64
434.767	583.12
435.143	598.49
435.518	590.58
435.894	610.24
436.269	600.29
436.644	588.32
437.02	610.69
437.395	610.69
437.77	634.87
438.145	624.02
438.52	628.77
438.895	645.49
439.271	619.5
439.646	636.45
440.021	643.23
440.395	631.48
440.77	632.84
441.145	658.37
441.52	680.29
441.895	640.52
442.27	660.18
442.645	647.53
443.019	663.57
443.394	633.51
443.769	673.06
444.143	689.11
444.518	668.32
444.892	650.24
445.267	659.28
445.641	689.56
446.016	666.06
446.39	676.68
446.764	670.12
447.139	670.8
447.513	712.16
447.887	686.39
448.262	695.43
448.636	681.65
449.01	710.35
449.384	711.48
449.758	740.63
450.132	707.64
450.506	719.84
450.88	720.52
451.254	714.42
451.628	741.53
452.002	723.68
452.376	723.23
452.75	721.65
453.123	740.4
453.497	723
453.871	767.75
454.244	753.74
454.618	755.32
454.992	737.92
455.365	762.1
455.739	771.59
456.112	798.03
456.486	760.74
456.859	756.22
457.232	790.8
457.606	780.63
457.979	790.57
458.352	788.99
458.725	818.59
459.099	816.79
459.472	830.12
459.845	840.97
460.218	832.38
460.591	857.46
460.964	824.7
461.337	861.76
461.71	888.65
462.083	883.45
462.456	871.47
462.829	866.5
463.201	885.26
463.574	889.55
463.947	871.7
464.32	898.82
464.692	925.94
465.065	909.67
465.438	907.41
465.81	936.78
466.183	952.6
466.555	966.16
466.928	960.29
467.3	964.81
467.672	988.76
468.045	981.75
468.417	977.23
468.789	985.37
469.161	1001.41
469.534	1029.44
469.906	1025.82
470.278	1034.41
470.65	1019.27
471.022	1055.2
471.394	1046.16
471.766	1076.89
472.138	1099.72
472.51	1090.45
472.882	1115.54
473.253	1111.69
473.625	1113.5
473.997	1122.99
474.369	1159.15
474.74	1150.11
475.112	1182.65
475.484	1191.69
475.855	1225.14
476.227	1221.3
476.598	1237.11
476.97	1259.71
477.341	1270.56
477.713	1296.77
478.084	1305.36
478.455	1289.77
478.827	1292.25
479.198	1341.74
479.569	1343.1
479.94	1401.63
480.311	1402.08
480.682	1410.9
481.053	1457.22
481.424	1442.31
481.795	1458.35
482.166	1479.82
482.537	1484.57
482.908	1533.38
483.279	1536.09
483.65	1538.35
484.021	1568.63
484.391	1579.7
484.762	1590.55
485.133	1586.03
485.503	1642.75
485.874	1659.93
486.244	1691.11
486.615	1712.13
486.985	1688.85
487.356	1787.16
487.726	1748.97
488.097	1751.68
488.467	1769.53
488.837	1818.57
489.207	1824.9
489.578	1867.83
489.948	1881.39
490.318	1912.12
490.688	1897.44
491.058	1921.62
491.428	1952.12
491.798	1996.19
492.168	2035.06
492.538	2015.85
492.908	2051.1
493.278	2060.6
493.648	2050.65
494.017	2101.27
494.387	2115.74
494.757	2115.28
495.126	2112.35
495.496	2154.6
495.866	2151.44
496.235	2207.71
496.605	2152.57
496.974	2226.69
497.344	2255.17
497.713	2261.27
498.082	2294.94
498.452	2299.91
498.821	2284.32
499.19	2301.72
499.559	2306.92
499.928	2316.41
500.298	2376.75
500.667	2361.38
501.036	2370.64
501.405	2392.79
501.774	2417.87
502.143	2423.75
502.512	2480.7
502.88	2479.34
503.249	2466.91
503.618	2484.77
503.987	2507.36
504.356	2531.32
504.724	2551.43
505.093	2525.22
505.462	2594.14
505.83	2553.69
506.199	2594.59
506.567	2651.54
506.936	2634.37
507.304	2642.5
507.672	2680.24
508.041	2666.91
508.409	2711.65
508.777	2704.19
509.145	2736.96
509.514	2729.05
509.882	2787.58
510.25	2774.25
510.618	2800.46
510.986	2834.59
511.354	2833
511.722	2843.17
512.09	2906.9
512.458	2875.04
512.826	2911.19
513.193	2937.86
513.561	2949.84
513.929	3004.07
514.297	3037.29
514.664	3001.81
515.032	3040.91
515.4	3050.63
515.767	3086.56
516.135	3097.63
516.502	3092.66
516.869	3119.78
517.237	3155.03
517.604	3161.58
517.972	3193.22
518.339	3225.31
518.706	3215.14
519.073	3240
519.44	3259.89
519.808	3297.63
520.175	3324.07
520.542	3360.22
520.909	3363.61
521.276	3383.5
521.643	3397.96
522.009	3427.79
522.376	3452.42
522.743	3472.31
523.11	3527.68
523.477	3516.38
523.843	3565.19
524.21	3650.16
524.577	3647.22
524.943	3693.09
525.31	3668.46
525.676	3718.41
526.043	3717.5
526.409	3764.05
526.776	3819.65
527.142	3811.96
527.508	3846.31
527.874	3862.58
528.241	3889.47
528.607	3909.36
528.973	3949.59
529.339	3958.85
529.705	3987.32
530.071	4013.31
530.437	4076.36
530.803	4098.51
531.169	4160.2
531.535	4135.57
531.901	4155
532.267	4165.17
532.632	4190.26
532.998	4182.8
533.364	4207.43
533.73	4217.37
534.095	4268.67
534.461	4298.73
534.826	4310.71
535.192	4351.83
535.557	4402.91
535.923	4397.48
536.288	4422.57
536.653	4443.36
537.019	4395
537.384	4449.69
537.749	4494.43
538.114	4528.55
538.479	4571.49
538.845	4537.14
539.21	4569.68
539.575	4577.82
539.94	4629.34
540.305	4633.86
540.67	4635.22
541.034	4649.91
541.399	4656.69
541.764	4736.91
542.129	4743.69
542.494	4774.42
542.858	4836.12
543.223	4771.71
543.587	4804.03
543.952	4869.79
544.316	4864.14
544.681	4834.76
545.045	4922.89
545.41	4905.04
545.774	4927.64
546.138	5016.45
546.503	5016.9
546.867	5007.41
547.231	5091.25
547.595	5078.14
547.959	5147.75
548.324	5112.49
548.688	5147.29
549.052	5179.16
549.416	5210.8
549.779	5223.22
550.143	5215.77
550.507	5299.38
550.871	5291.25
551.235	5334.86
551.599	5382.09
551.962	5384.8
552.326	5425.93
552.689	5422.99
553.053	5453.5
553.417	5480.17
553.78	5583.21
554.143	5544.57
554.507	5620.28
554.87	5643.78
555.234	5744.57
555.597	5693.49
555.96	5719.71
556.323	5801.29
556.686	5786.37
557.05	5824.11
557.413	5908.18
557.776	5944.11
558.139	5990.66
558.502	6015.97
558.865	6092.13
559.228	6076.31
559.59	6134.39
559.953	6219.36
560.316	6274.27
560.679	6305.46
561.041	6360.37
561.404	6382.06
561.767	6437.88
562.129	6438.33
562.492	6540.25
562.854	6532.12
563.217	6616.86
563.579	6694.82
563.941	6735.05
564.304	6834.71
564.666	6922.84
565.028	6913.58
565.39	6973.91
565.753	7079.9
566.115	7104.53
566.477	7165.55
566.839	7200.35
567.201	7330.51
567.563	7328.48
567.925	7451.64
568.287	7515.14
568.648	7552.88
569.01	7636.27
569.372	7730.05
569.734	7762.82
570.095	7819.54
570.457	7919.2
570.819	8005.3
571.18	8044.84
571.542	8197.61
571.903	8203.03
572.265	8295.69
572.626	8399.86
572.987	8448.45
573.349	8495
573.71	8641.21
574.071	8690.93
574.432	8823.13
574.794	8821.1
575.155	8997.59
575.516	8974.31
575.877	9153.52
576.238	9205.27
576.599	9328.2
576.96	9431.7
577.32	9497.24
577.681	9631.92
578.042	9677.12
578.403	9871.01
578.763	9889.99
579.124	10120.04
579.485	10199.36
579.845	10328.4
580.206	10467.83
580.566	10532.24
580.927	10612.91
581.287	10889.52
581.648	10979.01
582.008	11148.27
582.368	11243.86
582.728	11389.84
583.089	11535.15
583.449	11812.2
583.809	11881.81
584.169	12128.58
584.529	12202.48
584.889	12675.46
585.249	12621.9
585.609	12729.02
585.969	13081.55
586.329	13280.87
586.688	13505.49
587.048	13734.19
587.408	13857.35
587.768	14152.71
588.127	14356.77
588.487	14523.09
588.846	14872.46
589.206	15011.44
589.565	15364.65
589.925	15727.13
590.284	15958.76
590.643	16273.78
591.003	16563.94
591.362	16845.29
591.721	17168.9
592.08	17437.14
592.44	17832.38
592.799	18193.28
593.158	18405.93
593.517	18728.41
593.876	19223.99
594.235	19472.34
594.593	19792.78
594.952	20319.78
595.311	20510.28
595.67	20887.9
596.029	21377.6
596.387	21775.56
596.746	22225.49
597.104	22373.73
597.463	22735.98
597.822	23359.7
598.18	23721.72
598.538	24010.3
598.897	24559.89
599.255	24765.54
599.613	25412.3
599.972	25765.51
600.33	26174.99
600.688	26532.27
601.046	26833.28
601.404	27512.13
601.762	27799.58
602.12	28275.5
602.478	28679.33
602.836	29017.17
603.194	29348.47
603.552	29856.7
603.91	30143.92
604.268	30685.38
604.625	30969.67
604.983	31485.13
605.341	31599.03
605.698	32147.94
606.056	32594.93
606.413	32896.39
606.771	33368.7
607.128	33690.95
607.485	34024.73
607.843	34265.4
608.2	34737.25
608.557	35163.68
608.914	35492.94
609.272	35882.98
609.629	36239.81
609.986	36596.41
610.343	36642.29
610.7	37278.88
611.057	37430.74
611.414	37719.09
611.771	38021.01
612.127	38392.07
612.484	38605.17
612.841	39098.27
613.198	39161.54
613.554	39370.12
613.911	39872.03
614.267	40017.56
614.624	40147.5
614.98	40377.55
615.337	40800.37
615.693	40876.07
616.05	41099.34
616.406	41532.33
616.762	41528.71
617.118	41678.76
617.475	42077.4
617.831	42240.33
618.187	42459.31
618.543	42669.92
618.899	42941.55
619.255	43145.16
619.611	43119.18
619.967	43442.33
620.323	43657.69
620.678	43678.94
621.034	43671.25
621.39	43800.97
621.746	43927.29
622.101	44433.94
622.457	44269.43
622.812	44545.35
623.168	44777.89
623.523	44679.36
623.879	45002.52
624.234	44965.68
624.589	45042.74
624.945	45269.63
625.3	45333.81
625.655	45442.96
626.01	45476.18
626.365	45579.23
626.72	45620.58
627.075	45701.93
627.43	45768.15
627.785	45940.8
628.14	45988.25
628.495	46132.66
628.85	46057.63
629.205	46076.39
629.559	46404.74
629.914	46335.59
630.269	46276.38
630.623	46357.74
630.978	46374.68
631.332	46585.3
631.687	46635.24
632.041	46391.18
632.396	46642.7
632.75	46473.21
633.104	46617.62
633.459	46536.26
633.813	46476.83
634.167	46508.47
634.521	46614.68
634.875	46624.4
635.229	46641.8
635.583	46566.54
635.937	46569.71
636.291	46621.68
636.645	46587.79
636.999	46669.82
637.352	46695.58
637.706	46549.14
638.06	46662.36
638.413	46670.27
638.767	46615.81
639.121	46687.22
639.474	46567.67
639.828	46570.61
640.181	46857.84
640.534	46774.9
640.888	46674.34
641.241	46538.52
641.594	46611.51
641.947	46671.4
642.301	46642.02
642.654	46759.53
643.007	46755.69
643.36	46764.96
643.713	46614.23
644.066	46807.44
644.419	46508.47
644.771	46324.29
645.124	45950.51
645.477	45898.09
645.83	45798.65
646.182	45590.52
646.535	45506.68
646.888	45721.59
647.24	45593.24
647.593	45795.26
647.945	45672.1
648.298	45494.48
648.65	45463.75
649.002	45484.99
649.355	45585.33
649.707	45534.25
650.059	45684.08
650.411	46264.63
650.763	46171.98
651.115	46639.54
651.467	46569.71
651.819	46529.48
652.171	46489.26
652.523	46512.76
652.875	46393.22
653.227	46381.24
653.578	46620.1
653.93	46487
654.282	46439.32
654.633	46257.85
654.985	46410.84
655.337	46375.81
655.688	46439.09
656.039	46498.3
656.391	46181.92
656.742	46331.3
657.094	46402.71
657.445	46384.63
657.796	46355.02
658.147	46177.63
658.498	46193.9
658.849	46314.12
659.2	46169.49
659.551	46056.95
659.902	46249.72
660.253	46135.14
660.604	46310.73
660.955	46126.1
661.306	46180.11
661.656	46192.77
662.007	46259.21
662.358	46313.44
662.708	46266.44
663.059	46282.71
663.409	46017.63
663.76	46417.4
664.11	46244.97
664.461	46360.9
664.811	46275.03
665.161	46245.65
665.511	46228.47
665.862	46245.42
666.212	46336.27
666.562	46265.99
666.912	46174.46
667.262	46104.41
667.612	46190.51
667.962	46220.56
668.312	46190.51
668.662	46425.98
669.011	46217.17
669.361	46213.33
669.711	46121.81
670.06	46191.64
670.41	46127.01
670.76	45923.62
671.109	46149.83
671.459	46064.64
671.808	46002.04
672.157	46121.81
672.507	45797.98
672.856	45923.4
673.205	45851.76
673.554	46068.03
673.904	45924.75
674.253	46099.89
674.602	45907.35
674.951	45408.38
675.3	45209.97
675.649	45938.54
675.998	45771.54
676.346	45656.06
676.695	45936.5
677.044	45703.74
677.393	45805.21
677.741	45843.85
678.09	45642.95
678.438	45737.19
678.787	45632.33
679.135	45786.23
679.484	45476.4
679.832	45652.9
680.181	45263.3
680.529	45407.93
680.877	45510.75
681.225	45407.7
681.573	45594.59
681.922	45270.08
682.27	45169.97
682.618	45232.79
682.966	44997.09
683.314	45120.03
683.661	44909.64
684.009	44832.58
684.357	44779.47
684.705	44691.57
685.053	44912.12
685.4	44668.06
685.748	44523.21
686.095	44568.4
686.443	44473.72
686.79	44396.43
687.138	44409.09
687.485	44317.56
687.832	44339.94
688.18	44304
688.527	44025.59
688.874	44028.76
689.221	43869.89
689.568	43852.49
689.915	43742.89
690.262	43776.11
690.609	43685.04
690.956	43468.32
691.303	43380.87
691.65	43342.9
691.997	43210.7
692.344	43183.13
692.69	43021.55
693.037	43174.09
693.383	42579.76
693.73	42985.17
694.077	42744.95
694.423	42696.82
694.769	42532.75
695.116	42627.66
695.462	42438.52
695.808	42182.03
696.155	42407.33
696.501	41960.56
696.847	42010.73
697.193	41794.01
697.539	41997.17
697.885	41634.24
698.231	41568.26
698.577	41563.74
698.923	41517.64
699.269	41296.4
699.614	41102.05
699.96	41174.14
700.306	41088.95
700.651	40938.9
700.997	40731.9
701.342	40881.27
701.688	40656.19
702.033	40492.81
702.379	40620.71
702.724	40414.84
703.069	40618.68
703.415	40005.13
703.76	40148.18
704.105	40041.52
704.45	39976.21
704.795	39747.06
705.14	39726.27
705.485	39731.24
705.83	39495.54
706.175	39527.41
706.52	39490.35
706.865	39401.99
707.209	39255.1
707.554	39178.49
707.899	39314.98
708.243	38999.96
708.588	38936.46
708.932	38752.96
709.277	38731.27
709.621	38631.61
709.966	38278.85
710.31	38402.01
710.654	38091.29
710.998	38398.85
711.342	38199.08
711.687	38138.07
712.031	38016.03
712.375	37924.51
712.719	38065.07
713.063	37969.93
713.407	38032.53
713.75	37761.13
714.094	37747.57
714.438	37757.96
714.782	37716.61
715.125	37424.86
715.469	37551.64
715.812	37346.45
716.156	37248.37
716.499	37248.82
716.843	37351.87
717.186	37159.79
717.53	37206.56
717.873	37167.92
718.216	37007.93
718.559	36919.79
718.902	36685.9
719.246	36698.78
719.589	36694.49
719.932	36515.28
720.275	36486.36
720.617	36572.91
720.96	36406.59
721.303	36395.06
721.646	36298.57
721.989	36222.41
722.331	36211.11
722.674	36184.67
723.016	36235.97
723.359	36101.96
723.701	36096.31
724.044	35923.89
724.386	35781.06
724.729	36037.33
725.071	35746.04
725.413	35725.47
725.755	35698.36
726.097	35526.38
726.439	35505.59
726.782	35253.62
727.124	35514.18
727.465	35383.11
727.807	35363
728.149	35177.24
728.491	35296.33
728.833	35218.37
729.175	35079.16
729.516	35007.07
729.858	34999.16
730.199	35123
730.541	34975.21
730.882	34904.93
731.224	35080.74
731.565	34863.35
731.906	34775.44
732.248	34859.28
732.589	34585.84
732.93	34470.36
733.271	34597.82
733.612	34571.15
733.953	34590.81
734.294	34401.67
734.635	34575.67
734.976	34487.54
735.317	34343.36
735.658	34329.13
735.999	34205.06
736.339	34153.99
736.68	34284.16
737.021	34264.72
737.361	33945.63
737.702	34186.98
738.042	33989.25
738.383	33822.47
738.723	33972.52
739.063	33864.05
739.404	33970.72
739.744	33838.52
740.084	33680.33
740.424	33772.53
740.764	33635.36
741.104	33774.11
741.444	33458.19
741.784	33307.91
742.124	33480.11
742.464	33375.93
742.804	33354.46
743.143	33242.15
743.483	33233.34
743.823	33228.36
744.162	33090.74
744.502	33118.08
744.841	33136.61
745.181	33171.42
745.52	32940.24
745.86	33069.5
746.199	32979.1
746.538	32916.51
746.877	33065.2
747.216	32942.04
747.556	32887.36
747.895	32867.02
748.234	32643.29
748.573	32806.45
748.911	32628.38
749.25	32544.31
749.589	32502.28
749.928	32490.3
750.267	32405.79
750.605	32368.5
750.944	32357.65
751.283	32217.77
751.621	32428.38
751.96	32194.72
752.298	32058.68
752.636	32168.73
752.975	32066.59
753.313	31841.51
753.651	32029.53
753.989	31829.76
754.327	31868.17
754.666	31645.13
755.004	31754.73
755.342	31611.91
755.679	31578.69
756.017	31376.66
756.355	31639.7
756.693	31432.25
757.031	31401.52
757.368	31270.22
757.706	31246.27
758.044	31129.89
758.381	31166.72
758.719	30879.05
759.056	31064.58
759.394	30911.81
759.731	30837.92
760.068	30647.41
760.405	30686.74
760.743	30538.04
761.08	30601.54
761.417	30307.76
761.754	30340.76
762.091	30339.17
762.428	30084.49
762.765	29996.36
763.102	30221.44
763.438	29926.53
763.775	29841.11
764.112	29957.04
764.449	29729.7
764.785	29689.7
765.122	29419.88
765.458	29476.6
765.795	29289.94
766.131	29357.05
766.467	29047.91
766.804	29109.15
767.14	28936.5
767.476	28918.87
767.812	28610.63
768.148	28812.43
768.485	28530.41
768.821	28487.47
769.157	28436.4
769.492	28461.26
769.828	28324.09
770.164	28100.81
770.5	28046.35
770.836	28126.35
771.171	27826.25
771.507	27857.66
771.842	27466.03
772.178	27638
772.513	27493.15
772.849	27473.03
773.184	27372.02
773.519	27356.88
773.855	27265.81
774.19	27148.98
774.525	26974.29
774.86	26996.89
775.195	26816.33
775.53	26847.74
775.865	26555.32
776.2	26450.01
776.535	26392.39
776.87	26428.99
777.205	26270.13
777.539	26123.69
777.874	26178.61
778.209	25871.04
778.543	25892.74
778.878	25739.07
779.212	25687.32
779.547	25476.48
779.881	25479.19
780.215	25477.38
780.55	25457.04
780.884	25353.09
781.218	25213.89
781.552	25254.11
781.886	24944.51
782.22	24944.74
782.554	24881.46
782.888	24673.56
783.222	24557.86
783.556	24562.6
783.889	24475.83
784.223	24315.83
784.557	24217.08
784.89	24240.8
785.224	24187.7
785.557	23846.46
785.891	23977.53
786.224	23904.09
786.558	23847.59
786.891	23681.04
787.224	23620.48
787.557	23548.39
787.891	23506.13
788.224	23339.36
788.557	23379.13
788.89	23367.38
789.223	23297.33
789.556	23090.55
789.888	22975.3
790.221	22983.44
790.554	22794.74
790.887	22837
791.219	22644.46
791.552	22580.28
791.884	22514.75
792.217	22519.49
792.549	22396.78
792.882	22228.88
793.214	22221.42
793.546	22197.02
793.879	21989.11
794.211	21953.63
794.543	22008.55
794.875	21851.04
795.207	21896.68
795.539	21840.64
795.871	21781.21
796.203	21537.82
796.535	21537.37
796.867	21416.47
797.198	21448.56
797.53	21375.79
797.862	21220.77
798.193	21219.64
798.525	21181.22
798.856	21128.57
799.188	20948.01
799.519	20922.47
799.85	20782.59
800.182	20907.56
800.513	20801.8
800.844	20561.58
801.175	20704.63
801.506	20672.08
801.837	20567.91
802.168	20498.53
802.499	20392.09
802.83	20327.23
803.161	20272.55
803.491	20222.15
803.822	20185.99
804.153	20182.38
804.483	19943.06
804.814	19932.22
805.145	19926.57
805.475	19851.31
805.805	19778.55
806.136	19767.93
806.466	19803.63
806.796	19722.05
807.126	19482.51
807.457	19402.96
807.787	19507.59
808.117	19357.54
808.447	19395.96
808.777	19378.33
809.107	19278.9
809.436	19332.23
809.766	19214.95
810.096	19112.8
810.426	19118.45
810.755	19013.14
811.085	18925.69
811.414	18973.15
811.744	18823.54
812.073	18809.53
812.403	18747.39
812.732	18665.13
813.061	18730.21
813.39	18592.36
813.719	18494.06
814.049	18588.3
814.378	18488.19
814.707	18471.92
815.036	18383.78
815.365	18274.86
815.693	18234.18
816.022	18149.89
816.351	18152.6
816.68	18024.7
817.008	18164.58
817.337	18046.16
817.665	17922.1
817.994	17964.81
818.322	17978.6
818.651	17771.82
818.979	17793.52
819.307	17824.47
819.636	17790.35
819.964	17690.02
820.292	17740.18
820.62	17709.22
820.948	17643.01
821.276	17626.06
821.604	17625.84
821.932	17597.59
822.259	17684.14
822.587	17606.63
822.915	17522.56
823.243	17694.99
823.57	17523.24
823.898	17525.5
824.225	17547.65
824.553	17552.62
824.88	17545.16
825.207	17525.27
825.535	17597.81
825.862	17507.87
826.189	17440.3
826.516	17579.06
826.843	17666.29
827.17	17523.92
827.497	17562.56
827.824	17555.33
828.151	17525.73
828.478	17523.24
828.805	17536.35
829.131	17478.04
829.458	17410.25
829.785	17390.36
830.111	17499.06
830.438	17521.21
830.764	17400.76
831.09	17507.42
831.417	17415.45
831.743	17532.96
832.069	17404.82
832.395	17391.27
832.722	17327.76
833.048	17341.1
833.374	17408.21
833.7	17305.39
834.026	17332.96
834.351	17425.84
834.677	17275.11
835.003	17321.21
835.329	17359.85
835.654	17412.73
835.98	17179.52
836.306	17284.6
836.631	17174.55
836.956	17159.18
837.282	17195.56
837.607	17157.6
837.932	17085.51
838.258	17085.29
838.583	17090.03
838.908	16950.6
839.233	17041.67
839.558	16939.75
839.883	16955.8
840.208	16867.21
840.533	16858.85
840.858	16840.77
841.182	16741.11
841.507	16818.4
841.832	16646.65
842.156	16748.8
842.481	16695.01
842.805	16581.34
843.13	16637.39
843.454	16644.17
843.778	16547.67
844.103	16492.53
844.427	16418.41
844.751	16453.44
845.075	16359.2
845.399	16310.84
845.723	16277.17
846.047	16205.76
846.371	16069.72
846.695	16222.94
847.019	15973.9
847.343	15840.8
847.666	15857.97
847.99	15751.08
848.313	15823.17
848.637	15695.49
848.96	15630.86
849.284	15527.59
849.607	15567.81
849.931	15458.21
850.254	15392.22
850.577	15286.01
850.9	15185.22
851.223	15145
851.546	15110.65
851.869	15017.99
852.192	15137.99
852.515	14963.99
852.838	14945
853.161	14884.21
853.483	14829.07
853.806	14796.31
854.129	14732.58
854.451	14665.01
854.774	14641.06
855.096	14562.64
855.419	14486.71
855.741	14491.91
856.063	14412.59
856.385	14319.48
856.708	14415.98
857.03	14315.87
857.352	14217.11
857.674	14246.49
857.996	14196.55
858.318	14137.34
858.64	14104.8
858.961	13996.33
859.283	14060.28
859.605	13869.1
859.926	14034.97
860.248	13896.67
860.57	13823.45
860.891	13824.58
861.212	13728.54
861.534	13703.45
861.855	13713.62
862.176	13767.18
862.498	13721.76
862.819	13599.5
863.14	13601.76
863.461	13580.52
863.782	13523.57
864.103	13515.44
864.424	13461.88
864.745	13491.93
865.065	13513.63
865.386	13493.52
865.707	13521.54
866.027	13452.16
866.348	13361.54
866.668	13284.26
866.989	13202
867.309	13147.54
867.63	13293.52
867.95	13256.23
868.27	13250.13
868.59	13232.28
868.91	13164.94
869.23	13165.39
869.55	13017.14
869.87	13029.8
870.19	13085.62
870.51	13073.64
870.83	13108.67
871.15	13011.04
871.469	13005.84
871.789	13062.57
872.109	12956.81
872.428	12943.7
872.748	12902.34
873.067	12813.53
873.386	12920.65
873.706	12897.6
874.025	12792.06
874.344	12788.45
874.663	12792.06
874.982	12760.2
875.301	12734.44
875.62	12748.22
875.939	12642.69
876.258	12654.22
876.577	12641.79
876.896	12683.82
877.214	12640.2
877.533	12620.09
877.852	12636.59
878.17	12543.26
878.489	12610.6
878.807	12582.13
879.125	12497.16
879.444	12566.99
879.762	12497.38
880.08	12512.07
880.398	12437.05
880.716	12421.91
881.034	12312.08
881.352	12313.43
881.67	12356.82
881.988	12371.28
882.306	12257.84
882.624	12261.68
882.941	12196.6
883.259	12160.67
883.577	12151.63
883.894	12111.18
884.212	12080.45
884.529	12057.85
884.846	12053.55
885.164	12053.1
885.481	11977.4
885.798	11923.84
886.115	11865.31
886.432	11828.02
886.75	11830.28
887.067	11852.65
887.383	11786.44
887.7	11837.29
888.017	11759.32
888.334	11768.36
888.651	11625.77
888.967	11636.16
889.284	11541.25
889.6	11597.07
889.917	11505.32
890.233	11446.34
890.55	11498.99
890.866	11439.56
891.182	11433
891.498	11359.33
891.815	11304.19
892.131	11370.63
892.447	11274.59
892.763	11272.78
893.079	11263.52
893.395	11210.19
893.71	11165.21
894.026	11136.74
894.342	11069.4
894.657	10993.69
894.973	10982.39
895.289	11003.41
895.604	10980.36
895.92	10872.57
896.235	10881.15
896.55	10859.91
896.865	10848.61
897.181	10742.63
897.496	10697.88
897.811	10778.11
898.126	10581.05
898.441	10660.37
898.756	10631.22
899.071	10559.58
899.386	10554.38
899.7	10478.91
900.015	10493.14
900.33	10361.39
900.644	10312.81
900.959	10324.33
901.273	10314.39
901.588	10223.09
901.902	10208.18
902.216	10188.52
902.531	10170.21
902.845	10158.24
903.159	10119.14
903.473	9952.37
903.787	9981.07
904.101	9929.77
904.415	9892.25
904.729	9899.71
905.042	9841.18
905.356	9870.33
905.67	9850.9
905.984	9791.01
906.297	9716.44
906.611	9673.73
906.924	9600.51
907.237	9561.19
907.551	9535.2
907.864	9514.41
908.177	9563.45
908.491	9424.47
908.804	9481.19
909.117	9412.27
909.43	9351.48
909.743	9281.2
910.056	9317.35
910.368	9240.75
910.681	9171.14
910.994	9160.3
911.307	9142.67
911.619	9033.75
911.932	8988.55
912.244	8930.47
912.557	8998.94
912.869	8929.79
913.181	8860.42
913.494	8926.18
913.806	8806.18
914.118	8765.5
914.43	8736.58
914.742	8718.05
915.054	8638.73
915.366	8636.02
915.678	8584.72
915.99	8586.53
916.302	8488
916.613	8457.26
916.925	8464.27
917.236	8387.43
917.548	8453.65
917.859	8414.78
918.171	8377.04
918.482	8276.7
918.794	8261.34
919.105	8203.71
919.416	8136.59
919.727	8167.33
920.038	8133.43
920.349	8025.86
920.66	8060.44
920.971	8013.21
921.282	7991.29
921.593	7972.98
921.903	7853.89
922.214	7858.86
922.525	7883.95
922.835	7790.16
923.146	7759.88
923.456	7737.96
923.767	7716.94
924.077	7690.28
924.387	7609.15
924.697	7604.4
925.008	7592.43
925.318	7526.21
925.628	7546.55
925.938	7480.57
926.248	7490.28
926.558	7432.88
926.867	7372.09
927.177	7338.87
927.487	7337.74
927.796	7225.43
928.106	7169.61
928.416	7239.67
928.725	7186.34
929.034	7148.6
929.344	7162.61
929.653	7134.13
929.962	7022.5
930.271	7045.55
930.581	6976.85
930.89	6947.02
931.199	6856.63
931.508	6891.43
931.817	6944.08
932.125	6910.64
932.434	6841.71
932.743	6769.62
933.051	6699.57
933.36	6708.61
933.669	6643.75
933.977	6686.69
934.286	6673.81
934.594	6600.59
934.902	6530.08
935.21	6541.16
935.519	6556.75
935.827	6521.5
936.135	6457.32
936.443	6385
936.751	6420.03
937.059	6358.11
937.367	6299.35
937.674	6335.96
937.982	6318.79
938.29	6254.16
938.597	6318.56
938.905	6223.65
939.213	6187.27
939.52	6140.26
939.827	6128.51
940.135	6086.25
940.442	6036.54
940.749	6056.42
941.056	6087.83
941.363	6041.51
941.67	5980.94
941.977	5972.36
942.284	5908.4
942.591	5864.11
942.898	5839.48
943.205	5813.49
943.511	5816.43
943.818	5788.86
944.125	5773.04
944.431	5737.56
944.738	5721.29
945.044	5672.48
945.35	5638.35
945.657	5580.05
945.963	5561.75
946.269	5565.59
946.575	5576.44
946.881	5505.02
947.187	5518.13
947.493	5498.7
947.799	5500.96
948.105	5457.79
948.41	5411.24
948.716	5421.41
949.022	5370.79
949.327	5368.98
949.633	5355.65
949.938	5330.79
950.244	5290.34
950.549	5256.67
950.854	5224.35
951.16	5162.89
951.465	5191.81
951.77	5144.81
952.075	5145.26
952.38	5134.41
952.685	5087.63
952.99	5082.66
953.294	5055.55
953.599	5013.29
953.904	5021.65
954.209	4978.71
954.513	4972.38
954.818	4912.5
955.122	4924.7
955.426	4921.31
955.731	4860.97
956.035	4815.78
956.339	4809
956.643	4837.02
956.948	4773.07
957.252	4765.38
957.556	4760.64
957.86	4757.25
958.163	4747.98
958.467	4691.26
958.771	4668.21
959.075	4656.91
959.378	4592.96
959.682	4616.01
959.985	4585.27
960.289	4556.35
960.592	4554.77
960.896	4546.63
961.199	4482.23
961.502	4476.8
961.805	4465.05
962.108	4487.88
962.411	4403.81
962.714	4430.02
963.017	4400.42
963.32	4412.4
963.623	4390.93
963.926	4309.58
964.228	4277.71
964.531	4327.43
964.833	4325.39
965.136	4242.69
965.438	4265.51
965.741	4181.22
966.043	4248.11
966.345	4160.88
966.648	4140.54
966.95	4132.18
967.252	4096.7
967.554	4121.11
967.856	4096.47
968.158	4085.4
968.46	4038.4
968.761	4004.95
969.063	4004.5
969.365	3955.69
969.666	3990.94
969.968	3944.16
970.269	3946.65
970.571	3931.05
970.872	3923.37
971.174	3885.63
971.475	3879.98
971.776	3859.87
972.077	3799.98
972.378	3834.33
972.679	3830.27
972.98	3792.98
973.281	3764.73
973.582	3746.43
973.883	3780.55
974.183	3705.52
974.484	3733.09
974.785	3715.92
975.085	3688.8
975.386	3675.47
975.686	3655.81
975.986	3608.8
976.287	3636.37
976.587	3560.22
976.887	3588.92
977.187	3515.02
977.487	3532.87
977.787	3513.44
978.087	3499.88
978.387	3548.01
978.687	3528.58
978.987	3491.74
979.286	3392.54
979.586	3419.66
979.885	3410.84
980.185	3387.11
980.484	3329.26
980.784	3372.88
981.083	3341.01
981.382	3381.01
981.682	3357.06
981.981	3337.4
982.28	3298.76
982.579	3274.35
982.878	3260.56
983.177	3205.88
983.475	3222.82
983.774	3218.53
984.073	3223.05
984.372	3169.94
984.67	3191.41
984.969	3171.07
985.267	3204.97
985.566	3141.02
985.864	3129.27
986.162	3094.47
986.461	3132.43
986.759	3090.4
987.057	3051.98
987.355	3032.1
987.653	3033
987.951	3043.62
988.249	3018.54
988.547	2998.2
988.844	2992.77
989.142	2964.75
989.44	2964.3
989.737	2946.45
990.035	2945.32
990.332	2910.06
990.63	2910.97
990.927	2831.42
991.224	2856.28
991.521	2849.95
991.819	2840.69
992.116	2847.92
992.413	2837.07
992.71	2793.68
993.006	2789.39
993.303	2788.94
993.6	2730.63
993.897	2731.54
994.193	2747.81
994.49	2726.34
994.787	2712.1
995.083	2708.04
995.379	2687.02
995.676	2663.74
995.972	2657.87
996.268	2646.79
996.565	2604.54
996.861	2604.54
997.157	2583.52
997.453	2585.1
997.749	2607.7
998.044	2553.92
998.34	2516.63
998.636	2499.91
998.932	2523.41
999.227	2503.3
999.523	2499.45
999.818	2502.17
1000.114	2496.29
1000.409	2482.96
1000.704	2420.13
1001	2428.95
1001.295	2425.11
1001.59	2408.83
1001.885	2388.95
1002.18	2378.55
1002.475	2388.5
1002.77	2364.99
1003.065	2342.85
1003.359	2321.15
1003.654	2311.21
1003.949	2296.75
1004.243	2297.2
1004.538	2252.23
1004.832	2263.53
1005.127	2250.42
1005.421	2239.57
1005.715	2202.96
1006.009	2222.63
1006.304	2195.51
1006.598	2189.86
1006.892	2178.56
1007.186	2178.11
1007.48	2179.69
1007.773	2149.41
1008.067	2129.52
1008.361	2110.76
1008.655	2109.63
1008.948	2125.9
1009.242	2054.95
1009.535	2063.08
1009.829	2037.32
1010.122	2069.86
1010.415	2030.99
1010.708	1986.25
1011.001	2009.52
1011.295	2003.65
1011.588	1980.6
1011.881	1973.59
1012.173	1952.8
1012.466	1972.46
1012.759	1931.33
1013.052	1935.18
1013.344	1920.94
1013.637	1890.2
1013.93	1881.62
1014.222	1886.59
1014.514	1876.65
1014.807	1845.46
1015.099	1834.39
1015.391	1842.97
1015.683	1844.56
1015.976	1813.6
1016.268	1807.27
1016.56	1792.35
1016.851	1770.66
1017.143	1805.91
1017.435	1741.06
1017.727	1729.3
1018.018	1731.56
1018.31	1723.88
1018.602	1718.01
1018.893	1706.03
1019.185	1699.48
1019.476	1683.88
1019.767	1661.28
1020.058	1669.42
1020.35	1643.43
1020.641	1645.47
1020.932	1640.95
1021.223	1631
1021.514	1600.04
1021.804	1576.09
1022.095	1584.45
1022.386	1537.9
1022.677	1558.24
1022.967	1537.22
1023.258	1536.09
1023.548	1522.98
1023.839	1515.07
1024.129	1519.59
1024.419	1496.54
1024.709	1461.97
1025	1485.47
1025.29	1459.93
1025.58	1469.2
1025.87	1424.23
1026.16	1423.55
1026.449	1459.03
1026.739	1398.92
1027.029	1406.83
1027.319	1411.35
1027.608	1374.51
1027.898	1384.46
1028.187	1390.78
1028.477	1356.21
1028.766	1332.48
1029.055	1320.28
1029.344	1326.6
1029.634	1331.8
1029.923	1308.75
1030.212	1298.36
1030.501	1300.84
1030.79	1292.25
1031.078	1280.96
1031.367	1244.35
1031.656	1258.58
1031.945	1253.61
1032.233	1255.64
1032.522	1221.75
1032.81	1222.65
1033.099	1234.18
1033.387	1199.83
1033.675	1196.44
1033.963	1189.43
1034.251	1208.64
1034.54	1172.03
1034.828	1183.33
1035.116	1172.71
1035.403	1171.35
1035.691	1158.47
1035.979	1146.72
1036.267	1125.93
1036.554	1129.09
1036.842	1116.89
1037.129	1102.43
1037.417	1108.3
1037.704	1100.85
1037.992	1096.1
1038.279	1065.37
1038.566	1065.59
1038.853	1065.59
1039.14	1065.59
