Data from red_shiny_book_FLMS001491_00050.txt Node
Date: Wed Feb 08 15:24:55 GMT 2017
User: dcchb
Spectrometer: FLMS00149
Trigger mode: 0
Integration Time (sec): 2.000000E-2
Scans to average: 10
Electric dark correction enabled: true
Nonlinearity correction enabled: false
Boxcar width: 0
XAxis mode: Wavelengths
Number of Pixels in Spectrum: 2048
>>>>>Begin Spectral Data<<<<<
341.393	0.72
341.776	0.72
342.16	0.72
342.543	-60.97
342.927	-66.85
343.31	-59.62
343.693	-82.22
344.077	-37.92
344.46	-61.42
344.843	-42.67
345.226	-32.73
345.61	-43.57
345.993	-30.24
346.376	8.18
346.759	17.67
347.142	28.06
347.525	25.13
347.908	64
348.291	71
348.674	89.08
349.057	87.27
349.44	110.77
349.823	148.06
350.206	155.52
350.588	202.52
350.971	204.33
351.354	229.41
351.737	241.39
352.119	253.82
352.502	277.32
352.884	279.13
353.267	263.09
353.65	283.88
354.032	313.25
354.414	310.99
354.797	316.42
355.179	330.43
355.562	325.23
355.944	299.24
356.326	333.59
356.709	329.75
357.091	330.88
357.473	346.25
357.855	342.41
358.238	342.18
358.62	339.69
359.002	340.6
359.384	333.59
359.766	359.81
360.148	349.64
360.53	358.45
360.912	337.89
361.294	337.21
361.676	335.4
362.057	347.6
362.439	334.95
362.821	336.08
363.203	332.01
363.584	342.86
363.966	336.76
364.348	314.84
364.729	331.56
365.111	327.04
365.493	342.86
365.874	344.67
366.256	331.11
366.637	328.85
367.019	305.57
367.4	315.74
367.781	318.45
368.163	320.03
368.544	324.78
368.925	314.84
369.306	316.42
369.688	329.98
370.069	319.81
370.45	316.42
370.831	293.14
371.212	307.38
371.593	327.72
371.974	336.3
372.355	327.27
372.736	322.97
373.117	317.55
373.498	344.44
373.879	336.08
374.26	314.38
374.641	313.03
375.021	330.2
375.402	326.81
375.783	315.29
376.163	351.9
376.544	315.74
376.925	338.34
377.305	342.41
377.686	329.75
378.066	329.07
378.447	327.04
378.827	360.03
379.208	338.11
379.588	360.26
379.968	341.5
380.349	329.98
380.729	336.08
381.109	330.43
381.489	351.67
381.87	338.79
382.25	358.68
382.63	328.4
383.01	333.14
383.39	349.64
383.77	359.81
384.15	328.85
384.53	347.83
384.91	370.2
385.29	382.63
385.67	363.65
386.049	345.12
386.429	358.9
386.809	386.25
387.189	360.03
387.568	379.02
387.948	352.58
388.328	368.17
388.707	388.96
389.087	372.46
389.466	363.87
389.846	363.2
390.225	366.81
390.605	402.29
390.984	367.94
391.363	372.01
391.743	360.03
392.122	390.09
392.501	395.96
392.881	367.72
393.26	392.57
393.639	398
394.018	388.51
394.397	393.25
394.776	400.48
395.155	406.59
395.534	383.08
395.913	394.61
396.292	391.9
396.671	406.59
397.05	424.66
397.429	422.4
397.808	412.69
398.186	417.43
398.565	419.92
398.944	416.08
399.323	421.73
399.701	414.49
400.08	418.56
400.458	422.4
400.837	430.99
401.215	407.94
401.594	423.99
401.972	427.6
402.351	421.05
402.729	424.44
403.107	430.31
403.486	450.88
403.864	442.97
404.242	444.1
404.62	443.42
404.999	460.82
405.377	459.24
405.755	457.43
406.133	425.34
406.511	460.82
406.889	429.41
407.267	455.62
407.645	454.72
408.023	479.35
408.401	490.88
408.779	491.78
409.156	479.13
409.534	488.17
409.912	485
410.29	474.15
410.667	475.74
411.045	494.72
411.422	517.32
411.8	501.95
412.178	515.96
412.555	525.23
412.933	530.65
413.31	538.33
413.687	530.2
414.065	517.77
414.442	516.19
414.819	519.8
415.197	504.66
415.574	555.73
415.951	546.47
416.328	575.39
416.705	541.72
417.082	564.32
417.46	572.23
417.837	558.9
418.214	554.83
418.591	564.32
418.967	570.87
419.344	602.51
419.721	573.59
420.098	596.41
420.475	594.15
420.852	581.72
421.228	588.95
421.605	593.93
421.982	624.43
422.358	606.13
422.735	613.59
423.111	617.2
423.488	616.75
423.864	642.74
424.241	627.6
424.617	654.94
424.994	646.58
425.37	644.09
425.746	653.81
426.123	629.86
426.499	643.87
426.875	651.32
427.251	688.84
427.627	680.25
428.003	695.62
428.379	686.58
428.756	702.4
429.132	698.1
429.507	695.62
429.883	726.8
430.259	687.93
430.635	697.2
431.011	716.86
431.387	728.38
431.763	721.38
432.138	748.05
432.514	744.66
432.89	763.41
433.265	772.45
433.641	766.58
434.016	757.54
434.392	738.33
434.767	751.21
435.143	770.64
435.518	786.01
435.894	803.19
436.269	798.44
436.644	823.75
437.02	832.34
437.395	823.07
437.77	867.59
438.145	857.65
438.52	848.83
438.895	824.43
439.271	817.87
439.646	847.03
440.021	842.51
440.395	859.91
440.77	852.68
441.145	886.12
441.52	905.1
441.895	918.44
442.27	914.14
442.645	902.62
443.019	907.82
443.394	917.76
443.769	908.04
444.143	872.56
444.518	899.91
444.892	880.92
445.267	932.45
445.641	946.91
446.016	923.63
446.39	952.11
446.764	985.55
447.139	944.65
447.513	936.74
447.887	937.64
448.262	948.49
448.636	928.15
449.01	945.1
449.384	970.86
449.758	935.39
450.132	972.22
450.506	1004.99
450.88	990.3
451.254	1021.03
451.628	1005.89
452.002	1021.26
452.376	1016.74
452.75	1049.05
453.123	1002.28
453.497	1033.69
453.871	1018.09
454.244	1038.21
454.618	1063.07
454.992	1046.79
455.365	1049.05
455.739	1110.3
456.112	1112.56
456.486	1109.17
456.859	1129.28
457.232	1090.64
457.606	1096.06
457.979	1073.23
458.352	1080.01
458.725	1090.18
459.099	1117.75
459.472	1126.11
459.845	1130.18
460.218	1154.36
460.591	1181.03
460.964	1184.64
461.337	1213.8
461.71	1209.95
462.083	1232.1
462.456	1186.45
462.829	1167.7
463.201	1178.77
463.574	1172.67
463.947	1186.45
464.32	1217.19
464.692	1230.97
465.065	1249.5
465.438	1283.17
465.81	1300.57
466.183	1302.83
466.555	1313.45
466.928	1368.37
467.3	1331.08
467.672	1335.37
468.045	1361.81
468.417	1329.5
468.789	1317.97
469.161	1323.85
469.534	1350.52
469.906	1396.84
470.278	1433.9
470.65	1432.32
471.022	1452.21
471.394	1522.04
471.766	1539.44
472.138	1547.57
472.51	1559.55
472.882	1541.92
473.253	1517.74
473.625	1548.25
473.997	1517.52
474.369	1544.18
474.74	1528.82
475.112	1564.52
475.484	1663.73
475.855	1674.12
476.227	1712.99
476.598	1727.45
476.97	1779.88
477.341	1833.89
477.713	1830.5
478.084	1785.31
478.455	1807.45
478.827	1808.58
479.198	1856.26
479.569	1830.28
479.94	1856.94
480.311	1871.41
480.682	1922.93
481.053	1985.53
481.424	2058.97
481.795	2042.7
482.166	2135.81
482.537	2187.1
482.908	2217.61
483.279	2225.75
483.65	2228.23
484.021	2253.54
484.391	2230.94
484.762	2219.42
485.133	2224.84
485.503	2235.92
485.874	2287.21
486.244	2336.03
486.615	2413.99
486.985	2462.35
487.356	2548.9
487.726	2603.82
488.097	2668.22
488.467	2706.86
488.837	2707.99
489.207	2718.61
489.578	2680.42
489.948	2666.86
490.318	2690.59
490.688	2681.1
491.058	2712.51
491.428	2749.12
491.798	2801.55
492.168	2888.1
492.538	2939.63
492.908	3012.39
493.278	3071.15
493.648	3083.58
494.017	3145.5
494.387	3139.62
494.757	3151.82
495.126	3199.96
495.496	3144.59
495.866	3128.32
496.235	3102.79
496.605	3113.63
496.974	3104.14
497.344	3155.21
497.713	3178.26
498.082	3250.35
498.452	3371.93
498.821	3404.25
499.19	3477.24
499.559	3519.05
499.928	3539.84
500.298	3561.98
500.667	3592.26
501.036	3526.28
501.405	3547.29
501.774	3439.95
502.143	3429.56
502.512	3411.48
502.88	3420.29
503.249	3418.26
503.618	3447.86
503.987	3547.29
504.356	3576.22
504.724	3649.21
505.093	3718.36
505.462	3810.79
505.83	3843.78
506.199	3874.74
506.567	3919.49
506.936	3827.96
507.304	3831.13
507.672	3761.75
508.041	3694.63
508.409	3699.38
508.777	3643.56
509.145	3644.47
509.514	3688.53
509.882	3710.91
510.25	3799.94
510.618	3863.9
510.986	3924.46
511.354	4067.96
511.722	4134.17
512.09	4137.11
512.458	4166.26
512.826	4101.18
513.193	4101.18
513.561	4016.43
513.929	3997.68
514.297	3959.03
514.664	3928.53
515.032	3887.17
515.4	3921.3
515.767	3911.58
516.135	3970.79
516.502	4004
516.869	4091.69
517.237	4207.16
517.604	4239.7
517.972	4383.88
518.339	4386.59
518.706	4411.45
519.073	4380.94
519.44	4437.67
519.808	4372.13
520.175	4300.49
520.542	4224.11
520.909	4182.31
521.276	4109.31
521.643	4126.94
522.009	4161.06
522.376	4212.36
522.743	4246.26
523.11	4328.97
523.477	4374.62
523.843	4526.93
524.21	4666.81
524.577	4697.09
524.943	4776.41
525.31	4852.12
525.676	4888.05
526.043	4789.97
526.409	4800.59
526.776	4732.8
527.142	4650.77
527.508	4639.24
527.874	4602.18
528.241	4561.5
528.607	4572.13
528.973	4589.07
529.339	4625.68
529.705	4779.35
530.071	4896.86
530.437	5062.28
530.803	5152.22
531.169	5225.22
531.535	5311.32
531.901	5329.85
532.267	5433.12
532.632	5422.72
532.998	5381.37
533.364	5406.68
533.73	5242.39
534.095	5186.12
534.461	5220.47
534.826	5134.37
535.192	5116.52
535.557	5106.57
535.923	5176.18
536.288	5251.88
536.653	5358.55
537.019	5480.8
537.384	5553.12
537.749	5707.46
538.114	5818.87
538.479	5936.38
538.845	5971.64
539.21	5968.25
539.575	5919.21
539.94	5951.3
540.305	5926.44
540.67	5797.86
541.034	5692.77
541.399	5663.17
541.764	5708.59
542.129	5662.94
542.494	5556.73
542.858	5639.89
543.223	5739.78
543.587	5793.56
543.952	5891.86
544.316	6064.06
544.681	6216.83
545.045	6297.96
545.41	6446.88
545.774	6502.7
546.138	6521.23
546.503	6556.48
546.867	6497.05
547.231	6497.5
547.595	6400.1
547.959	6297.96
548.324	6202.82
548.688	6130.5
549.052	6042.6
549.416	5992.2
549.779	5939.77
550.143	5975.7
550.507	6106.1
550.871	6169.6
551.235	6236.04
551.599	6434
551.962	6536.82
552.326	6678.28
552.689	6813.87
553.053	6866.75
553.417	6876.47
553.78	6962.57
554.143	6845.29
554.507	6815.23
554.87	6762.8
555.234	6628.57
555.597	6545.18
555.96	6498.85
556.323	6372.53
556.686	6343.38
557.05	6342.7
557.413	6300.67
557.776	6353.55
558.139	6404.62
558.502	6550.15
558.865	6613.65
559.228	6785.17
559.59	6914.21
559.953	7008.67
560.316	7226.52
560.679	7251.83
561.041	7335.22
561.404	7332.28
561.767	7365.05
562.129	7292.05
562.492	7198.5
562.854	7124.15
563.217	6954.44
563.579	6862.23
563.941	6793.76
564.304	6691.84
564.666	6695.01
565.028	6671.96
565.39	6738.17
565.753	6838.28
566.115	6976.36
566.477	7071.72
566.839	7232.85
567.201	7396.23
567.563	7491.82
567.925	7745.15
568.287	7777.01
568.648	7910.57
569.01	7863.34
569.372	7977.91
569.734	7786.05
570.095	7856.11
570.457	7678.26
570.819	7566.62
571.18	7535.44
571.542	7435.1
571.903	7344.71
572.265	7299.51
572.626	7224.49
572.987	7225.16
573.349	7334.09
573.71	7471.26
574.071	7606.62
574.432	7810.68
574.794	8023.11
575.155	8218.81
575.516	8351.91
575.877	8529.99
576.238	8660.61
576.599	8871.67
576.96	8911.9
577.32	9010.88
577.681	9033.93
578.042	9052.69
578.403	8994.38
578.763	9027.6
579.124	8926.36
579.485	9021.5
579.845	8999.35
580.206	9004.33
580.566	9052.23
580.927	9243.64
581.287	9354.37
581.648	9649.73
582.008	9932.66
582.368	10199.55
582.728	10584.4
583.089	10904.16
583.449	11341.67
583.809	11790.47
584.169	12208.99
584.529	12499.83
584.889	12921.51
585.249	13181.39
585.609	13340.93
585.969	13773.69
586.329	14002.84
586.688	14277.86
587.048	14611.64
587.408	14837.39
587.768	15040.1
588.127	15326.65
588.487	15665.39
588.846	16099.96
589.206	16306.96
589.565	16755.99
589.925	17374.95
590.284	17828.95
590.643	18332.44
591.003	19061.69
591.362	19717.26
591.721	20304.14
592.08	20939.38
592.44	21541.62
592.799	22239.46
593.158	22704.08
593.517	23278.75
593.876	23764.39
594.235	24321.21
594.593	24685.72
594.952	25256.1
595.311	25478.69
595.67	25919.36
596.029	26460.59
596.387	26772.9
596.746	27169.27
597.104	27509.15
597.463	27945.3
597.822	28505.73
598.18	28780.3
598.538	29275.43
598.897	30009.42
599.255	30187.05
599.613	31338.43
599.972	31816.61
600.33	32345.41
600.688	32847.31
601.046	33541.31
601.404	34260.38
601.762	34699.92
602.12	35333.12
602.478	35848.82
602.836	36334.45
603.194	36505.98
603.552	36893.99
603.91	36924.04
604.268	37443.58
604.625	37784.36
604.983	38058.48
605.341	38032.26
605.698	38551.57
606.056	39008.73
606.413	39068.62
606.771	39439.68
607.128	39852.55
607.485	40109.27
607.843	40339.77
608.2	40996.48
608.557	41502.68
608.914	41871.71
609.272	42380.17
609.629	42889.54
609.986	43252.69
610.343	43514.83
610.7	44179.67
611.057	44390.51
611.414	44607.68
611.771	44986.43
612.127	45206.09
612.484	45254.67
612.841	45515.91
613.198	45443.82
613.554	45489.02
613.911	45775.56
614.267	45791.15
614.624	45927.2
614.98	45925.39
615.337	46183.69
615.693	46254.19
616.05	46434.3
616.406	46612.83
616.762	46764.91
617.118	46868.87
617.475	47147.28
617.831	47433.82
618.187	47697.77
618.543	47930.08
618.899	48345.89
619.255	48411.65
619.611	48643.51
619.967	48874.24
620.323	49055.48
620.678	49059.09
621.034	49119.43
621.39	49081.69
621.746	49196.04
622.101	49548.57
622.457	49153.1
622.812	49286.43
623.168	49318.52
623.523	49285.07
623.879	49310.61
624.234	49106.1
624.589	49245.98
624.945	49149.03
625.3	49237.17
625.655	49115.81
626.01	49306.54
626.365	49362.13
626.72	49438.52
627.075	49505.18
627.43	49676.93
627.785	49706.98
628.14	49963.47
628.495	50098.61
628.85	50179.51
629.205	50223.13
629.559	50457.7
629.914	50366.63
630.269	50501.99
630.623	50399.4
630.978	50355.55
631.332	50461.77
631.687	50517.13
632.041	50210.93
632.396	50373.86
632.75	50105.84
633.104	50195.56
633.459	49927.09
633.813	49760.99
634.167	49764.16
634.521	49671.73
634.875	49753.76
635.229	49700.43
635.583	49477.84
635.937	49598.06
636.291	49507.22
636.645	49626.76
636.999	49723.48
637.352	49820.2
637.706	49807.32
638.06	49966.86
638.413	49976.36
638.767	49928.22
639.121	50128.22
639.474	49918.28
639.828	50043.7
640.181	50109.01
640.534	50246.18
640.888	50096.58
641.241	49873.53
641.594	49957.82
641.947	49989.24
642.301	49657.72
642.654	49678.96
643.007	49562.36
643.36	49355.81
643.713	49231.29
644.066	49393.09
644.419	49016.15
644.771	48812.32
645.124	48471.54
645.477	48240.58
645.83	48100.92
646.182	47963.08
646.535	47995.62
646.888	48082.62
647.24	47925.56
647.593	48252.33
647.945	48224.31
648.298	48233.8
648.65	48196.06
649.002	48163.52
649.355	48436.06
649.707	48361.71
650.059	48420.01
650.411	48909.26
650.763	48986.78
651.115	49394.22
651.467	49229.48
651.819	49092.54
652.171	48937.51
652.523	48794.01
652.875	48644.87
653.227	48561.25
653.578	48660.68
653.93	48523.74
654.282	48301.82
654.633	48090.98
654.985	48129.17
655.337	48131.88
655.688	48091.89
656.039	48236.74
656.391	47854.15
656.742	48031.77
657.094	48033.58
657.445	48292.11
657.796	48247.36
658.147	48339.34
658.498	48292.33
658.849	48467.02
659.2	48611.19
659.551	48522.38
659.902	48743.17
660.253	48581.36
660.604	48787.91
660.955	48467.02
661.306	48773.22
661.656	48589.27
662.007	48645.77
662.358	48542.95
662.708	48446.9
663.059	48295.04
663.409	48077.2
663.76	48218.66
664.11	48017.31
664.461	48006.69
664.811	47984.77
665.161	47726.02
665.511	47676.3
665.862	47691.44
666.212	47775.06
666.562	47667.26
666.912	47669.75
667.262	47600.82
667.612	47490.55
667.962	47730.09
668.312	47648.06
668.662	47976.86
669.011	47883.98
669.361	47947.71
669.711	48049.4
670.06	47949.06
670.41	48022.96
670.76	47943.87
671.109	48206.23
671.459	48120.13
671.808	48093.24
672.157	48208.72
672.507	47883.98
672.856	48024.99
673.205	47978.67
673.554	47919.01
673.904	47605.12
674.253	47826.81
674.602	47718.79
674.951	47017.11
675.3	46764.24
675.649	47215.98
675.998	47124.68
676.346	47011.91
676.695	47153.6
677.044	46752.03
677.393	46968.75
677.741	46902.09
678.09	46752.71
678.438	46674.52
678.787	46744.35
679.135	46978.02
679.484	46668.19
679.832	46910.45
680.181	46760.39
680.529	47015.98
680.877	46870.9
681.225	46872.48
681.573	47341.4
681.922	47073.38
682.27	46975.3
682.618	47080.61
682.966	47086.49
683.314	47023.89
683.661	46970.33
684.009	46732.6
684.357	46769.66
684.705	46525.82
685.053	46545.71
685.4	46359.05
685.748	46049.9
686.095	46139.17
686.443	45777.6
686.79	45695.11
687.138	45685.85
687.485	45638.62
687.832	45358.85
688.18	45399.53
688.527	44961.57
688.874	44959.99
689.221	44799.99
689.568	44831.63
689.915	44631.19
690.262	44748.02
690.609	44717.74
690.956	44720.67
691.303	44696.95
691.65	44592.99
691.997	44649.26
692.344	44533.56
692.69	44602.71
693.037	44569.27
693.383	44372.43
693.73	44585.99
694.077	44260.57
694.423	44375.15
694.769	44383.73
695.116	44319.33
695.462	44165.89
695.808	44054.03
696.155	43955.27
696.501	43596.18
696.847	43599.8
697.193	43187.61
697.539	43305.12
697.885	42958.23
698.231	42661.75
698.577	42678.47
698.923	42359.38
699.269	42214.75
699.614	42025.38
699.96	41951.93
700.306	41853.41
700.651	41784.93
700.997	41399.18
701.342	41332.97
701.688	41377.26
702.033	41298.62
702.379	41430.37
702.724	41157.6
703.069	41355.57
703.415	40943.6
703.76	41119.41
704.105	41278.51
704.45	41136.36
704.795	40968
705.14	41008
705.485	40999.19
705.83	40859.08
706.175	41009.13
706.52	40875.58
706.865	40753.55
707.209	40824.96
707.554	40643.95
707.899	40643.95
708.243	40382.03
708.588	40307.91
708.932	39974.13
709.277	39967.13
709.621	39920.8
709.966	39537.53
710.31	39501.15
710.654	39054.16
710.998	39058.22
711.342	39105
711.687	38789.98
712.031	38570.78
712.375	38503.66
712.719	38558.58
713.063	38304.12
713.407	38501.85
713.75	38224.57
714.094	38183.9
714.438	38217.34
714.782	38239.04
715.125	38087.18
715.469	38220.51
715.812	38058.48
716.156	37920.85
716.499	37951.36
716.843	38115.88
717.186	37960.17
717.53	38314.74
717.873	38275.42
718.216	38181.64
718.559	38034.75
718.902	37864.36
719.246	38026.61
719.589	37896.45
719.932	37789.78
720.275	37762.89
720.617	37770.12
720.96	37527.87
721.303	37517.47
721.646	37442.45
721.989	37215.79
722.331	37272.96
722.674	37141.44
723.016	36947.55
723.359	36711.85
723.701	36656.03
724.044	36381.46
724.386	36244.74
724.729	36276.38
725.071	36017.4
725.413	36044.52
725.755	36002.03
726.097	35867.57
726.439	35589.62
726.782	35668.48
727.124	35729.95
727.465	35669.39
727.807	35662.38
728.149	35668.71
728.491	35587.81
728.833	35735.37
729.175	35739.44
729.516	35699.89
729.858	35639.56
730.199	35797.29
730.541	35828.7
730.882	35672.32
731.224	35802.26
731.565	35753.68
731.906	35716.62
732.248	35872.32
732.589	35591.87
732.93	35536.06
733.271	35538.32
733.612	35585.55
733.953	35417.42
734.294	35332.67
734.635	35095.16
734.976	35135.84
735.317	34963.19
735.658	34893.59
735.999	34747.15
736.339	34597.55
736.68	34645.91
737.021	34329.76
737.361	34125.92
737.702	34251.12
738.042	34185.13
738.383	34033.95
738.723	34153.49
739.063	33875.08
739.404	33961.86
739.744	33740.85
740.084	33787.85
740.424	33820.17
740.764	33721.87
741.104	33771.13
741.444	33659.72
741.784	33618.82
742.124	33755.76
742.464	33751.7
742.804	33750.57
743.143	33595.77
743.483	33768.42
743.823	33586.28
744.162	33757.12
744.502	33758.7
744.841	33712.15
745.181	33892.94
745.52	33700.63
745.86	33870.79
746.199	33654.52
746.538	33655.88
746.877	33753.73
747.216	33597.58
747.556	33432.16
747.895	33443.68
748.234	33266.74
748.573	33084.6
748.911	33108.55
749.25	33098.61
749.589	32585.17
749.928	32711.5
750.267	32650.48
750.605	32497.94
750.944	32350.15
751.283	32208.46
751.621	32234.9
751.96	31909.71
752.298	31903.38
752.636	31778.64
752.975	31658.42
753.313	31594.92
753.651	31755.14
753.989	31463.85
754.327	31516.28
754.666	31327.81
755.004	31426.79
755.342	31466.11
755.679	31401.02
756.017	31309.73
756.355	31389.5
756.693	31445.32
757.031	31396.5
757.368	31208.71
757.706	31389.95
758.044	31231.09
758.381	31318.99
758.719	31230.18
759.056	31375.26
759.394	31280.12
759.731	31076.97
760.068	30904.09
760.405	30938.21
760.743	30835.84
761.08	30806.69
761.417	30551.56
761.754	30511.56
762.091	30419.58
762.428	30397.21
762.765	30050.1
763.102	30145.01
763.438	29960.61
763.775	29611.47
764.112	29736.44
764.449	29568.3
764.785	29424.13
765.122	29071.37
765.458	29035.89
765.795	29023.23
766.131	28822.34
766.467	28649.91
766.804	28608.33
767.14	28428
767.476	28351.84
767.812	28322.46
768.148	28348.68
768.485	28223.93
768.821	28003.83
769.157	28054.9
769.492	27923.38
769.828	28075.69
770.164	27765.87
770.5	27724.06
770.836	27810.16
771.171	27574.01
771.507	27641.12
771.842	27570.62
772.178	27532.43
772.513	27528.81
772.849	27426.44
773.184	27417.85
773.519	27394.35
773.855	27338.31
774.19	27199.1
774.525	27135.15
774.86	27098.09
775.195	27030.29
775.53	26803.41
775.865	26657.19
776.2	26527.48
776.535	26454.71
776.87	26431.66
777.205	26239.13
777.539	26060.37
777.874	25999.58
778.209	25645.02
778.543	25639.59
778.878	25497.23
779.212	25473.95
779.547	25199.15
779.881	25141.98
780.215	25064.92
780.55	24956.22
780.884	24779.96
781.218	24694.76
781.552	24640.07
781.886	24484.37
782.22	24444.15
782.554	24252.06
782.888	24210.25
783.222	24017.94
783.556	23951.5
783.889	23946.53
784.223	23737.95
784.557	23803.94
784.89	23798.29
785.224	23745.63
785.557	23646.88
785.891	23655.24
786.224	23624.28
786.558	23534.79
786.891	23387
787.224	23453.21
787.557	23387.22
787.891	23296.15
788.224	23259.32
788.557	23368.24
788.89	23297.06
789.223	23212.77
789.556	22994.69
789.888	23109.94
790.221	22944.07
790.554	22873.34
790.887	22840.35
791.219	22758.31
791.552	22674.25
791.884	22570.3
792.217	22453.01
792.549	22233.81
792.882	22128.73
793.214	22048.28
793.546	21959.69
793.879	21834.72
794.211	21633.82
794.543	21585.46
794.875	21425.02
795.207	21489.87
795.539	21385.02
795.871	21363.77
796.203	21074.97
796.535	21023.44
796.867	20930.11
797.198	20840.85
797.53	20815.77
797.862	20622.78
798.193	20662.55
798.525	20618.94
798.856	20522.44
799.188	20334.87
799.519	20336.23
799.85	20302.33
800.182	20213.52
800.513	20295.55
800.844	20052.4
801.175	20469.11
801.506	20293.07
801.837	20209.45
802.168	20159.96
802.499	20193.41
802.83	20099.85
803.161	20081.77
803.491	19967.65
803.822	20006.52
804.153	19945.73
804.483	19830.71
804.814	19869.35
805.145	19771.5
805.475	19839.52
805.805	19792.97
806.136	19756.59
806.466	19787.32
806.796	19682.69
807.126	19522.92
807.457	19307.11
807.787	19412.19
808.117	19339.42
808.447	19232.08
808.777	19251.51
809.107	19048.58
809.436	19021.69
809.766	18968.13
810.096	18879.09
810.426	18815.14
810.755	18715.03
811.085	18560.46
811.414	18538.09
811.744	18264.65
812.073	18302.84
812.403	18213.8
812.732	18138.32
813.061	18143.52
813.39	18045.44
813.719	17982.85
814.049	18029.62
814.378	17933.36
814.707	17922.73
815.036	17954.82
815.365	17857.43
815.693	17673.48
816.022	17792.12
816.351	17605.91
816.68	17559.81
817.008	17693.81
817.337	17555.51
817.665	17634.61
817.994	17668.05
818.322	17560.03
818.651	17595.29
818.979	17523.2
819.307	17621.5
819.636	17564.33
819.964	17515.97
820.292	17536.76
820.62	17595.06
820.948	17546.93
821.276	17600.71
821.604	17518
821.932	17522.52
822.259	17570.65
822.587	17563.2
822.915	17519.58
823.243	17575.85
823.57	17515.97
823.898	17497.89
824.225	17455.85
824.553	17393.03
824.88	17360.49
825.207	17357.1
825.535	17275.75
825.862	17300.15
826.189	17283.2
826.516	17332.69
826.843	17238.46
827.17	17193.94
827.497	17235.75
827.824	17144.22
828.151	17242.98
828.478	17092.47
828.805	17180.61
829.131	17026.71
829.458	16940.16
829.785	16908.3
830.111	16852.93
830.438	17002.53
830.764	17042.31
831.09	17037.56
831.417	16832.59
831.743	16941.29
832.069	16912.37
832.395	16830.33
832.722	16934.74
833.048	16932.03
833.374	16983.1
833.7	16895.64
834.026	16923.89
834.351	17012.48
834.677	16822.65
835.003	17003.89
835.329	16998.47
835.654	17013.15
835.98	16963.21
836.306	16976.77
836.631	16995.08
836.956	16907.62
837.282	17000.73
837.607	16883.44
837.932	16947.85
838.258	16823.55
838.583	16841.86
838.908	16842.54
839.233	16793.05
839.558	16807.06
839.883	16676.67
840.208	16692.48
840.533	16778.58
840.858	16738.59
841.182	16678.25
841.507	16712.6
841.832	16628.31
842.156	16525.48
842.481	16493.39
842.805	16502.66
843.13	16340.63
843.454	16233.97
843.778	16197.36
844.103	16149.45
844.427	16055.44
844.751	16044.14
845.075	16084.82
845.399	15958.27
845.723	15759.4
846.047	15767.54
846.371	15673.75
846.695	15726.41
847.019	15496.81
847.343	15505.62
847.666	15387.89
847.99	15312.86
848.313	15173.88
848.637	15199.42
848.96	15132.98
849.284	15084.17
849.607	14876.71
849.931	14976.6
850.254	14985.64
850.577	14785.87
850.9	14756.72
851.223	14784.06
851.546	14594.23
851.869	14642.14
852.192	14693.22
852.515	14517.4
852.838	14573.44
853.161	14580.68
853.483	14407.35
853.806	14430.62
854.129	14499.77
854.451	14487.57
854.774	14343.85
855.096	14350.17
855.419	14293.68
855.741	14265.2
856.063	14227.69
856.385	14190.86
856.708	14155.83
857.03	14148.14
857.352	14089.84
857.674	14061.37
857.996	14088.71
858.318	14002.16
858.64	13971.43
858.961	13878.55
859.283	13812.79
859.605	13799.23
859.926	13734.14
860.248	13660.02
860.57	13602.4
860.891	13641.94
861.212	13570.53
861.534	13537.31
861.855	13428.16
862.176	13433.59
862.498	13398.79
862.819	13254.16
863.14	13203.99
863.461	13287.38
863.782	13147.04
864.103	13213.93
864.424	13124.22
864.745	13102.3
865.065	13012.13
865.386	12820.27
865.707	12950.44
866.027	12938.23
866.348	12904.79
866.668	12822.98
866.989	12773.49
867.309	12784.56
867.63	12870.66
867.95	12743.89
868.27	12697.34
868.59	12828.41
868.91	12667.96
869.23	12719.48
869.55	12647.85
869.87	12645.36
870.19	12666.15
870.51	12707.96
870.83	12716.77
871.15	12724.91
871.469	12647.62
871.789	12771.46
872.109	12688.97
872.428	12636.09
872.748	12744.34
873.067	12655.08
873.386	12651.24
873.706	12710.44
874.025	12551.12
874.344	12644.46
874.663	12668.64
874.982	12633.38
875.301	12613.72
875.62	12644.23
875.939	12601.97
876.258	12699.6
876.577	12544.35
876.896	12475.87
877.214	12395.42
877.533	12456.89
877.852	12423.9
878.17	12415.31
878.489	12438.13
878.807	12366.95
879.125	12370.79
879.444	12223.9
879.762	12264.35
880.08	12174.86
880.398	12084.7
880.716	12086.28
881.034	12060.52
881.352	11944.81
881.67	11889
881.988	11937.13
882.306	11937.58
882.624	11826.85
882.941	11802.67
883.259	11778.49
883.577	11712.5
883.894	11637.93
884.212	11652.84
884.529	11627.76
884.846	11586.4
885.164	11568.78
885.481	11515.22
885.798	11576.01
886.115	11422.11
886.432	11434.54
886.75	11386.64
887.067	11398.61
887.383	11377.14
887.7	11389.8
888.017	11324.26
888.334	11299.63
888.651	11324.49
888.967	11310.25
889.284	11293.08
889.6	11194.32
889.917	11159.52
890.233	11280.42
890.55	11148.9
890.866	11277.03
891.182	11182.35
891.498	11171.73
891.815	11118.62
892.131	11088.79
892.447	11132.18
892.763	11115.91
893.079	11052.86
893.395	10952.07
893.71	11007.89
894.026	10896.71
894.342	10981.67
894.657	10913.43
894.973	10965.63
895.289	10877.04
895.604	10834.56
895.92	10756.6
896.235	10740.1
896.55	10747.1
896.865	10681.34
897.181	10646.32
897.496	10633.44
897.811	10551.4
898.126	10516.6
898.441	10443.16
898.756	10479.31
899.071	10347.57
899.386	10350.05
899.7	10251.3
900.015	10268.7
900.33	10123.62
900.644	10113.9
900.959	10138.08
901.273	10053.56
901.588	9975.15
901.902	9939.67
902.216	9831.2
902.531	9827.13
902.845	9776.06
903.159	9746.45
903.473	9584.42
903.787	9652.22
904.101	9596.63
904.415	9633.69
904.729	9534.71
905.042	9433.24
905.356	9443.64
905.67	9364.32
905.984	9383.52
906.297	9359.57
906.611	9246.35
906.924	9292.91
907.237	9216.3
907.551	9170.65
907.864	9160.25
908.177	9147.6
908.491	9149.41
908.804	9183.76
909.117	9052.69
909.43	9052.91
909.743	9031.9
910.056	8983.31
910.368	8961.39
910.681	8941.95
910.994	8936.3
911.307	8903.54
911.619	8881.39
911.932	8863.99
912.244	8779.92
912.557	8836.65
912.869	8772.47
913.181	8779.7
913.494	8775.63
913.806	8703.09
914.118	8669.42
914.43	8634.39
914.742	8682.3
915.054	8568.18
915.366	8533.38
915.678	8465.58
915.99	8435.3
916.302	8362.76
916.613	8377.9
916.925	8388.52
917.236	8349.65
917.548	8255.42
917.859	8306.94
918.171	8234.18
918.482	8212.48
918.794	8133.39
919.105	8066.72
919.416	8008.19
919.727	8060.85
920.038	8050
920.349	7918.25
920.66	7939.72
920.971	7899.27
921.282	7824.47
921.593	7710.35
921.903	7692.27
922.214	7644.14
922.525	7644.59
922.835	7591.93
923.146	7508.09
923.456	7520.07
923.767	7416.34
924.077	7415.21
924.387	7379.96
924.697	7351.71
925.008	7273.07
925.318	7284.6
925.628	7247.08
925.938	7198.05
926.248	7174.32
926.558	7056.58
926.867	7137.71
927.177	7058.61
927.487	6988.11
927.796	6959.86
928.106	6984.27
928.416	6931.84
928.725	6892.74
929.034	6901.78
929.344	6902.46
929.653	6869.24
929.962	6850.26
930.271	6824.72
930.581	6791.73
930.89	6791.28
931.199	6714.22
931.508	6696.14
931.817	6662.47
932.125	6654.1
932.434	6681
932.743	6628.34
933.051	6621.11
933.36	6588.8
933.669	6558.51
933.977	6494.56
934.286	6530.49
934.594	6525.07
934.902	6484.84
935.21	6477.61
935.519	6463.15
935.827	6419.76
936.135	6361.68
936.443	6376.15
936.751	6382.02
937.059	6382.47
937.367	6249.37
937.674	6257.05
937.982	6235.36
938.29	6249.37
938.597	6173.67
938.905	6101.35
939.213	6074.01
939.52	6092.99
939.827	6057.51
940.135	5970.28
940.442	5951.07
940.749	5988.81
941.056	5949.94
941.363	5863.62
941.67	5821.81
941.977	5802.15
942.284	5829.27
942.591	5826.1
942.898	5743.62
943.205	5745.43
943.511	5714.69
943.818	5624.08
944.125	5618.88
944.431	5584.98
944.738	5638.76
945.044	5594.25
945.35	5501.37
945.657	5496.85
945.963	5458.66
946.269	5384.31
946.575	5403.06
946.881	5352.22
947.187	5367.36
947.493	5322.16
947.799	5315.38
948.105	5290.75
948.41	5194.03
948.716	5220.47
949.022	5180.25
949.327	5189.06
949.633	5134.37
949.938	5195.39
950.244	5147.03
950.549	5037.65
950.854	5060.02
951.16	5027.93
951.465	5013.7
951.77	5036.75
952.075	5022.51
952.38	5013.47
952.685	4950.65
952.99	4954.71
953.294	4912.46
953.599	4906.58
953.904	4883.08
954.209	4881.95
954.513	4887.15
954.818	4874.94
955.122	4815.73
955.426	4860.71
955.731	4855.06
956.035	4795.17
956.339	4794.49
956.643	4789.52
956.948	4702.07
957.252	4760.37
957.556	4732.57
957.86	4697.32
958.163	4685.79
958.467	4677.43
958.771	4655.06
959.075	4648.96
959.378	4656.64
959.682	4610.77
959.985	4520.6
960.289	4554.05
960.592	4511.56
960.896	4567.15
961.199	4437.21
961.502	4436.76
961.805	4446.03
962.108	4417.55
962.411	4414.62
962.714	4333.04
963.017	4404.45
963.32	4404.22
963.623	4325.13
963.926	4348.4
964.228	4258.24
964.531	4272.92
964.833	4234.73
965.136	4197.67
965.438	4199.25
965.741	4148.18
966.043	4159.26
966.345	4086.94
966.648	4066.6
966.95	4039.48
967.252	4039.26
967.554	4017.34
967.856	4006.72
968.158	3927.62
968.46	3956.32
968.761	3938.02
969.063	3904.8
969.365	3866.38
969.666	3890.79
969.968	3835.2
970.269	3803.33
970.571	3801.3
970.872	3811.69
971.174	3808.76
971.475	3767.63
971.776	3743.9
972.077	3757.91
972.378	3707.52
972.679	3699.15
972.98	3706.61
973.281	3658.7
973.582	3661.19
973.883	3636.56
974.183	3610.57
974.484	3598.14
974.785	3589.33
975.085	3573.06
975.386	3550.46
975.686	3572.83
975.986	3580.29
976.287	3524.47
976.587	3494.87
976.887	3484.7
977.187	3476.79
977.487	3513.4
977.787	3460.97
978.087	3466.62
978.387	3427.52
978.687	3440.86
978.987	3426.62
979.286	3387.75
979.586	3423.68
979.885	3411.7
980.185	3366.06
980.484	3370.58
980.784	3368.99
981.083	3393.4
981.382	3329.22
981.682	3351.59
981.981	3290.35
982.28	3292.61
982.579	3274.76
982.878	3330.12
983.177	3261.43
983.475	3247.87
983.774	3223.46
984.073	3215.55
984.372	3134.42
984.67	3169.68
984.969	3160.41
985.267	3170.58
985.566	3120.41
985.864	3096.68
986.162	3120.19
986.461	3059.62
986.759	2997.25
987.057	3031.83
987.355	3053.97
987.653	3025.05
987.951	3013.3
988.249	2977.59
988.547	2967.42
988.844	2981.88
989.142	2947.08
989.44	2899.63
989.737	2894.2
990.035	2837.03
990.332	2845.39
990.63	2865.96
990.927	2811.95
991.224	2767.65
991.521	2779.86
991.819	2787.99
992.116	2783.92
992.413	2761.78
992.71	2754.77
993.006	2746.18
993.303	2717.03
993.6	2705.06
993.897	2680.65
994.193	2686.07
994.49	2655.57
994.787	2644.72
995.083	2643.14
995.379	2582.57
995.676	2604.27
995.972	2601.33
996.268	2580.09
996.565	2483.14
996.861	2552.52
997.157	2547.77
997.453	2545.96
997.749	2532.63
998.044	2502.58
998.34	2519.98
998.636	2512.29
998.932	2464.84
999.227	2434.78
999.523	2437.49
999.818	2421
1000.114	2403.82
1000.409	2404.27
1000.704	2417.61
1001	2385.52
1001.295	2377.38
1001.59	2406.53
1001.885	2387.32
1002.18	2372.86
1002.475	2333.99
1002.77	2329.47
1003.065	2305.74
1003.359	2337.38
1003.654	2286.54
1003.949	2265.07
1004.243	2263.26
1004.538	2217.61
1004.832	2270.72
1005.127	2213.09
1005.421	2201.57
1005.715	2216.93
1006.009	2199.31
1006.304	2196.82
1006.598	2196.59
1006.892	2179.87
1007.186	2143.71
1007.48	2151.85
1007.773	2139.2
1008.067	2101.23
1008.361	2130.83
1008.655	2106.88
1008.948	2083.15
1009.242	2062.59
1009.535	2076.82
1009.829	2051.51
1010.122	2061.23
1010.415	2020.1
1010.708	1997.5
1011.001	1987.79
1011.295	1987.33
1011.588	1978.52
1011.881	1959.31
1012.173	1980.33
1012.466	1936.71
1012.759	1885.64
1013.052	1918.86
1013.344	1922.48
1013.637	1894.68
1013.93	1838.86
1014.222	1890.84
1014.514	1834.8
1014.807	1819.66
1015.099	1819.2
1015.391	1783.72
1015.683	1799.54
1015.976	1789.37
1016.268	1779.2
1016.56	1787.34
1016.851	1764.52
1017.143	1757.28
1017.435	1738.3
1017.727	1699.43
1018.018	1716.83
1018.31	1682.94
1018.602	1653.78
1018.893	1685.42
1019.185	1657.63
1019.476	1665.31
1019.767	1660.11
1020.058	1616.05
1020.35	1593.45
1020.641	1606.1
1020.932	1607.23
1021.223	1595.93
1021.514	1568.36
1021.804	1562.71
1022.095	1521.36
1022.386	1527.91
1022.677	1531.98
1022.967	1504.41
1023.258	1499.44
1023.548	1496.05
1023.839	1473
1024.129	1480
1024.419	1463.05
1024.709	1449.04
1025	1440.23
1025.29	1432.77
1025.58	1421.25
1025.87	1407.01
1026.16	1402.27
1026.449	1407.69
1026.739	1407.69
1027.029	1391.19
1027.319	1382.15
1027.608	1378.09
1027.898	1351.87
1028.187	1375.83
1028.477	1369.72
1028.766	1346.45
1029.055	1336.28
1029.344	1332.44
1029.634	1292.44
1029.923	1326.11
1030.212	1322.95
1030.501	1308.26
1030.79	1285.21
1031.078	1279.33
1031.367	1257.18
1031.656	1250.4
1031.945	1256.05
1032.233	1255.15
1032.522	1240.69
1032.81	1216.96
1033.099	1232.55
1033.387	1209.05
1033.675	1207.69
1033.963	1204.08
1034.251	1198.43
1034.54	1179.45
1034.828	1164.31
1035.116	1157.3
1035.403	1157.53
1035.691	1123.18
1035.979	1142.16
1036.267	1128.6
1036.554	1122.95
1036.842	1104.87
1037.129	1119.56
1037.417	1092.89
1037.704	1078.66
1037.992	1092.22
1038.279	1074.82
1038.566	1072.1
1038.853	1072.1
1039.14	1072.1
