Data from red_shiny_book_FLMS001491_00055.txt Node
Date: Wed Feb 08 15:25:03 GMT 2017
User: dcchb
Spectrometer: FLMS00149
Trigger mode: 0
Integration Time (sec): 2.000000E-2
Scans to average: 10
Electric dark correction enabled: true
Nonlinearity correction enabled: false
Boxcar width: 0
XAxis mode: Wavelengths
Number of Pixels in Spectrum: 2048
>>>>>Begin Spectral Data<<<<<
341.393	-3.62
341.776	-3.62
342.16	-3.62
342.543	-51.52
342.927	-82.26
343.31	-53.33
343.693	-75.48
344.077	-85.87
344.46	-76.83
344.843	-40.45
345.226	-32.54
345.61	-44.52
345.993	-16.72
346.376	-11.53
346.759	22.82
347.142	36.16
347.525	47
347.908	54.24
348.291	72.09
348.674	93.1
349.057	111.86
349.44	110.05
349.823	128.58
350.206	169.71
350.588	207.23
350.971	213.78
351.354	260.11
351.737	249.94
352.119	257.17
352.502	262.14
352.884	276.6
353.267	289.94
353.65	305.98
354.032	317.05
354.414	304.4
354.797	337.84
355.179	340.78
355.562	316.83
355.944	333.78
356.326	331.52
356.709	349.6
357.091	337.62
357.473	372.65
357.855	354.34
358.238	358.18
358.62	357.05
359.002	352.53
359.384	347.79
359.766	357.96
360.148	343.72
360.53	358.41
360.912	345.98
361.294	350.27
361.676	358.63
362.057	331.29
362.439	351.86
362.821	358.41
363.203	334.23
363.584	349.14
363.966	331.52
364.348	338.07
364.729	327.9
365.111	338.3
365.493	327.9
365.874	321.8
366.256	339.2
366.637	324.74
367.019	346.88
367.4	356.6
367.781	338.52
368.163	333.1
368.544	342.36
368.925	353.66
369.306	346.43
369.688	319.77
370.069	355.47
370.45	312.08
370.831	311.18
371.212	333.32
371.593	338.3
371.974	339.88
372.355	346.43
372.736	325.64
373.117	340.78
373.498	329.03
373.879	336.04
374.26	339.65
374.641	346.66
375.021	344.85
375.402	338.75
375.783	357.73
376.163	369.48
376.544	356.83
376.925	357.28
377.305	354.11
377.686	355.92
378.066	345.3
378.447	361.12
378.827	338.52
379.208	355.7
379.588	368.8
379.968	354.79
380.349	353.21
380.729	349.82
381.109	350.73
381.489	367
381.87	363.15
382.25	359.31
382.63	363.15
383.01	379.2
383.39	369.03
383.77	392.76
384.15	355.92
384.53	382.59
384.91	402.7
385.29	391.4
385.67	385.98
386.049	390.05
386.429	382.59
386.809	383.49
387.189	382.14
387.568	393.66
387.948	385.53
388.328	400.89
388.707	395.7
389.087	384.62
389.466	395.02
389.846	403.83
390.225	399.31
390.605	410.38
390.984	401.12
391.363	418.29
391.743	409.71
392.122	403.38
392.501	401.57
392.881	441.12
393.26	414.9
393.639	430.05
394.018	423.72
394.397	408.58
394.776	425.53
395.155	422.81
395.534	426.43
395.913	420.1
396.292	421.46
396.671	437.73
397.05	439.54
397.429	432.98
397.808	436.15
398.186	458.29
398.565	437.28
398.944	432.08
399.323	436.15
399.701	439.76
400.08	463.04
400.458	465.07
400.837	448.35
401.215	465.75
401.594	467.56
401.972	456.49
402.351	480.21
402.729	475.02
403.107	455.13
403.486	465.07
403.864	486.09
404.242	469.14
404.62	499.42
404.999	505.75
405.377	513.88
405.755	486.99
406.133	501
406.511	509.59
406.889	510.95
407.267	502.59
407.645	517.05
408.023	526.31
408.401	515.47
408.779	541.91
409.156	552.3
409.534	531.51
409.912	530.83
410.29	529.25
410.667	539.65
411.045	560.66
411.422	572.64
411.8	578.74
412.178	584.62
412.555	595.69
412.933	574.45
413.31	595.01
413.687	574
414.065	585.52
414.442	579.65
414.819	577.39
415.197	612.87
415.574	617.61
415.951	627.1
416.328	633.2
416.705	634.79
417.082	627.78
417.46	618.51
417.837	624.39
418.214	638.85
418.591	663.94
418.967	641.79
419.344	666.65
419.721	677.95
420.098	690.38
420.475	710.49
420.852	730.83
421.228	704.39
421.605	699.19
421.982	682.47
422.358	694.45
422.735	698.74
423.111	729.7
423.488	738.74
423.864	763.82
424.241	776.48
424.617	747.55
424.994	784.16
425.37	784.84
425.746	772.18
426.123	749.81
426.499	737.83
426.875	747.78
427.251	764.95
427.627	771.28
428.003	796.82
428.379	809.24
428.756	827.55
429.132	828.45
429.507	832.52
429.883	838.85
430.259	817.15
430.635	825.29
431.011	824.84
431.387	838.62
431.763	876.36
432.138	843.82
432.514	900.09
432.89	917.72
433.265	912.97
433.641	937.6
434.016	931.27
434.392	926.08
434.767	910.26
435.143	897.6
435.518	902.35
435.894	931.05
436.269	930.37
436.644	959.97
437.02	993.65
437.395	993.87
437.77	1006.75
438.145	1035
438.52	1013.31
438.895	1010.59
439.271	1022.35
439.646	1014.89
440.021	1009.69
440.395	1014.66
440.77	1020.99
441.145	1037.03
441.52	1062.12
441.895	1101.44
442.27	1121.78
442.645	1111.38
443.019	1119.29
443.394	1100.31
443.769	1070.48
444.143	1067.99
444.518	1056.02
444.892	1065.96
445.267	1059.63
445.641	1091.72
446.016	1108.9
446.39	1158.16
446.764	1165.62
447.139	1161.78
447.513	1183.25
447.887	1181.66
448.262	1191.83
448.636	1151.61
449.01	1152.74
449.384	1173.98
449.758	1131.72
450.132	1170.14
450.506	1159.07
450.88	1201.32
451.254	1195.67
451.628	1258.05
452.002	1275.22
452.376	1278.84
452.75	1275.9
453.123	1266.86
453.497	1263.47
453.871	1236.58
454.244	1239.29
454.618	1238.39
454.992	1234.09
455.365	1274.09
455.739	1301.43
456.112	1350.25
456.486	1388.21
456.859	1373.98
457.232	1387.08
457.606	1394.99
457.979	1392.51
458.352	1381.88
458.725	1375.78
459.099	1321.55
459.472	1343.47
459.845	1392.05
460.218	1409.45
460.591	1414.65
460.964	1431.6
461.337	1491.71
461.71	1577.36
462.083	1557.02
462.456	1570.58
462.829	1531.49
463.201	1530.13
463.574	1505.5
463.947	1511.15
464.32	1497.81
464.692	1529.23
465.065	1523.8
465.438	1545.5
465.81	1587.3
466.183	1600.86
466.555	1694.19
466.928	1659.84
467.3	1712.5
467.672	1747.3
468.045	1769.44
468.417	1736.68
468.789	1675.66
469.161	1680.18
469.534	1657.81
469.906	1672.27
470.278	1719.05
470.65	1754.76
471.022	1806.28
471.394	1836.11
471.766	1917.69
472.138	1975.54
472.51	2049.89
472.882	2029.55
473.253	2018.48
473.625	2038.59
473.997	2034.97
474.369	1964.92
474.74	1967.41
475.112	1984.81
475.484	2005.37
475.855	2021.87
476.227	2077.46
476.598	2179.15
476.97	2208.98
477.341	2310.22
477.713	2399.71
478.084	2401.52
478.455	2459.6
478.827	2439.94
479.198	2468.41
479.569	2418.02
479.94	2405.59
480.311	2376.21
480.682	2404
481.053	2462.99
481.424	2469.09
481.795	2587.05
482.166	2659.82
482.537	2744.56
482.908	2865.24
483.279	2909.3
483.65	2970.09
484.021	3003.99
484.391	3045.34
484.762	3035.63
485.133	2973.48
485.503	2982.97
485.874	2915.18
486.244	2929.19
486.615	3022.97
486.985	3026.81
487.356	3125.34
487.726	3211.67
488.097	3346.8
488.467	3389.29
488.837	3544.77
489.207	3646.01
489.578	3687.36
489.948	3699.79
490.318	3718.09
490.688	3638.1
491.058	3643.97
491.428	3580.02
491.798	3542.05
492.168	3594.48
492.538	3580.92
492.908	3636.06
493.278	3709.51
493.648	3852.55
494.017	4003.28
494.387	4061.81
494.757	4169.61
495.126	4326.67
495.496	4300.9
495.866	4340.45
496.235	4340.22
496.605	4224.07
496.974	4161.7
497.344	4102.94
497.713	4042.15
498.082	4022.95
498.452	4087.35
498.821	4102.49
499.19	4202.15
499.559	4336.84
499.928	4495.48
500.298	4547.9
500.667	4684.17
501.036	4763.72
501.405	4827.67
501.774	4823.38
502.143	4797.84
502.512	4657.28
502.88	4661.35
503.249	4539.77
503.618	4478.53
503.987	4394.46
504.356	4447.34
504.724	4434.23
505.093	4490.5
505.462	4577.51
505.83	4741.34
506.199	4842.36
506.567	5024.73
506.936	5133.65
507.304	5158.06
507.672	5275.34
508.041	5264.27
508.409	5169.13
508.777	5101.11
509.145	5042.81
509.514	4889.81
509.882	4777.73
510.25	4741.8
510.618	4700.44
510.986	4769.37
511.354	4858.63
511.722	4975.46
512.09	5138.62
512.458	5190.15
512.826	5264.04
513.193	5465.39
513.561	5569.57
513.929	5610.47
514.297	5592.4
514.664	5540.87
515.032	5485.51
515.4	5464.04
515.767	5287.77
516.135	5194.89
516.502	5082.13
516.869	5028.34
517.237	5101.79
517.604	5113.99
517.972	5226.3
518.339	5394.66
518.706	5481.89
519.073	5709.45
519.44	5786.74
519.808	5970.24
520.175	5970.01
520.542	6066.96
520.909	6045.26
521.276	6010.69
521.643	5908.32
522.009	5798.94
522.376	5710.58
522.743	5550.36
523.11	5488.44
523.477	5457.03
523.843	5503.13
524.21	5606.63
524.577	5671.72
524.943	5827.19
525.31	6035.55
525.676	6246.84
526.043	6407.06
526.409	6535.42
526.776	6733.83
527.142	6779.93
527.508	6773.83
527.874	6698.81
528.241	6652.71
528.607	6509.21
528.973	6400.74
529.339	6253.39
529.705	6216.79
530.071	6191.48
530.437	6160.74
530.803	6168.43
531.169	6330.23
531.535	6398.48
531.901	6571.8
532.267	6795.98
532.632	6994.62
532.998	7220.15
533.364	7411.33
533.73	7493.36
534.095	7607.94
534.461	7534.27
534.826	7600.48
535.192	7507.6
535.557	7334.27
535.923	7243.43
536.288	7011.57
536.653	6889.54
537.019	6837.11
537.384	6772.93
537.749	6815.64
538.114	6858.12
538.479	7034.84
538.845	7220.15
539.21	7441.61
539.575	7602.96
539.94	7888.83
540.305	8095.83
540.67	8225.32
541.034	8301.48
541.399	8339.44
541.764	8329.5
542.129	8291.31
542.494	8145.32
542.858	7987.59
543.223	7814.03
543.587	7680.02
543.952	7541.5
544.316	7465.79
544.681	7385.12
545.045	7485
545.41	7570.87
545.774	7750.98
546.138	7883.86
546.503	8189.39
546.867	8397.97
547.231	8596.84
547.595	8760
547.959	8903.95
548.324	9018.75
548.688	9012.19
549.052	9007.22
549.416	8877.51
549.779	8743.95
550.143	8578.08
550.507	8453.79
550.871	8199.78
551.235	8041.82
551.599	7937.19
551.962	7900.81
552.326	7904.2
552.689	8015.83
553.053	8113.68
553.417	8269.84
553.78	8597.97
554.143	8746.66
554.507	8940.56
554.87	9191.4
555.234	9384.39
555.597	9460.32
555.96	9520.88
556.323	9495.57
556.686	9403.59
557.05	9317.04
557.413	9168.8
557.776	8965.41
558.139	8811.75
558.502	8607.46
558.865	8463.96
559.228	8398.2
559.59	8388.03
559.953	8400.46
560.316	8575.37
560.679	8623.5
561.041	8914.57
561.404	9099.42
561.767	9329.47
562.129	9557.94
562.492	9872.28
562.854	10005.16
563.217	10095.1
563.579	10234.76
563.941	10140.3
564.304	10185.49
564.666	10065.95
565.028	9942.79
565.39	9792.74
565.753	9600.43
566.115	9372.86
566.477	9183.04
566.839	9158.4
567.201	9056.94
567.563	8981.23
567.925	9123.15
568.287	9259.42
568.648	9375.12
569.01	9574.21
569.372	9918.61
569.734	10080.19
570.095	10404.47
570.457	10613.51
570.819	10792.03
571.18	10872.26
571.542	11022.54
571.903	10989.09
572.265	11018.92
572.626	10945.02
572.987	10795.2
573.349	10631.13
573.71	10470.69
574.071	10210.35
574.432	10050.81
574.794	10030.47
575.155	9880.87
575.516	9884.26
575.877	10050.36
576.238	10164.25
576.599	10380.52
576.96	10715.2
577.32	10982.99
577.681	11344.33
578.042	11785.9
578.403	12045.11
578.763	12401.03
579.124	12663.17
579.485	12919.89
579.845	13066.32
580.206	13140.22
580.566	13129.82
580.927	13182.48
581.287	13163.04
581.648	13140.22
582.008	13250.27
582.368	13154
582.728	13222.25
583.089	13238.52
583.449	13405.52
583.809	13730.26
584.169	14081.44
584.529	14402.79
584.889	15060.39
585.249	15443.44
585.609	15996.19
585.969	16812.21
586.329	17362.71
586.688	18159.07
587.048	18794.08
587.408	19265.71
587.768	19807.39
588.127	20291.22
588.487	20692.56
588.846	21366.22
589.206	21487.12
589.565	21807.79
589.925	22149.47
590.284	22262.92
590.643	22624.26
591.003	22943.13
591.362	23269.22
591.721	23644.12
592.08	23982.65
592.44	24649.07
592.799	25209.28
593.158	25788.93
593.517	26525.18
593.876	27249.45
594.235	28030.22
594.593	28856.42
594.952	29644.87
595.311	30383.16
595.67	31153.53
596.029	31894.08
596.387	32513.04
596.746	33231.67
597.104	33632.56
597.463	34104.64
597.822	34607
598.18	34815.13
598.538	35064.61
598.897	35486.07
599.255	35496.24
599.613	36293.06
599.972	36380.96
600.33	36675.65
600.688	37095.52
601.046	37496.19
601.404	38126.46
601.762	38561.25
602.12	39247.78
602.478	39814.55
602.836	40401.2
603.194	40827.4
603.552	41621.28
603.91	41998.22
604.268	42768.37
604.625	43143.72
604.983	43877.94
605.341	44098.05
605.698	44773.06
606.056	45222.09
606.413	45421.63
606.771	45738.91
607.128	45911.11
607.485	45771.9
607.843	46072.91
608.2	46177.99
608.557	46404.43
608.914	46305.9
609.272	46748.6
609.629	46840.8
609.986	47168.7
610.343	47147.23
610.7	47594.68
611.057	47821.12
611.414	48151.28
611.771	48573.86
612.127	49027.64
612.484	49231.93
612.841	49714.4
613.198	49824.23
613.554	50193.48
613.911	50631.44
614.267	50769.96
614.624	50939.23
614.98	51193
615.337	51374.92
615.693	51442.72
616.05	51415.37
616.406	51581.69
616.762	51435.71
617.118	51391.87
617.475	51358.42
617.831	51470.74
618.187	51421.02
618.543	51439.55
618.899	51543.28
619.255	51514.8
619.611	51510.28
619.967	51655.82
620.323	51946.2
620.678	51910.73
621.034	52006.99
621.39	52215.8
621.746	52385.06
622.101	52896.91
622.457	52771.04
622.812	52957.48
623.168	53269.33
623.523	53434.08
623.879	53533.96
624.234	53453.74
624.589	53516.11
624.945	53673.16
625.3	53660.51
625.655	53593.85
626.01	53542.77
626.365	53493.96
626.72	53352.95
627.075	53193.86
627.43	53150.01
627.785	53030.02
628.14	53075.89
628.495	53034.99
628.85	52889.46
629.205	52882.9
629.559	53056.46
629.914	52878.61
630.269	53107.53
630.623	53107.53
630.978	53216.68
631.332	53440.4
631.687	53478.14
632.041	53519.04
632.396	53762.43
632.75	53748.64
633.104	53947.28
633.459	53826.83
633.813	53869.54
634.167	54020.5
634.521	53970.11
634.875	53936.66
635.229	53906.83
635.583	53677.01
635.937	53576.44
636.291	53495.32
636.645	53396.56
636.999	53149.79
637.352	53218.71
637.706	52860.53
638.06	52974.43
638.413	52651.72
638.767	52579.86
639.121	52627.09
639.474	52439.75
639.828	52597.94
640.181	52662.34
640.534	52731.49
640.888	52685.85
641.241	52766.3
641.594	52879.29
641.947	53117.25
642.301	53093.29
642.654	53214.19
643.007	53301.88
643.36	53418.93
643.713	53463
644.066	53481.31
644.419	53401.76
644.771	53180.97
645.124	52875.45
645.477	52767.43
645.83	52433.88
646.182	52260.55
646.535	52100.32
646.888	52067.56
647.24	51677.29
647.593	51818.75
647.945	51672.31
648.298	51420.79
648.65	51325.43
649.002	51093.35
649.355	51251.08
649.707	51099.9
650.059	51201.14
650.411	51636.61
650.763	51733.1
651.115	52120.89
651.467	52068.91
651.819	52122.47
652.171	52159.08
652.523	52226.88
652.875	52361.79
653.227	52325.18
653.578	52665.73
653.93	52743.7
654.282	52515.23
654.633	52505.51
654.985	52551.16
655.337	52575.79
655.688	52541.22
656.039	52642.91
656.391	52242.02
656.742	52228.68
657.094	52200.89
657.445	52022.13
657.796	51781.01
658.147	51721.58
658.498	51616.72
658.849	51619.43
659.2	51448.36
659.551	51283.85
659.902	51391.42
660.253	51296.5
660.604	51367.46
660.955	51201.59
661.306	51473
661.656	51368.14
662.007	51553.67
662.358	51538.31
662.708	51670.51
663.059	51745.08
663.409	51744.63
663.76	52069.59
664.11	52108.23
664.461	52167.44
664.811	52222.81
665.161	52287.66
665.511	52130.38
665.862	52188.23
666.212	52368.34
666.562	52213.09
666.912	52090.16
667.262	52028.69
667.612	51812.2
667.962	51802.93
668.312	51564.75
668.662	51690.84
669.011	51415.82
669.361	51181.25
669.711	51052.67
670.06	50897.87
670.41	50698.33
670.76	50663.3
671.109	50880.24
671.459	50706.92
671.808	50742.85
672.157	50854.93
672.507	50650.42
672.856	50762.06
673.205	50929.73
673.554	51216.96
673.904	51112.55
674.253	51402.94
674.602	51378.99
674.951	51006.79
675.3	50941.94
675.649	51507.12
675.998	51535.14
676.346	51621.92
676.695	51742.59
677.044	51554.58
677.393	51518.65
677.741	51512.32
678.09	51424.86
678.438	51259.9
678.787	51114.59
679.135	51062.16
679.484	50751.21
679.832	50691.1
680.181	50353.93
680.529	50413.36
680.877	50167.95
681.225	50024.67
681.573	50207.27
681.922	49805.7
682.27	49751.23
682.618	49659.71
682.966	49732.48
683.314	49743.1
683.661	49713.95
684.009	49619.71
684.357	49638.02
684.705	49634.85
685.053	49861.97
685.4	49859.71
685.748	49770.44
686.095	49951.91
686.443	49821.06
686.79	49988.06
687.138	50127.72
687.485	50229.64
687.832	50195.29
688.18	50149.42
688.527	50055.41
688.874	50077.1
689.221	49856.77
689.568	49655.87
689.915	49544.01
690.262	49299.72
690.609	49226.28
690.956	49104.25
691.303	48862.9
691.65	48488.89
691.997	48393.98
692.344	47916.03
692.69	48016.36
693.037	47797.39
693.383	47386.78
693.73	47483.5
694.077	47299.77
694.423	47154.24
694.769	46959.67
695.116	47031.98
695.462	47013.23
695.808	46948.37
696.155	46969.84
696.501	46912.44
696.847	46943.17
697.193	46812.78
697.539	47188.14
697.885	46887.58
698.231	47033.57
698.577	47182.94
698.923	47012.78
699.269	46994.7
699.614	46927.35
699.96	46892.78
700.306	46943.62
700.651	46641.03
700.997	46480.13
701.342	46572.79
701.688	46553.8
702.033	46234.04
702.379	46043.54
702.724	45859.81
703.069	45706.37
703.415	45185.7
703.76	45160.17
704.105	44959.27
704.45	44823.45
704.795	44540.52
705.14	44133.98
705.485	43953.65
705.83	43945.29
706.175	43961.1
706.52	43686.08
706.865	43644.5
707.209	43579.19
707.554	43453.55
707.899	43656.25
708.243	43422.36
708.588	43412.64
708.932	43259.2
709.277	43503.49
709.621	43595.92
709.966	43514.79
710.31	43672.75
710.654	43238.86
710.998	43531.06
711.342	43710.04
711.687	43628.23
712.031	43542.58
712.375	43418.52
712.719	43402.25
713.063	43397.95
713.407	43528.35
713.75	43145.31
714.094	43125.65
714.438	42850.62
714.782	42933.56
715.125	42506.23
715.469	42494.7
715.812	42228.04
716.156	41884.77
716.499	41870.31
716.843	41712.58
717.186	41265.58
717.53	41435.07
717.873	41353.26
718.216	41158.24
718.559	40871.69
718.902	40572.72
719.246	40583.11
719.589	40477.81
719.932	40329.79
720.275	40406.17
720.617	40435.1
720.96	40388.54
721.303	40442.55
721.646	40758.02
721.989	40516.22
722.331	40698.82
722.674	40756.22
723.016	40780.62
723.359	40854.07
723.701	40873.05
724.044	40802.32
724.386	40748.08
724.729	40873.5
725.071	40778.59
725.413	40784.46
725.755	40731.81
726.097	40541.98
726.439	40415.66
726.782	40462.44
727.124	40499.5
727.465	40041.66
727.807	39974.77
728.149	39756.92
728.491	39631.05
728.833	39636.7
729.175	39318.06
729.516	39184.28
729.858	39001.01
730.199	38923.27
730.541	38606.44
730.882	38483.73
731.224	38535.26
731.565	38275.6
731.906	38237.41
732.248	38316.73
732.589	38038.1
732.93	37921.49
733.271	37959
733.612	38209.84
733.953	38084.87
734.294	38102.05
734.635	37978.66
734.976	38123.97
735.317	38077.19
735.658	38144.08
735.999	38152.44
736.339	38140.47
736.68	38564.41
737.021	38420.01
737.361	38280.35
737.702	38507.24
738.042	38467.92
738.383	38504.98
738.723	38604.41
739.063	38409.84
739.404	38553.56
739.744	38377.97
740.084	38363.96
740.424	38395.37
740.764	38147.47
741.104	38117.87
741.444	37705
741.784	37500.71
742.124	37355.18
742.464	37311.34
742.804	37226.59
743.143	37064.79
743.483	36977.11
743.823	36504.35
744.162	36414.41
744.502	36504.8
744.841	36143.46
745.181	36359.95
745.52	36284.7
745.86	35971.03
746.199	35886.51
746.538	35934.65
746.877	36067.07
747.216	36042.44
747.556	35945.04
747.895	36061.88
748.234	35811.94
748.573	36025.49
748.911	35992.05
749.25	36197.01
749.589	36110.91
749.928	36103.91
750.267	36122.21
750.605	36152.5
750.944	36251.93
751.283	36145.94
751.621	36380.96
751.96	36171.25
752.298	36293.51
752.636	36190.91
752.975	35964.25
753.313	35837.93
753.651	35899.85
753.989	35724.03
754.327	35738.04
754.666	35529.91
755.004	35386.19
755.342	35310.48
755.679	35163.37
756.017	34768.35
756.355	34932.19
756.693	34505.31
757.031	34510.28
757.368	34165.66
757.706	34056.28
758.044	33762.73
758.381	33880.01
758.719	33595.73
759.056	33469.63
759.394	33357.54
759.731	33198.9
760.068	33100.82
760.405	32977.21
760.743	32874.62
761.08	32916.2
761.417	32776.77
761.754	32737.22
762.091	32744.68
762.428	32751.46
762.765	32751.23
763.102	32753.94
763.438	32632.36
763.775	32542.87
764.112	32756.65
764.449	32786.93
764.785	32773.38
765.122	32746.48
765.458	32600.72
765.795	32626.03
766.131	32690.67
766.467	32493.38
766.804	32593.49
767.14	32297
767.476	32430.33
767.812	32235.76
768.148	32322.99
768.485	32029.67
768.821	31866.05
769.157	31896.56
769.492	31461.09
769.828	31458.16
770.164	31107.43
770.5	30974.78
770.836	31000.99
771.171	30628.35
771.507	30464.74
771.842	30138.87
772.178	30200.79
772.513	29902.72
772.849	29864.53
773.184	29619.56
773.519	29485.1
773.855	29188.61
774.19	29145
774.525	28861.61
774.86	28935.51
775.195	28893.03
775.53	28715.4
775.865	28695.97
776.2	28441.74
776.535	28267.51
776.87	28439.93
777.205	28158.58
777.539	28260.05
777.874	28322.42
778.209	28087.62
778.543	28083.33
778.878	28026.16
779.212	28135.98
779.547	28034.97
779.881	28172.59
780.215	28124.46
780.55	28140.28
780.884	28057.12
781.218	27945.71
781.552	27997.91
781.886	27763.56
782.22	27706.39
782.554	27599.05
782.888	27451.71
783.222	27250.36
783.556	27184.14
783.889	27269.34
784.223	26908.9
784.557	26782.35
784.89	26809.01
785.224	26590.49
785.557	26413.77
785.891	26238.86
786.224	26123.83
786.558	25939.66
786.891	25744.41
787.224	25537.41
787.557	25507.8
787.891	25344.42
788.224	25176.97
788.557	25242.95
788.89	24966.58
789.223	25003.86
789.556	24712.34
789.888	24613.36
790.221	24504.67
790.554	24385.35
790.887	24364.11
791.219	24355.29
791.552	24341.73
791.884	24305.35
792.217	24165.47
792.549	24092.7
792.882	23991.46
793.214	23936.77
793.546	24078.69
793.879	23943.78
794.211	23888.64
794.543	23883.44
794.875	23897.9
795.207	24136.31
795.539	23979.71
795.871	23908.07
796.203	23715.53
796.535	23770.67
796.867	23701.07
797.198	23734.29
797.53	23628.08
797.862	23605.93
798.193	23575.2
798.525	23455.88
798.856	23477.57
799.188	23145.15
799.519	23155.55
799.85	23000.07
800.182	22927.53
800.513	22836.46
800.844	22603.7
801.175	22639.18
801.506	22578.62
801.837	22369.13
802.168	22279.41
802.499	22161.68
802.83	21939.76
803.161	21869.48
803.491	21662.71
803.822	21672.88
804.153	21598.53
804.483	21336.61
804.814	21303.62
805.145	21253
805.475	21103.63
805.805	21110.86
806.136	21177.75
806.466	21033.8
806.796	20988.15
807.126	20895.04
807.457	20817.76
807.787	20792.67
808.117	20816.18
808.447	20677.42
808.777	20861.15
809.107	20699.57
809.436	20690.53
809.766	20778.89
810.096	20755.61
810.426	20728.04
810.755	20762.84
811.085	20739.12
811.414	20740.02
811.744	20541.61
812.073	20569.4
812.403	20773.47
812.732	20488.73
813.061	20636.97
813.39	20495.05
813.719	20503.64
814.049	20593.13
814.378	20586.8
814.707	20490.76
815.036	20355.85
815.365	20239.24
815.693	20114.95
816.022	20105.46
816.351	19998.12
816.68	19849.42
817.008	19998.57
817.337	19670.9
817.665	19613.5
817.994	19592.03
818.322	19479.04
818.651	19307.74
818.979	19235.43
819.307	19222.32
819.636	19099.16
819.964	18969.44
820.292	19053.28
820.62	18754.31
820.948	18857.81
821.276	18783.69
821.604	18754.31
821.932	18791.14
822.259	18729
822.587	18639.51
822.915	18692.16
823.243	18731.26
823.57	18667.31
823.898	18721.54
824.225	18630.7
824.553	18602.9
824.88	18737.59
825.207	18805.16
825.535	18703.91
825.862	18863.91
826.189	18820.3
826.516	18977.58
826.843	19167.63
827.17	19055.54
827.497	19028.65
827.824	19150.68
828.151	19208.99
828.478	19231.36
828.805	19268.19
829.131	19239.49
829.458	19271.36
829.785	19267.29
830.111	19243.34
830.438	19328.31
830.764	19479.94
831.09	19377.12
831.417	19221.87
831.743	19329.44
832.069	19329.44
832.395	19087.86
832.722	19173.06
833.048	19122.89
833.374	19121.98
833.7	19023.91
834.026	18979.84
834.351	19078.14
834.677	18918.82
835.003	18957.47
835.329	18797.92
835.654	18708.89
835.98	18640.87
836.306	18638.83
836.631	18453.53
836.956	18384.15
837.282	18317.94
837.607	18195.68
837.932	18149.81
838.258	18141.44
838.583	18134.89
838.908	17990.04
839.233	17998.4
839.558	17875.46
839.883	17884.28
840.208	17781.68
840.533	17785.07
840.858	17764.05
841.182	17778.29
841.507	17819.19
841.832	17785.07
842.156	17772.41
842.481	17691.74
842.805	17834.79
843.13	17790.04
843.454	17672.3
843.778	17713.88
844.103	17744.17
844.427	17740.55
844.751	17684.28
845.075	17751.17
845.399	17816.25
845.723	17660.78
846.047	17771.06
846.371	17614.68
846.695	17657.39
847.019	17579.2
847.343	17664.39
847.666	17475.25
847.99	17422.82
848.313	17467.79
848.637	17277.06
848.96	17304.63
849.284	17223.5
849.607	17092.88
849.931	17011.98
850.254	16860.12
850.577	16863.74
850.9	16749.62
851.223	16634.82
851.546	16497.65
851.869	16390.76
852.192	16502.84
852.515	16162.96
852.838	16185.79
853.161	16073.7
853.483	15993.7
853.806	15890.88
854.129	15825.8
854.451	15732.02
854.774	15662.86
855.096	15512.81
855.419	15504.23
855.741	15385.13
856.063	15306.04
856.385	15214.29
856.708	15172.71
857.03	15054.29
857.352	15124.12
857.674	15050.45
857.996	14934.07
858.318	14926.39
858.64	14905.82
858.961	14783.79
859.283	14860.63
859.605	14710.8
859.926	14724.36
860.248	14713.51
860.57	14784.02
860.891	14761.87
861.212	14649.78
861.534	14672.16
861.855	14630.8
862.176	14657.47
862.498	14706.05
862.819	14737.47
863.14	14708.54
863.461	14672.38
863.782	14703.34
864.103	14770.23
864.424	14742.44
864.745	14651.14
865.065	14673.96
865.386	14615.43
865.707	14630.58
866.027	14616.34
866.348	14687.3
866.668	14591.93
866.989	14611.37
867.309	14532.27
867.63	14552.39
867.95	14581.76
868.27	14443.01
868.59	14463.57
868.91	14419.96
869.23	14379.28
869.55	14316.01
869.87	14303.8
870.19	14302.45
870.51	14273.75
870.83	14238.95
871.15	14163.92
871.469	14104.04
871.789	14099.29
872.109	14113.53
872.428	13962.57
872.748	13913.08
873.067	13825.4
873.386	13869.47
873.706	13802.8
874.025	13680.54
874.344	13633.54
874.663	13645.52
874.982	13531.62
875.301	13498.63
875.62	13473.77
875.939	13396.26
876.258	13318.97
876.577	13342.25
876.896	13271.52
877.214	13228.13
877.533	13240.1
877.852	13245.08
878.17	13169.15
878.489	13220.67
878.807	13235.36
879.125	13198.97
879.444	13200.1
879.762	13138.19
880.08	13200.33
880.398	13124.63
880.716	13130.5
881.034	13150.61
881.352	13246.21
881.67	13216.38
881.988	13262.7
882.306	13172.31
882.624	13246.66
882.941	13181.8
883.259	13140.67
883.577	13097.06
883.894	13177.51
884.212	13192.42
884.529	13167.56
884.846	13086.89
885.164	13136.15
885.481	13088.92
885.798	13156.04
886.115	12985.42
886.432	13052.99
886.75	12967.79
887.067	13005.31
887.383	12951.98
887.7	12980.45
888.017	12914.91
888.334	12872.43
888.651	12854.35
888.967	12843.96
889.284	12715.37
889.6	12581.36
889.917	12537.52
890.233	12530.74
890.55	12497.3
890.866	12464.53
891.182	12371.43
891.498	12266.8
891.815	12221.83
892.131	12147.25
892.447	12080.13
892.763	12036.75
893.079	11929.86
893.395	11949.74
893.71	11816.86
894.026	11826.58
894.342	11732.35
894.657	11695.06
894.973	11668.85
895.289	11589.3
895.604	11605.12
895.92	11482.64
896.235	11408.74
896.55	11500.26
896.865	11345.24
897.181	11359.48
897.496	11381.4
897.811	11297.1
898.126	11288.06
898.441	11172.59
898.756	11268.86
899.071	11104.79
899.386	11130.1
899.7	11119.03
900.015	11094.85
900.33	11016.43
900.644	10987.06
900.959	11024.57
901.273	11004
901.588	10932.37
901.902	10852.14
902.216	11018.24
902.531	10896.89
902.845	10847.17
903.159	10838.81
903.473	10814.18
903.787	10825.93
904.101	10760.85
904.415	10846.72
904.729	10729.89
905.042	10721.53
905.356	10682.2
905.67	10709.55
905.984	10677.01
906.297	10686.72
906.611	10554.98
906.924	10544.36
907.237	10538.71
907.551	10422.32
907.864	10365.15
908.177	10422.1
908.491	10397.47
908.804	10328.54
909.117	10263.46
909.43	10228.21
909.743	10132.61
910.056	10174.2
910.368	10047.65
910.681	10004.26
910.994	9987.76
911.307	9896.69
911.619	9787.99
911.932	9774.66
912.244	9688.78
912.557	9554.1
912.869	9519.98
913.181	9550.03
913.494	9465.06
913.806	9393.88
914.118	9330.6
914.43	9260.1
914.742	9237.95
915.054	9147.33
915.366	9121.57
915.678	9061.91
915.99	8997.28
916.302	8931.52
916.613	8961.35
916.925	8836.15
917.236	8858.3
917.548	8823.27
917.859	8816.72
918.171	8726.55
918.482	8707.79
918.794	8654.91
919.105	8657.85
919.416	8621.47
919.727	8586.21
920.038	8593.67
920.349	8482.49
920.66	8491.08
920.971	8543.28
921.282	8507.57
921.593	8444.07
921.903	8388.71
922.214	8370.63
922.525	8446.56
922.835	8305.77
923.146	8314.58
923.456	8304.19
923.767	8273.91
924.077	8275.94
924.387	8250.86
924.697	8134.02
925.008	8164.53
925.318	8169.95
925.628	8167.02
925.938	8110.52
926.248	8122.72
926.558	8087.92
926.867	8049.05
927.177	8049.28
927.487	8005.89
927.796	7900.58
928.106	7935.38
928.416	7896.29
928.725	7895.84
929.034	7803.18
929.344	7814.71
929.653	7801.15
929.962	7731.32
930.271	7668.05
930.581	7627.6
930.89	7600.93
931.199	7521.61
931.508	7480.71
931.817	7458.56
932.125	7442.06
932.434	7379.69
932.743	7335.63
933.051	7258.34
933.36	7250.88
933.669	7219.7
933.977	7169.3
934.286	7112.81
934.594	7137.21
934.902	7004.56
935.21	7002.98
935.519	6938.8
935.827	6934.73
936.135	6856.09
936.443	6817.22
936.751	6765.02
937.059	6734.06
937.367	6716.21
937.674	6663.55
937.982	6600.5
938.29	6564.8
938.597	6535.87
938.905	6457.23
939.213	6506.27
939.52	6419.27
939.827	6462.43
940.135	6400.74
940.442	6354.41
940.749	6379.49
941.056	6383.33
941.363	6341.75
941.67	6313.73
941.977	6332.04
942.284	6249.78
942.591	6245.94
942.898	6213.17
943.205	6221.31
943.511	6221.53
943.818	6191.02
944.125	6149.22
944.431	6204.81
944.738	6157.8
945.044	6121.87
945.35	6107.64
945.657	6068.99
945.963	6126.62
946.269	6074.42
946.575	6078.71
946.881	6047.07
947.187	6016.79
947.493	5987.41
947.799	5960.3
948.105	5980.86
948.41	5915.1
948.716	5916.45
949.022	5898.38
949.327	5820.86
949.633	5768.89
949.938	5823.12
950.244	5777.02
950.549	5735.44
950.854	5734.76
951.16	5738.61
951.465	5654.31
951.77	5668.33
952.075	5640.53
952.38	5615.9
952.685	5634.88
952.99	5522.79
953.294	5567.54
953.599	5456.13
953.904	5482.57
954.209	5424.94
954.513	5399.18
954.818	5346.07
955.122	5339.07
955.426	5320.54
955.731	5290.93
956.035	5227.21
956.339	5213.65
956.643	5196.02
956.948	5160.54
957.252	5118.96
957.556	5102.01
957.86	5057.04
958.163	5014.78
958.467	4978.4
958.771	4960.77
959.075	4934.56
959.378	4891.17
959.682	4906.31
959.985	4852.75
960.289	4824.51
960.592	4800.33
960.896	4779.31
961.199	4744.73
961.502	4719.88
961.805	4694.57
962.108	4657.05
962.411	4682.36
962.714	4657.73
963.017	4615.25
963.32	4664.74
963.623	4643.72
963.926	4626.09
964.228	4553.55
964.531	4512.88
964.833	4501.8
965.136	4511.29
965.438	4521.91
965.741	4511.75
966.043	4448.24
966.345	4434.91
966.648	4464.97
966.95	4424.06
967.252	4444.85
967.554	4428.13
967.856	4401.47
968.158	4342.94
968.46	4360.34
968.761	4359.21
969.063	4316.72
969.365	4346.33
969.666	4334.58
969.968	4325.76
970.269	4234.46
970.571	4272.88
970.872	4245.31
971.174	4231.08
971.475	4236.72
971.776	4197.18
972.077	4189.72
972.378	4166.22
972.679	4198.99
972.98	4144.3
973.281	4094.58
973.582	4129.83
973.883	4087.58
974.183	4049.39
974.484	4033.34
974.785	4035.37
975.085	4012.1
975.386	4048.48
975.686	3971.42
975.986	3973.23
976.287	3906.56
976.587	3878.32
976.887	3927.35
977.187	3876.73
977.487	3859.79
977.787	3775.49
978.087	3787.47
978.387	3793.57
978.687	3779.11
978.987	3764.42
979.286	3695.27
979.586	3739.34
979.885	3668.38
980.185	3679
980.484	3611.43
980.784	3625.22
981.083	3588.83
981.382	3574.37
981.682	3568.49
981.981	3529.62
982.28	3486.69
982.579	3474.71
982.878	3471.1
983.177	3450.76
983.475	3416.63
983.774	3415.5
984.073	3392.45
984.372	3386.13
984.67	3347.93
984.969	3344.32
985.267	3342.28
985.566	3293.02
985.864	3300.03
986.162	3247.37
986.461	3287.37
986.759	3249.18
987.057	3214.83
987.355	3175.74
987.653	3237.65
987.951	3198.56
988.249	3161.72
988.547	3178.22
988.844	3143.87
989.142	3145.45
989.44	3143.65
989.737	3119.24
990.035	3061.84
990.332	3077.89
990.63	3065.23
990.927	3062.29
991.224	3047.83
991.521	3071.33
991.819	3045.34
992.116	3040.15
992.413	3021.84
992.71	3014.16
993.006	3017.55
993.303	3016.64
993.6	3032.69
993.897	3000.15
994.193	2965.12
994.49	2944.56
994.787	2943.65
995.083	2939.81
995.379	2898
995.676	2913.82
995.972	2865.69
996.268	2883.77
996.565	2822.98
996.861	2837.21
997.157	2833.15
997.453	2804.45
997.749	2816.42
998.044	2765.8
998.34	2799.25
998.636	2808.97
998.932	2750.89
999.227	2734.84
999.523	2750.21
999.818	2721.06
1000.114	2699.14
1000.409	2675.41
1000.704	2660.72
1001	2673.83
1001.295	2640.38
1001.59	2618.69
1001.885	2601.97
1002.18	2596.09
1002.475	2580.72
1002.77	2544.34
1003.065	2485.81
1003.359	2517
1003.654	2477.22
1003.949	2491.23
1004.243	2439.71
1004.538	2432.93
1004.832	2412.82
1005.127	2393.38
1005.421	2430.67
1005.715	2392.48
1006.009	2408.52
1006.304	2338.02
1006.598	2307.28
1006.892	2321.07
1007.186	2289.43
1007.48	2280.62
1007.773	2278.58
1008.067	2275.65
1008.361	2215.99
1008.655	2204.24
1008.948	2205.14
1009.242	2152.03
1009.535	2164.46
1009.829	2172.15
1010.122	2120.85
1010.415	2125.14
1010.708	2117.46
1011.001	2145.93
1011.295	2122.2
1011.588	2092.83
1011.881	2044.24
1012.173	2073.17
1012.466	2026.39
1012.759	2059.15
1013.052	2029.55
1013.344	2015.09
1013.637	2030
1013.93	1994.52
1014.222	1986.84
1014.514	1980.29
1014.807	1959.27
1015.099	1951.36
1015.391	1951.14
1015.683	1902.55
1015.976	1948.42
1016.268	1932.6
1016.56	1895.54
1016.851	1917.69
1017.143	1891.02
1017.435	1868.65
1017.727	1876.33
1018.018	1850.57
1018.31	1857.58
1018.602	1861.42
1018.893	1804.7
1019.185	1823.68
1019.476	1831.59
1019.767	1778.48
1020.058	1797.69
1020.35	1786.39
1020.641	1757.47
1020.932	1777.58
1021.223	1774.87
1021.514	1725.38
1021.804	1711.37
1022.095	1716.34
1022.386	1701.88
1022.677	1700.29
1022.967	1687.41
1023.258	1669.56
1023.548	1660.97
1023.839	1625.49
1024.129	1638.15
1024.419	1624.14
1024.709	1602.44
1025	1591.82
1025.29	1584.82
1025.58	1553.86
1025.87	1580.98
1026.16	1574.65
1026.449	1553.18
1026.739	1507.3
1027.029	1509.34
1027.319	1510.24
1027.608	1509.34
1027.898	1482.9
1028.187	1479.06
1028.477	1460.98
1028.766	1478.38
1029.055	1428.89
1029.344	1426.86
1029.634	1441.09
1029.923	1383.92
1030.212	1393.41
1030.501	1362.9
1030.79	1359.29
1031.078	1329.23
1031.367	1328.1
1031.656	1338.27
1031.945	1355.67
1032.233	1316.12
1032.522	1324.94
1032.81	1301.89
1033.099	1251.49
1033.387	1300.08
1033.675	1270.93
1033.963	1269.35
1034.251	1250.36
1034.54	1247.42
1034.828	1243.81
1035.116	1201.78
1035.403	1206.75
1035.691	1219.63
1035.979	1178.05
1036.267	1204.26
1036.554	1163.36
1036.842	1169.69
1037.129	1152.29
1037.417	1150.25
1037.704	1127.65
1037.992	1145.96
1038.279	1125.17
1038.566	1133.76
1038.853	1133.76
1039.14	1133.76
