Data from red_cardboard_box_FLMS001491_00069.txt Node
Date: Wed Feb 08 11:32:57 GMT 2017
User: dcchb
Spectrometer: FLMS00149
Trigger mode: 0
Integration Time (sec): 2.000000E-2
Scans to average: 10
Electric dark correction enabled: true
Nonlinearity correction enabled: false
Boxcar width: 0
XAxis mode: Wavelengths
Number of Pixels in Spectrum: 2048
>>>>>Begin Spectral Data<<<<<
341.393	-8.73
341.776	-8.73
342.16	-8.73
342.543	-66.81
342.927	-61.61
343.31	-71.1
343.693	-52.34
344.077	-80.82
344.46	-55.51
344.843	-26.13
345.226	-53.02
345.61	-18.67
345.993	-18.67
346.376	-6.47
346.759	4.83
347.142	51.38
347.525	43.25
347.908	55
348.291	57.48
348.674	85.51
349.057	85.28
349.44	136.35
349.823	144.71
350.206	149.91
350.588	177.93
350.971	228.78
351.354	241.43
351.737	250.47
352.119	239.85
352.502	268.55
352.884	289.34
353.267	283.69
353.65	302
354.032	307.87
354.414	311.49
354.797	303.13
355.179	319.4
355.562	331.15
355.944	320.75
356.326	332.96
356.709	342.22
357.091	325.5
357.473	362.34
357.855	347.65
358.238	338.83
358.62	345.61
359.002	361.43
359.384	348.78
359.766	342.22
360.148	332.28
360.53	329.57
360.912	330.7
361.294	336.57
361.676	303.13
362.057	326.18
362.439	328.44
362.821	343.13
363.203	326.4
363.584	327.31
363.966	316.46
364.348	313.52
364.729	313.97
365.111	297.93
365.493	331.83
365.874	283.69
366.256	312.17
366.637	319.17
367.019	296.35
367.4	303.81
367.781	318.04
368.163	325.95
368.544	302.9
368.925	304.71
369.306	311.49
369.688	322.34
370.069	299.29
370.45	306.29
370.831	319.85
371.212	304.71
371.593	300.64
371.974	303.81
372.355	282.34
372.736	334.54
373.117	313.75
373.498	312.62
373.879	304.71
374.26	317.59
374.641	305.16
375.021	299.06
375.402	310.36
375.783	315.1
376.163	308.78
376.544	308.78
376.925	323.01
377.305	320.98
377.686	317.14
378.066	300.42
378.447	327.99
378.827	337.25
379.208	319.62
379.588	330.25
379.968	328.21
380.349	329.57
380.729	328.66
381.109	317.59
381.489	312.17
381.87	342
382.25	336.12
382.63	334.54
383.01	325.5
383.39	315.56
383.77	342.45
384.15	328.44
384.53	337.25
384.91	326.4
385.29	337.25
385.67	340.19
386.049	321.88
386.429	370.02
386.809	341.32
387.189	340.41
387.568	356.69
387.948	353.75
388.328	352.84
388.707	342.9
389.087	365.27
389.466	355.33
389.846	347.65
390.225	350.81
390.605	342.9
390.984	349.45
391.363	357.14
391.743	378.83
392.122	347.65
392.501	332.73
392.881	368.21
393.26	363.92
393.639	355.33
394.018	339.06
394.397	360.98
394.776	359.85
395.155	354.88
395.534	373.18
395.913	344.48
396.292	356.23
396.671	347.19
397.05	385.61
397.429	375.22
397.808	388.32
398.186	363.92
398.565	364.14
398.944	386.52
399.323	372.73
399.701	375.44
400.08	367.08
400.458	356.46
400.837	359.17
401.215	377.02
401.594	369.57
401.972	375.44
402.351	368.89
402.729	384.71
403.107	370.02
403.486	373.18
403.864	398.49
404.242	383.13
404.62	388.1
404.999	391.03
405.377	390.36
405.755	396.23
406.133	376.35
406.511	388.1
406.889	410.92
407.267	396.68
407.645	408.21
408.023	392.62
408.401	404.82
408.779	428.32
409.156	419.28
409.534	411.15
409.912	416.12
410.29	391.26
410.667	412.05
411.045	395.55
411.422	426.97
411.8	415.89
412.178	415.44
412.555	422.45
412.933	406.18
413.31	415.89
413.687	436.91
414.065	417.93
414.442	439.4
414.819	421.99
415.197	411.83
415.574	439.17
415.951	423.58
416.328	419.96
416.705	430.58
417.082	430.36
417.46	424.71
417.837	438.72
418.214	435.1
418.591	433.29
418.967	461.77
419.344	449.79
419.721	459.06
420.098	457.02
420.475	439.62
420.852	477.13
421.228	472.84
421.605	489.34
421.982	475.33
422.358	460.41
422.735	453.63
423.111	473.52
423.488	478.72
423.864	470.58
424.241	461.09
424.617	463.58
424.994	488.89
425.37	484.82
425.746	458.83
426.123	463.58
426.499	458.38
426.875	495.21
427.251	488.89
427.627	481.88
428.003	501.99
428.379	512.16
428.756	504.03
429.132	505.16
429.507	493.86
429.883	507.87
430.259	530.01
430.635	515.33
431.011	506.06
431.387	533.63
431.763	533.4
432.138	549.22
432.514	537.02
432.89	514.87
433.265	527.98
433.641	538.38
434.016	562.33
434.392	565.72
434.767	556
435.143	558.26
435.518	546.74
435.894	554.42
436.269	548.09
436.644	584.48
437.02	572.95
437.395	545.83
437.77	543.8
438.145	553.29
438.52	588.32
438.895	593.52
439.271	565.72
439.646	570.24
440.021	598.71
440.395	602.1
440.77	612.5
441.145	581.99
441.52	612.27
441.895	600.97
442.27	626.28
442.645	604.81
443.019	610.92
443.394	618.15
443.769	586.51
444.143	607.53
444.518	615.21
444.892	616.57
445.267	599.17
445.641	612.72
446.016	639.39
446.39	606.62
446.764	654.76
447.139	644.81
447.513	639.16
447.887	632.16
448.262	625.61
448.636	634.19
449.01	638.71
449.384	649.33
449.758	640.07
450.132	677.13
450.506	666.96
450.88	653.63
451.254	674.19
451.628	652.05
452.002	672.16
452.376	675.77
452.75	687.07
453.123	701.08
453.497	666.73
453.871	709.67
454.244	696.11
454.618	687.07
454.992	708.99
455.365	689.56
455.739	694.53
456.112	717.13
456.486	725.04
456.859	749.67
457.232	740.86
457.606	738.6
457.979	731.14
458.352	741.99
458.725	750.57
459.099	745.6
459.472	745.38
459.845	779.05
460.218	765.04
460.591	745.38
460.964	766.17
461.337	784.92
461.71	785.37
462.083	787.18
462.456	809.33
462.829	801.65
463.201	806.84
463.574	820.85
463.947	823.57
464.32	821.53
464.692	830.8
465.065	828.76
465.438	838.93
465.81	846.84
466.183	850.01
466.555	851.59
466.928	865.6
467.3	878.48
467.672	883.68
468.045	897.91
468.417	923.22
468.789	891.13
469.161	928.87
469.534	902.43
469.906	913.51
470.278	946.5
470.65	939.04
471.022	953.51
471.394	979.95
471.766	946.5
472.138	953.28
472.51	987.18
472.882	984.69
473.253	994.86
473.625	1017.46
473.997	1034.18
474.369	1034.86
474.74	1058.81
475.112	1079.38
475.484	1074.18
475.855	1094.07
476.227	1082.99
476.598	1113.95
476.97	1103.78
477.341	1123.67
477.713	1139.26
478.084	1191.47
478.455	1169.55
478.827	1184.91
479.198	1203.22
479.569	1191.24
479.94	1232.59
480.311	1226.72
480.682	1257.23
481.053	1279.15
481.424	1291.58
481.795	1311.91
482.166	1322.99
482.537	1326.15
482.908	1342.87
483.279	1363.44
483.65	1408.64
484.021	1384.68
484.391	1425.36
484.762	1421.29
485.133	1424.68
485.503	1430.78
485.874	1484.11
486.244	1485.02
486.615	1511.01
486.985	1499.48
487.356	1532.02
487.726	1562.3
488.097	1582.87
488.467	1590.33
488.837	1616.09
489.207	1645.92
489.578	1636.65
489.948	1657.67
490.318	1705.12
490.688	1708.97
491.058	1712.58
491.428	1775.41
491.798	1770.89
492.168	1758.23
492.538	1793.71
492.908	1789.64
493.278	1831
493.648	1809.53
494.017	1828.06
494.387	1864.89
494.757	1862.18
495.126	1890.88
495.496	1893.59
495.866	1908.74
496.235	1921.39
496.605	1945.12
496.974	1966.81
497.344	1947.15
497.713	1977.43
498.082	1979.92
498.452	2025.12
498.821	2035.06
499.19	2025.79
499.559	2058.34
499.928	2083.87
500.298	2074.83
500.667	2097.66
501.036	2060.14
501.405	2107.37
501.774	2139.01
502.143	2162.97
502.512	2157.99
502.88	2161.38
503.249	2196.41
503.618	2210.2
503.987	2204.09
504.356	2212
504.724	2205.9
505.093	2270.76
505.462	2248.84
505.83	2272.57
506.199	2305.79
506.567	2289.29
506.936	2301.04
507.304	2333.58
507.672	2344.43
508.041	2371.77
508.409	2343.07
508.777	2409.29
509.145	2404.54
509.514	2426.46
509.882	2451.55
510.25	2450.19
510.618	2436.86
510.986	2484.54
511.354	2482.51
511.722	2505.78
512.09	2511.66
512.458	2555.95
512.826	2591.2
513.193	2568.6
513.561	2599.79
513.929	2604.31
514.297	2623.29
514.664	2636.4
515.032	2692.22
515.4	2688.83
515.767	2708.94
516.135	2711.43
516.502	2761.37
516.869	2752.1
517.237	2753.91
517.604	2790.07
517.972	2789.16
518.339	2828.71
518.706	2831.87
519.073	2820.12
519.44	2870.97
519.808	2883.62
520.175	2908.71
520.542	2916.17
520.909	2957.07
521.276	2931.76
521.643	2976.5
522.009	3017.18
522.376	3064.18
522.743	3069.61
523.11	3076.61
523.477	3115.71
523.843	3140.79
524.21	3172.43
524.577	3157.97
524.943	3222.6
525.31	3213.79
525.676	3251.98
526.043	3231.41
526.409	3278.19
526.776	3322.48
527.142	3307.12
527.508	3377.17
527.874	3381.69
528.241	3418.53
528.607	3389.15
528.973	3458.98
529.339	3437.96
529.705	3479.77
530.071	3517.51
530.437	3531.07
530.803	3575.81
531.169	3591.85
531.535	3576.71
531.901	3603.15
532.267	3639.99
532.632	3635.24
532.998	3639.09
533.364	3687.22
533.73	3718.18
534.095	3735.13
534.461	3765.86
534.826	3812.19
535.192	3802.02
535.557	3784.62
535.923	3822.58
536.288	3812.87
536.653	3831.4
537.019	3852.41
537.384	3894.9
537.749	3920.43
538.114	3909.59
538.479	3922.02
538.845	3961.56
539.21	3969.7
539.575	3952.3
539.94	3985.52
540.305	4021.22
540.67	4102.58
541.034	4092.63
541.399	4064.61
541.764	4098.51
542.129	4139.18
542.494	4148.45
542.858	4143.48
543.223	4180.54
543.587	4180.31
543.952	4205.85
544.316	4215.34
544.681	4239.07
545.045	4270.48
545.41	4306.41
545.774	4310.25
546.138	4303.25
546.503	4374.43
546.867	4382.57
547.231	4443.58
547.595	4413.75
547.959	4455.79
548.324	4457.59
548.688	4478.61
549.052	4494.2
549.416	4546.18
549.779	4524.49
550.143	4527.65
550.507	4577.14
550.871	4627.31
551.235	4602
551.599	4636.35
551.962	4693.07
552.326	4711.6
552.689	4734.65
553.053	4759.51
553.417	4763.35
553.78	4827.53
554.143	4846.51
554.507	4826.62
554.87	4900.52
555.234	4933.74
555.597	4882.44
555.96	4959.73
556.323	5029.33
556.686	5051.25
557.05	5102.55
557.413	5107.07
557.776	5137.12
558.139	5204.24
558.502	5190.91
558.865	5234.75
559.228	5290.34
559.59	5329.44
559.953	5331.47
560.316	5434.52
560.679	5414.63
561.041	5529.2
561.404	5529.43
561.767	5576.89
562.129	5571.01
562.492	5659.37
562.854	5630.22
563.217	5696.88
563.579	5760.39
563.941	5806.71
564.304	5862.53
564.666	5928.97
565.028	5937.78
565.39	6010.55
565.753	6093.26
566.115	6126.7
566.477	6145.91
566.839	6259.13
567.201	6273.37
567.563	6290.99
567.925	6362.18
568.287	6449.86
568.648	6471.33
569.01	6551.32
569.372	6637.88
569.734	6625.22
570.095	6726.69
570.457	6778.66
570.819	6782.51
571.18	6845.1
571.542	7029.96
571.903	6959.9
572.265	7061.59
572.626	7089.84
572.987	7171.65
573.349	7186.34
573.71	7241.93
574.071	7380.46
574.432	7426.33
574.794	7557.17
575.155	7596.72
575.516	7639.88
575.877	7767.79
576.238	7834
576.599	7910.61
576.96	7941.57
577.32	8075.13
577.681	8124.62
578.042	8291.17
578.403	8314.44
578.763	8448.9
579.124	8515.34
579.485	8598.5
579.845	8682.34
580.206	8790.59
580.566	8911.49
580.927	9047.98
581.287	9165.72
581.648	9251.37
582.008	9370.91
582.368	9527.74
582.728	9620.62
583.089	9699.72
583.449	9870.56
583.809	9983.33
584.169	10137.45
584.529	10259.02
584.889	10480.71
585.249	10531.79
585.609	10693.14
585.969	10880.7
586.329	10967.48
586.688	11220.13
587.048	11346.45
587.408	11518.88
587.768	11655.82
588.127	11877.06
588.487	12093.78
588.846	12343.04
589.206	12391.85
589.565	12633.65
589.925	12890.14
590.284	13028.67
590.643	13393.86
591.003	13585.72
591.362	13888.08
591.721	14097.34
592.08	14335.08
592.44	14621.62
592.799	14942.06
593.158	15115.62
593.517	15478.55
593.876	15731.42
594.235	15860.23
594.593	16203.73
594.952	16547.9
595.311	16803.94
595.67	17165.51
596.029	17552.84
596.387	17899.95
596.746	18262.2
597.104	18411.13
597.463	18720.95
597.822	19187.83
598.18	19392.8
598.538	19754.82
598.897	20204.98
599.255	20289.72
599.613	20880.44
599.972	21080.43
600.33	21535.11
600.688	21757.93
601.046	22173.29
601.404	22596.78
601.762	22846.49
602.12	23242.41
602.478	23675.39
602.836	23956.52
603.194	24211.2
603.552	24697.06
603.91	24833.78
604.268	25312.19
604.625	25638.28
604.983	25947.65
605.341	26210.92
605.698	26579.5
606.056	27021.07
606.413	27240.95
606.771	27560.04
607.128	28063.08
607.485	28103.75
607.843	28523.4
608.2	28924.52
608.557	29234.12
608.914	29454.45
609.272	29847.66
609.629	30177.82
609.986	30486.06
610.343	30667.75
610.7	31088.76
611.057	31327.17
611.414	31465.92
611.771	31886.48
612.127	32182.97
612.484	32389.29
612.841	32645.1
613.198	32680.81
613.554	32906.79
613.911	33344.97
614.267	33528.47
614.624	33754.68
614.98	33996.03
615.337	34258.84
615.693	34432.17
616.05	34621.77
616.406	35014.53
616.762	35037.58
617.118	35112.83
617.475	35363
617.831	35732.03
618.187	35747.39
618.543	35955.3
618.899	36194.61
619.255	36385.79
619.611	36539.01
619.967	36898.55
620.323	36996.85
620.678	37050.41
621.034	37139.9
621.39	37133.35
621.746	37343.74
622.101	37802.93
622.457	37682.48
622.812	37813.33
623.168	38113.21
623.523	38151.62
623.879	38453.76
624.234	38317.5
624.589	38458.28
624.945	38511.16
625.3	38689.91
625.655	38707.77
626.01	38896.01
626.365	38979.4
626.72	39025.95
627.075	39231.14
627.43	39219.39
627.785	39193.63
628.14	39261.65
628.495	39474.75
628.85	39600.17
629.205	39367.86
629.559	39810.79
629.914	39700.06
630.269	39773.28
630.623	39671.13
630.978	39737.8
631.332	39979.37
631.687	40061.63
632.041	39926.49
632.396	40033.83
632.75	40118.13
633.104	40030.44
633.459	39824.8
633.813	40060.95
634.167	40041.52
634.521	40077
634.875	40004.91
635.229	40061.63
635.583	39927.4
635.937	39938.47
636.291	39900.28
636.645	40246.71
636.999	40123.55
637.352	40185.69
637.706	40057.56
638.06	40112.25
638.413	40172.36
638.767	40065.92
639.121	40267.27
639.474	39985.25
639.828	40107.96
640.181	40269.31
640.534	40349.53
640.888	39995.19
641.241	39993.16
641.594	40291.91
641.947	40238.57
642.301	40096.88
642.654	40295.3
643.007	40268.4
643.36	40291.68
643.713	40285.35
644.066	40357.67
644.419	40043.33
644.771	39969.66
645.124	39535.77
645.477	39416.9
645.83	39264.82
646.182	39129.9
646.535	39177.36
646.888	39299.16
647.24	39121.99
647.593	39268.88
647.945	39299.39
648.298	39156.8
648.65	39105.95
649.002	39036.12
649.355	39246.51
649.707	39110.02
650.059	39387.07
650.411	39812.37
650.763	39846.04
651.115	40263.66
651.467	40035.87
651.819	40147.73
652.171	40069.99
652.523	40155.87
652.875	40154.51
653.227	39919.26
653.578	40190.21
653.93	40096.88
654.282	39942.31
654.633	39970.79
654.985	39998.58
655.337	40045.13
655.688	39992.25
656.039	40102.76
656.391	39851.24
656.742	39893.73
657.094	39895.08
657.445	39979.37
657.796	39862.54
658.147	39888.53
658.498	39895.98
658.849	39974.63
659.2	39755.88
659.551	39817.79
659.902	39971.46
660.253	39809.66
660.604	39959.49
660.955	39671.36
661.306	39875.87
661.656	39904.57
662.007	39802.65
662.358	40033.38
662.708	39887.4
663.059	39888.75
663.409	39564.24
663.76	40013.5
664.11	39915.19
664.461	39973.95
664.811	39919.04
665.161	39951.58
665.511	39818.47
665.862	39817.79
666.212	39847.62
666.562	39890.79
666.912	39874.74
667.262	39832.03
667.612	39913.39
667.962	39847.85
668.312	39708.87
668.662	40106.37
669.011	39957.45
669.361	39876.55
669.711	39771.69
670.06	39815.99
670.41	39763.78
670.76	39776.67
671.109	39826.16
671.459	39873.61
671.808	39694.41
672.157	39750.45
672.507	39593.85
672.856	39492.38
673.205	39601.08
673.554	39772.82
673.904	39699.61
674.253	39808.08
674.602	39686.05
674.951	39157.93
675.3	39107.53
675.649	39626.61
675.998	39569.67
676.346	39479.5
676.695	39644.24
677.044	39394.98
677.393	39557.91
677.741	39564.02
678.09	39468.43
678.438	39334.87
678.787	39410.57
679.135	39385.94
679.484	39183.01
679.832	39290.35
680.181	39272.5
680.529	39203.35
680.877	39133.52
681.225	39160.41
681.573	39395.21
681.922	39055.56
682.27	39026.18
682.618	39040.41
682.966	38897.82
683.314	38938.72
683.661	38889.68
684.009	38461.22
684.357	38619.41
684.705	38489.02
685.053	38593.87
685.4	38458.73
685.748	38377.38
686.095	38211.51
686.443	38199.76
686.79	38192.07
687.138	38238.85
687.485	38190.94
687.832	37999.76
688.18	38211.28
688.527	37986.2
688.874	37833.89
689.221	37709.38
689.568	37625.76
689.915	37601.13
690.262	37764.29
690.609	37447.91
690.956	37370.85
691.303	37372.66
691.65	37164.98
691.997	37187.81
692.344	37036.85
692.69	37096.96
693.037	36994.82
693.383	36741.94
693.73	36794.82
694.077	36593.25
694.423	36572.91
694.769	36514.38
695.116	36539.69
695.462	36449.3
695.808	36256.08
696.155	36314.38
696.501	36019.25
696.847	36040.72
697.193	35807.96
697.539	36099.7
697.885	35713.04
698.231	35687.28
698.577	35757.79
698.923	35525.48
699.269	35505.37
699.614	35221.08
699.96	35175.43
700.306	35203.68
700.651	34993.29
700.997	34893.63
701.342	34802.79
701.688	34825.38
702.033	34644.82
702.379	34686.18
702.724	34631.49
703.069	34768.44
703.415	34348.56
703.76	34246.87
704.105	34409.12
704.45	34297.49
704.795	34058.4
705.14	34056.82
705.485	34019.76
705.83	33766.2
706.175	34023.6
706.52	33768.01
706.865	33671.06
707.209	33741.12
707.554	33500.22
707.899	33660.67
708.243	33353.56
708.588	33279.21
708.932	33176.84
709.277	33161.7
709.621	33258.87
709.966	32900.69
710.31	32976.62
710.654	32756.74
710.998	32923.29
711.342	32904.76
711.687	32674.71
712.031	32619.57
712.375	32482.62
712.719	32555.16
713.063	32547.93
713.407	32567.36
713.75	32380.7
714.094	32229.07
714.438	32192.68
714.782	32223.19
715.125	31976.19
715.469	32086.25
715.812	31901.17
716.156	31798.34
716.499	31840.15
716.843	31901.17
717.186	31674.05
717.53	31786.14
717.873	31694.17
718.216	31734.62
718.559	31639.25
718.902	31368.98
719.246	31360.16
719.589	31344.12
719.932	31242.43
720.275	31243.11
720.617	31315.87
720.96	31139.6
721.303	31161.98
721.646	31210.56
721.989	30921.53
722.331	31037.46
722.674	30966.05
723.016	30922.21
723.359	30817.35
723.701	30769.45
724.044	30671.37
724.386	30583.46
724.729	30682.89
725.071	30530.81
725.413	30606.96
725.755	30541.43
726.097	30398.16
726.439	30198.61
726.782	30251.49
727.124	30423.01
727.465	30200.65
727.807	30244.04
728.149	30156.58
728.491	30116.36
728.833	30209.46
729.175	30098.95
729.516	30048.56
729.858	29973.99
730.199	29944.83
730.541	29947.32
730.882	29897.38
731.224	29941.22
731.565	29750.94
731.906	29764.27
732.248	29792.75
732.589	29728.34
732.93	29666.88
733.271	29526.77
733.612	29640.89
733.953	29537.39
734.294	29386.43
734.635	29363.15
734.976	29565.86
735.317	29361.57
735.658	29410.84
735.999	29353.44
736.339	29201.12
736.68	29300.56
737.021	29229.37
737.361	29104.63
737.702	29213.55
738.042	29016.95
738.383	29034.8
738.723	29059.89
739.063	28968.81
739.404	29014.92
739.744	28881.13
740.084	28847.46
740.424	28860.79
740.764	28795.71
741.104	28849.04
741.444	28797.97
741.784	28684.53
742.124	28728.37
742.464	28589.39
742.804	28541.48
743.143	28562.5
743.483	28582.61
743.823	28409.06
744.162	28376.97
744.502	28576.51
744.841	28346.46
745.181	28506.91
745.52	28369.73
745.86	28268.72
746.199	28239.57
746.538	28148.95
746.877	28272.11
747.216	28298.55
747.556	28101.94
747.895	28095.84
748.234	27962.97
748.573	28053.58
748.911	27972.91
749.25	27952.12
749.589	27815.17
749.928	27897.66
750.267	27903.08
750.605	27792.57
750.944	27729.3
751.283	27664.22
751.621	27711.9
751.96	27555.52
752.298	27502.64
752.636	27522.98
752.975	27482.75
753.313	27285.02
753.651	27429.87
753.989	27290.67
754.327	27237.33
754.666	27056.1
755.004	27200.5
755.342	27115.08
755.679	27175.87
756.017	26999.37
756.355	27033.72
756.693	26808.65
757.031	26843.22
757.368	26873.5
757.706	26767.29
758.044	26692.94
758.381	26628.99
758.719	26484.81
759.056	26594.64
759.394	26411.14
759.731	26364.59
760.068	26365.27
760.405	26246.85
760.743	26110.13
761.08	26222.45
761.417	26033.98
761.754	26037.37
762.091	25910.59
762.428	25863.36
762.765	25617.04
763.102	25845.05
763.438	25682.35
763.775	25518.28
764.112	25573.2
764.449	25504.5
764.785	25459.75
765.122	25302.92
765.458	25092.31
765.795	25110.16
766.131	25096.15
766.467	25051.18
766.804	24889.15
767.14	24855.25
767.476	24723.95
767.812	24623.62
768.148	24598.53
768.485	24450.29
768.821	24311.54
769.157	24295.27
769.492	24246.45
769.828	24243.52
770.164	24139.34
770.5	24140.69
770.836	24112.45
771.171	23890.08
771.507	23813.7
771.842	23730.53
772.178	23662.29
772.513	23636.75
772.849	23477.21
773.184	23430.43
773.519	23421.84
773.855	23428.4
774.19	23360.6
774.525	23098.01
774.86	23178.01
775.195	23034.51
775.53	22930.33
775.865	22861.86
776.2	22750.22
776.535	22553.39
776.87	22626.16
777.205	22609.21
777.539	22373.06
777.874	22429.55
778.209	22293.06
778.543	22260.74
778.878	22116.57
779.212	22046.28
779.547	21902.11
779.881	22045.61
780.215	21865.72
780.55	21845.61
780.884	21660.08
781.218	21647.65
781.552	21525.39
781.886	21491.5
782.22	21473.64
782.554	21318.85
782.888	21188
783.222	21094.22
783.556	20970.61
783.889	21018.06
784.223	20726.32
784.557	20827.79
784.89	20769.03
785.224	20733.78
785.557	20652.2
785.891	20568.58
786.224	20420.79
786.558	20422.82
786.891	20235.48
787.224	20192.77
787.557	20149.16
787.891	20153
788.224	20180.12
788.557	20053.79
788.89	20069.16
789.223	19889.05
789.556	19756.18
789.888	19760.24
790.221	19624.88
790.554	19525.45
790.887	19592.79
791.219	19432.57
791.552	19461.49
791.884	19341.27
792.217	19232.35
792.549	19299.46
792.882	18998.91
793.214	18983.54
793.546	19027.38
793.879	18849.31
794.211	18762.3
794.543	18782.42
794.875	18814.05
795.207	18772.47
795.539	18678.24
795.871	18681.85
796.203	18520.73
796.535	18383.1
796.867	18351.24
797.198	18350.34
797.53	18370.68
797.862	18234.63
798.193	18232.37
798.525	18212.94
798.856	18141.53
799.188	17982.44
799.519	17919.84
799.85	17833.74
800.182	17852.72
800.513	17798.03
800.844	17699.73
801.175	17673.07
801.506	17732.05
801.837	17514.43
802.168	17605.72
802.499	17555.33
802.83	17408.89
803.161	17363.7
803.491	17287.54
803.822	17295.22
804.153	17196.02
804.483	17040.77
804.814	17032.41
805.145	17057.49
805.475	17018.17
805.805	16953.54
806.136	16860.43
806.466	16914.67
806.796	16817.27
807.126	16704.96
807.457	16666.54
807.787	16674.9
808.117	16650.49
808.447	16572.3
808.777	16627.22
809.107	16483.49
809.436	16473.55
809.766	16510.16
810.096	16429.03
810.426	16285.76
810.755	16336.38
811.085	16283.95
811.414	16236.27
811.744	16187.46
812.073	16054.8
812.403	16125.76
812.732	15953.79
813.061	15948.59
813.39	15866.11
813.719	15821.36
814.049	15984.75
814.378	15822.72
814.707	15753.12
815.036	15718.77
815.365	15652.1
815.693	15575.27
816.022	15583.86
816.351	15580.24
816.68	15456.4
817.008	15525.78
817.337	15384.99
817.665	15376.86
817.994	15400.81
818.322	15398.78
818.651	15327.14
818.979	15291.89
819.307	15356.29
819.636	15286.91
819.964	15154.71
820.292	15144.32
820.62	15192
820.948	15154.71
821.276	15118.56
821.604	15067.94
821.932	15079.24
822.259	15158.56
822.587	15131.89
822.915	15048.28
823.243	15120.59
823.57	15069.29
823.898	15160.59
824.225	14982.29
824.553	14997.88
824.88	15060.71
825.207	15056.41
825.535	15003.08
825.862	15069.29
826.189	14969.86
826.516	15054.38
826.843	15108.61
827.17	14990.43
827.497	15033.59
827.824	14988.39
828.151	15030.42
828.478	15043.53
828.805	15047.37
829.131	15000.14
829.458	14924.44
829.785	14852.58
830.111	14971.44
830.438	15007.37
830.764	14940.71
831.09	15036.07
831.417	14942.74
831.743	15023.19
832.069	14938.68
832.395	14827.04
832.722	14977.32
833.048	14845.57
833.374	14904.1
833.7	14894.16
834.026	14871.78
834.351	14899.58
834.677	14825.23
835.003	14834.72
835.329	14903.65
835.654	14827.94
835.98	14724.67
836.306	14841.05
836.631	14740.94
836.956	14802.18
837.282	14688.96
837.607	14759.47
837.932	14681.51
838.258	14695.07
838.583	14611
838.908	14539.82
839.233	14627.95
839.558	14503.88
839.883	14464.34
840.208	14491.23
840.533	14439.03
840.858	14463.66
841.182	14406.26
841.507	14397.22
841.832	14378.92
842.156	14347.5
842.481	14344.34
842.805	14253.95
843.13	14300.73
843.454	14145.25
843.778	14232.93
844.103	14177.34
844.427	14133.05
844.751	14131.92
845.075	14074.97
845.399	14049.88
845.723	14019.15
846.047	13945.03
846.371	13807.63
846.695	13825.94
847.019	13675.43
847.343	13638.6
847.666	13619.16
847.99	13611.48
848.313	13542.1
848.637	13399.96
848.96	13431.14
849.284	13335.1
849.607	13209.45
849.931	13238.61
850.254	13087.65
850.577	13123.36
850.9	13023.47
851.223	12974.88
851.546	12989.35
851.869	12900.99
852.192	13049.23
852.515	12815.34
852.838	12729.69
853.161	12770.82
853.483	12702.8
853.806	12636.59
854.129	12613.09
854.451	12536.48
854.774	12491.06
855.096	12495.58
855.419	12449.02
855.741	12361.12
856.063	12419.42
856.385	12368.8
856.708	12300.78
857.03	12241.8
857.352	12319.31
857.674	12238.41
857.996	12174.45
858.318	12091.52
858.64	12080.67
858.961	12070.5
859.283	12006.55
859.605	11995.02
859.926	11983.72
860.248	12006.32
860.57	11930.39
860.891	11849.04
861.212	11849.49
861.534	11835.93
861.855	11677.29
862.176	11756.84
862.498	11767.91
862.819	11706.44
863.14	11632.77
863.461	11666.67
863.782	11594.36
864.103	11601.36
864.424	11591.64
864.745	11711.19
865.065	11542.15
865.386	11441.37
865.707	11474.81
866.027	11540.35
866.348	11468.03
866.668	11385.55
866.989	11411.99
867.309	11347.13
867.63	11371.31
867.95	11405.21
868.27	11337.41
868.59	11355.94
868.91	11270.97
869.23	11319.79
869.55	11174.03
869.87	11254.03
870.19	11175.38
870.51	11245.21
870.83	11308.94
871.15	11147.81
871.469	11241.6
871.789	11162.28
872.109	11209.06
872.428	11033.92
872.748	11093.35
873.067	11042.28
873.386	11063.97
873.706	11073.24
874.025	10980.36
874.344	10984.2
874.663	11031.21
874.982	10960.93
875.301	10963.86
875.62	10933.81
875.939	10885.45
876.258	10914.37
876.577	10898.33
876.896	10846.35
877.214	10823.75
877.533	10888.84
877.852	10840.93
878.17	10937.88
878.489	10822.63
878.807	10787.6
879.125	10776.3
879.444	10771.78
879.762	10685.91
880.08	10677.54
880.398	10679.58
880.716	10657.43
881.034	10589.86
881.352	10674.15
881.67	10546.93
881.988	10669.41
882.306	10568.62
882.624	10483.88
882.941	10534.72
883.259	10448.17
883.577	10455.86
883.894	10348.74
884.212	10471.22
884.529	10377.89
884.846	10342.64
885.164	10360.49
885.481	10272.36
885.798	10299.25
886.115	10167.5
886.432	10174.28
886.75	10159.59
887.067	10182.87
887.383	10109.88
887.7	10202.98
888.017	10134.73
888.334	10108.07
888.651	10047.73
888.967	10045.7
889.284	9973.16
889.6	9974.51
889.917	9882.08
890.233	9913.04
890.55	9867.17
890.866	9819.49
891.182	9818.81
891.498	9806.83
891.815	9763.44
892.131	9706.72
892.447	9673.05
892.763	9680.51
893.079	9686.38
893.395	9647.51
893.71	9664.24
894.026	9622.2
894.342	9518.48
894.657	9520.96
894.973	9448.42
895.289	9496.56
895.604	9443
895.92	9373.17
896.235	9273.51
896.55	9328.88
896.865	9316.22
897.181	9232.16
897.496	9226.96
897.811	9198.49
898.126	9162.78
898.441	9181.76
898.756	9134.08
899.071	9099.28
899.386	9067.19
899.7	9003.24
900.015	8950.13
900.33	8879.85
900.644	8918.04
900.959	8898.61
901.273	8821.1
901.588	8840.3
901.902	8793.53
902.216	8768.67
902.531	8726.63
902.845	8755.11
903.159	8691.83
903.473	8634.89
903.787	8532.06
904.101	8503.36
904.415	8537.71
904.729	8486.19
905.042	8510.14
905.356	8406.42
905.67	8449.13
905.984	8432.86
906.297	8346.98
906.611	8331.62
906.924	8291.62
907.237	8258.85
907.551	8273.77
907.864	8230.15
908.177	8166.42
908.491	8133.88
908.804	8091.62
909.117	8071.96
909.43	8086.65
909.743	7992.87
910.056	7996.48
910.368	7977.05
910.681	7890.5
910.994	7906.09
911.307	7892.08
911.619	7777.96
911.932	7806.21
912.244	7707.9
912.557	7777.73
912.869	7668.81
913.181	7641.01
913.494	7652.09
913.806	7527.57
914.118	7532.77
914.43	7502.03
914.742	7510.62
915.054	7436.27
915.366	7452.54
915.678	7396.95
915.99	7398.99
916.302	7357.63
916.613	7297.97
916.925	7286.9
917.236	7296.16
917.548	7231.08
917.859	7196.51
918.171	7170.29
918.482	7187.47
918.794	7074.93
919.105	7063.4
919.416	7039.9
919.727	6962.39
920.038	6994.93
920.349	6956.96
920.66	6916.97
920.971	6853.24
921.282	6882.39
921.593	6792.67
921.903	6784.54
922.214	6779.12
922.525	6690.08
922.835	6729.85
923.146	6701.15
923.456	6659.57
923.767	6653.7
924.077	6644.2
924.387	6604.88
924.697	6557.88
925.008	6570.76
925.318	6507.94
925.628	6501.83
925.938	6499.8
926.248	6427.49
926.558	6369.86
926.867	6361.05
927.177	6375.96
927.487	6292.8
927.796	6233.59
928.106	6231.56
928.416	6139.36
928.725	6207.61
929.034	6182.07
929.344	6165.12
929.653	6173.26
929.962	6134.16
930.271	6039.7
930.581	6041.51
930.89	6014.16
931.199	5960.83
931.508	5972.13
931.817	5950.66
932.125	5911.79
932.434	5820.27
932.743	5825.24
933.051	5765.58
933.36	5794.06
933.669	5742.53
933.977	5699.14
934.286	5724.68
934.594	5700.5
934.902	5644.23
935.21	5637.9
935.519	5675.87
935.827	5609.43
936.135	5620.05
936.443	5585.25
936.751	5545.48
937.059	5517.68
937.367	5497.79
937.674	5498.7
937.982	5500.05
938.29	5445.82
938.597	5444.91
938.905	5382.99
939.213	5349.77
939.52	5301.64
939.827	5321.07
940.135	5243.11
940.442	5289.66
940.749	5257.12
941.056	5220.74
941.363	5192.04
941.67	5178.25
941.977	5131.02
942.284	5118.14
942.591	5107.07
942.898	5044.92
943.205	5040.4
943.511	4992.95
943.818	5025.94
944.125	5003.34
944.431	5001.08
944.738	4981.42
945.044	4924.02
945.35	4898.26
945.657	4877.47
945.963	4877.7
946.269	4860.3
946.575	4835.44
946.881	4822.78
947.187	4779.17
947.493	4763.8
947.799	4749.34
948.105	4738.72
948.41	4658.49
948.716	4669.79
949.022	4666.63
949.327	4641.77
949.633	4626.86
949.938	4581.43
950.244	4564.94
950.549	4561.55
950.854	4499.63
951.16	4513.19
951.465	4498.05
951.77	4470.48
952.075	4446.97
952.38	4462.57
952.685	4412.62
952.99	4411.04
953.294	4397.94
953.599	4354.32
953.904	4303.7
954.209	4310.03
954.513	4337.15
954.818	4285.17
955.122	4242.01
955.426	4284.49
955.731	4235.45
956.035	4195.45
956.339	4164.27
956.643	4187.09
956.948	4136.25
957.252	4125.17
957.556	4124.04
957.86	4132.41
958.163	4111.16
958.467	4060.09
958.771	4075.46
959.075	4044.72
959.378	4002.92
959.682	4020.77
959.985	4003.82
960.289	3952.75
960.592	3924.5
960.896	3952.52
961.199	3897.16
961.502	3884.05
961.805	3833.66
962.108	3819.65
962.411	3870.49
962.714	3856.93
963.017	3866.88
963.32	3784.17
963.623	3814.9
963.926	3783.94
964.228	3762.25
964.531	3777.61
964.833	3737.61
965.136	3718.41
965.438	3642.7
965.741	3660.33
966.043	3664.17
966.345	3666.2
966.648	3564.28
966.95	3610.61
967.252	3569.93
967.554	3543.04
967.856	3548.24
968.158	3513.66
968.46	3503.04
968.761	3519.54
969.063	3480.9
969.365	3469.82
969.666	3440.9
969.968	3475.02
970.269	3425.76
970.571	3403.39
970.872	3403.84
971.174	3380.79
971.475	3343.73
971.776	3337.17
972.077	3329.26
972.378	3354.35
972.679	3339.88
972.98	3290.17
973.281	3286.78
973.582	3262.37
973.883	3263.5
974.183	3218.76
974.484	3214.24
974.785	3205.42
975.085	3181.02
975.386	3200.45
975.686	3199.55
975.986	3164.75
976.287	3113
976.587	3109.38
976.887	3082.49
977.187	3137.86
977.487	3038.2
977.787	3044.98
978.087	3071.87
978.387	3058.54
978.687	3028.03
978.987	3015.6
979.286	2997.29
979.586	3011.08
979.885	2977.18
980.185	2928.82
980.484	2906
980.784	2978.54
981.083	2942.83
981.382	2903.06
981.682	2944.19
981.981	2896.28
982.28	2868.03
982.579	2857.18
982.878	2846.11
983.177	2822.16
983.475	2837.3
983.774	2823.29
984.073	2778.32
984.372	2826
984.67	2776.73
984.969	2776.73
985.267	2743.97
985.566	2730.86
985.864	2738.54
986.162	2706.45
986.461	2680.92
986.759	2708.26
987.057	2650.86
987.355	2643.86
987.653	2633.46
987.951	2663.52
988.249	2618.55
988.547	2600.92
988.844	2612.45
989.142	2601.15
989.44	2577.87
989.737	2580.81
990.035	2608.15
990.332	2560.02
990.63	2506.91
990.927	2501.49
991.224	2515.05
991.521	2516.18
991.819	2498.1
992.116	2490.87
992.413	2475.95
992.71	2467.14
993.006	2427.59
993.303	2412.9
993.6	2421.49
993.897	2430.08
994.193	2389.63
994.49	2381.72
994.787	2388.95
995.083	2376.29
995.379	2305.79
995.676	2322.28
995.972	2336.52
996.268	2303.53
996.565	2292.91
996.861	2268.05
997.157	2281.15
997.453	2269.18
997.749	2249.52
998.044	2233.7
998.34	2198.45
998.636	2250.42
998.932	2203.19
999.227	2219.24
999.523	2192.34
999.818	2205.22
1000.114	2176.98
1000.409	2153.25
1000.704	2140.14
1001	2146.69
1001.295	2087.94
1001.59	2108.96
1001.885	2133.14
1002.18	2089.97
1002.475	2033.25
1002.77	2068.96
1003.065	2061.73
1003.359	2025.79
1003.654	2050.2
1003.949	2007.26
1004.243	2034.16
1004.538	2005.68
1004.832	1986.47
1005.127	1983.54
1005.421	1976.98
1005.715	1961.84
1006.009	1939.47
1006.304	1932.69
1006.598	1925.91
1006.892	1913.71
1007.186	1897.21
1007.48	1881.39
1007.773	1903.31
1008.067	1877.32
1008.361	1860.15
1008.655	1862.18
1008.948	1824.67
1009.242	1847.04
1009.535	1796.2
1009.829	1803.43
1010.122	1785.35
1010.415	1782.18
1010.708	1756.87
1011.001	1755.97
1011.295	1734.05
1011.588	1739.47
1011.881	1732.92
1012.173	1715.75
1012.466	1687.72
1012.759	1687.95
1013.052	1693.6
1013.344	1688.85
1013.637	1661.51
1013.93	1662.41
1014.222	1652.24
1014.514	1632.36
1014.807	1639.14
1015.099	1622.87
1015.391	1622.64
1015.683	1623.77
1015.976	1600.27
1016.268	1596.65
1016.56	1595.97
1016.851	1567.28
1017.143	1564.11
1017.435	1546.48
1017.727	1525.47
1018.018	1522.3
1018.31	1534.73
1018.602	1520.95
1018.893	1479.82
1019.185	1491.57
1019.476	1470.55
1019.767	1474.4
1020.058	1465.36
1020.35	1461.97
1020.641	1444.34
1020.932	1445.02
1021.223	1420.16
1021.514	1433.95
1021.804	1379.94
1022.095	1419.03
1022.386	1380.16
1022.677	1359.6
1022.967	1380.39
1023.258	1361.63
1023.548	1351.69
1023.839	1345.59
1024.129	1343.78
1024.419	1314.85
1024.709	1317.34
1025	1325.93
1025.29	1306.49
1025.58	1297.23
1025.87	1263.33
1026.16	1261.29
1026.449	1287.51
1026.739	1270.33
1027.029	1245.25
1027.319	1256.77
1027.608	1249.77
1027.898	1231.01
1028.187	1246.83
1028.477	1214.06
1028.766	1185.82
1029.055	1197.57
1029.344	1179.26
1029.634	1184.91
1029.923	1190.56
1030.212	1159.15
1030.501	1151.24
1030.79	1147.17
1031.078	1143.56
1031.367	1110.56
1031.656	1114.63
1031.945	1097.01
1032.233	1116.89
1032.522	1075.08
1032.81	1107.85
1033.099	1093.84
1033.387	1086.61
1033.675	1037.12
1033.963	1066.27
1034.251	1050.9
1034.54	1037.57
1034.828	1045.71
1035.116	1033.96
1035.403	1042.54
1035.691	1018.14
1035.979	1001.41
1036.267	1013.84
1036.554	1013.84
1036.842	972.26
1037.129	990.57
1037.417	969.55
1037.704	982.43
1037.992	965.71
1038.279	980.17
1038.566	956.22
1038.853	956.22
1039.14	956.22
