Data from red_cardboard_box_FLMS001491_00067.txt Node
Date: Wed Feb 08 11:32:57 GMT 2017
User: dcchb
Spectrometer: FLMS00149
Trigger mode: 0
Integration Time (sec): 2.000000E-2
Scans to average: 10
Electric dark correction enabled: true
Nonlinearity correction enabled: false
Boxcar width: 0
XAxis mode: Wavelengths
Number of Pixels in Spectrum: 2048
>>>>>Begin Spectral Data<<<<<
341.393	-5.61
341.776	-5.61
342.16	-5.61
342.543	-72.72
342.927	-47.87
343.31	-84.7
343.693	-50.58
344.077	-52.84
344.46	-84.93
344.843	-56.68
345.226	-46.96
345.61	-22.56
345.993	-11.26
346.376	16.31
346.759	-9.9
347.142	24.9
347.525	25.35
347.908	63.32
348.291	75.97
348.674	80.49
349.057	134.05
349.44	136.54
349.823	149.42
350.206	161.39
350.588	206.14
350.971	195.29
351.354	213.14
351.737	244.56
352.119	264.22
352.502	258.34
352.884	278.91
353.267	293.82
353.65	291.33
354.032	288.62
354.414	314.16
354.797	339.24
355.179	320.71
355.562	325.23
355.944	335.63
356.326	330.66
356.709	325.23
357.091	332.46
357.473	355.29
357.855	319.36
358.238	356.19
358.62	332.69
359.002	335.63
359.384	319.13
359.766	325.91
360.148	332.91
360.53	335.85
360.912	341.5
361.294	338.34
361.676	349.41
362.057	327.04
362.439	343.99
362.821	332.01
363.203	356.42
363.584	348.73
363.966	325.91
364.348	325.23
364.729	324.78
365.111	318
365.493	315.74
365.874	317.77
366.256	317.55
366.637	314.16
367.019	305.8
367.4	308.96
367.781	300.37
368.163	322.52
368.544	327.49
368.925	311.22
369.306	306.93
369.688	315.74
370.069	317.55
370.45	294.5
370.831	328.17
371.212	315.97
371.593	308.96
371.974	317.32
372.355	313.25
372.736	305.8
373.117	310.77
373.498	336.76
373.879	315.29
374.26	305.57
374.641	313.03
375.021	306.47
375.402	320.49
375.783	303.99
376.163	325.91
376.544	315.29
376.925	301.73
377.305	299.02
377.686	316.87
378.066	295.4
378.447	308.96
378.827	311.45
379.208	323.65
379.588	304.67
379.968	329.3
380.349	314.84
380.729	343.31
381.109	334.72
381.489	332.69
381.87	341.5
382.25	357.32
382.63	346.25
383.01	318.23
383.39	346.25
383.77	319.81
384.15	346.02
384.53	320.26
384.91	315.97
385.29	358.68
385.67	341.28
386.049	364.33
386.429	327.04
386.809	341.05
387.189	353.71
387.568	355.29
387.948	339.92
388.328	348.06
388.707	347.15
389.087	331.79
389.466	343.31
389.846	332.69
390.225	341.05
390.605	362.74
390.984	350.54
391.363	355.74
391.743	358.45
392.122	359.35
392.501	391.44
392.881	345.8
393.26	362.07
393.639	347.83
394.018	339.47
394.397	364.1
394.776	347.83
395.155	359.35
395.534	363.87
395.913	358
396.292	373.37
396.671	398.68
397.05	358.23
397.429	377.66
397.808	379.69
398.186	392.57
398.565	365.68
398.944	372.24
399.323	387.38
399.701	393.25
400.08	371.56
400.458	381.05
400.837	364.55
401.215	372.69
401.594	382.18
401.972	381.5
402.351	375.4
402.729	366.13
403.107	370.43
403.486	379.47
403.864	383.76
404.242	353.03
404.62	390.31
404.999	390.77
405.377	377.43
405.755	394.61
406.133	401.16
406.511	394.83
406.889	387.83
407.267	371.56
407.645	400.03
408.023	398.9
408.401	411.78
408.779	413.82
409.156	423.08
409.534	404.55
409.912	409.98
410.29	406.36
410.667	412.01
411.045	405
411.422	403.65
411.8	388.51
412.178	415.17
412.555	437.54
412.933	414.27
413.31	405
413.687	420.14
414.065	433.48
414.442	429.18
414.819	438
415.197	417.43
415.574	441.61
415.951	433.03
416.328	432.57
416.705	430.54
417.082	436.19
417.46	459.24
417.837	438.22
418.214	441.61
418.591	450.88
418.967	442.06
419.344	453.14
419.721	452.69
420.098	459.47
420.475	466.02
420.852	473.48
421.228	468.05
421.605	457.43
421.982	472.8
422.358	444.32
422.735	464.66
423.111	473.7
423.488	495.4
423.864	465.11
424.241	472.57
424.617	470.99
424.994	464.21
425.37	483.42
425.746	488.39
426.123	491.55
426.499	506.47
426.875	508.96
427.251	499.92
427.627	479.13
428.003	489.75
428.379	498.56
428.756	499.46
429.132	513.25
429.507	501.5
429.883	519.58
430.259	523.42
430.635	516.64
431.011	496.53
431.387	482.97
431.763	535.4
432.138	511.89
432.514	536.53
432.89	551.21
433.265	545.34
433.641	534.49
434.016	520.25
434.392	547.37
434.767	540.82
435.143	546.47
435.518	542.85
435.894	557.32
436.269	542.4
436.644	557.54
437.02	592.34
437.395	573.81
437.77	583.53
438.145	572.23
438.52	573.13
438.895	576.75
439.271	564.77
439.646	597.09
440.021	593.47
440.395	580.59
440.77	602.51
441.145	580.59
441.52	612.23
441.895	596.64
442.27	600.25
442.645	601.16
443.019	606.35
443.394	620.82
443.769	604.09
444.143	634.15
444.518	620.82
444.892	629.63
445.267	603.42
445.641	646.35
446.016	625.11
446.39	626.47
446.764	630.08
447.139	618.56
447.513	619.69
447.887	651.1
448.262	647.03
448.636	644.32
449.01	652.45
449.384	672.12
449.758	670.99
450.132	660.14
450.506	661.27
450.88	661.72
451.254	665.79
451.628	673.02
452.002	673.02
452.376	685.22
452.75	680.02
453.123	670.76
453.497	696.75
453.871	688.84
454.244	685
454.618	678.22
454.992	693.58
455.365	697.88
455.739	738.78
456.112	725.45
456.486	739.23
456.859	720.93
457.232	719.8
457.606	729.51
457.979	719.35
458.352	731.55
458.725	740.59
459.099	750.76
459.472	768.84
459.845	767.25
460.218	766.35
460.591	782.17
460.964	785.11
461.337	794.37
461.71	796.41
462.083	809.06
462.456	805.9
462.829	802.51
463.201	794.6
463.574	798.67
463.947	827.37
464.32	827.59
464.692	833.47
465.065	838.89
465.438	838.44
465.81	878.21
466.183	853.81
466.555	883.86
466.928	866.46
467.3	895.39
467.672	869.62
468.045	894.26
468.417	897.19
468.789	913.46
469.161	926.57
469.534	911.88
469.906	938.77
470.278	940.81
470.65	940.13
471.022	976.74
471.394	989.62
471.766	978.77
472.138	977.87
472.51	999.11
472.882	1004.08
473.253	1002.5
473.625	1015.83
473.997	1015.83
474.369	1027.59
474.74	1027.36
475.112	1042.05
475.484	1046.57
475.855	1092.89
476.227	1098.32
476.598	1092.67
476.97	1122.5
477.341	1146.23
477.713	1159.79
478.084	1146.45
478.455	1182.38
478.827	1159.79
479.198	1219.22
479.569	1214.7
479.94	1258.31
480.311	1228.48
480.682	1268.03
481.053	1240.91
481.424	1312.55
481.795	1284.3
482.166	1310.97
482.537	1313
482.908	1331.98
483.279	1352.55
483.65	1362.04
484.021	1387.35
484.391	1385.32
484.762	1410.85
485.133	1443.62
485.503	1453.79
485.874	1505.09
486.244	1517.06
486.615	1499.44
486.985	1540.57
487.356	1572.2
487.726	1580.57
488.097	1583.96
488.467	1588.25
488.837	1638.19
489.207	1603.62
489.578	1657.17
489.948	1676.16
490.318	1729.04
490.688	1703.73
491.058	1727.45
491.428	1727.68
491.798	1759.54
492.168	1768.58
492.538	1796.61
492.908	1791.86
493.278	1800.67
493.648	1833.67
494.017	1836.38
494.387	1908.24
494.757	1924.74
495.126	1882.03
495.496	1907.11
495.866	1908.69
496.235	1915.25
496.605	1953.44
496.974	1940.33
497.344	1991.85
497.713	2003.61
498.082	2010.61
498.452	2041.12
498.821	2012.87
499.19	2033.89
499.559	2066.65
499.928	2065.52
500.298	2081.57
500.667	2112.98
501.036	2117.5
501.405	2104.62
501.774	2152.08
502.143	2138.74
502.512	2179.65
502.88	2198.4
503.249	2175.58
503.618	2190.27
503.987	2204.28
504.356	2216.93
504.724	2193.43
505.093	2249.7
505.462	2263.49
505.83	2252.41
506.199	2291.96
506.567	2303.48
506.936	2313.2
507.304	2347.1
507.672	2371.05
508.041	2362.47
508.409	2407.21
508.777	2404.95
509.145	2389.81
509.514	2400.21
509.882	2422.13
510.25	2449.47
510.618	2462.12
510.986	2432.97
511.354	2489.02
511.722	2532.41
512.09	2506.42
512.458	2566.75
512.826	2556.13
513.193	2580.77
513.561	2600.88
513.929	2618.73
514.297	2652.63
514.664	2634.1
515.032	2683.36
515.4	2683.59
515.767	2711.84
516.135	2720.2
516.502	2734.21
516.869	2759.07
517.237	2796.8
517.604	2783.25
517.972	2835.9
518.339	2797.03
518.706	2844.49
519.073	2825.05
519.44	2856.01
519.808	2920.19
520.175	2874.54
520.542	2947.54
520.909	2928.33
521.276	2971.26
521.643	2995.67
522.009	2981.21
522.376	3027.08
522.743	3047.65
523.11	3096.68
523.477	3079.74
523.843	3112.95
524.21	3171.48
524.577	3203.8
524.943	3190.92
525.31	3229.34
525.676	3218.94
526.043	3300.97
526.409	3300.29
526.776	3270.92
527.142	3327.64
527.508	3340.97
527.874	3401.08
528.241	3392.5
528.607	3421.42
528.973	3408.09
529.339	3466.84
529.705	3499.16
530.071	3537.35
530.437	3573.73
530.803	3611.02
531.169	3599.04
531.535	3651.47
531.901	3564.69
532.267	3604.47
532.632	3637.91
532.998	3670
533.364	3705.48
533.73	3686.73
534.095	3732.83
534.461	3742.99
534.826	3834.74
535.192	3779.15
535.557	3841.07
535.923	3841.07
536.288	3867.06
536.653	3887.17
537.019	3830
537.384	3907.74
537.749	3915.19
538.114	3879.49
538.479	3920.84
538.845	3935.31
539.21	3968.75
539.575	3960.84
539.94	3971.46
540.305	4033.16
540.67	4034.96
541.034	4041.29
541.399	4074.06
541.764	4127.17
542.129	4105.92
542.494	4127.62
542.858	4160.38
543.223	4175.75
543.587	4184.57
543.952	4191.34
544.316	4240.83
544.681	4236.99
545.045	4260.72
545.41	4293.04
545.774	4277.22
546.138	4345.24
546.503	4304.34
546.867	4373.71
547.231	4390.44
547.595	4412.58
547.959	4455.29
548.324	4439.25
548.688	4472.92
549.052	4468.63
549.416	4474.95
549.779	4500.94
550.143	4554.27
550.507	4599.7
550.871	4599.24
551.235	4641.28
551.599	4644.21
551.962	4672.91
552.326	4701.16
552.689	4754.49
553.053	4754.27
553.417	4740.71
553.78	4815.51
554.143	4801.95
554.507	4841.27
554.87	4875.39
555.234	4946.58
555.597	4943.19
555.96	4972.12
556.323	5013.92
556.686	5019.12
557.05	5108.16
557.413	5089.4
557.776	5144.54
558.139	5154.26
558.502	5209.17
558.865	5195.84
559.228	5285.33
559.59	5316.96
559.953	5347.92
560.316	5416.4
560.679	5494.36
561.041	5489.84
561.404	5521.25
561.767	5587.01
562.129	5571.87
562.492	5660.46
562.854	5682.15
563.217	5740.68
563.579	5721.02
563.941	5795.37
564.304	5859.1
564.666	5965.31
565.028	5935.93
565.39	6017.74
565.753	6036.49
566.115	6112.65
566.477	6163.27
566.839	6216.83
567.201	6275.36
567.563	6310.84
567.925	6423.83
568.287	6425.86
568.648	6495.24
569.01	6511.28
569.372	6592.64
569.734	6617.95
570.095	6704.5
570.457	6734.55
570.819	6744.27
571.18	6835.12
571.542	6938.84
571.903	6973.42
572.265	7067.65
572.626	7106.3
572.987	7167.54
573.349	7224.94
573.71	7333.18
574.071	7401.2
574.432	7457.25
574.794	7537.7
575.155	7595.55
575.516	7617.02
575.877	7804.36
576.238	7770.01
576.599	7927.29
576.96	7930.23
577.32	8036.22
577.681	8143.56
578.042	8187.4
578.403	8325.93
578.763	8404.79
579.124	8432.59
579.485	8540.16
579.845	8690.21
580.206	8721.17
580.566	8865.35
580.927	8985.12
581.287	9145.34
581.648	9201.83
582.008	9346.92
582.368	9462.17
582.728	9602.5
583.089	9710.3
583.449	9834.36
583.809	9990.97
584.169	10088.14
584.529	10227.57
584.889	10399.77
585.249	10527
585.609	10626.2
585.969	10918.85
586.329	10997.04
586.688	11217.6
587.048	11294.66
587.408	11491.94
587.768	11647.65
588.127	11889
588.487	11972.61
588.846	12328.31
589.206	12373.5
589.565	12656.43
589.925	12924.9
590.284	13068.4
590.643	13398.11
591.003	13645.11
591.362	13919.22
591.721	14107.69
592.08	14329.38
592.44	14708.13
592.799	14872.87
593.158	15020.44
593.517	15393.76
593.876	15664.26
594.235	15939.74
594.593	16305.15
594.952	16552.38
595.311	16826.49
595.67	17206.82
596.029	17537.89
596.387	17897.88
596.746	18151.2
597.104	18430.07
597.463	18838.19
597.822	19100.33
598.18	19355.01
598.538	19689.69
598.897	20170.81
599.255	20376.91
599.613	20830
599.972	21120.62
600.33	21482.42
600.688	21718.12
601.046	22178.67
601.404	22580.92
601.762	22890.97
602.12	23305.42
602.478	23585.41
602.836	23972.07
603.194	24190.82
603.552	24518.95
603.91	24855.43
604.268	25274.86
604.625	25507.17
604.983	26030.77
605.341	26141.73
605.698	26662.17
606.056	26940.8
606.413	27323.84
606.771	27703.72
607.128	27988.23
607.485	28136.03
607.843	28442.23
608.2	28946.4
608.557	29190.46
608.914	29387.97
609.272	29841.97
609.629	30116.09
609.986	30430.65
610.343	30632.91
610.7	31028.61
611.057	31258.66
611.414	31453.23
611.771	31827.45
612.127	32121.23
612.484	32441.22
612.841	32677.6
613.198	32709.46
613.554	32847.09
613.911	33459.5
614.267	33497.92
614.624	33688.65
614.98	34029.43
615.337	34308.97
615.693	34394.39
616.05	34563.88
616.406	34974.26
616.762	35054.49
617.118	35146.69
617.475	35406.8
617.831	35699.22
618.187	35760.23
618.543	35954.58
618.899	36328.35
619.255	36484.73
619.611	36586.65
619.967	36786.87
620.323	37069.12
620.678	37012.18
621.034	37148.44
621.39	37326.74
621.746	37323.58
622.101	37863
622.457	37583.01
622.812	37888.54
623.168	38095.31
623.523	38231.35
623.879	38328.98
624.234	38254.18
624.589	38600.16
624.945	38588.41
625.3	38633.38
625.655	38731.23
626.01	38821.62
626.365	39024.78
626.72	38982.75
627.075	39089.86
627.43	39095.06
627.785	39070.2
628.14	39201.05
628.495	39521.26
628.85	39391.32
629.205	39497.53
629.559	39689.62
629.914	39623.18
630.269	39610.98
630.623	39611.43
630.978	39835.61
631.332	40003.51
631.687	40101.13
632.041	39833.12
632.396	40009.61
632.75	39973.45
633.104	39910.63
633.459	39847.36
633.813	40043.06
634.167	40038.54
634.521	40059.55
634.875	40261.13
635.229	40108.37
635.583	39944.75
635.937	40072.44
636.291	40051.64
636.645	40062.27
636.999	40019.1
637.352	40147.24
637.706	39900.69
638.06	40204.41
638.413	40113.56
638.767	40017.3
639.121	40217.74
639.474	40019.33
639.828	40156.73
640.181	40161.7
640.534	40279.66
640.888	40107.01
641.241	40044.41
641.594	40184.97
641.947	40272.2
642.301	40188.82
642.654	40288.7
643.007	40245.31
643.36	40248.7
643.713	40159.89
644.066	40417.06
644.419	40007.35
644.771	39835.15
645.124	39598.55
645.477	39419.12
645.83	39331.66
646.182	39136.64
646.535	39157.2
646.888	39330.08
647.24	39067.94
647.593	39349.97
647.945	39354.71
648.298	39218.22
648.65	39080.37
649.002	38982.52
649.355	39177.32
649.707	39232.46
650.059	39440.36
650.411	39774.82
650.763	39903.17
651.115	40097.52
651.467	40140.23
651.819	40123.06
652.171	40095.49
652.523	40028.82
652.875	39954.47
653.227	39838.99
653.578	40158.76
653.93	40053.9
654.282	39892.78
654.633	39816.4
654.985	39931.42
655.337	39951.53
655.688	39922.61
656.039	40178.42
656.391	39834.02
656.742	39872.44
657.094	39894.59
657.445	40117.41
657.796	39832.44
658.147	39903.85
658.498	39741.6
658.849	39954.92
659.2	39897.75
659.551	39753.57
659.902	39875.6
660.253	39862.95
660.604	39860.92
660.955	39720.58
661.306	39830.41
661.656	39740.69
662.007	39782.27
662.358	39870.63
662.708	39823.85
663.059	39828.83
663.409	39621.37
663.76	40046.9
664.11	39996.96
664.461	39936.39
664.811	39822.5
665.161	39800.35
665.511	39789.73
665.862	39893.23
666.212	39969.61
666.562	39965.32
666.912	39745.89
667.262	39832.67
667.612	39830.41
667.962	39837.86
668.312	39824.08
668.662	39948.14
669.011	39883.51
669.361	39872.21
669.711	39879.22
670.06	39804.42
670.41	39669.73
670.76	39696.4
671.109	39998.09
671.459	39758.09
671.808	39762.84
672.157	39834.25
672.507	39496.4
672.856	39484.43
673.205	39538.44
673.554	39613.01
673.904	39613.01
674.253	39761.26
674.602	39694.59
674.951	39209.63
675.3	38897.1
675.649	39472
675.998	39442.4
676.346	39543.41
676.695	39513.81
677.044	39402.85
677.393	39453.02
677.741	39629.96
678.09	39410.31
678.438	39285.34
678.787	39307.94
679.135	39387.93
679.484	39186.13
679.832	39382.96
680.181	39062.74
680.529	39106.13
680.877	39145.68
681.225	38911.34
681.573	39239.24
681.922	39023.88
682.27	38878.57
682.618	38849.64
682.966	38800.6
683.314	38954.5
683.661	38923.09
684.009	38646.94
684.357	38562.64
684.705	38461.86
685.053	38610.33
685.4	38602.19
685.748	38446.04
686.095	38323.78
686.443	38214.63
686.79	38203.78
687.138	38166.27
687.485	38270.9
687.832	37994.07
688.18	38106.84
688.527	37855.09
688.874	37865.04
689.221	37731.03
689.568	37834.53
689.915	37612.16
690.262	37589.79
690.609	37455.55
690.956	37319.51
691.303	37351.38
691.65	37161.78
691.997	37140.99
692.344	36989.8
692.69	37029.8
693.037	36937.83
693.383	36689.47
693.73	36755.91
694.077	36654.9
694.423	36519.53
694.769	36602.02
695.116	36487.67
695.462	36434.56
695.808	36241.35
696.155	36342.36
696.501	36022.6
696.847	36074.57
697.193	35768.14
697.539	36041.13
697.885	35628.94
698.231	35664.64
698.577	35708.48
698.923	35504.65
699.269	35376.51
699.614	35184.88
699.96	35140.14
700.306	35200.7
700.651	35032.79
700.997	34932.01
701.342	34839.13
701.688	34743.76
702.033	34642.97
702.379	34734.95
702.724	34672.8
703.069	34641.62
703.415	34275.07
703.76	34291.57
704.105	34150.56
704.45	34263.77
704.795	34086.83
705.14	33986.72
705.485	33974.06
705.83	33877.8
706.175	33945.14
706.52	33699.27
706.865	33792.15
707.209	33632.6
707.554	33437.81
707.899	33614.3
708.243	33394.42
708.588	33279.17
708.932	33099.96
709.277	33152.62
709.621	33021.55
709.966	32800.08
710.31	33015.45
710.654	32661.1
710.998	32767.54
711.342	32870.14
711.687	32702.46
712.031	32591.05
712.375	32443.26
712.719	32454.78
713.063	32469.92
713.407	32573.65
713.75	32321.68
714.094	32178.41
714.438	32172.76
714.782	32227.9
715.125	32078.75
715.469	32171.4
715.812	31881.92
716.156	31780.22
716.499	31708.81
716.843	31789.26
717.186	31638.76
717.53	31805.31
717.873	31844.18
718.216	31697.29
718.559	31432.21
718.902	31373.23
719.246	31389.05
719.589	31303.17
719.932	31216.85
720.275	31281.25
720.617	31157.87
720.96	31164.87
721.303	31094.82
721.646	31183.63
721.989	31018.21
722.331	31074.03
722.674	30974.14
723.016	30922.39
723.359	30872.45
723.701	30801.49
724.044	30711.1
724.386	30434.72
724.729	30721.72
725.071	30647.82
725.413	30482.86
725.755	30472.01
726.097	30370.32
726.439	30296.87
726.782	30230.89
727.124	30476.53
727.465	30262.98
727.807	30262.75
728.149	30283.09
728.491	30030.67
728.833	30099.14
729.175	30009.42
729.516	29945.92
729.858	29876.09
730.199	30076.99
730.541	29947.5
730.882	29920.39
731.224	29906.37
731.565	29813.95
731.906	29795.87
732.248	29775.98
732.589	29631.58
732.93	29542.77
733.271	29477.23
733.612	29576.89
733.953	29556.33
734.294	29472.71
734.635	29363.11
734.976	29478.82
735.317	29281.53
735.658	29357.69
735.999	29274.07
736.339	29145.26
736.68	29273.85
737.021	29226.39
737.361	29027.08
737.702	29196.11
738.042	29137.81
738.383	28964.93
738.723	29094.87
739.063	28971.94
739.404	29081.76
739.744	28895.1
740.084	28841.77
740.424	28885.38
740.764	28830.7
741.104	28799.96
741.444	28607.43
741.784	28547.77
742.124	28702.79
742.464	28557.48
742.804	28559.52
743.143	28428.45
743.483	28667.54
743.823	28273.2
744.162	28373.99
744.502	28437.71
744.841	28320.2
745.181	28393.19
745.52	28242.24
745.86	28255.57
746.199	28221.9
746.538	28195.23
746.877	28167.44
747.216	28162.24
747.556	28119.75
747.895	28181
748.234	27938.74
748.573	27982.58
748.911	27943.04
749.25	27911.4
749.589	27711.63
749.928	27842.93
750.267	27969.7
750.605	27764.96
750.944	27695.13
751.283	27727.67
751.621	27621.91
751.96	27548.7
752.298	27599.09
752.636	27579.88
752.975	27382.37
753.313	27350.96
753.651	27350.06
753.989	27290.4
754.327	27203.17
754.666	27185.54
755.004	27143.06
755.342	27230.29
755.679	27037.52
756.017	26811.54
756.355	26960.69
756.693	26906.91
757.031	26905.55
757.368	26758.21
757.706	26795.04
758.044	26701.49
758.381	26739.9
758.719	26523.19
759.056	26619.91
759.394	26549.63
759.731	26386.24
760.068	26314.6
760.405	26188.51
760.743	26252.69
761.08	26210.43
761.417	26052.69
761.754	26098.11
762.091	25879.81
762.428	25825.13
762.765	25740.61
763.102	25733.6
763.438	25595.75
763.775	25513.5
764.112	25512.37
764.449	25503.33
764.785	25423.33
765.122	25155.54
765.458	25079.16
765.795	25031.25
766.131	25080.96
766.467	24963.45
766.804	24883.68
767.14	24621.99
767.476	24715.78
767.812	24658.15
768.148	24625.84
768.485	24468.1
768.821	24306.3
769.157	24344.04
769.492	24238.5
769.828	24209.58
770.164	24090.48
770.5	23984.04
770.836	24026.53
771.171	23847.1
771.507	23860.66
771.842	23635.13
772.178	23629.25
772.513	23623.83
772.849	23525.75
773.184	23542.02
773.519	23477.17
773.855	23294.12
774.19	23222.48
774.525	23090.51
774.86	23154.91
775.195	23075.82
775.53	22916.05
775.865	22854.36
776.2	22783.62
776.535	22596.96
776.87	22570.97
777.205	22455.27
777.539	22428.15
777.874	22513.12
778.209	22296.18
778.543	22248.5
778.878	22119.91
779.212	22005.57
779.547	21835.63
779.881	22002.4
780.215	21799.02
780.55	21846.93
780.884	21665.46
781.218	21546.14
781.552	21538.69
781.886	21490.55
782.22	21369.65
782.554	21305.24
782.888	21125.59
783.222	21042.43
783.556	20943.67
783.889	21041.07
784.223	20789.33
784.557	20675.2
784.89	20833.39
785.224	20714.3
785.557	20536.68
785.891	20445.61
786.224	20417.81
786.558	20523.12
786.891	20246.74
787.224	20222.56
787.557	20177.36
787.891	20166.52
788.224	20087.65
788.557	20067.76
788.89	19896.69
789.223	19906.64
789.556	19696.7
789.888	19740.09
790.221	19611.73
790.554	19520.21
790.887	19536.93
791.219	19485.41
791.552	19366.54
791.884	19322.25
792.217	19226.66
792.549	19189.37
792.882	19152.08
793.214	19036.15
793.546	19014.91
793.879	18941.24
794.211	18779.89
794.543	18919.54
794.875	18751.87
795.207	18849.72
795.539	18651.3
795.871	18766.1
796.203	18535.83
796.535	18530.18
796.867	18356.4
797.198	18363.85
797.53	18315.49
797.862	18281.6
798.193	18172.67
798.525	18117.08
798.856	18077.53
799.188	17945.11
799.519	17896.97
799.85	17846.13
800.182	17837.31
800.513	17847.26
800.844	17689.29
801.175	17793.47
801.506	17726.81
801.837	17636.87
802.168	17546.47
802.499	17459.47
802.83	17424.22
803.161	17367.72
803.491	17362.75
803.822	17273.49
804.153	17198.23
804.483	17150.78
804.814	17012.25
805.145	16985.81
805.475	16945.81
805.805	16835.08
806.136	16866.04
806.466	16841.63
806.796	16903.33
807.126	16688.19
807.457	16639.6
807.787	16732.94
808.117	16605.03
808.447	16520.51
808.777	16603.45
809.107	16496.56
809.436	16479.61
809.766	16446.16
810.096	16386.5
810.426	16287.07
810.755	16313.51
811.085	16235.1
811.414	16201.88
811.744	16194.64
812.073	16062.67
812.403	16054.99
812.732	15960.3
813.061	16007.53
813.39	15908.1
813.719	15834.65
814.049	15927.08
814.378	15870.36
814.707	15792.4
815.036	15728.22
815.365	15598.95
815.693	15567.09
816.022	15627.2
816.351	15533.87
816.68	15418.85
817.008	15529.35
817.337	15414.33
817.665	15323.71
817.994	15345.63
818.322	15374.78
818.651	15300.88
818.979	15213.43
819.307	15261.56
819.636	15219.76
819.964	15160.77
820.292	15175.91
820.62	15209.36
820.948	15103.15
821.276	15158.29
821.604	15036.48
821.932	15146.31
822.259	15074.67
822.587	15012.08
822.915	15066.76
823.243	15140.89
823.57	14976.6
823.898	15068.8
824.225	15039.19
824.553	14991.74
824.88	15035.58
825.207	15094.33
825.535	15017.5
825.862	15025.18
826.189	14961
826.516	15031.06
826.843	15042.81
827.17	15088.46
827.497	15077.16
827.824	15046.65
828.151	14949.71
828.478	15008.24
828.805	15106.09
829.131	14984.96
829.458	14965.3
829.785	14861.8
830.111	14928.24
830.438	15069.93
830.764	14948.8
831.09	15064.51
831.417	14870.39
831.743	14912.19
832.069	14999.87
832.395	14889.37
832.722	14914.23
833.048	14915.58
833.374	14952.64
833.7	14850.05
834.026	14858.63
834.351	14805.75
834.677	14873.55
835.003	14883.27
835.329	14812.53
835.654	14772.54
835.98	14757.17
836.306	14860.44
836.631	14650.73
836.956	14735.93
837.282	14734.57
837.607	14668.13
837.932	14711.52
838.258	14654.57
838.583	14515.37
838.908	14472.2
839.233	14551.3
839.558	14564.41
839.883	14426.78
840.208	14490.96
840.533	14422.49
840.858	14492.09
841.182	14492.99
841.507	14413.45
841.832	14403.51
842.156	14369.38
842.481	14282.38
842.805	14284.41
843.13	14183.4
843.454	14273.34
843.778	14142.04
844.103	14109.73
844.427	14138.43
844.751	14091.42
845.075	14105.21
845.399	14088.49
845.723	13919.9
846.047	13879
846.371	13735.73
846.695	13744.31
847.019	13713.58
847.343	13684.2
847.666	13563.75
847.99	13549.06
848.313	13483.98
848.637	13506.81
848.96	13368.96
849.284	13366.02
849.607	13226.14
849.931	13317.21
850.254	13140.94
850.577	13108.17
850.9	12961.74
851.223	12976.2
851.546	12952.02
851.869	12896.2
852.192	12992.02
852.515	12753.15
852.838	12758.58
853.161	12773.04
853.483	12810.55
853.806	12666.83
854.129	12659.37
854.451	12573.5
854.774	12439.94
855.096	12512.93
855.419	12465.03
855.741	12432.94
856.063	12319.72
856.385	12392.26
856.708	12289.21
857.03	12307.97
857.352	12301.41
857.674	12230.46
857.996	12124.02
858.318	12028.2
858.64	12119.05
858.961	11993.17
859.283	12004.92
859.605	12038.37
859.926	11961.31
860.248	11963.12
860.57	11885.61
860.891	11876.57
861.212	11796.79
861.534	11750.24
861.855	11787.98
862.176	11795.66
862.498	11787.53
862.819	11738.04
863.14	11710.47
863.461	11657.81
863.782	11548.44
864.103	11573.75
864.424	11614.43
864.745	11590.02
865.065	11577.37
865.386	11544.6
865.707	11578.95
866.027	11458.27
866.348	11483.13
866.668	11364.26
866.989	11424.37
867.309	11323.13
867.63	11365.85
867.95	11369.23
868.27	11230.71
868.59	11315
868.91	11310.25
869.23	11274.32
869.55	11203.82
869.87	11278.39
870.19	11204.27
870.51	11196.36
870.83	11252.18
871.15	11201.56
871.469	11096.93
871.789	11202.69
872.109	11184.61
872.428	11105.74
872.748	11154.55
873.067	11077.27
873.386	11015.57
873.706	11061.22
874.025	11050.83
874.344	10931.96
874.663	11026.19
874.982	10927.89
875.301	10914.56
875.62	10875.69
875.939	10903.26
876.258	10837.27
876.577	10849.7
876.896	10817.84
877.214	10799.53
877.533	10814.67
877.852	10855.12
878.17	10785.97
878.489	10688.35
878.807	10815.13
879.125	10740.55
879.444	10759.08
879.762	10683.15
880.08	10731.51
880.398	10623.94
880.716	10676.37
881.034	10578.3
881.352	10636.37
881.67	10602.25
881.988	10554.12
882.306	10515.02
882.624	10577.62
882.941	10506.88
883.259	10418.98
883.577	10407
883.894	10422.14
884.212	10428.24
884.529	10359.54
884.846	10426.89
885.164	10296.95
885.481	10266.44
885.798	10296.72
886.115	10186.89
886.432	10249.26
886.75	10174.46
887.067	10165.88
887.383	10120.68
887.7	10197.97
888.017	10091.3
888.334	10076.16
888.651	10039.78
888.967	10081.13
889.284	9955.49
889.6	9951.87
889.917	9899.9
890.233	9933.34
890.55	9827.13
890.866	9899.9
891.182	9793.23
891.498	9794.81
891.815	9730.86
892.131	9742.61
892.447	9643.86
892.763	9625.33
893.079	9694.25
893.395	9596.85
893.71	9619.68
894.026	9549.17
894.342	9634.59
894.657	9457.19
894.973	9495.16
895.289	9463.75
895.604	9544.42
895.92	9394.15
896.235	9369.06
896.55	9339.46
896.865	9296.3
897.181	9214.04
897.496	9231.66
897.811	9173.36
898.126	9213.59
898.441	9142.4
898.756	9139.01
899.071	9087.49
899.386	9070.76
899.7	9021.27
900.015	8936.08
900.33	8889.53
900.644	8898.34
900.959	8889.98
901.273	8844.1
901.588	8856.31
901.902	8810.21
902.216	8743.99
902.531	8766.14
902.845	8790.77
903.159	8643.43
903.473	8610.89
903.787	8583.32
904.101	8534.28
904.415	8564.79
904.729	8529.76
905.042	8465.13
905.356	8465.36
905.67	8480.5
905.984	8417.67
906.297	8372.7
906.611	8279.6
906.924	8296.1
907.237	8250.9
907.551	8265.36
907.864	8155.53
908.177	8120.05
908.491	8131.58
908.804	8164.8
909.117	8094.29
909.43	8065.37
909.743	7933.17
910.056	7970.91
910.368	7936.56
910.681	7990.11
910.994	7877.35
911.307	7864.02
911.619	7777.01
911.932	7796.22
912.244	7708.09
912.557	7688.2
912.869	7747.41
913.181	7677.35
913.494	7650.91
913.806	7616.34
914.118	7586.28
914.43	7456.12
914.742	7471.26
915.054	7410.47
915.366	7452.28
915.678	7380.19
915.99	7396.23
916.302	7345.84
916.613	7331.38
916.925	7270.13
917.236	7292.28
917.548	7233.07
917.859	7214.09
918.171	7146.97
918.482	7067.88
918.794	7090.03
919.105	7051.83
919.416	7002.8
919.727	6996.69
920.038	6980.88
920.349	6903.82
920.66	6925.74
920.971	6849.58
921.282	6880.09
921.593	6788.79
921.903	6807.77
922.214	6767.77
922.525	6720.77
922.835	6699.08
923.146	6637.61
923.456	6636.48
923.767	6655.01
924.077	6644.39
924.387	6563.94
924.697	6523.94
925.008	6521
925.318	6525.52
925.628	6469.93
925.938	6468.12
926.248	6351.74
926.558	6351.97
926.867	6331.85
927.177	6300.67
927.487	6272.19
927.796	6249.82
928.106	6213.21
928.416	6204.4
928.725	6196.94
929.034	6205.98
929.344	6172.99
929.653	6133.21
929.962	6079.2
930.271	6048.24
930.581	6014.8
930.89	6000.11
931.199	5954.69
931.508	5981.58
931.817	5979.77
932.125	5929.6
932.434	5898.64
932.743	5836.05
933.051	5818.19
933.36	5762.83
933.669	5730.97
933.977	5770.96
934.286	5739.55
934.594	5692.1
934.902	5666.79
935.21	5638.54
935.519	5656.62
935.827	5582.95
936.135	5592.21
936.443	5517.41
936.751	5537.07
937.059	5474.47
937.367	5484.42
937.674	5482.16
937.982	5421.59
938.29	5455.27
938.597	5420.24
938.905	5387.02
939.213	5330.98
939.52	5291.43
939.827	5302.05
940.135	5210.3
940.442	5225.67
940.749	5223.86
941.056	5237.87
941.363	5193.8
941.67	5215.72
941.977	5156.97
942.284	5114.48
942.591	5107.25
942.898	5048.95
943.205	5048.72
943.511	5024.54
943.818	5078.78
944.125	4998.1
944.431	4981.15
944.738	4951.55
945.044	4938.67
945.35	4915.39
945.657	4836.98
945.963	4875.17
946.269	4829.07
946.575	4802.85
946.881	4839.46
947.187	4760.14
947.493	4774.38
947.799	4728.28
948.105	4696.42
948.41	4695.29
948.716	4670.88
949.022	4625.91
949.327	4641.5
949.633	4587.27
949.938	4605.12
950.244	4633.37
950.549	4531.22
950.854	4558.79
951.16	4498.23
951.465	4454.16
951.77	4483.54
952.075	4443.77
952.38	4493.03
952.685	4481.28
952.99	4386.14
953.294	4390.89
953.599	4339.14
953.904	4323.09
954.209	4328.74
954.513	4322.41
954.818	4265.01
955.122	4277.67
955.426	4237.45
955.731	4254.17
956.035	4225.69
956.339	4180.95
956.643	4212.59
956.948	4142.98
957.252	4111.8
957.556	4115.64
957.86	4062.99
958.163	4098.92
958.467	4055.98
958.771	4049.2
959.075	4065.25
959.378	4041.29
959.682	4032.93
959.985	3974.85
960.289	3985.93
960.592	3977.79
960.896	3942.09
961.199	3940.05
961.502	3909.54
961.805	3891.24
962.108	3847.85
962.411	3869.09
962.714	3830.68
963.017	3814.86
963.32	3830.68
963.623	3795.87
963.926	3784.12
964.228	3771.69
964.531	3747.06
964.833	3738.7
965.136	3723.11
965.438	3679.49
965.741	3679.49
966.043	3673.62
966.345	3636.78
966.648	3648.99
966.95	3599.5
967.252	3539.16
967.554	3560.17
967.856	3558.37
968.158	3545.94
968.46	3508.2
968.761	3524.24
969.063	3477.47
969.365	3482.66
969.666	3457.35
969.968	3441.53
970.269	3449.22
970.571	3406.28
970.872	3416.9
971.174	3356.11
971.475	3403.79
971.776	3361.76
972.077	3324.7
972.378	3354.76
972.679	3317.02
972.98	3318.83
973.281	3283.12
973.582	3295.1
973.883	3295.1
974.183	3243.8
974.484	3245.83
974.785	3187.08
975.085	3220.97
975.386	3222.1
975.686	3151.15
975.986	3141.2
976.287	3189.79
976.587	3100.07
976.887	3118.83
977.187	3094.88
977.487	3091.03
977.787	3108.44
978.087	3049.45
978.387	3055.1
978.687	3014.2
978.987	3043.13
979.286	2984.6
979.586	3009.91
979.885	2931.94
980.185	2945.95
980.484	2902.11
980.784	2941.66
981.083	2911.38
981.382	2910.47
981.682	2875.45
981.981	2898.5
982.28	2899.85
982.579	2876.8
982.878	2838.39
983.177	2841.78
983.475	2805.84
983.774	2813.75
984.073	2805.17
984.372	2816.01
984.67	2738.95
984.969	2768.78
985.267	2733.53
985.566	2706.64
985.864	2695.34
986.162	2730.37
986.461	2660.99
986.759	2696.92
987.057	2677.03
987.355	2668.45
987.653	2666.64
987.951	2653.98
988.249	2653.98
988.547	2611.95
988.844	2587.54
989.142	2593.19
989.44	2596.81
989.737	2572.63
990.035	2567.43
990.332	2527.43
990.63	2534.44
990.927	2484.5
991.224	2497.6
991.521	2458.73
991.819	2495.34
992.116	2489.47
992.413	2466.42
992.71	2465.29
993.006	2441.79
993.303	2455.57
993.6	2421.9
993.897	2416.7
994.193	2411.5
994.49	2366.31
994.787	2401.11
995.083	2333.31
995.379	2374.9
995.676	2357.49
995.972	2309.13
996.268	2316.59
996.565	2324.73
996.861	2305.07
997.157	2287.44
997.453	2277.5
997.749	2277.27
998.044	2253.09
998.34	2223.94
998.636	2198.63
998.932	2194.56
999.227	2193.43
999.523	2192.53
999.818	2176.03
1000.114	2162.02
1000.409	2151.4
1000.704	2140.55
1001	2123.15
1001.295	2122.02
1001.59	2105.07
1001.885	2107.78
1002.18	2109.82
1002.475	2094.45
1002.77	2070.27
1003.065	2038.86
1003.359	2039.08
1003.654	2014.45
1003.949	2020.33
1004.243	2006.77
1004.538	2020.1
1004.832	1975.13
1005.127	1971.29
1005.421	1947.11
1005.715	1936.71
1006.009	1964.74
1006.304	1920.22
1006.598	1904.17
1006.892	1883.61
1007.186	1883.38
1007.48	1889.94
1007.773	1890.39
1008.067	1863.5
1008.361	1875.02
1008.655	1856.94
1008.948	1858.98
1009.242	1819.43
1009.535	1790.5
1009.829	1822.82
1010.122	1807
1010.415	1817.17
1010.708	1783.05
1011.001	1787.57
1011.295	1733.56
1011.588	1753.67
1011.881	1744.63
1012.173	1746.21
1012.466	1713.9
1012.759	1720.68
1013.052	1698.75
1013.344	1698.08
1013.637	1684.52
1013.93	1644.74
1014.222	1669.83
1014.514	1654.91
1014.807	1649.49
1015.099	1645.42
1015.391	1613.33
1015.683	1641.36
1015.976	1603.39
1016.268	1609.72
1016.56	1632.99
1016.851	1558.19
1017.143	1552.32
1017.435	1524.3
1017.727	1544.18
1018.018	1547.8
1018.31	1527.46
1018.602	1509.83
1018.893	1506.67
1019.185	1501.7
1019.476	1456.95
1019.767	1475.03
1020.058	1486.33
1020.35	1452.66
1020.641	1419.67
1020.932	1431.87
1021.223	1440.91
1021.514	1427.58
1021.804	1411.76
1022.095	1374.24
1022.386	1390.97
1022.677	1340.8
1022.967	1388.93
1023.258	1355.26
1023.548	1342.15
1023.839	1349.61
1024.129	1357.07
1024.419	1306
1024.709	1299.67
1025	1331.31
1025.29	1299.22
1025.58	1283.4
1025.87	1288.37
1026.16	1277.07
1026.449	1269.39
1026.739	1261.03
1027.029	1254.25
1027.319	1253.79
1027.608	1232.33
1027.898	1208.15
1028.187	1239.33
1028.477	1210.41
1028.766	1206.11
1029.055	1189.39
1029.344	1180.12
1029.634	1183.51
1029.923	1167.24
1030.212	1169.5
1030.501	1150.52
1030.79	1140.58
1031.078	1144.42
1031.367	1140.13
1031.656	1133.35
1031.945	1113.91
1032.233	1127.47
1032.522	1084.08
1032.81	1091.77
1033.099	1098.77
1033.387	1096.96
1033.675	1073.01
1033.963	1096.06
1034.251	1049.73
1034.54	1052.9
1034.828	1067.58
1035.116	1030.52
1035.403	1031.43
1035.691	1007.25
1035.979	1027.59
1036.267	993.69
1036.554	1011.09
1036.842	985.1
1037.129	1015.38
1037.417	984.88
1037.704	968.38
1037.992	977.42
1038.279	951.88
1038.566	963.41
1038.853	963.41
1039.14	963.41
