Data from red_shiny_book_FLMS001491_00060.txt Node
Date: Wed Feb 08 15:25:04 GMT 2017
User: dcchb
Spectrometer: FLMS00149
Trigger mode: 0
Integration Time (sec): 2.000000E-2
Scans to average: 10
Electric dark correction enabled: true
Nonlinearity correction enabled: false
Boxcar width: 0
XAxis mode: Wavelengths
Number of Pixels in Spectrum: 2048
>>>>>Begin Spectral Data<<<<<
341.393	-11.14
341.776	-11.14
342.16	-11.14
342.543	-33.52
342.927	-59.96
343.31	-69
343.693	-69.9
344.077	-73.29
344.46	-60.63
344.843	-69
345.226	-30.8
345.61	-22.89
345.993	-14.53
346.376	-19.05
346.759	1.74
347.142	36.09
347.525	34.05
347.908	68.4
348.291	89.64
348.674	99.81
349.057	99.36
349.44	123.09
349.823	146.37
350.206	177.55
350.588	215.29
350.971	215.74
351.354	249.64
351.737	259.36
352.119	265.01
352.502	272.69
352.884	304.78
353.267	273.82
353.65	320.37
354.032	299.36
354.414	316.53
354.797	332.12
355.179	322.41
355.562	324.89
355.944	333.25
356.326	352.69
356.709	345.91
357.091	351.78
357.473	358.11
357.855	353.82
358.238	354.27
358.62	362.41
359.002	369.19
359.384	357.66
359.766	354.04
360.148	361.28
360.53	340.26
360.912	328.51
361.294	334.16
361.676	358.11
362.057	368.06
362.439	359.69
362.821	353.14
363.203	341.16
363.584	329.86
363.966	339.58
364.348	344.55
364.729	333.48
365.111	327.83
365.493	337.55
365.874	328.51
366.256	347.72
366.637	333.71
367.019	358.11
367.4	342.07
367.781	335.06
368.163	344.55
368.544	333.71
368.925	326.93
369.306	342.75
369.688	334.84
370.069	321.95
370.45	316.08
370.831	330.09
371.212	335.74
371.593	324.21
371.974	338
372.355	316.31
372.736	371.67
373.117	363.31
373.498	362.86
373.879	322.41
374.26	339.81
374.641	321.73
375.021	346.36
375.402	355.85
375.783	348.17
376.163	356.53
376.544	348.85
376.925	346.36
377.305	370.99
377.686	350.2
378.066	348.17
378.447	351.11
378.827	385.91
379.208	358.56
379.588	353.59
379.968	352.91
380.349	368.06
380.729	335.29
381.109	347.04
381.489	376.87
381.87	385.46
382.25	379.13
382.63	373.25
383.01	346.13
383.39	385.46
383.77	395.63
384.15	378.9
384.53	405.57
384.91	397.43
385.29	396.76
385.67	407.6
386.049	391.33
386.429	402.63
386.809	396.76
387.189	386.36
387.568	383.2
387.948	391.56
388.328	420.26
388.707	380.94
389.087	420.48
389.466	412.57
389.846	415.51
390.225	409.41
390.605	408.96
390.984	412.12
391.363	409.41
391.743	400.37
392.122	422.29
392.501	420.48
392.881	438.11
393.26	441.05
393.639	443.99
394.018	439.47
394.397	410.09
394.776	424.33
395.155	418.9
395.534	418
395.913	444.21
396.292	434.95
396.671	427.49
397.05	450.54
397.429	450.99
397.808	444.21
398.186	474.27
398.565	467.04
398.944	450.09
399.323	440.82
399.701	476.75
400.08	460.03
400.458	462.97
400.837	499.58
401.215	467.04
401.594	462.52
401.972	457.32
402.351	461.84
402.729	476.98
403.107	488.73
403.486	480.59
403.864	485.57
404.242	488.5
404.62	517.2
404.999	493.02
405.377	483.53
405.755	479.69
406.133	495.74
406.511	495.96
406.889	501.39
407.267	505.68
407.645	527.37
408.023	544.77
408.401	533.25
408.779	554.49
409.156	534.83
409.534	526.7
409.912	536.86
410.29	532.12
410.667	552.01
411.045	525.11
411.422	578.22
411.8	546.58
412.178	583.42
412.555	599.01
412.933	586.58
413.31	584.09
413.687	593.81
414.065	607.82
414.442	592
414.819	617.99
415.197	605.11
415.574	640.36
415.951	626.58
416.328	664.77
416.705	643.08
417.082	669.74
417.46	645.79
417.837	659.12
418.214	634.94
418.591	644.43
418.967	642.17
419.344	660.25
419.721	694.6
420.098	695.05
420.475	707.71
420.852	716.75
421.228	707.03
421.605	700.25
421.982	682.17
422.358	713.58
422.735	716.07
423.111	706.13
423.488	734.37
423.864	733.02
424.241	746.58
424.617	754.71
424.994	773.69
425.37	768.5
425.746	757.88
426.123	762.62
426.499	747.03
426.875	751.55
427.251	771.21
427.627	775.5
428.003	792.68
428.379	829.74
428.756	827.93
429.132	827.03
429.507	829.51
429.883	848.04
430.259	851.66
430.635	837.65
431.011	829.29
431.387	826.12
431.763	888.04
432.138	877.42
432.514	904.09
432.89	902.05
433.265	934.59
433.641	923.97
434.016	956.29
434.392	952.45
434.767	933.01
435.143	920.13
435.518	938.66
435.894	909.74
436.269	960.36
436.644	966.01
437.02	985.21
437.395	1004.65
437.77	1020.69
438.145	1015.72
438.52	1047.81
438.895	1055.72
439.271	1045.55
439.646	1036.06
440.021	1008.49
440.395	990.41
440.77	1023.41
441.145	1044.42
441.52	1075.83
441.895	1091.43
442.27	1106.79
442.645	1084.42
443.019	1110.86
443.394	1095.49
443.769	1103.86
444.143	1055.49
444.518	1063.86
444.892	1075.38
445.267	1092.78
445.641	1105.44
446.016	1112.67
446.39	1159.9
446.764	1172.1
447.139	1187.47
447.513	1184.98
447.887	1169.16
448.262	1195.6
448.636	1162.84
449.01	1142.5
449.384	1131.88
449.758	1148.83
450.132	1149.5
450.506	1173.23
450.88	1203.51
451.254	1198.09
451.628	1269.95
452.002	1274.92
452.376	1257.07
452.75	1264.98
453.123	1266.79
453.497	1259.78
453.871	1255.94
454.244	1223.63
454.618	1245.77
454.992	1252.1
455.365	1275.6
455.739	1316.73
456.112	1334.36
456.486	1376.16
456.859	1408.71
457.232	1413.23
457.606	1414.58
457.979	1390.63
458.352	1416.16
458.725	1350.63
459.099	1358.09
459.472	1370.06
459.845	1356.73
460.218	1407.35
460.591	1426.56
460.964	1437.63
461.337	1480.57
461.71	1524.86
462.083	1579.55
462.456	1558.98
462.829	1550.17
463.201	1555.82
463.574	1502.26
463.947	1467.46
464.32	1502.71
464.692	1482.6
465.065	1485.31
465.438	1540.91
465.81	1593.11
466.183	1629.27
466.555	1701.81
466.928	1706.33
467.3	1713.78
467.672	1749.49
468.045	1750.62
468.417	1744.06
468.789	1737.74
469.161	1696.61
469.534	1656.38
469.906	1726.21
470.278	1704.74
470.65	1761.46
471.022	1771.63
471.394	1810.73
471.766	1898.86
472.138	1979.09
472.51	2024.51
472.882	2061.12
473.253	2010.05
473.625	2061.57
473.997	2014.57
474.369	1991.97
474.74	1976.83
475.112	1963.49
475.484	1968.69
475.855	2035.36
476.227	2089.82
476.598	2155.8
476.97	2226.31
477.341	2314.22
477.713	2394.89
478.084	2396.02
478.455	2427.44
478.827	2446.64
479.198	2446.19
479.569	2378.85
479.94	2407.55
480.311	2445.51
480.682	2423.82
481.053	2444.16
481.424	2495.01
481.795	2551.27
482.166	2666.98
482.537	2791.72
482.908	2863.36
483.279	2899.29
483.65	2975.44
484.021	3046.4
484.391	3053.18
484.762	3021.32
485.133	2976.8
485.503	2932.51
485.874	2924.15
486.244	2968.66
486.615	2929.8
486.985	3034.65
487.356	3128.89
487.726	3250.69
488.097	3328.43
488.467	3441.42
488.837	3526.39
489.207	3686.61
489.578	3651.13
489.948	3708.76
490.318	3698.82
490.688	3655.2
491.058	3606.84
491.428	3572.72
491.798	3564.36
492.168	3548.31
492.538	3596.44
492.908	3713.5
493.278	3740.4
493.648	3809.09
494.017	4014.74
494.387	4123.21
494.757	4216.32
495.126	4286.14
495.496	4347.61
495.866	4333.83
496.235	4312.13
496.605	4279.36
496.974	4202.3
497.344	4150.55
497.713	4097.45
498.082	4018.13
498.452	4083.89
498.821	4101.06
499.19	4204.79
499.559	4363.66
499.928	4446.82
500.298	4582.18
500.667	4719.58
501.036	4769.97
501.405	4850.42
501.774	4763.42
502.143	4791.44
502.512	4717.55
502.88	4656.53
503.249	4535.18
503.618	4494.5
503.987	4434.62
504.356	4402.3
504.724	4443.65
505.093	4500.15
505.462	4570.43
505.83	4696.08
506.199	4870.08
506.567	5026.01
506.936	5093.13
507.304	5186.23
507.672	5270.3
508.041	5224.65
508.409	5206.12
508.777	5094.71
509.145	5012.68
509.514	4907.14
509.882	4809.29
510.25	4769.75
510.618	4747.83
510.986	4747.15
511.354	4886.58
511.722	4998.44
512.09	5092.22
512.458	5236.4
512.826	5350.52
513.193	5439.79
513.561	5573.12
513.929	5660.12
514.297	5660.12
514.664	5620.57
515.032	5508.26
515.4	5372.22
515.767	5275.04
516.135	5212.45
516.502	5054.26
516.869	5075.73
517.237	5108.04
517.604	5080.25
517.972	5218.55
518.339	5316.63
518.706	5546.22
519.073	5660.57
519.44	5826.44
519.808	5994.12
520.175	5984.63
520.542	6072.54
520.909	6022.82
521.276	5983.5
521.643	5908.93
522.009	5798.2
522.376	5709.84
522.743	5587.13
523.11	5545.55
523.477	5473.68
523.843	5538.99
524.21	5569.73
524.577	5670.06
524.943	5828.02
525.31	6018.3
525.676	6249.48
526.043	6428.23
526.409	6622.35
526.776	6708
527.142	6735.12
527.508	6764.95
527.874	6718.85
528.241	6657.83
528.607	6514.33
528.973	6437.95
529.339	6293.32
529.705	6240.67
530.071	6214.46
530.437	6118.41
530.803	6204.96
531.169	6271.85
531.535	6391.85
531.901	6597.5
532.267	6784.16
532.632	7006.07
532.998	7194.09
533.364	7327.42
533.73	7445.16
534.095	7594.76
534.461	7553.4
534.826	7623.91
535.192	7450.58
535.557	7347.31
535.923	7171.72
536.288	7048.33
536.653	6921.1
537.019	6790.94
537.384	6777.83
537.749	6845.63
538.114	6947.32
538.479	7042.46
538.845	7214.65
539.21	7414.88
539.575	7679.28
539.94	7895.09
540.305	8138.25
540.67	8241.52
541.034	8332.37
541.399	8321.07
541.764	8331.69
542.129	8291.91
542.494	8152.94
542.858	7994.07
543.223	7800.4
543.587	7707.75
543.952	7532.61
544.316	7409.9
544.681	7409.9
545.045	7505.95
545.41	7596.79
545.774	7800.85
546.138	7963.11
546.503	8223.67
546.867	8415.3
547.231	8612.36
547.595	8781.17
547.959	8935.06
548.324	9061.16
548.688	8992.24
549.052	9003.76
549.416	8922.41
549.779	8789.98
550.143	8578.91
550.507	8428.63
550.871	8254.63
551.235	8051.02
551.599	8010.11
551.962	7847.86
552.326	7882.66
552.689	8003.79
553.053	8156.55
553.417	8301.86
553.78	8595.41
554.143	8735.29
554.507	9043.76
554.87	9202.17
555.234	9352.23
555.597	9412.34
555.96	9442.84
556.323	9490.3
556.686	9344.32
557.05	9273.36
557.413	9247.6
557.776	8928.73
558.139	8775.29
558.502	8653.49
558.865	8480.84
559.228	8376.66
559.59	8324.23
559.953	8371.23
560.316	8520.61
560.679	8672.24
561.041	8787.95
561.404	9114.04
561.767	9328.5
562.129	9551.99
562.492	9814.13
562.854	9988.14
563.217	10095.03
563.579	10106.1
563.941	10155.37
564.304	10130.96
564.666	10091.19
565.028	9831.08
565.39	9760.58
565.753	9548.83
566.115	9355.16
566.477	9232
566.839	9082.18
567.201	9062.74
567.563	8997.43
567.925	9139.35
568.287	9207.6
568.648	9331.66
569.01	9624.54
569.372	9844.64
569.734	10099.1
570.095	10358.3
570.457	10577.28
570.819	10747.44
571.18	10857.27
571.542	11010.71
571.903	11011.17
572.265	11040.77
572.626	10868.8
572.987	10774.11
573.349	10592.87
573.71	10469.26
574.071	10245.99
574.432	10053.22
574.794	10058.65
575.155	9927.8
575.516	9921.93
575.877	10033.79
576.238	10213.67
576.599	10394.46
576.96	10758.29
577.32	10959.42
577.681	11370.93
578.042	11714.65
578.403	11993.74
578.763	12308.53
579.124	12686.6
579.485	12888.63
579.845	13117.55
580.206	13087.49
580.566	13205.01
580.927	13178.57
581.287	13204.55
581.648	13080.26
582.008	13187.15
582.368	13213.59
582.728	13254.5
583.089	13276.87
583.449	13483.64
583.809	13712.56
584.169	14075.27
584.529	14425.99
584.889	14950.04
585.249	15449.47
585.609	16075.21
585.969	16757.45
586.329	17408.06
586.688	18104.99
587.048	18677.63
587.408	19298.41
587.768	19894.55
588.127	20377.25
588.487	20743.79
588.846	21309.2
589.206	21456.09
589.565	21787.83
589.925	22106.01
590.284	22389.85
590.643	22592.56
591.003	22955.94
591.362	23283.16
591.721	23647.44
592.08	24008.56
592.44	24726.06
592.799	25182.54
593.158	25804.22
593.517	26507.71
593.876	27198.31
594.235	28091.62
594.593	28808.66
594.952	29603.9
595.311	30173.83
595.67	31134.7
596.029	32062.14
596.387	32497.15
596.746	33142.56
597.104	33722.88
597.463	34055.08
597.822	34643.54
598.18	34854.15
598.538	35069.97
598.897	35627.69
599.255	35499.33
599.613	36306.77
599.972	36305.42
600.33	36739.98
600.688	37012.97
601.046	37461.09
601.404	38106.5
601.762	38461.29
602.12	39285.22
602.478	39763.4
602.836	40418.98
603.194	40905.07
603.552	41629.34
603.91	42008.32
604.268	42779.6
604.625	43404.66
604.983	43779.8
605.341	44093.23
605.698	44815.47
606.056	45179.31
606.413	45429.02
606.771	45720.54
607.128	45942.9
607.485	45724.6
607.843	45970.47
608.2	46230.58
608.557	46389.44
608.914	46242.33
609.272	46665.6
609.629	46732.49
609.986	47231.68
610.343	47124.57
610.7	47743.08
611.057	47936.3
611.414	48122.73
611.771	48626.22
612.127	48969.72
612.484	49287.67
612.841	49666.65
613.198	49846.08
613.554	50223.02
613.911	50668.65
614.267	50832.72
614.624	50970.11
614.98	51182.54
615.337	51452.14
615.693	51494.17
616.05	51430.22
616.406	51641.96
616.762	51414.4
617.118	51524.22
617.475	51452.59
617.831	51501.85
618.187	51360.16
618.543	51400.16
618.899	51582.75
619.255	51495.75
619.611	51564.22
619.967	51755.18
620.323	51908.85
620.678	51900.94
621.034	52055.51
621.39	52081.05
621.746	52373.69
622.101	52937.29
622.457	52794.47
622.812	53095.93
623.168	53282.82
623.523	53317.17
623.879	53500.44
624.234	53419.99
624.589	53581.12
624.945	53593.55
625.3	53607.56
625.655	53566.2
626.01	53504.06
626.365	53546.54
626.72	53326.44
627.075	53243.28
627.43	53117.63
627.785	53016.16
628.14	53057.52
628.495	53048.03
628.85	52993.11
629.205	52847.35
629.559	53062.94
629.914	52954.92
630.269	53094.8
630.623	53118.53
630.978	53250.28
631.332	53378.19
631.687	53449.82
632.041	53544.06
632.396	53726.88
632.75	53669.48
633.104	53904.05
633.459	53884.16
633.813	53980.88
634.167	53903.14
634.521	53921.9
634.875	53971.39
635.229	53898.63
635.583	53582.48
635.937	53731.85
636.291	53476.49
636.645	53410.5
636.999	53195.82
637.352	53203.05
637.706	52893.68
638.06	53031.98
638.413	52705.44
638.767	52595.38
639.121	52644.42
639.474	52501.15
639.828	52466.35
640.181	52680.8
640.534	52679.22
640.888	52697.98
641.241	52704.08
641.594	52868.6
641.947	53100
642.301	53045.09
642.654	53293.44
643.007	53313.33
643.36	53376.15
643.713	53390.62
644.066	53562.81
644.419	53384.97
644.771	53219.32
645.124	52860.01
645.477	52680.35
645.83	52489.17
646.182	52249.85
646.535	52082.63
646.888	52107.26
647.24	51775.29
647.593	51746.59
647.945	51690.55
648.298	51308.86
648.65	51282.87
649.002	51009.89
649.355	51152.48
649.707	51055.54
650.059	51138.7
650.411	51529.42
650.763	51721.51
651.115	52126.24
651.467	52055.06
651.819	52256.63
652.171	52236.97
652.523	52230.42
652.875	52269.74
653.227	52266.13
653.578	52646.45
653.93	52595.16
654.282	52564.65
654.633	52537.76
654.985	52528.27
655.337	52569.17
655.688	52590.19
656.039	52702.27
656.391	52273.81
656.742	52209.63
657.094	52080.37
657.445	52106.13
657.796	51837.66
658.147	51730.09
658.498	51548.18
658.849	51660.94
659.2	51451.23
659.551	51302.08
659.902	51351.35
660.253	51323.78
660.604	51415.98
660.955	51254.4
661.306	51416.2
661.656	51418.69
662.007	51594.28
662.358	51623.66
662.708	51649.19
663.059	51812.35
663.409	51734.16
663.76	52073.59
664.11	52145.68
664.461	52239.91
664.811	52208.73
665.161	52303.64
665.511	52173.47
665.862	52203.75
666.212	52331.43
666.562	52213.7
666.912	52100.25
667.262	51976.19
667.612	51841.28
667.962	51688.97
668.312	51483.77
668.662	51520.61
669.011	51336.21
669.361	51173.73
669.711	51094.18
670.06	50979.38
670.41	50882.66
670.76	50816.9
671.109	50801.98
671.459	50777.35
671.808	50652.83
672.157	50992.49
672.507	50611.03
672.856	50744.58
673.205	50968.08
673.554	51126.72
673.904	51053.28
674.253	51385.24
674.602	51244.23
674.951	50964.92
675.3	50953.62
675.649	51470.67
675.998	51480.38
676.346	51625.01
676.695	51696.42
677.044	51425.02
677.393	51525.58
677.741	51563.09
678.09	51245.59
678.438	51251.24
678.787	51156.78
679.135	51004.24
679.484	50663.46
679.832	50682.21
680.181	50378.72
680.529	50378.27
680.877	50158.16
681.225	50086.75
681.573	50158.16
681.922	49885.17
682.27	49788
682.618	49760.65
682.966	49699.87
683.314	49775.8
683.661	49703.26
684.009	49713.2
684.357	49662.58
684.705	49703.71
685.053	49849.01
685.4	49924.04
685.748	49813.31
686.095	49920.88
686.443	50024.38
686.79	49905.96
687.138	50140.31
687.485	50163.13
687.832	50049.69
688.18	50178.95
688.527	49997.48
688.874	49965.17
689.221	49799.75
689.568	49706.19
689.915	49562.47
690.262	49362.93
690.609	49207.68
690.956	49151.18
691.303	48842.49
691.65	48550.29
691.997	48409.73
692.344	48094.03
692.69	47954.15
693.037	47945.11
693.383	47376.54
693.73	47510.54
694.077	47200.5
694.423	47230.78
694.769	47128.41
695.116	47065.36
695.462	47048.64
695.808	47033.49
696.155	47079.14
696.501	46945.14
696.847	47044.57
697.193	46923.22
697.539	47116.43
697.885	46893.39
698.231	46984.46
698.577	47107.39
698.923	47126.15
699.269	47027.17
699.614	46952.14
699.96	47014.29
700.306	46934.74
700.651	46715.54
700.997	46523.23
701.342	46639.83
701.688	46448.65
702.033	46302.67
702.379	46091.6
702.724	45854.99
703.069	45768.67
703.415	45266.99
703.76	45069.25
704.105	45078.07
704.45	44805.3
704.795	44558.76
705.14	44246.45
705.485	44106.57
705.83	43791.55
706.175	43882.62
706.52	43678.33
706.865	43462.06
707.209	43537.09
707.554	43444.44
707.899	43594.04
708.243	43427.26
708.588	43414.61
708.932	43335.06
709.277	43382.07
709.621	43598.78
709.966	43341.61
710.31	43585
710.654	43375.29
710.998	43614.38
711.342	43653.24
711.687	43454.61
712.031	43449.41
712.375	43378
712.719	43577.09
713.063	43391.33
713.407	43375.74
713.75	43218.68
714.094	43202.64
714.438	43010.78
714.782	42900.72
715.125	42618.7
715.469	42485.14
715.812	42121.31
716.156	41889
716.499	41779.17
716.843	41810.81
717.186	41534.88
717.53	41319.75
717.873	41282.01
718.216	41108.68
718.559	40788.24
718.902	40636.15
719.246	40628.24
719.589	40545.3
719.932	40337.4
720.275	40494.68
720.617	40403.16
720.96	40433.22
721.303	40380.34
721.646	40564.06
721.989	40483.16
722.331	40737.16
722.674	40706.2
723.016	40803.38
723.359	40756.15
723.701	40680.67
724.044	40797.5
724.386	40657.39
724.729	40863.26
725.071	40800.89
725.413	40883.37
725.755	40776.71
726.097	40544.4
726.439	40390.28
726.782	40416.04
727.124	40498.98
727.465	40179.21
727.807	39983.28
728.149	39709.85
728.491	39697.42
728.833	39554.14
729.175	39397.76
729.516	39018.79
729.858	39022.41
730.199	38791
730.541	38664
730.882	38596.43
731.224	38601.17
731.565	38281.86
731.906	38304.23
732.248	38207.74
732.589	38106.27
732.93	37938.82
733.271	38009.55
733.612	38068.31
733.953	38074.41
734.294	38065.37
734.635	38021.75
734.976	38253.84
735.317	38168.19
735.658	38223.11
735.999	38192.82
736.339	38263.1
736.68	38524.34
737.021	38461.52
737.361	38250
737.702	38633.26
738.042	38531.8
738.383	38555.98
738.723	38619.48
739.063	38383.33
739.404	38482.31
739.744	38210.22
740.084	38202.99
740.424	38290.67
740.764	38041.64
741.104	38160.73
741.444	37717.36
741.784	37478.49
742.124	37582.67
742.464	37427.19
742.804	37104.26
743.143	36916.7
743.483	36924.16
743.823	36591.06
744.162	36627.44
744.502	36434
744.841	36290.05
745.181	36398.97
745.52	36130.28
745.86	36109.71
746.199	36028.13
746.538	35996.95
746.877	36039.21
747.216	36010.06
747.556	35979.1
747.895	36030.62
748.234	35963.73
748.573	35910.62
748.911	35972.54
749.25	36133.67
749.589	36126.89
749.928	36207.79
750.267	36261.12
750.605	36269.94
750.944	36168.47
751.283	36194.46
751.621	36235.36
751.96	36201.24
752.298	36053.67
752.636	36172.76
752.975	35990.85
753.313	35805.99
753.651	35976.61
753.989	35790.17
754.327	35608.94
754.666	35518.54
755.004	35428.38
755.342	35404.65
755.679	35166.24
756.017	34775.74
756.355	34780.71
756.693	34540.49
757.031	34514.95
757.368	34226.6
757.706	34123.78
758.044	33773.28
758.381	33804.24
758.719	33532.83
759.056	33480.4
759.394	33496.68
759.731	33154.09
760.068	33037.48
760.405	32971.04
760.743	32859.18
761.08	32884.94
761.417	32751.16
761.754	32760.2
762.091	32726.53
762.428	32707.54
762.765	32533.76
763.102	32957.03
763.438	32606.53
763.775	32604.5
764.112	32817.37
764.449	32995.22
764.785	32692.86
765.122	32709.58
765.458	32641.33
765.795	32631.61
766.131	32609.92
766.467	32574.44
766.804	32604.04
767.14	32367.44
767.476	32352.98
767.812	32288.35
768.148	32355.46
768.485	31993.89
768.821	31828.92
769.157	31664.18
769.492	31624.63
769.828	31597.06
770.164	31203.63
770.5	31038.66
770.836	30941.26
771.171	30508.73
771.507	30455.17
771.842	30184.9
772.178	30140.83
772.513	29983.1
772.849	29942.19
773.184	29568.64
773.519	29484.13
773.855	29288.65
774.19	29170.24
774.525	29046.62
774.86	29016.57
775.195	28878.94
775.53	28774.99
775.865	28680.08
776.2	28408.9
776.535	28393.53
776.87	28473.31
777.205	28211.62
777.539	28277.15
777.874	28393.53
778.209	28069.7
778.543	28168.91
778.878	28029.47
779.212	28225.4
779.547	28075.12
779.881	28135.01
780.215	28152.41
780.55	28163.26
780.884	28003.71
781.218	28001
781.552	27973.21
781.886	27759.65
782.22	27803.94
782.554	27675.81
782.888	27429.72
783.222	27288.48
783.556	27262.49
783.889	27162.15
784.223	26894.36
784.557	26666.12
784.89	26830.18
785.224	26597.87
785.557	26406.92
785.891	26234.04
786.224	26163.54
786.558	25979.59
786.891	25791.57
787.224	25604
787.557	25463.89
787.891	25371.92
788.224	25348.19
788.557	25108.87
788.89	25044.92
789.223	24889.22
789.556	24769.45
789.888	24670.47
790.221	24623.91
790.554	24316.8
790.887	24310.48
791.219	24336.92
791.552	24259.63
791.884	24202.91
792.217	24236.35
792.549	24091.95
792.882	23932.63
793.214	23964.95
793.546	24033.65
793.879	23938.96
794.211	23881.34
794.543	23996.59
794.875	23774.67
795.207	24059.18
795.539	23932.41
795.871	23982.8
796.203	23930.37
796.535	23739.19
796.867	23650.83
797.198	23662.36
797.53	23690.15
797.862	23351.86
798.193	23621.23
798.525	23409.48
798.856	23429.14
799.188	23239.09
799.519	23187.34
799.85	22922.26
800.182	22915.49
800.513	22820.8
800.844	22627.58
801.175	22710.29
801.506	22576.06
801.837	22515.95
802.168	22304.65
802.499	22216.07
802.83	21963.19
803.161	21705.8
803.491	21856.98
803.822	21678.23
804.153	21590.55
804.483	21342.65
804.814	21369.54
805.145	21292.7
805.475	21172.25
805.805	21111.69
806.136	21134.29
806.466	20972.26
806.796	21011.58
807.126	20867.4
807.457	20747.41
807.787	20925.48
808.117	20748.31
808.447	20709.44
808.777	20882.32
809.107	20750.12
809.436	20707.86
809.766	20673.06
810.096	20868.99
810.426	20769.1
810.755	20701.98
811.085	20662.66
811.414	20712.61
811.744	20649.33
812.073	20631.25
812.403	20610.91
812.732	20572.95
813.061	20565.94
813.39	20500.41
813.719	20591.25
814.049	20535.21
814.378	20523.01
814.707	20380.18
815.036	20294.76
815.365	20352.61
815.693	20038.72
816.022	20218.38
816.351	20100.19
816.68	19884.83
817.008	19886.86
817.337	19682.12
817.665	19596.02
817.994	19613.88
818.322	19521.45
818.651	19330.04
818.979	19178.86
819.307	19236.71
819.636	19084.63
819.964	18971.63
820.292	18951.07
820.62	18900.9
820.948	18818.64
821.276	18928.25
821.604	18752.88
821.932	18751.53
822.259	18723.96
822.587	18722.15
822.915	18640.57
823.243	18802.6
823.57	18672.21
823.898	18746.33
824.225	18663.62
824.553	18613.68
824.88	18677.4
825.207	18772.32
825.535	18690.74
825.862	19001.24
826.189	18780.68
826.516	19019.99
826.843	19091.86
827.17	18999.43
827.497	19045.76
827.824	19027.45
828.151	19133.66
828.478	19262.47
828.805	19292.3
829.131	19218.63
829.458	19208.01
829.785	19269.48
830.111	19126.88
830.438	19325.52
830.764	19340.21
831.09	19312.42
831.417	19214.11
831.743	19267.45
832.069	19372.75
832.395	19091.63
832.722	19277.39
833.048	19076.26
833.374	19152.19
833.7	19008.02
834.026	19034.23
834.351	18980.67
834.677	18939.09
835.003	18936.61
835.329	18778.19
835.654	18789.72
835.98	18578.88
836.306	18623.17
836.631	18449.39
836.956	18356.73
837.282	18370.07
837.607	18205.55
837.932	18154.71
838.258	18137.08
838.583	18136.63
838.908	17987.71
839.233	18034.94
839.558	17878.33
839.883	17932.11
840.208	17895.05
840.533	17837.2
840.858	17826.81
841.182	17839.46
841.507	17756.52
841.832	17762.85
842.156	17742.74
842.481	17765.79
842.805	17757.43
843.13	17808.5
843.454	17735.96
843.778	17797.88
844.103	17695.96
844.427	17809.63
844.751	17779.57
845.075	17783.87
845.399	17784.55
845.723	17713.59
846.047	17749.75
846.371	17707.03
846.695	17662.06
847.019	17595.4
847.343	17600.6
847.666	17526.7
847.99	17382.52
848.313	17417.78
848.637	17359.25
848.96	17222.3
849.284	17239.7
849.607	17091.68
849.931	17009.65
850.254	16955.19
850.577	16796.78
850.9	16710.22
851.223	16732.6
851.546	16533.28
851.869	16442.66
852.192	16412.83
852.515	16324.25
852.838	16131.48
853.161	16161.54
853.483	15963.13
853.806	15962.9
854.129	15945.05
854.451	15790.93
854.774	15594.32
855.096	15627.54
855.419	15479.52
855.741	15402.24
856.063	15337.61
856.385	15209.92
856.708	15159.3
857.03	15046.09
857.352	15075.01
857.674	15005.86
857.996	14943.94
858.318	14888.8
858.64	14907.56
858.961	14834.34
859.283	14838.64
859.605	14763.16
859.926	14768.13
860.248	14747.56
860.57	14719.54
860.891	14726.77
861.212	14689.26
861.534	14683.84
861.855	14636.61
862.176	14694.01
862.498	14710.5
862.819	14661.24
863.14	14595.48
863.461	14703.5
863.782	14672.76
864.103	14731.75
864.424	14694.91
864.745	14661.01
865.065	14732.65
865.386	14630.51
865.707	14636.15
866.027	14597.29
866.348	14692.42
866.668	14664.18
866.989	14546.67
867.309	14545.31
867.63	14568.36
867.95	14529.94
868.27	14455.14
868.59	14425.76
868.91	14404.3
869.23	14497.4
869.55	14256.28
869.87	14416.95
870.19	14364.3
870.51	14348.25
870.83	14324.75
871.15	14174.25
871.469	14115.72
871.789	14051.54
872.109	14024.87
872.428	14025.1
872.748	13995.04
873.067	13861.03
873.386	13878.89
873.706	13776.29
874.025	13689.96
874.344	13615.62
874.663	13575.62
874.982	13594.6
875.301	13560.93
875.62	13465.56
875.939	13398.45
876.258	13419.01
876.577	13345.12
876.896	13310.77
877.214	13272.12
877.533	13334.95
877.852	13325.68
878.17	13234.61
878.489	13315.06
878.807	13226.47
879.125	13286.59
879.444	13311.44
879.762	13235.29
880.08	13249.98
880.398	13141.05
880.716	13194.16
881.034	13188.51
881.352	13248.62
881.67	13183.76
881.988	13265.57
882.306	13180.6
882.624	13146.48
882.941	13199.58
883.259	13119.13
883.577	13158.68
883.894	13158
884.212	13209.98
884.529	13214.27
884.846	13116.42
885.164	13230.32
885.481	13092.01
885.798	13140.6
886.115	13004.79
886.432	13015.63
886.75	13047.95
887.067	12996.2
887.383	13009.3
887.7	13016.99
888.017	12940.61
888.334	12931.11
888.651	12867.84
888.967	12798.46
889.284	12731.57
889.6	12636.66
889.917	12566.83
890.233	12569.99
890.55	12440.73
890.866	12423.56
891.182	12359.38
891.498	12343.56
891.815	12277.12
892.131	12173.17
892.447	12158.93
892.763	12060.4
893.079	11938.6
893.395	11985.6
893.71	11895.21
894.026	11884.36
894.342	11772.73
894.657	11735.89
894.973	11639.4
895.289	11581.55
895.604	11624.48
895.92	11457.03
896.235	11452.96
896.55	11462.45
896.865	11430.36
897.181	11405.96
897.496	11363.92
897.811	11333.87
898.126	11298.62
898.441	11257.03
898.756	11215.91
899.071	11115.12
899.386	11225.62
899.7	11132.07
900.015	11029.24
900.33	11014.1
900.644	11017.72
900.959	11026.98
901.273	11021.56
901.588	10930.04
901.902	10890.94
902.216	10986.31
902.531	10892.52
902.845	10890.26
903.159	10823.37
903.473	10844.62
903.787	10809.59
904.101	10814.56
904.415	10763.04
904.729	10727.56
905.042	10732.53
905.356	10689.59
905.67	10677.16
905.984	10680.78
906.297	10640.33
906.611	10617.73
906.924	10646.88
907.237	10540.22
907.551	10480.56
907.864	10408.24
908.177	10398.07
908.491	10396.49
908.804	10339.54
909.117	10244.18
909.43	10237.85
909.743	10155.82
910.056	10056.84
910.368	10031.3
910.681	9973.23
910.994	9970.06
911.307	9904.53
911.619	9837.18
911.932	9826.34
912.244	9688.04
912.557	9618.89
912.869	9530.75
913.181	9525.1
913.494	9510.41
913.806	9450.53
914.118	9333.7
914.43	9168.28
914.742	9294.15
915.054	9214.38
915.366	9180.25
915.678	9065
915.99	9063.87
916.302	8912.69
916.613	8887.61
916.925	8870.43
917.236	8792.47
917.548	8780.72
917.859	8815.06
918.171	8760.6
918.482	8627.05
918.794	8645.13
919.105	8667.72
919.416	8589.53
919.727	8608.52
920.038	8556.77
920.349	8552.47
920.66	8552.25
920.971	8472.25
921.282	8510.44
921.593	8484.68
921.903	8411.91
922.214	8395.41
922.525	8383.89
922.835	8339.6
923.146	8312.03
923.456	8338.02
923.767	8270.9
924.077	8265.47
924.387	8241.29
924.697	8203.33
925.008	8266.15
925.318	8204.46
925.628	8218.47
925.938	8170.34
926.248	8161.52
926.558	8038.14
926.867	8034.29
927.177	8075.65
927.487	8002.2
927.796	7939.61
928.106	7927.86
928.416	7930.79
928.725	7904.13
929.034	7836.79
929.344	7802.66
929.653	7771.48
929.962	7755.43
930.271	7677.69
930.581	7658.03
930.89	7649.9
931.199	7553.18
931.508	7543.46
931.817	7484.25
932.125	7431.37
932.434	7442.67
932.743	7276.12
933.051	7271.6
933.36	7253.52
933.669	7133.3
933.977	7154.09
934.286	7158.39
934.594	7067.99
934.902	7032.06
935.21	6964.27
935.519	6959.52
935.827	6949.58
936.135	6883.14
936.443	6796.36
936.751	6772.18
937.059	6764.72
937.367	6661.9
937.674	6680.66
937.982	6606.54
938.29	6619.64
938.597	6582.58
938.905	6505.75
939.213	6469.36
939.52	6433.88
939.827	6452.87
940.135	6418.97
940.442	6408.8
940.749	6388.01
941.056	6388.69
941.363	6301.01
941.67	6298.97
941.977	6286.09
942.284	6240.67
942.591	6309.14
942.898	6199.77
943.205	6195.02
943.511	6195.7
943.818	6195.92
944.125	6127
944.431	6157.73
944.738	6184.63
945.044	6141.01
945.35	6072.09
945.657	6068.92
945.963	6094.01
946.269	6058.98
946.575	6028.25
946.881	6072.76
947.187	6037.51
947.493	6023.05
947.799	5972.2
948.105	5964.74
948.41	5905.76
948.716	5912.99
949.022	5908.7
949.327	5893.33
949.633	5804.52
949.938	5774.69
950.244	5828.93
950.549	5740.12
950.854	5725.2
951.16	5687.46
951.465	5681.14
951.77	5711.42
952.075	5619.44
952.38	5646.33
952.685	5569.05
952.99	5560.01
953.294	5577.64
953.599	5497.19
953.904	5421.93
954.209	5412.44
954.513	5422.84
954.818	5377.42
955.122	5379.45
955.426	5286.57
955.731	5291.99
956.035	5207.25
956.339	5200.7
956.643	5186.46
956.948	5157.08
957.252	5115.5
957.556	5142.62
957.86	5033.02
958.163	5018.78
958.467	4994.83
958.771	4982.17
959.075	4932.68
959.378	4939.01
959.682	4870.99
959.985	4800.26
960.289	4849.52
960.592	4799.13
960.896	4757.54
961.199	4775.17
961.502	4776.53
961.805	4722.07
962.108	4702.86
962.411	4689.07
962.714	4647.94
963.017	4638.9
963.32	4594.38
963.623	4594.61
963.926	4577.66
964.228	4573.37
964.531	4557.32
964.833	4593.25
965.136	4543.54
965.438	4501.73
965.741	4497.21
966.043	4468.74
966.345	4484.78
966.648	4455.41
966.95	4468.96
967.252	4447.27
967.554	4437.1
967.856	4428.06
968.158	4349.65
968.46	4348.52
968.761	4322.98
969.063	4327.27
969.365	4329.76
969.666	4315.52
969.968	4283.88
970.269	4289.53
970.571	4266.71
970.872	4264.45
971.174	4226.03
971.475	4244.11
971.776	4224.9
972.077	4205.02
972.378	4191.68
972.679	4143.78
972.98	4133.83
973.281	4101.29
973.582	4156.43
973.883	4093.83
974.183	4079.6
974.484	4038.47
974.785	4019.26
975.085	4028.75
975.386	4014.51
975.686	3996.43
975.986	3923.22
976.287	3975.64
976.587	3922.99
976.887	3877.34
977.187	3907.17
977.487	3871.92
977.787	3821.07
978.087	3779.27
978.387	3779.49
978.687	3748.31
978.987	3730
979.286	3711.24
979.586	3689.55
979.885	3672.15
980.185	3649.55
980.484	3638.48
980.784	3602.09
981.083	3640.06
981.382	3565.49
981.682	3537.69
981.981	3508.99
982.28	3525.03
982.579	3527.29
982.878	3480.52
983.177	3449.56
983.475	3430.57
983.774	3408.43
984.073	3393.74
984.372	3370.46
984.67	3345.38
984.969	3336.11
985.267	3320.07
985.566	3323.68
985.864	3287.07
986.162	3294.31
986.461	3285.72
986.759	3235.32
987.057	3217.92
987.355	3183.12
987.653	3226.51
987.951	3209.11
988.249	3167.53
988.547	3127.08
988.844	3128.66
989.142	3168.21
989.44	3114.42
989.737	3145.16
990.035	3089.11
990.332	3109.68
990.63	3057.7
990.927	3085.5
991.224	3072.16
991.521	3052.28
991.819	3034.65
992.116	3027.65
992.413	3027.42
992.71	3045.73
993.006	3046.18
993.303	3022
993.6	3024.03
993.897	2991.49
994.193	2963.24
994.49	2942.45
994.787	2949.23
995.083	2937.25
995.379	2922.34
995.676	2884.6
995.972	2896.12
996.268	2882.79
996.565	2856.35
996.861	2823.58
997.157	2827.65
997.453	2834.21
997.749	2848.22
998.044	2836.01
998.34	2799.18
998.636	2780.2
998.932	2747.43
999.227	2757.15
999.523	2728.45
999.818	2696.36
1000.114	2725.28
1000.409	2671.95
1000.704	2650.71
1001	2653.64
1001.295	2617.49
1001.59	2634.66
1001.885	2627.43
1002.18	2572.97
1002.475	2586.08
1002.77	2528
1003.065	2536.59
1003.359	2507.21
1003.654	2499.3
1003.949	2508.34
1004.243	2468.79
1004.538	2451.16
1004.832	2457.94
1005.127	2372.97
1005.421	2422.92
1005.715	2406.19
1006.009	2380.21
1006.304	2336.14
1006.598	2330.94
1006.892	2342.01
1007.186	2327.55
1007.48	2259.98
1007.773	2245.07
1008.067	2273.54
1008.361	2209.59
1008.655	2256.37
1008.948	2207.55
1009.242	2217.72
1009.535	2170.04
1009.829	2164.62
1010.122	2180.44
1010.415	2127.11
1010.708	2126.43
1011.001	2145.18
1011.295	2097.73
1011.588	2090.72
1011.881	2088.24
1012.173	2045.75
1012.466	2057.73
1012.759	2037.39
1013.052	2029.48
1013.344	1981.57
1013.637	2003.94
1013.93	1978.63
1014.222	2001.01
1014.514	1975.24
1014.807	1952.65
1015.099	1956.49
1015.391	1958.75
1015.683	1925.75
1015.976	1919.88
1016.268	1913.1
1016.56	1899.77
1016.851	1933.89
1017.143	1902.93
1017.435	1904.51
1017.727	1885.53
1018.018	1847.11
1018.31	1853.89
1018.602	1849.37
1018.893	1843.95
1019.185	1815.25
1019.476	1807.34
1019.767	1819.77
1020.058	1781.58
1020.35	1771.41
1020.641	1764.4
1020.932	1744.29
1021.223	1724.86
1021.514	1734.8
1021.804	1741.58
1022.095	1713.1
1022.386	1710.17
1022.677	1706.55
1022.967	1665.2
1023.258	1648.7
1023.548	1631.3
1023.839	1650.28
1024.129	1653.22
1024.419	1643.95
1024.709	1594.92
1025	1583.16
1025.29	1566.89
1025.58	1604.63
1025.87	1563.73
1026.16	1547.69
1026.449	1562.15
1026.739	1534.13
1027.029	1531.41
1027.319	1508.82
1027.608	1520.34
1027.898	1500.23
1028.187	1487.35
1028.477	1474.69
1028.766	1465.43
1029.055	1453.22
1029.344	1418.65
1029.634	1425.88
1029.923	1411.64
1030.212	1421.36
1030.501	1381.14
1030.79	1392.44
1031.078	1358.76
1031.367	1355.83
1031.656	1338.88
1031.945	1337.97
1032.233	1311.08
1032.522	1336.17
1032.81	1285.77
1033.099	1312.21
1033.387	1302.04
1033.675	1281.25
1033.963	1247.13
1034.251	1239.67
1034.54	1235.83
1034.828	1234.7
1035.116	1228.82
1035.403	1229.05
1035.691	1195.38
1035.979	1219.11
1036.267	1177.3
1036.554	1178.66
1036.842	1196.28
1037.129	1161.71
1037.417	1151.31
1037.704	1152.44
1037.992	1136.4
1038.279	1119
1038.566	1121.26
1038.853	1121.26
1039.14	1121.26
