Data from red_cardboard_box_FLMS001491_00004.txt Node
Date: Wed Feb 08 11:31:23 GMT 2017
User: dcchb
Spectrometer: FLMS00149
Trigger mode: 0
Integration Time (sec): 2.000000E-2
Scans to average: 10
Electric dark correction enabled: true
Nonlinearity correction enabled: false
Boxcar width: 0
XAxis mode: Wavelengths
Number of Pixels in Spectrum: 2048
>>>>>Begin Spectral Data<<<<<
341.393	-18.4
341.776	-18.4
342.16	-18.4
342.543	-57.95
342.927	-62.7
343.31	-69.93
343.693	-80.1
344.077	-78.74
344.46	-55.69
344.843	-30.38
345.226	-28.12
345.61	-24.28
345.993	-18.63
346.376	-24.28
346.759	-5.07
347.142	55.94
347.525	37.87
347.908	74.02
348.291	63.85
348.674	81.25
349.057	102.27
349.44	122.61
349.823	140.46
350.206	173.91
350.588	191.31
350.971	207.13
351.354	240.57
351.737	235.83
352.119	253.91
352.502	260.91
352.884	285.77
353.267	283.28
353.65	295.94
354.032	290.74
354.414	290.06
354.797	296.62
355.179	317.41
355.562	327.58
355.944	332.77
356.326	314.92
356.709	320.12
357.091	326.22
357.473	335.49
357.855	360.57
358.238	352.43
358.62	349.04
359.002	325.77
359.384	342.72
359.766	334.13
360.148	343.17
360.53	343.17
360.912	338.42
361.294	361.7
361.676	320.8
362.057	327.8
362.439	313.57
362.821	343.39
363.203	328.25
363.584	328.93
363.966	297.29
364.348	326.22
364.729	321.02
365.111	327.35
365.493	306.56
365.874	305.66
366.256	323.28
366.637	310.4
367.019	304.53
367.4	315.37
367.781	313.34
368.163	314.02
368.544	303.4
368.925	324.41
369.306	311.98
369.688	305.43
370.069	301.14
370.45	311.98
370.831	308.82
371.212	313.11
371.593	318.54
371.974	321.7
372.355	305.88
372.736	320.57
373.117	313.34
373.498	316.5
373.879	308.37
374.26	306.79
374.641	313.57
375.021	317.86
375.402	311.98
375.783	305.2
376.163	320.12
376.544	308.59
376.925	319.21
377.305	315.15
377.686	323.73
378.066	330.97
378.447	322.38
378.827	334.81
379.208	315.6
379.588	327.8
379.968	333.23
380.349	307.92
380.729	326.67
381.109	325.54
381.489	319.67
381.87	341.81
382.25	329.84
382.63	341.36
383.01	351.76
383.39	312.21
383.77	330.06
384.15	359.44
384.53	334.36
384.91	319.67
385.29	337.07
385.67	339.78
386.049	320.57
386.429	336.62
386.809	348.37
387.189	369.38
387.568	327.12
387.948	342.94
388.328	347.24
388.707	351.98
389.087	334.13
389.466	366.45
389.846	347.01
390.225	332.32
390.605	335.03
390.984	360.57
391.363	333.9
391.743	357.86
392.122	336.16
392.501	351.98
392.881	357.41
393.26	348.37
393.639	356.73
394.018	366.45
394.397	364.19
394.776	341.14
395.155	372.32
395.534	339.78
395.913	358.31
396.292	370.06
396.671	367.8
397.05	355.15
397.429	395.14
397.808	362.15
398.186	367.35
398.565	370.51
398.944	378.87
399.323	370.06
399.701	377.52
400.08	358.08
400.458	356.95
400.837	386.78
401.215	399.89
401.594	369.16
401.972	396.5
402.351	362.83
402.729	384.07
403.107	370.29
403.486	377.74
403.864	387.69
404.242	379.1
404.62	394.47
404.999	381.81
405.377	390.4
405.755	387.01
406.133	406.44
406.511	410.74
406.889	401.02
407.267	403.51
407.645	407.57
408.023	387.91
408.401	398.99
408.779	398.99
409.156	402.83
409.534	413.22
409.912	410.29
410.29	428.59
410.667	408.48
411.045	408.03
411.422	398.53
411.8	404.86
412.178	419.78
412.555	432.66
412.933	432.43
413.31	412.55
413.687	426.56
414.065	441.25
414.442	418.65
414.819	441.02
415.197	437.86
415.574	437.63
415.951	432.88
416.328	432.43
416.705	448.25
417.082	462.71
417.46	440.57
417.837	458.87
418.214	437.4
418.591	448.25
418.967	439.44
419.344	449.61
419.721	448.02
420.098	471.75
420.475	481.24
420.852	472.88
421.228	497.06
421.605	464.97
421.982	462.04
422.358	456.61
422.735	496.39
423.111	460.45
423.488	460.23
423.864	465.88
424.241	476.72
424.617	507.01
424.994	481.02
425.37	469.04
425.746	499.32
426.123	503.16
426.499	482.6
426.875	508.36
427.251	481.24
427.627	496.16
428.003	493.22
428.379	516.27
428.756	519.21
429.132	518.76
429.507	529.6
429.883	528.25
430.259	509.27
430.635	531.64
431.011	532.09
431.387	536.16
431.763	553.56
432.138	554.24
432.514	554.46
432.89	544.29
433.265	537.06
433.641	558.98
434.016	562.15
434.392	553.11
434.767	554.46
435.143	544.52
435.518	575.93
435.894	585.2
436.269	562.37
436.644	577.74
437.02	582.48
437.395	571.86
437.77	595.37
438.145	610.51
438.52	604.63
438.895	610.28
439.271	608.92
439.646	592.2
440.021	594.01
440.395	592.43
440.77	616.16
441.145	619.77
441.52	652.99
441.895	615.48
442.27	617.96
442.645	626.1
443.019	633.56
443.394	629.49
443.769	636.95
444.143	641.24
444.518	639.21
444.892	638.53
445.267	629.94
445.641	648.02
446.016	657.51
446.39	631.75
446.764	640.11
447.139	638.08
447.513	632.43
447.887	641.92
448.262	656.16
448.636	660.9
449.01	681.47
449.384	674.23
449.758	676.49
450.132	686.66
450.506	695.93
450.88	675.36
451.254	684.18
451.628	693.89
452.002	691.41
452.376	703.16
452.75	726.89
453.123	716.04
453.497	686.89
453.871	707.91
454.244	728.47
454.618	701.8
454.992	711.97
455.365	745.19
455.739	742.25
456.112	743.38
456.486	770.05
456.859	742.48
457.232	770.73
457.606	763.72
457.979	762.14
458.352	795.59
458.725	774.12
459.099	787.45
459.472	783.38
459.845	797.85
460.218	815.47
460.591	785.87
460.964	798.98
461.337	842.59
461.71	835.13
462.083	837.85
462.456	811.41
462.829	821.57
463.201	837.39
463.574	841.46
463.947	843.95
464.32	872.87
464.692	866.32
465.065	870.16
465.438	877.84
465.81	889.37
466.183	856.15
466.555	930.5
466.928	907.9
467.3	947.67
467.672	916.94
468.045	943.38
468.417	927.79
468.789	938.86
469.161	941.57
469.534	970.72
469.906	999.2
470.278	981.12
470.65	977.05
471.022	987.45
471.394	1001.91
471.766	1009.37
472.138	1029.7
472.51	1031.51
472.882	1051.17
473.253	1042.13
473.625	1084.62
473.997	1075.13
474.369	1096.82
474.74	1097.05
475.112	1101.79
475.484	1139.98
475.855	1129.36
476.227	1131.85
476.598	1165.07
476.97	1184.28
477.341	1194.45
477.713	1189.47
478.084	1200.55
478.455	1210.49
478.827	1228.8
479.198	1283.94
479.569	1254.11
479.94	1326.65
480.311	1298.62
480.682	1299.53
481.053	1351.96
481.424	1366.42
481.795	1333.43
482.166	1419.98
482.537	1377.04
482.908	1418.39
483.279	1416.81
483.65	1466.76
484.021	1480.77
484.391	1480.77
484.762	1481.67
485.133	1474.44
485.503	1535
485.874	1566.87
486.244	1559.63
486.615	1583.81
486.985	1612.51
487.356	1624.49
487.726	1647.99
488.097	1671.04
488.467	1681.44
488.837	1689.57
489.207	1708.33
489.578	1738.16
489.948	1766.18
490.318	1777.71
490.688	1767.31
491.058	1795.11
491.428	1845.28
491.798	1808.44
492.168	1870.59
492.538	1845.95
492.908	1883.69
493.278	1902.22
493.648	1918.95
494.017	1973.86
494.387	1955.78
494.757	1997.59
495.126	1984.03
495.496	1982
495.866	1972.28
496.235	1996.91
496.605	2068.55
496.974	2038.72
497.344	2110.35
497.713	2115.33
498.082	2128.88
498.452	2092.73
498.821	2137.92
499.19	2144.93
499.559	2175.89
499.928	2194.65
500.298	2179.28
500.667	2223.35
501.036	2208.43
501.405	2240.29
501.774	2226.51
502.143	2254.08
502.512	2280.75
502.88	2292.72
503.249	2307.41
503.618	2303.57
503.987	2343.34
504.356	2344.92
504.724	2335.88
505.093	2384.47
505.462	2363.23
505.83	2383.34
506.199	2417.69
506.567	2449.1
506.936	2429.67
507.304	2472.83
507.672	2477.12
508.041	2499.04
508.409	2503.34
508.777	2533.17
509.145	2521.19
509.514	2572.94
509.882	2571.58
510.25	2581.08
510.618	2607.06
510.986	2629.21
511.354	2629.44
511.722	2673.05
512.09	2699.04
512.458	2680.96
512.826	2732.26
513.193	2721.19
513.561	2747.17
513.929	2740.17
514.297	2815.42
514.664	2816.55
515.032	2800.96
515.4	2829.21
515.767	2865.36
516.135	2892.71
516.502	2874.63
516.869	2882.99
517.237	2914.63
517.604	2940.39
517.972	2971.12
518.339	2971.35
518.706	2974.96
519.073	3014.74
519.44	2991.91
519.808	3075.98
520.175	3052.25
520.542	3062.42
520.909	3098.58
521.276	3130.21
521.643	3141.74
522.009	3179.25
522.376	3242.53
522.743	3192.81
523.11	3235.3
523.477	3293.6
523.843	3307.38
524.21	3374.28
524.577	3381.73
524.943	3368.4
525.31	3376.31
525.676	3420.6
526.043	3473.71
526.409	3440.94
526.776	3469.41
527.142	3521.39
527.508	3576.08
527.874	3571.11
528.241	3583.54
528.607	3648.62
528.973	3623.76
529.339	3636.19
529.705	3697.21
530.071	3707.15
530.437	3711.22
530.803	3739.92
531.169	3800.03
531.535	3800.93
531.901	3831.44
532.267	3826.92
532.632	3804.55
532.998	3881.38
533.364	3900.14
533.73	3926.13
534.095	3936.52
534.461	3961.38
534.826	4028.72
535.192	4019.91
535.557	4027.37
535.923	4038.21
536.288	4043.86
536.653	4141.94
537.019	4071.88
537.384	4132.45
537.749	4132.45
538.114	4175.84
538.479	4151.2
538.845	4199.79
539.21	4147.36
539.575	4228.72
539.94	4215.16
540.305	4260.81
540.67	4258.32
541.034	4287.02
541.399	4356.4
541.764	4359.56
542.129	4346.91
542.494	4345.78
542.858	4432.33
543.223	4405.89
543.587	4441.37
543.952	4441.82
544.316	4447.24
544.681	4486.79
545.045	4510.74
545.41	4500.12
545.774	4571.08
546.138	4576.05
546.503	4562.27
546.867	4579.67
547.231	4608.59
547.595	4628.25
547.959	4688.14
548.324	4742.38
548.688	4696.5
549.052	4746.44
549.416	4756.16
549.779	4824.63
550.143	4767.46
550.507	4811.3
550.871	4874.8
551.235	4908.47
551.599	4916.16
551.962	4934.01
552.326	4971.3
552.689	4992.54
553.053	5024.63
553.417	5053.78
553.78	5100.11
554.143	5090.16
554.507	5135.36
554.87	5196.15
555.234	5178.07
555.597	5195.7
555.96	5242.25
556.323	5269.37
556.686	5258.07
557.05	5321.34
557.413	5363.6
557.776	5376.71
558.139	5434.11
558.502	5466.42
558.865	5540.55
559.228	5625.97
559.59	5603.37
559.953	5625.52
560.316	5722.24
560.679	5738.96
561.041	5794.33
561.404	5790.71
561.767	5877.26
562.129	5875
562.492	5936.24
562.854	5963.81
563.217	6030.25
563.579	6091.72
563.941	6138.04
564.304	6218.95
564.666	6243.8
565.028	6303.01
565.39	6282
565.753	6351.6
566.115	6473.63
566.477	6542.78
566.839	6550.46
567.201	6680.63
567.563	6655.55
567.925	6734.64
568.287	6843.56
568.648	6859.38
569.01	6922.88
569.372	7006.5
569.734	7027.51
570.095	7123.1
570.457	7151.35
570.819	7239.26
571.18	7260.5
571.542	7332.59
571.903	7429.08
572.265	7501.85
572.626	7497.78
572.987	7576.2
573.349	7712.92
573.71	7760.38
574.071	7805.57
574.432	7950.88
574.794	8081.95
575.155	8131.21
575.516	8180.7
575.877	8226.8
576.238	8278.33
576.599	8462.5
576.96	8506.57
577.32	8599.22
577.681	8721.48
578.042	8802.83
578.403	8911.98
578.763	8953.11
579.124	9071.75
579.485	9187.46
579.845	9265.19
580.206	9379.54
580.566	9512.65
580.927	9630.16
581.287	9794.45
581.648	9874.9
582.008	10058.17
582.368	10150.37
582.728	10276.02
583.089	10368.22
583.449	10612.73
583.809	10709
584.169	10842.33
584.529	10981.53
584.889	11307.63
585.249	11349.21
585.609	11417.91
585.969	11721.85
586.329	11899.7
586.688	12058.12
587.048	12274.83
587.408	12368.16
587.768	12583.75
588.127	12778.32
588.487	13058.77
588.846	13327.69
589.206	13383.96
589.565	13584.4
589.925	14036.59
590.284	14153.88
590.643	14363.59
591.003	14663.92
591.362	14962.67
591.721	15150.69
592.08	15437.24
592.44	15785.25
592.799	16005.58
593.158	16252.36
593.517	16550.2
593.876	16789.74
594.235	17170.07
594.593	17426.56
594.952	17771.41
595.311	17936.38
595.67	18407.55
596.029	18739.75
596.387	19000.98
596.746	19405.04
597.104	19584.47
597.463	19895.42
597.822	20301.06
598.18	20585.8
598.538	20937.2
598.897	21349.4
599.255	21434.59
599.613	22034.35
599.972	22352.31
600.33	22630.72
600.688	22892.18
601.046	23249.69
601.404	23756.79
601.762	24037.24
602.12	24448.3
602.478	24732.36
602.836	25058.68
603.194	25180.48
603.552	25589.06
603.91	25911.31
604.268	26254.35
604.625	26527.57
604.983	27034.67
605.341	27138.17
605.698	27561.44
606.056	28019.73
606.413	28108.09
606.771	28491.58
607.128	28733.61
607.485	28995.07
607.843	29230.32
608.2	29673.47
608.557	30134.25
608.914	30167.92
609.272	30647
609.629	30926.77
609.986	31222.58
610.343	31327.66
610.7	31733.3
611.057	31843.13
611.414	32090.58
611.771	32383
612.127	32676.1
612.484	32945.25
612.841	33247.61
613.198	33385.92
613.554	33401.28
613.911	33886.24
614.267	33875.17
614.624	34148.16
614.98	34462.5
615.337	34739.55
615.693	34734.13
616.05	34970.06
616.406	35338.86
616.762	35386.32
617.118	35567.33
617.475	35800.32
617.831	36043.02
618.187	36160.31
618.543	36285.73
618.899	36635.32
619.255	36638.49
619.611	36831.7
619.967	37097.23
620.323	37245.02
620.678	37195.31
621.034	37162.54
621.39	37400.95
621.746	37489.99
622.101	37916.42
622.457	37872.58
622.812	37853.37
623.168	38142.85
623.523	38112.12
623.879	38440.02
624.234	38280.02
624.589	38432.34
624.945	38668.04
625.3	38779.9
625.655	38741.48
626.01	38916.84
626.365	38887.47
626.72	38916.17
627.075	39074.58
627.43	39187.12
627.785	39071.42
628.14	39241.36
628.495	39421.01
628.85	39372.65
629.205	39250.85
629.559	39669.37
629.914	39439.77
630.269	39569.26
630.623	39629.14
630.978	39512.53
631.332	39774.67
631.687	39964.05
632.041	39782.58
632.396	39844.05
632.75	39896.03
633.104	40030.04
633.459	39736.71
633.813	39727.9
634.167	39913.88
634.521	39905.97
634.875	39923.82
635.229	39903.03
635.583	39877.04
635.937	39864.16
636.291	39854.9
636.645	39936.25
636.999	39837.5
637.352	39942.58
637.706	39822.36
638.06	39860.77
638.413	39969.92
638.767	39888.57
639.121	39975.57
639.474	39797.72
639.828	39828.23
640.181	40020.32
640.534	40072.75
640.888	39957.49
641.241	39736.48
641.594	39960.88
641.947	40090.15
642.301	39924.95
642.654	40033.42
643.007	40014.67
643.36	39879.08
643.713	39945.52
644.066	40086.3
644.419	39799.98
644.771	39548.24
645.124	39209.27
645.477	39129.27
645.83	38929.72
646.182	38934.24
646.535	38783.74
646.888	39089.95
647.24	38842.72
647.593	39254.24
647.945	38950.74
648.298	38831.2
648.65	38877.97
649.002	38750.97
649.355	38942.83
649.707	38855.6
650.059	39055.15
650.411	39346.89
650.763	39484.51
651.115	39857.16
651.467	39806.54
651.819	39736.03
652.171	39686.99
652.523	39715.92
652.875	39716.14
653.227	39538.3
653.578	39787.56
653.93	39742.81
654.282	39612.19
654.633	39568.35
654.985	39596.37
655.337	39562.25
655.688	39669.82
656.039	39746.88
656.391	39523.61
656.742	39412.2
657.094	39529.26
657.445	39671.85
657.796	39494.46
658.147	39617.39
658.498	39518.18
658.849	39666.43
659.2	39564.51
659.551	39369.94
659.902	39573.32
660.253	39510.5
660.604	39476.83
660.955	39348.02
661.306	39494.68
661.656	39414.46
662.007	39469.82
662.358	39456.04
662.708	39540.1
663.059	39538.52
663.409	39373.56
663.76	39496.26
664.11	39595.47
664.461	39561.8
664.811	39659.2
665.161	39427.56
665.511	39487.68
665.862	39482.25
666.212	39561.8
666.562	39684.06
666.912	39504.4
667.262	39490.84
667.612	39385.53
667.962	39395.25
668.312	39335.59
668.662	39574.23
669.011	39437.51
669.361	39402.71
669.711	39513.66
670.06	39424.63
670.41	39131.98
670.76	39313.67
671.109	39317.06
671.459	39239.55
671.808	39274.35
672.157	39419.2
672.507	39194.58
672.856	39048.14
673.205	39243.16
673.554	39332.43
673.904	39128.82
674.253	39330.62
674.602	39301.92
674.951	38720.69
675.3	38574.93
675.649	39112.32
675.998	38971.76
676.346	39180.11
676.695	39032.77
677.044	38988.03
677.393	39012.21
677.741	39122.26
678.09	38892.44
678.438	38931.98
678.787	38969.27
679.135	38954.81
679.484	38646.57
679.832	38872.1
680.181	38521.15
680.529	38829.84
680.877	38659.9
681.225	38613.58
681.573	38907.13
681.922	38555.05
682.27	38522.96
682.618	38539
682.966	38305.79
683.314	38440.25
683.661	38301.49
684.009	38186.02
684.357	38092.46
684.705	38136.75
685.053	37959.36
685.4	38033.25
685.748	38019.47
686.095	37903.31
686.443	37805.23
686.79	37808.62
687.138	37741.51
687.485	37742.19
687.832	37699.93
688.18	37669.19
688.527	37400.73
688.874	37370.44
689.221	37303.33
689.568	37169.55
689.915	37258.36
690.262	37125.48
690.609	36989.44
690.956	36950.34
691.303	36939.27
691.65	36781.31
691.997	36796.45
692.344	36532.05
692.69	36544.7
693.037	36497.92
693.383	36326.4
693.73	36374.99
694.077	36036.24
694.423	36082.79
694.769	36090.7
695.116	35897.94
695.462	35938.62
695.808	35853.42
696.155	35924.15
696.501	35572.75
696.847	35639.42
697.193	35352.42
697.539	35578.63
697.885	35274.23
698.231	35276.04
698.577	35220.44
698.923	35175.47
699.269	34940.68
699.614	34758.08
699.96	34798.53
700.306	34768.03
700.651	34642.83
700.997	34568.48
701.342	34411.43
701.688	34536.62
702.033	34274.71
702.379	34382.73
702.724	34098.89
703.069	34220.02
703.415	33870.2
703.76	33960.14
704.105	33866.81
704.45	33719.47
704.795	33572.8
705.14	33564.22
705.485	33664.55
705.83	33430.89
706.175	33594.27
706.52	33324.9
706.865	33259.14
707.209	33279.03
707.554	33164.68
707.899	33088.75
708.243	33001.52
708.588	33004.68
708.932	32747.97
709.277	32801.3
709.621	32785.93
709.966	32546.16
710.31	32666.84
710.654	32324.47
710.998	32411.7
711.342	32388.2
711.687	32317.02
712.031	32204.03
712.375	31947.08
712.719	32052.17
713.063	31902.11
713.407	32231.82
713.75	31965.84
714.094	31914.32
714.438	31762.68
714.782	31641.33
715.125	31677.94
715.469	31640.2
715.812	31430.04
716.156	31354.1
716.499	31274.11
716.843	31481.11
717.186	31324.28
717.53	31397.72
717.873	31345.29
718.216	31236.14
718.559	31146.88
718.902	30897.85
719.246	31029.82
719.589	30934.45
719.932	30907.11
720.275	30725.42
720.617	30686.55
720.96	30876.38
721.303	30843.84
721.646	30795.93
721.989	30574.46
722.331	30711.41
722.674	30620.56
723.016	30602.49
723.359	30494.69
723.701	30501.02
724.044	30174.47
724.386	30209.73
724.729	30329.5
725.071	30211.76
725.413	30138.09
725.755	30149.62
726.097	30150.52
726.439	29937.65
726.782	29827.14
727.124	30058.32
727.465	29842.51
727.807	29971.32
728.149	29819.91
728.491	29687.26
728.833	29727.93
729.175	29674.15
729.516	29448.17
729.858	29504.66
730.199	29597.31
730.541	29495.17
730.882	29497.2
731.224	29559.58
731.565	29227.61
731.906	29395.96
732.248	29426.25
732.589	29211.11
732.93	29187.61
733.271	29112.81
733.612	29139.25
733.953	29135.63
734.294	28982.87
734.635	29026.03
734.976	29041.17
735.317	29002.08
735.658	28938.58
735.999	28860.84
736.339	28756.89
736.68	28920.95
737.021	28777.45
737.361	28820.84
737.702	28818.58
738.042	28698.81
738.383	28587.4
738.723	28708.07
739.063	28546.04
739.404	28588.08
739.744	28466.05
740.084	28394.86
740.424	28507.17
740.764	28348.76
741.104	28389.21
741.444	28260.4
741.784	28266.95
742.124	28361.87
742.464	28215.2
742.804	28172.95
743.143	28092.95
743.483	28165.04
743.823	27969.56
744.162	28033.97
744.502	28020.18
744.841	28032.38
745.181	27951.48
745.52	27942.67
745.86	27983.12
746.199	27876
746.538	27781.32
746.877	27945.61
747.216	27812.28
747.556	27808.66
747.895	27669.23
748.234	27582.23
748.573	27583.13
748.911	27657.93
749.25	27508.33
749.589	27488.22
749.928	27436.47
750.267	27425.17
750.605	27445.96
750.944	27384.04
751.283	27210.94
751.621	27335.91
751.96	27208
752.298	27082.58
752.636	27138.85
752.975	27004.16
753.313	26981.79
753.651	26967.33
753.989	26840.33
754.327	26864.73
754.666	26751.29
755.004	26747.9
755.342	26721.23
755.679	26622.03
756.017	26505.87
756.355	26617.96
756.693	26490.28
757.031	26457.06
757.368	26396.95
757.706	26413.22
758.044	26245.76
758.381	26235.14
758.719	26043.51
759.056	26155.82
759.394	26122.38
759.731	25960.8
760.068	25921.93
760.405	25845.55
760.743	25773.23
761.08	25807.81
761.417	25592.22
761.754	25606.46
762.091	25563.07
762.428	25344.55
762.765	25400.59
763.102	25438.78
763.438	25233.81
763.775	25170.99
764.112	25113.59
764.449	25151.33
764.785	25055.97
765.122	24912.92
765.458	24756.54
765.795	24716.54
766.131	24705.69
766.467	24577.79
766.804	24507.96
767.14	24446.72
767.476	24465.92
767.812	24316.78
768.148	24392.03
768.485	24183.45
768.821	24124.24
769.157	24013.28
769.492	23933.06
769.828	23922.89
770.164	23786.62
770.5	23644.93
770.836	23650.8
771.171	23625.95
771.507	23478.38
771.842	23208.1
772.178	23317.93
772.513	23237.71
772.849	23099.63
773.184	23073.19
773.519	23071.16
773.855	22975.79
774.19	22949.58
774.525	22822.8
774.86	22828
775.195	22701.68
775.53	22521.34
775.865	22647.89
776.2	22373.55
776.535	22261.01
776.87	22253.78
777.205	22192.99
777.539	22076.83
777.874	22120.22
778.209	21933.79
778.543	21976.5
778.878	21688.6
779.212	21796.62
779.547	21606.79
779.881	21626.68
780.215	21484.08
780.55	21600.46
780.884	21353.24
781.218	21321.37
781.552	21317.98
781.886	21040.48
782.22	20970.65
782.554	20991.67
782.888	20746.47
783.222	20705.12
783.556	20716.64
783.889	20595.97
784.223	20401.62
784.557	20497.67
784.89	20527.05
785.224	20408.18
785.557	20324.56
785.891	20200.05
786.224	20209.54
786.558	20122.08
786.891	20067.17
787.224	19923.45
787.557	19894.29
787.891	19895.88
788.224	19850.23
788.557	19756.22
788.89	19714.64
789.223	19547.41
789.556	19552.38
789.888	19434.42
790.221	19380.41
790.554	19267.87
790.887	19235.78
791.219	19170.47
791.552	19166.18
791.884	19071.72
792.217	19026.52
792.549	18934.77
792.882	18784.04
793.214	18694.78
793.546	18846.19
793.879	18553.54
794.211	18436.03
794.543	18500.66
794.875	18513.31
795.207	18588.34
795.539	18425.18
795.871	18309.7
796.203	18245.75
796.535	18119.65
796.867	18208.24
797.198	18048.69
797.53	18138.86
797.862	17897.51
798.193	17947.23
798.525	17822.94
798.856	17806.89
799.188	17662.71
799.519	17648.48
799.85	17551.98
800.182	17607.35
800.513	17622.49
800.844	17428.6
801.175	17499.1
801.506	17389.05
801.837	17317.19
802.168	17237.41
802.499	17275.38
802.83	17238.32
803.161	17141.37
803.491	17023.18
803.822	17105.89
804.153	17072.67
804.483	16878.55
804.814	16740.03
805.145	16801.49
805.475	16723.76
805.805	16743.87
806.136	16726.47
806.466	16669.52
806.796	16572.12
807.126	16483.08
807.457	16573.7
807.787	16383.43
808.117	16371.45
808.447	16297.1
808.777	16334.61
809.107	16206.71
809.436	16232.69
809.766	16271.79
810.096	16160.15
810.426	16064.79
810.755	16073.6
811.085	15949.31
811.414	16043.32
811.744	15895.98
812.073	15846.49
812.403	15830.45
812.732	15790.45
813.061	15765.14
813.39	15680.84
813.719	15543.9
814.049	15759.94
814.378	15614.63
814.707	15597.23
815.036	15486.73
815.365	15462.09
815.693	15356.79
816.022	15359.5
816.351	15296.9
816.68	15288.76
817.008	15384.36
817.337	15104.14
817.665	15147.3
817.994	15151.37
818.322	15190.69
818.651	15103.01
818.979	15076.57
819.307	15123.35
819.636	15030.01
819.964	14880.19
820.292	14970.81
820.62	14972.16
820.948	14859.85
821.276	14988.21
821.604	14909.57
821.932	14949.56
822.259	14970.13
822.587	14863.92
822.915	14835.67
823.243	14890.13
823.57	14866.18
823.898	14762.68
824.225	14859.17
824.553	14791.15
824.88	14841.54
825.207	14904.59
825.535	14781.21
825.862	14804.48
826.189	14749.12
826.516	14813.07
826.843	14849.45
827.17	14764.03
827.497	14874.31
827.824	14818.49
828.151	14817.59
828.478	14712.51
828.805	14853.07
829.131	14728.33
829.458	14741.21
829.785	14716.35
830.111	14722.23
830.438	14827.08
830.764	14762
831.09	14683.13
831.417	14710.25
831.743	14732.17
832.069	14796.57
832.395	14767.65
832.722	14804.94
833.048	14675.22
833.374	14613.75
833.7	14696.69
834.026	14612.62
834.351	14761.55
834.677	14684.49
835.003	14748.21
835.329	14680.42
835.654	14599.74
835.98	14546.19
836.306	14617.14
836.631	14515.45
836.956	14587.77
837.282	14574.66
837.607	14450.59
837.932	14471.39
838.258	14522.68
838.583	14475.23
838.908	14384.16
839.233	14406.75
839.558	14312.29
839.883	14311.84
840.208	14225.29
840.533	14267.77
840.858	14237.49
841.182	14221.22
841.507	14216.93
841.832	14136.03
842.156	14126.99
842.481	14146.65
842.805	14067.55
843.13	14069.59
843.454	14027.1
843.778	14009.25
844.103	13924.96
844.427	13862.14
844.751	13974
845.075	13823.49
845.399	13863.94
845.723	13725.87
846.047	13756.38
846.371	13619.2
846.695	13623.72
847.019	13568.36
847.343	13512.54
847.666	13383.28
847.99	13343.05
848.313	13290.4
848.637	13213.34
848.96	13291.53
849.284	13206.56
849.607	13082.27
849.931	12988.71
850.254	13016.51
850.577	13001.82
850.9	12864.65
851.223	12816.74
851.546	12735.84
851.869	12643.64
852.192	12774.48
852.515	12657.65
852.838	12585.78
853.161	12577.88
853.483	12566.58
853.806	12409.52
854.129	12506.24
854.451	12422.17
854.774	12378.33
855.096	12256.98
855.419	12299.46
855.741	12248.17
856.063	12207.49
856.385	12165.68
856.708	12116.64
857.03	12083.65
857.352	12098.79
857.674	12090.88
857.996	11966.37
858.318	11923.66
858.64	11928.4
858.961	11848.18
859.283	11891.34
859.605	11704
859.926	11793.04
860.248	11746.03
860.57	11643.66
860.891	11688.63
861.212	11650.89
861.534	11628.75
861.855	11588.3
862.176	11582.2
862.498	11574.06
862.819	11558.02
863.14	11545.59
863.461	11521.86
863.782	11387.17
864.103	11408.87
864.424	11423.33
864.745	11489.77
865.065	11436.21
865.386	11396.89
865.707	11421.3
866.027	11362.99
866.348	11308.76
866.668	11188.99
866.989	11194.18
867.309	11199.83
867.63	11268.08
867.95	11193.73
868.27	11233.28
868.59	11136.78
868.91	11237.57
869.23	11133.17
869.55	11072.6
869.87	11094.75
870.19	11079.84
870.51	11053.4
870.83	11072.6
871.15	11022.66
871.469	11012.94
871.789	10965.49
872.109	11001.87
872.428	10966.62
872.748	10954.87
873.067	10890.01
873.386	10941.99
873.706	10918.03
874.025	10861.31
874.344	10858.82
874.663	10900.41
874.982	10797.36
875.301	10771.14
875.62	10771.37
875.939	10720.52
876.258	10773.18
876.577	10662.22
876.896	10709.68
877.214	10732.27
877.533	10709.9
877.852	10668.55
878.17	10667.87
878.489	10650.69
878.807	10579.96
879.125	10586.74
879.444	10580.64
879.762	10586.52
880.08	10615.89
880.398	10545.39
880.716	10546.29
881.034	10483.47
881.352	10538.38
881.67	10440.76
881.988	10499.29
882.306	10403.24
882.624	10497.48
882.941	10379.74
883.259	10393.98
883.577	10271.95
883.894	10238.28
884.212	10258.39
884.529	10271.5
884.846	10157.37
885.164	10211.38
885.481	10159.18
885.798	10191.27
886.115	10106.98
886.432	10097.71
886.75	10039.64
887.067	10030.6
887.383	9945.4
887.7	9999.19
888.017	9953.09
888.334	9965.06
888.651	9910.38
888.967	9845.52
889.284	9831.06
889.6	9857.95
889.917	9788.8
890.233	9729.59
890.55	9732.53
890.866	9775.01
891.182	9710.38
891.498	9670.61
891.815	9638.07
892.131	9615.47
892.447	9516.26
892.763	9544.06
893.079	9535.47
893.395	9501.12
893.71	9501.35
894.026	9518.29
894.342	9470.39
894.657	9387.9
894.973	9341.8
895.289	9321.46
895.604	9288.02
895.92	9250.28
896.235	9230.62
896.55	9212.31
896.865	9233.33
897.181	9129.83
897.496	9142.94
897.811	9068.36
898.126	9080.11
898.441	9060.91
898.756	9029.72
899.071	8951.53
899.386	8931.42
899.7	8901.36
900.015	8877.41
900.33	8821.14
900.644	8782.27
900.959	8809.61
901.273	8814.58
901.588	8729.16
901.902	8652.55
902.216	8629.96
902.531	8683.97
902.845	8565.33
903.159	8576.4
903.473	8552.22
903.787	8486.68
904.101	8500.92
904.415	8447.81
904.729	8425.44
905.042	8317.87
905.356	8414.82
905.67	8290.53
905.984	8341.6
906.297	8308.61
906.611	8185
906.924	8161.04
907.237	8136.64
907.551	8102.51
907.864	8122.63
908.177	8088.05
908.491	8055.06
908.804	8038.79
909.117	7966.47
909.43	7950.43
909.743	7901.61
910.056	7877.89
910.368	7885.12
910.681	7825.68
910.994	7744.78
911.307	7754.73
911.619	7629.31
911.932	7667.5
912.244	7594.73
912.557	7586.82
912.869	7567.84
913.181	7578.01
913.494	7497.78
913.806	7445.81
914.118	7452.13
914.43	7393.83
914.742	7398.58
915.054	7336.88
915.366	7321.29
915.678	7258.24
915.99	7252.14
916.302	7255.98
916.613	7208.53
916.925	7145.48
917.236	7103.22
917.548	7117.45
917.859	7138.47
918.171	7087.4
918.482	7039.04
918.794	6971.02
919.105	7043.78
919.416	6899.61
919.727	6915.65
920.038	6901.41
920.349	6827.74
920.66	6848.08
920.971	6808.54
921.282	6815.99
921.593	6738.03
921.903	6683.57
922.214	6621.42
922.525	6648.99
922.835	6601.99
923.146	6571.25
923.456	6580.52
923.767	6523.57
924.077	6569.67
924.387	6468.66
924.697	6470.92
925.008	6446.74
925.318	6395.44
925.628	6379.17
925.938	6347.98
926.248	6338.04
926.558	6311.83
926.867	6317.93
927.177	6223.92
927.487	6242.67
927.796	6217.82
928.106	6147.08
928.416	6125.62
928.725	6173.52
929.034	6106.63
929.344	6087.88
929.653	6108.89
929.962	6015.11
930.271	5987.31
930.581	6003.59
930.89	5927.65
931.199	5898.73
931.508	5910.93
931.817	5870.93
932.125	5840.65
932.434	5812.18
932.743	5771.27
933.051	5719.52
933.36	5730.37
933.669	5692.18
933.977	5673.2
934.286	5618.74
934.594	5634.78
934.902	5607.44
935.21	5569.92
935.519	5594.33
935.827	5567.89
936.135	5551.62
936.443	5492.19
936.751	5460.32
937.059	5421
937.367	5458.74
937.674	5428.23
937.982	5420.78
938.29	5356.6
938.597	5327.9
938.905	5361.79
939.213	5277.28
939.52	5216.71
939.827	5232.31
940.135	5220.1
940.442	5167.67
940.749	5210.39
941.056	5172.65
941.363	5133.33
941.67	5134.91
941.977	5094.46
942.284	5035.47
942.591	5032.76
942.898	5008.36
943.205	4932.65
943.511	4974.69
943.818	4928.13
944.125	4899.66
944.431	4924.52
944.738	4912.99
945.044	4872.54
945.35	4847.68
945.657	4805.42
945.963	4801.36
946.269	4783.96
946.575	4819.89
946.881	4775.14
947.187	4764.75
947.493	4673
947.799	4735.14
948.105	4683.62
948.41	4588.26
948.716	4660.12
949.022	4577.18
949.327	4599.55
949.633	4559.56
949.938	4505.77
950.244	4532.89
950.549	4484.98
950.854	4468.03
951.16	4456.73
951.465	4414.93
951.77	4374.02
952.075	4396.17
952.38	4382.16
952.685	4419.9
952.99	4361.82
953.294	4350.52
953.599	4326.57
953.904	4277.08
954.209	4265.1
954.513	4231.43
954.818	4240.47
955.122	4182.16
955.426	4188.27
955.731	4194.82
956.035	4144.42
956.339	4142.39
956.643	4128.61
956.948	4090.87
957.252	4082.05
957.556	4063.75
957.86	4051.09
958.163	4026.91
958.467	3974.94
958.771	4012
959.075	4009.51
959.378	3996.86
959.682	4001.6
959.985	3922.96
960.289	3922.74
960.592	3879.8
960.896	3874.15
961.199	3900.14
961.502	3827.6
961.805	3812
962.108	3791.21
962.411	3764.77
962.714	3809.74
963.017	3744.21
963.32	3792.57
963.623	3756.41
963.926	3732.46
964.228	3715.28
964.531	3696.08
964.833	3723.19
965.136	3628.96
965.438	3652.46
965.741	3656.53
966.043	3600.94
966.345	3618.34
966.648	3590.99
966.95	3546.02
967.252	3536.31
967.554	3505.35
967.856	3515.74
968.158	3509.19
968.46	3457.66
968.761	3463.31
969.063	3451.56
969.365	3419.47
969.666	3449.3
969.968	3406.14
970.269	3393.26
970.571	3370.21
970.872	3359.36
971.174	3336.99
971.475	3325.24
971.776	3358
972.077	3264.67
972.378	3316.2
972.679	3327.72
972.98	3301.28
973.281	3246.37
973.582	3245.24
973.883	3235.3
974.183	3216.31
974.484	3219.7
974.785	3192.13
975.085	3180.61
975.386	3179.93
975.686	3145.36
975.986	3148.97
976.287	3127.95
976.587	3089.76
976.887	3061.52
977.187	3066.04
977.487	3043.21
977.787	3063.55
978.087	3017.9
978.387	2964.79
978.687	3027.17
978.987	2960.28
979.286	2928.19
979.586	2962.08
979.885	2934.74
980.185	2903.1
980.484	2912.82
980.784	2880.96
981.083	2904.91
981.382	2937
981.682	2877.57
981.981	2880.28
982.28	2869.66
982.579	2831.92
982.878	2835.98
983.177	2839.15
983.475	2784.23
983.774	2778.59
984.073	2744.24
984.372	2753.95
984.67	2752.6
984.969	2741.3
985.267	2691.58
985.566	2740.85
985.864	2678.7
986.162	2663.33
986.461	2636.89
986.759	2656.33
987.057	2670.11
987.355	2619.49
987.653	2574.75
987.951	2620.62
988.249	2609.32
988.547	2597.12
988.844	2555.77
989.142	2577.46
989.44	2577.46
989.737	2518.48
990.035	2543.34
990.332	2508.76
990.63	2530.91
990.927	2506.5
991.224	2460.63
991.521	2446.62
991.819	2460.85
992.116	2436
992.413	2423.11
992.71	2439.84
993.006	2417.46
993.303	2377.01
993.6	2426.05
993.897	2365.71
994.193	2382.44
994.49	2360.29
994.787	2371.59
995.083	2339.5
995.379	2337.24
995.676	2316.9
995.972	2312.83
996.268	2266.28
996.565	2263.57
996.861	2252.5
997.157	2239.62
997.453	2198.49
997.749	2216.57
998.044	2206.62
998.34	2206.4
998.636	2204.81
998.932	2193.74
999.227	2162.78
999.523	2151.26
999.818	2172.5
1000.114	2115.33
1000.409	2136.12
1000.704	2109.22
1001	2075.1
1001.295	2089.79
1001.59	2100.64
1001.885	2085.72
1002.18	2075.33
1002.475	2043.24
1002.77	2066.29
1003.065	1995.78
1003.359	2016.35
1003.654	2016.57
1003.949	1993.52
1004.243	2013.63
1004.538	1993.97
1004.832	1944.03
1005.127	1921.66
1005.421	1975.22
1005.715	1960.75
1006.009	1925.05
1006.304	1903.58
1006.598	1905.39
1006.892	1915.56
1007.186	1835.33
1007.48	1857.93
1007.773	1850.93
1008.067	1849.34
1008.361	1807.54
1008.655	1817.71
1008.948	1821.32
1009.242	1808.22
1009.535	1801.44
1009.829	1789.91
1010.122	1748.56
1010.415	1740.42
1010.708	1761.21
1011.001	1749.01
1011.295	1738.84
1011.588	1756.47
1011.881	1683.25
1012.173	1697.48
1012.466	1676.47
1012.759	1685.51
1013.052	1706.75
1013.344	1675.34
1013.637	1665.85
1013.93	1649.58
1014.222	1664.94
1014.514	1632.85
1014.807	1634.89
1015.099	1607.32
1015.391	1603.02
1015.683	1598.28
1015.976	1577.26
1016.268	1557.15
1016.56	1530.26
1016.851	1550.14
1017.143	1574.77
1017.435	1535.23
1017.727	1561.67
1018.018	1519.64
1018.31	1485.29
1018.602	1444.61
1018.893	1490.48
1019.185	1485.51
1019.476	1458.62
1019.767	1449.13
1020.058	1453.65
1020.35	1460.43
1020.641	1451.16
1020.932	1399.64
1021.223	1413.88
1021.514	1410.26
1021.804	1410.49
1022.095	1402.8
1022.386	1379.07
1022.677	1367.77
1022.967	1370.03
1023.258	1323.26
1023.548	1323.26
1023.839	1295.69
1024.129	1319.87
1024.419	1335.46
1024.709	1302.69
1025	1291.62
1025.29	1291.84
1025.58	1285.07
1025.87	1281.22
1026.16	1243.03
1026.449	1250.26
1026.739	1258.17
1027.029	1243.94
1027.319	1223.15
1027.608	1218.85
1027.898	1198.74
1028.187	1204.84
1028.477	1187.89
1028.766	1191.28
1029.055	1183.37
1029.344	1189.25
1029.634	1155.35
1029.923	1141.79
1030.212	1160.32
1030.501	1112.87
1030.79	1142.47
1031.078	1131.85
1031.367	1140.44
1031.656	1132.3
1031.945	1106.76
1032.233	1095.47
1032.522	1104.96
1032.81	1081.45
1033.099	1066.09
1033.387	1075.58
1033.675	1045.75
1033.963	1085.07
1034.251	1066.99
1034.54	1040.55
1034.828	1047.33
1035.116	1023.83
1035.403	1029.25
1035.691	1016.37
1035.979	1007.11
1036.267	1002.36
1036.554	1006.43
1036.842	975.24
1037.129	992.64
1037.417	980.21
1037.704	960.78
1037.992	997.62
1038.279	982.25
1038.566	941.57
1038.853	941.57
1039.14	941.57
