Data from red_cardboard_box_FLMS001491_00034.txt Node
Date: Wed Feb 08 11:32:05 GMT 2017
User: dcchb
Spectrometer: FLMS00149
Trigger mode: 0
Integration Time (sec): 2.000000E-2
Scans to average: 10
Electric dark correction enabled: true
Nonlinearity correction enabled: false
Boxcar width: 0
XAxis mode: Wavelengths
Number of Pixels in Spectrum: 2048
>>>>>Begin Spectral Data<<<<<
341.393	-24.67
341.776	-24.67
342.16	-24.67
342.543	-55.86
342.927	-67.39
343.31	-82.07
343.693	-65.8
344.077	-56.31
344.46	-80.04
344.843	-65.35
345.226	-45.46
345.61	-11.79
345.993	-18.57
346.376	-15.86
346.759	13.74
347.142	16
347.525	42.44
347.908	51.03
348.291	99.84
348.674	114.53
349.057	103.68
349.44	126.73
349.823	157.24
350.206	171.93
350.588	205.15
350.971	229.1
351.354	232.49
351.737	247.41
352.119	243.57
352.502	254.19
352.884	274.07
353.267	295.09
353.65	301.87
354.032	318.59
354.414	302.55
354.797	301.19
355.179	296.67
355.562	314.3
355.944	338.93
356.326	331.47
356.709	333.28
357.091	356.78
357.473	332.83
357.855	340.97
358.238	328.76
358.62	324.47
359.002	354.52
359.384	328.08
359.766	341.64
360.148	353.17
360.53	328.08
360.912	331.25
361.294	321.76
361.676	331.7
362.057	332.38
362.439	323.34
362.821	338.25
363.203	326.5
363.584	321.08
363.966	311.36
364.348	312.49
364.729	314.07
365.111	320.85
365.493	328.76
365.874	322.21
366.256	345.26
366.637	310.01
367.019	323.34
367.4	326.73
367.781	312.04
368.163	294.19
368.544	336.22
368.925	312.27
369.306	303.68
369.688	303.9
370.069	307.75
370.45	312.04
370.831	306.62
371.212	307.52
371.593	326.28
371.974	332.6
372.355	318.37
372.736	299.61
373.117	329.21
373.498	305.03
373.879	316.79
374.26	333.51
374.641	305.49
375.021	320.63
375.402	314.3
375.783	322.66
376.163	312.04
376.544	314.75
376.925	338.93
377.305	331.93
377.686	321.31
378.066	330.57
378.447	326.73
378.827	323.79
379.208	330.34
379.588	324.69
379.968	328.31
380.349	322.44
380.729	329.44
381.109	321.76
381.489	338.71
381.87	334.19
382.25	329.44
382.63	342.77
383.01	333.06
383.39	329.21
383.77	325.15
384.15	332.6
384.53	357.91
384.91	343.9
385.29	342.55
385.67	337.58
386.049	337.35
386.429	335.99
386.809	336.9
387.189	333.28
387.568	332.83
387.948	335.09
388.328	363.34
388.707	344.58
389.087	359.95
389.466	348.2
389.846	349.78
390.225	368.08
390.605	349.33
390.984	341.19
391.363	356.78
391.743	346.84
392.122	360.17
392.501	352.49
392.881	358.14
393.26	327.86
393.639	353.39
394.018	350.68
394.397	353.62
394.776	345.03
395.155	354.52
395.534	341.64
395.913	359.72
396.292	362.43
396.671	369.44
397.05	387.74
397.429	344.81
397.808	387.52
398.186	366.28
398.565	363.34
398.944	378.03
399.323	375.99
399.701	368.31
400.08	376.67
400.458	358.82
400.837	366.28
401.215	371.93
401.594	356.33
401.972	374.19
402.351	383
402.729	387.29
403.107	391.59
403.486	378.93
403.864	386.61
404.242	381.19
404.62	384.35
404.999	382.09
405.377	386.84
405.755	371.02
406.133	403.56
406.511	415.54
406.889	403.56
407.267	402.21
407.645	371.7
408.023	390.91
408.401	389.55
408.779	401.75
409.156	402.43
409.534	404.24
409.912	413.28
410.29	406.95
410.667	410.12
411.045	410.12
411.422	410.57
411.8	410.34
412.178	416.44
412.555	418.03
412.933	394.52
413.31	425.26
413.687	408.76
414.065	431.81
414.442	421.42
414.819	431.81
415.197	424.35
415.574	418.93
415.951	422.55
416.328	406.27
416.705	405.37
417.082	425.03
417.46	453.51
417.837	410.57
418.214	412.83
418.591	447.86
418.967	452.38
419.344	439.27
419.721	454.63
420.098	465.71
420.475	483.56
420.852	467.97
421.228	450.57
421.605	472.04
421.982	456.67
422.358	447.63
422.735	464.35
423.111	461.87
423.488	462.09
423.864	451.25
424.241	463.9
424.617	478.59
424.994	470.91
425.37	469.32
425.746	482.43
426.123	483.79
426.499	465.03
426.875	464.35
427.251	497.35
427.627	485.14
428.003	482.66
428.379	475.2
428.756	486.72
429.132	488.31
429.507	499.15
429.883	510
430.259	503
430.635	532.6
431.011	522.88
431.387	520.85
431.763	497.12
432.138	497.57
432.514	517.68
432.89	524.92
433.265	514.52
433.641	533.73
434.016	516.33
434.392	536.21
434.767	555.2
435.143	530.11
435.518	538.25
435.894	542.99
436.269	544.8
436.644	549.55
437.02	549.32
437.395	547.51
437.77	556.78
438.145	571.92
438.52	553.39
438.895	579.38
439.271	559.72
439.646	549.77
440.021	577.8
440.395	574.86
440.77	577.12
441.145	585.93
441.52	606.27
441.895	594.52
442.27	605.59
442.645	592.48
443.019	596.78
443.394	583.22
443.769	607.63
444.143	600.62
444.518	618.47
444.892	606.5
445.267	610.11
445.641	586.16
446.016	608.76
446.39	609.21
446.764	607.4
447.139	605.59
447.513	618.25
447.887	611.02
448.262	602.2
448.636	619.38
449.01	627.06
449.384	641.3
449.758	636.55
450.132	635.65
450.506	640.62
450.88	655.99
451.254	647.62
451.628	648.75
452.002	643.78
452.376	663.67
452.75	674.74
453.123	658.25
453.497	653.95
453.871	675.87
454.244	668.41
454.618	670.22
454.992	678.36
455.365	673.39
455.739	695.98
456.112	680.62
456.486	707.96
456.859	675.87
457.232	690.33
457.606	700.28
457.979	725.81
458.352	728.98
458.725	713.39
459.099	733.95
459.472	734.18
459.845	743.44
460.218	761.52
460.591	736.44
460.964	750.9
461.337	765.14
461.71	757.68
462.083	764.91
462.456	773.04
462.829	791.35
463.201	781.63
463.574	776.89
463.947	795.87
464.32	799.48
464.692	818.24
465.065	821.86
465.438	845.81
465.81	820.73
466.183	825.92
466.555	818.69
466.928	835.19
467.3	828.41
467.672	849.43
468.045	843.55
468.417	860.05
468.789	874.06
469.161	863.44
469.534	884.45
469.906	861.86
470.278	882.19
470.65	899.59
471.022	904.57
471.394	919.26
471.766	952.02
472.138	935.53
472.51	945.24
472.882	951.12
473.253	981.85
473.625	985.92
473.997	968.29
474.369	1026.82
474.74	976.66
475.112	1017.78
475.484	1047.39
475.855	1048.52
476.227	1042.42
476.598	1076.09
476.97	1046.94
477.341	1059.82
477.713	1086.03
478.084	1087.39
478.455	1103.43
478.827	1123.77
479.198	1146.82
479.569	1110.44
479.94	1169.19
480.311	1171.23
480.682	1215.52
481.053	1236.54
481.424	1270.21
481.795	1242.86
482.166	1229.76
482.537	1252.13
482.908	1284.67
483.279	1292.8
483.65	1287.38
484.021	1347.27
484.391	1371.45
484.762	1365.12
485.133	1333.03
485.503	1375.51
485.874	1405.57
486.244	1411.22
486.615	1405.34
486.985	1452.8
487.356	1477.21
487.726	1467.26
488.097	1477.66
488.467	1495.51
488.837	1547.26
489.207	1536.64
489.578	1559.24
489.948	1544.55
490.318	1585.45
490.688	1600.37
491.058	1619.58
491.428	1633.14
491.798	1649.63
492.168	1673.81
492.538	1681.72
492.908	1693.47
493.278	1721.72
493.648	1706.13
494.017	1718.1
494.387	1768.05
494.757	1763.08
495.126	1800.81
495.496	1778.44
495.866	1801.04
496.235	1817.31
496.605	1846.46
496.974	1872.9
497.344	1834.71
497.713	1866.58
498.082	1910.42
498.452	1901.38
498.821	1910.87
499.19	1902.73
499.559	1897.53
499.928	1930.3
500.298	1963.3
500.667	1960.36
501.036	1980.47
501.405	1982.28
501.774	2005.78
502.143	2010.53
502.512	2032.67
502.88	2017.53
503.249	2047.81
503.618	2044.2
503.987	2052.33
504.356	2104.08
504.724	2076.97
505.093	2088.49
505.462	2086
505.83	2093.24
506.199	2133.69
506.567	2194.02
506.936	2184.76
507.304	2205.1
507.672	2196.74
508.041	2210.07
508.409	2211.42
508.777	2272.89
509.145	2242.61
509.514	2269.28
509.882	2282.61
510.25	2279.45
510.618	2284.87
510.986	2330.29
511.354	2367.58
511.722	2391.53
512.09	2365.09
512.458	2383.85
512.826	2416.39
513.193	2405.32
513.561	2405.32
513.929	2419.33
514.297	2473.11
514.664	2479.44
515.032	2471.08
515.4	2476.73
515.767	2487.58
516.135	2553.56
516.502	2527.35
516.869	2567.8
517.237	2576.16
517.604	2572.55
517.972	2596.73
518.339	2639.21
518.706	2641.47
519.073	2634.24
519.44	2657.97
519.808	2667.91
520.175	2703.16
520.542	2716.27
520.909	2760.56
521.276	2748.36
521.643	2789.71
522.009	2807.79
522.376	2824.29
522.743	2822.03
523.11	2826.32
523.477	2852.76
523.843	2902.48
524.21	2949.26
524.577	2939.54
524.943	2945.19
525.31	3019.09
525.676	2984.29
526.043	3033.55
526.409	3021.12
526.776	3058.63
527.142	3038.97
527.508	3125.53
527.874	3104.73
528.241	3152.64
528.607	3144.73
528.973	3177.28
529.339	3189.93
529.705	3242.13
530.071	3242.58
530.437	3242.81
530.803	3279.65
531.169	3325.52
531.535	3293.88
531.901	3294.79
532.267	3332.3
532.632	3359.87
532.998	3380.89
533.364	3412.52
533.73	3410.49
534.095	3422.47
534.461	3455.01
534.826	3454.56
535.192	3500.88
535.557	3551.95
535.923	3532.52
536.288	3551.73
536.653	3568.9
537.019	3545.4
537.384	3549.47
537.749	3587.89
538.114	3643.03
538.479	3597.15
538.845	3611.61
539.21	3670.6
539.575	3647.32
539.94	3687.77
540.305	3650.48
540.67	3676.7
541.034	3733.42
541.399	3714.89
541.764	3726.41
542.129	3804.15
542.494	3844.83
542.858	3786.75
543.223	3816.13
543.587	3856.35
543.952	3826.98
544.316	3866.75
544.681	3834.21
545.045	3879.4
545.41	3931.61
545.774	3941.55
546.138	3941.55
546.503	3970.7
546.867	3973.86
547.231	4032.39
547.595	4041.89
547.959	4037.14
548.324	4049.79
548.688	4069
549.052	4065.39
549.416	4085.5
549.779	4108.32
550.143	4147.42
550.507	4184.93
550.871	4167.76
551.235	4192.62
551.599	4226.97
551.962	4284.14
552.326	4262.44
552.689	4332.05
553.053	4320.3
553.417	4316
553.78	4390.58
554.143	4390.12
554.507	4416.79
554.87	4449.78
555.234	4511.03
555.597	4471.93
555.96	4541.31
556.323	4532.04
556.686	4570.68
557.05	4588.54
557.413	4582.44
557.776	4619.05
558.139	4696.56
558.502	4681.42
558.865	4736.78
559.228	4803.9
559.59	4827.4
559.953	4862.88
560.316	4869.66
560.679	4856.1
561.041	4968.41
561.404	4981.3
561.767	5023.78
562.129	5009.77
562.492	5076.43
562.854	5136.09
563.217	5130.44
563.579	5189.43
563.941	5261.97
564.304	5254.28
564.666	5341.96
565.028	5336.99
565.39	5412.02
565.753	5452.47
566.115	5472.81
566.477	5557.33
566.839	5586.48
567.201	5604.1
567.563	5615.18
567.925	5754.38
568.287	5750.09
568.648	5810.65
569.01	5900.14
569.372	5901.72
569.734	5953.7
570.095	6017.2
570.457	6120.7
570.819	6151.89
571.18	6150.76
571.542	6212.68
571.903	6272.11
572.265	6376.29
572.626	6344.42
572.987	6415.16
573.349	6447.7
573.71	6527.47
574.071	6656.28
574.432	6653.57
574.794	6790.06
575.155	6817.18
575.516	6860.79
575.877	6944.63
576.238	7004.07
576.599	7094.23
576.96	7096.49
577.32	7209.03
577.681	7260.56
578.042	7338.97
578.403	7401.57
578.763	7469.37
579.124	7585.97
579.485	7759.08
579.845	7778.28
580.206	7875.91
580.566	7957.04
580.927	8004.04
581.287	8214.43
581.648	8265.05
582.008	8387.76
582.368	8497.14
582.728	8598.15
583.089	8755.89
583.449	8796.79
583.809	8935.32
584.169	9038.14
584.529	9126.72
584.889	9328.98
585.249	9462.53
585.609	9574.4
585.969	9773.94
586.329	9893.48
586.688	10038.56
587.048	10186.58
587.408	10310.2
587.768	10472.68
588.127	10643.07
588.487	10820.92
588.846	11100.46
589.206	11196.95
589.565	11430.39
589.925	11666.54
590.284	11800.1
590.643	12000.55
591.003	12290.93
591.362	12495.45
591.721	12658.61
592.08	12853.18
592.44	13183.34
592.799	13334.75
593.158	13592.82
593.517	13828.52
593.876	14126.82
594.235	14289.07
594.593	14683.41
594.952	14746.69
595.311	15028.26
595.67	15378.76
596.029	15710.28
596.387	15977.84
596.746	16253.09
597.104	16432.75
597.463	16754.55
597.822	17101.65
598.18	17207.87
598.538	17506.16
598.897	17971.69
599.255	18077
599.613	18656.19
599.972	18824.77
600.33	19121.71
600.688	19261.37
601.046	19664.3
601.404	20067
601.762	20325.98
602.12	20649.13
602.478	20990.82
602.836	21250.7
603.194	21407.08
603.552	21792.15
603.91	21951.47
604.268	22346.04
604.625	22573.6
604.983	22954.61
605.341	23111.89
605.698	23518.21
606.056	23765.66
606.413	24104.18
606.771	24389.82
607.128	24678.18
607.485	24701.46
607.843	24988.45
608.2	25378.5
608.557	25772.84
608.914	25830.92
609.272	26241.3
609.629	26519.26
609.986	26754.51
610.343	26940.27
610.7	27304.1
611.057	27403.98
611.414	27553.13
611.771	27786.57
612.127	28064.98
612.484	28289.38
612.841	28478.08
613.198	28607.34
613.554	28876.94
613.911	29184.05
614.267	29212.97
614.624	29441.22
614.98	29621.33
615.337	29911.71
615.693	29886.4
616.05	30180.63
616.406	30316.67
616.762	30433.51
617.118	30658.13
617.475	30836.43
617.831	31086.37
618.187	31118.01
618.543	31327.27
618.899	31608.17
619.255	31583.31
619.611	31796.41
619.967	31949.17
620.323	32135.16
620.678	32204.76
621.034	32233.23
621.39	32269.39
621.746	32446.56
622.101	32799.1
622.457	32757.29
622.812	32863.5
623.168	33010.62
623.523	33099.2
623.879	33346.2
624.234	33201.34
624.589	33347.1
624.945	33461.45
625.3	33681.78
625.655	33609.24
626.01	33736.25
626.365	33758.17
626.72	33934.21
627.075	33988.44
627.43	33921.33
627.785	34034.09
628.14	34080.42
628.495	34266.85
628.85	34246.06
629.205	34231.83
629.559	34434.31
629.914	34296.46
630.269	34367.64
630.623	34336
630.978	34460.52
631.332	34623
631.687	34755.2
632.041	34409.45
632.396	34611.7
632.75	34574.87
633.104	34672.04
633.459	34564.92
633.813	34499.39
634.167	34590.23
634.521	34648.09
634.875	34639.95
635.229	34625.94
635.583	34564.92
635.937	34588.2
636.291	34773.05
636.645	34625.49
636.999	34526.06
637.352	34767.63
637.706	34551.59
638.06	34683.57
638.413	34640.18
638.767	34568.09
639.121	34827.06
639.474	34553.4
639.828	34664.81
640.181	34781.87
640.534	34777.8
640.888	34664.36
641.241	34551.59
641.594	34618.26
641.947	34687.41
642.301	34625.04
642.654	34649.44
643.007	34736.22
643.36	34746.16
643.713	34795.2
644.066	34901.41
644.419	34687.86
644.771	34387.08
645.124	33949.35
645.477	34133.98
645.83	33826.19
646.182	33756.36
646.535	33881.78
646.888	33894.89
647.24	33750.48
647.593	33957.03
647.945	33825.06
648.298	33896.24
648.65	33760.43
649.002	33761.56
649.355	33813.31
649.707	33700.77
650.059	33807.2
650.411	34326.29
650.763	34328.09
651.115	34676.56
651.467	34590.01
651.819	34684.92
652.171	34545.04
652.523	34578.94
652.875	34557.92
653.227	34412.39
653.578	34712.27
653.93	34547.75
654.282	34500.29
654.633	34355.21
654.985	34581.2
655.337	34439.5
655.688	34334.2
656.039	34686.73
656.391	34357.02
656.742	34339.62
657.094	34486.06
657.445	34500.29
657.796	34441.54
658.147	34437.92
658.498	34383.69
658.849	34508.2
659.2	34328.32
659.551	34232.96
659.902	34498.49
660.253	34306.63
660.604	34300.07
660.955	34307.53
661.306	34354.76
661.656	34528.09
662.007	34468.88
662.358	34395.89
662.708	34445.15
663.059	34371.71
663.409	34291.26
663.76	34413.29
664.11	34480.63
664.461	34571.7
664.811	34495.32
665.161	34423.91
665.511	34465.27
665.862	34444.02
666.212	34718.59
666.562	34532.16
666.912	34475.66
667.262	34512.27
667.612	34489.67
667.962	34506.17
668.312	34417.81
668.662	34655.54
669.011	34371.71
669.361	34484.25
669.711	34280.19
670.06	34351.14
670.41	34371.71
670.76	34238.15
671.109	34396.12
671.459	34221.2
671.808	34330.81
672.157	34420.52
672.507	34058.05
672.856	34216.69
673.205	34202.22
673.554	34283.58
673.904	34132.85
674.253	34364.25
674.602	34178.49
674.951	33740.31
675.3	33651.5
675.649	34123.58
675.998	34064.6
676.346	34191.6
676.695	34209
677.044	33898.28
677.393	34195.89
677.741	34181.43
678.09	34036.58
678.438	33928.56
678.787	34038.61
679.135	34100.76
679.484	33804.72
679.832	33980.99
680.181	33744.16
680.529	33821.67
680.877	33750.93
681.225	33639.3
681.573	33876.81
681.922	33671.16
682.27	33511.17
682.618	33602.46
682.966	33451.28
683.314	33530.6
683.661	33433.43
684.009	33374.45
684.357	33294.45
684.705	33166.09
685.053	33178.07
685.4	33140.78
685.748	32954.12
686.095	32901.92
686.443	32911.63
686.79	32689.72
687.138	32848.81
687.485	33000.9
687.832	32788.25
688.18	32773.56
688.527	32651.3
688.874	32585.77
689.221	32455.15
689.568	32351.88
689.915	32452.66
690.262	32402.27
690.609	32230.3
690.956	32087.7
691.303	32122.95
691.65	32018.55
691.997	31871.44
692.344	31881.38
692.69	31832.57
693.037	31762.74
693.383	31549.41
693.73	31698.56
694.077	31505.57
694.423	31527.72
694.769	31424.44
695.116	31282.98
695.462	31316.65
695.808	31155.07
696.155	31254.05
696.501	30975.41
696.847	30900.61
697.193	30945.81
697.539	30959.37
697.885	30748.53
698.231	30717.34
698.577	30777.23
698.923	30661.75
699.269	30475.77
699.614	30237.58
699.96	30200.52
700.306	30313.51
700.651	30206.4
700.997	30039.17
701.342	29977.7
701.688	29879.85
702.033	29883.01
702.379	29898.61
702.724	29749.01
703.069	29847.31
703.415	29439.64
703.76	29535.9
704.105	29552.17
704.45	29433.31
704.795	29349.24
705.14	29308.34
705.485	29226.08
705.83	29101.79
706.175	29167.55
706.52	28997.16
706.865	28959.42
707.209	29004.84
707.554	28888.92
707.899	28837.17
708.243	28664.06
708.588	28621.58
708.932	28491.86
709.277	28491.64
709.621	28382.26
709.966	28325.99
710.31	28494.8
710.654	28199.89
710.998	28062.72
711.342	28228.14
711.687	28097.3
712.031	27886.68
712.375	27935.49
712.719	27937.53
713.063	27933.01
713.407	27914.48
713.75	27789.74
714.094	27823.18
714.438	27685.56
714.782	27673.35
715.125	27578.67
715.469	27619.8
715.812	27440.14
716.156	27294.83
716.499	27314.04
716.843	27353.14
717.186	27103.2
717.53	27285.57
717.873	27331.22
718.216	27241.05
718.559	27037.21
718.902	26901.4
719.246	27098
719.589	26924.22
719.932	26684.23
720.275	26836.99
720.617	26839.7
720.96	26803.55
721.303	26692.14
721.646	26809.2
721.989	26655.75
722.331	26731.68
722.674	26617.11
723.016	26606.04
723.359	26672.25
723.701	26613.95
724.044	26289.66
724.386	26338.93
724.729	26410.56
725.071	26258.7
725.413	26341.64
725.755	26239.27
726.097	26248.53
726.439	26042.21
726.782	26047.86
727.124	26215.77
727.465	25935.77
727.807	26053.74
728.149	25970.8
728.491	25884.47
728.833	25917.24
729.175	25792.95
729.516	25767.42
729.858	25753.63
730.199	25866.85
730.541	25638.61
730.882	25669.11
731.224	25684.71
731.565	25606.06
731.906	25594.54
732.248	25590.7
732.589	25470.25
732.93	25306.41
733.271	25327.2
733.612	25462.11
733.953	25369.46
734.294	25342.34
734.635	25327.88
734.976	25392.96
735.317	25213.31
735.658	25173.08
735.999	25179.18
736.339	25060.09
736.68	25217.15
737.021	25170.37
737.361	25033.42
737.702	25143.03
738.042	25049.69
738.383	25001.33
738.723	25069.13
739.063	24978.74
739.404	24989.58
739.744	24859.42
740.084	24780.55
740.424	24839.76
740.764	24797.5
741.104	24795.24
741.444	24597.95
741.784	24567.67
742.124	24651.96
742.464	24557.05
742.804	24602.47
743.143	24555.92
743.483	24594.11
743.823	24374.91
744.162	24383.72
744.502	24422.14
744.841	24404.29
745.181	24427.79
745.52	24374.46
745.86	24379.88
746.199	24342.59
746.538	24328.81
746.877	24241.13
747.216	24282.71
747.556	24230.05
747.895	24175.37
748.234	24135.82
748.573	24024.41
748.911	24069.38
749.25	24047.01
749.589	23912.1
749.928	23984.64
750.267	23957.29
750.605	23840.01
750.944	23857.41
751.283	23806.11
751.621	23792.78
751.96	23625.78
752.298	23626.46
752.636	23639.34
752.975	23657.41
753.313	23522.5
753.651	23534.03
753.989	23312.79
754.327	23387.82
754.666	23243.87
755.004	23377.65
755.342	23408.83
755.679	23222.85
756.017	23136.98
756.355	23250.19
756.693	23007.04
757.031	23206.35
757.368	22986.7
757.706	23002.97
758.044	22821.73
758.381	22860.15
758.719	22797.32
759.056	22819.02
759.394	22785.12
759.731	22649.98
760.068	22703.77
760.405	22545.35
760.743	22385.81
761.08	22544.45
761.417	22381.06
761.754	22371.35
762.091	22241.18
762.428	22251.8
762.765	22111.24
763.102	22253.61
763.438	22070.11
763.775	21987.18
764.112	22012.26
764.449	21957.57
764.785	21853.85
765.122	21739.95
765.458	21665.38
765.795	21526.62
766.131	21592.61
766.467	21446.17
766.804	21310.58
767.14	21294.31
767.476	21258.16
767.812	21201.43
768.148	21294.99
768.485	21085.73
768.821	20967.77
769.157	20916.92
769.492	20897.49
769.828	20892.52
770.164	20720.99
770.5	20753.08
770.836	20713.99
771.171	20601.22
771.507	20572.07
771.842	20372.3
772.178	20385.86
772.513	20376.15
772.849	20275.36
773.184	20149.48
773.519	20143.61
773.855	20062.71
774.19	19927.57
774.525	20020.22
774.86	19884.63
775.195	19826.1
775.53	19600.57
775.865	19728.93
776.2	19665.88
776.535	19427.47
776.87	19413.46
777.205	19289.17
777.539	19231.77
777.874	19320.81
778.209	19116.74
778.543	19151.09
778.878	18947.93
779.212	18967.59
779.547	18933.47
779.881	18905
780.215	18849.86
780.55	18841.5
780.884	18680.82
781.218	18622.52
781.552	18608.73
781.886	18533.26
782.22	18417.55
782.554	18303.88
782.888	18043.55
783.222	18250.1
783.556	18072.93
783.889	17989.54
784.223	17916.32
784.557	17905.7
784.89	17869.32
785.224	17830.45
785.557	17672.49
785.891	17623.22
786.224	17592.26
786.558	17503.23
786.891	17395.88
787.224	17308.43
787.557	17291.93
787.891	17386.85
788.224	17332.38
788.557	17290.35
788.89	17206.74
789.223	17114.31
789.556	17023.46
789.888	16929
790.221	16896.01
790.554	16743.25
790.887	16795.9
791.219	16764.49
791.552	16628.9
791.884	16626.87
792.217	16526.98
792.549	16564.95
792.882	16457.38
793.214	16366.31
793.546	16472.29
793.879	16256.03
794.211	16174.9
794.543	16116.6
794.875	16044.51
795.207	16180.32
795.539	16107.1
795.871	16044.06
796.203	15945.98
796.535	15838.41
796.867	15834.8
797.198	15795.47
797.53	15744.63
797.862	15691.75
798.193	15637.74
798.525	15545.31
798.856	15621.24
799.188	15383.06
799.519	15392.77
799.85	15338.09
800.182	15425.99
800.513	15335.37
800.844	15167.02
801.175	15291.08
801.506	15164.53
801.837	15160.69
802.168	15150.75
802.499	15045.89
802.83	14959.11
803.161	14863.75
803.491	14934.93
803.822	14901.49
804.153	14794.6
804.483	14643.64
804.814	14636.63
805.145	14714.37
805.475	14682.51
805.805	14596.18
806.136	14629.18
806.466	14585.56
806.796	14507.37
807.126	14473.93
807.457	14393.25
807.787	14445.68
808.117	14352.8
808.447	14242.52
808.777	14401.84
809.107	14274.84
809.436	14223.54
809.766	14201.39
810.096	14113.48
810.426	14051.11
810.755	14093.37
811.085	14037.78
811.414	13962.98
811.744	13904
812.073	13835.98
812.403	13897.67
812.732	13732.48
813.061	13858.8
813.39	13643.21
813.719	13685.7
814.049	13682.08
814.378	13621.97
814.707	13576.32
815.036	13624.68
815.365	13543.56
815.693	13442.99
816.022	13375.88
816.351	13380.17
816.68	13289.55
817.008	13400.51
817.337	13306.27
817.665	13278.03
817.994	13214.07
818.322	13280.29
818.651	13191.02
818.979	13133.62
819.307	13291.59
819.636	13128.43
819.964	13106.28
820.292	13104.92
820.62	13043.23
820.948	13044.36
821.276	13081.2
821.604	13025.15
821.932	13078.48
822.259	13020.63
822.587	13024.93
822.915	13072.61
823.243	13026.73
823.57	12902.9
823.898	13023.12
824.225	12894.31
824.553	12961.65
824.88	12996.45
825.207	13007.3
825.535	12982.89
825.862	12996
826.189	12932.95
826.516	12884.59
826.843	13083.23
827.17	12987.41
827.497	13010.24
827.824	12927.75
828.151	13009.79
828.478	12921.43
828.805	12997.58
829.131	12912.84
829.458	12885.04
829.785	12900.64
830.111	12899.51
830.438	12994.19
830.764	12954.19
831.09	12925.95
831.417	12876
831.743	12895.44
832.069	12881.43
832.395	12819.96
832.722	12919.39
833.048	12893.63
833.374	12881.65
833.7	12825.61
834.026	12869.22
834.351	12932.27
834.677	12885.95
835.003	12815.44
835.329	12828.32
835.654	12816.12
835.98	12768.21
836.306	12720.75
836.631	12709.45
836.956	12720.3
837.282	12726.63
837.607	12673.3
837.932	12661.55
838.258	12675.56
838.583	12678.27
838.908	12551.94
839.233	12593.75
839.558	12574.99
839.883	12537.03
840.208	12542
840.533	12482.57
840.858	12476.24
841.182	12504.04
841.507	12514.43
841.832	12384.49
842.156	12302.91
842.481	12349.01
842.805	12372.29
843.13	12280.99
843.454	12312.4
843.778	12285.28
844.103	12152.41
844.427	12217.49
844.751	12217.04
845.075	12094.55
845.399	12174.55
845.723	12069.7
846.047	12060.43
846.371	11915.58
846.695	11947.89
847.019	11859.98
847.343	11751.29
847.666	11732.76
847.99	11705.64
848.313	11698.18
848.637	11662.7
848.96	11589.26
849.284	11562.14
849.607	11466.32
849.931	11482.59
850.254	11335.93
850.577	11314.91
850.9	11280.79
851.223	11199.44
851.546	11179.32
851.869	11102.49
852.192	11155.37
852.515	11022.04
852.838	11009.39
853.161	11016.39
853.483	10947.01
853.806	10911.08
854.129	10941.82
854.451	10853.68
854.774	10884.64
855.096	10780.47
855.419	10727.59
855.741	10682.16
856.063	10688.26
856.385	10630.19
856.708	10518.33
857.03	10599.9
857.352	10630.41
857.674	10519.91
857.996	10564.43
858.318	10451.21
858.64	10433.58
858.961	10367.37
859.283	10323.98
859.605	10310.2
859.926	10334.15
860.248	10316.3
860.57	10234.72
860.891	10313.58
861.212	10214.83
861.534	10184.77
861.855	10141.39
862.176	10180.48
862.498	10174.15
862.819	10171.44
863.14	10093.25
863.461	10015.74
863.782	10032.01
864.103	10050.54
864.424	10029.3
864.745	10073.14
865.065	10041.5
865.386	9982.75
865.707	9992.92
866.027	9961.28
866.348	9863.88
866.668	9832.47
866.989	9850.77
867.309	9797.67
867.63	9861.85
867.95	9843.54
868.27	9779.36
868.59	9813.26
868.91	9795.86
869.23	9826.14
869.55	9776.2
869.87	9748.63
870.19	9666.14
870.51	9701.62
870.83	9762.64
871.15	9647.39
871.469	9712.7
871.789	9676.09
872.109	9650.78
872.428	9593.38
872.748	9604
873.067	9525.81
873.386	9518.35
873.706	9578.01
874.025	9515.41
874.344	9528.97
874.663	9521.52
874.982	9496.21
875.301	9534.85
875.62	9391.58
875.939	9390.67
876.258	9383.44
876.577	9447.39
876.896	9417.79
877.214	9397.68
877.533	9401.74
877.852	9418.47
878.17	9295.76
878.489	9411.01
878.807	9326.49
879.125	9317.45
879.444	9304.57
879.762	9289.43
880.08	9334.18
880.398	9270.22
880.716	9251.01
881.034	9164.46
881.352	9208.53
881.67	9127.4
881.988	9230.22
882.306	9122.88
882.624	9175.99
882.941	9096.44
883.259	9119.72
883.577	9064.8
883.894	8958.37
884.212	8956.33
884.529	8955.65
884.846	9019.16
885.164	8966.28
885.481	8933.28
885.798	8908.88
886.115	8864.81
886.432	8855.09
886.75	8817.8
887.067	8908.2
887.383	8791.59
887.7	8823.68
888.017	8712.72
888.334	8764.7
888.651	8659.39
888.967	8678.37
889.284	8601.99
889.6	8622.33
889.917	8597.25
890.233	8632.95
890.55	8619.84
890.866	8509.79
891.182	8491.26
891.498	8518.83
891.815	8474.09
892.131	8454.42
892.447	8429.34
892.763	8371.26
893.079	8419.85
893.395	8347.76
893.71	8356.57
894.026	8291.72
894.342	8338.5
894.657	8277.25
894.973	8261.66
895.289	8220.08
895.604	8231.83
895.92	8143.47
896.235	8139.4
896.55	8119.97
896.865	8061.44
897.181	8037.94
897.496	7983.25
897.811	8028.45
898.126	7978.28
898.441	7971.95
898.756	7904.83
899.071	7891.95
899.386	7879.07
899.7	7843.59
900.015	7766.76
900.33	7701.22
900.644	7697.16
900.959	7800.2
901.273	7682.69
901.588	7651.96
901.902	7544.39
902.216	7574
902.531	7529.03
902.845	7577.39
903.159	7491.51
903.473	7465.75
903.787	7451.74
904.101	7423.27
904.415	7399.76
904.729	7418.07
905.042	7328.58
905.356	7381.91
905.67	7353.21
905.984	7367
906.297	7261.01
906.611	7238.86
906.924	7181.24
907.237	7107.34
907.551	7112.99
907.864	7152.76
908.177	7068.25
908.491	7040.22
908.804	7101.69
909.117	7026.44
909.43	6979.66
909.743	6946.67
910.056	6935.59
910.368	6898.76
910.681	6838.2
910.994	6781.7
911.307	6865.77
911.619	6720.01
911.932	6778.31
912.244	6715.49
912.557	6699.22
912.869	6670.52
913.181	6630.97
913.494	6565.21
913.806	6548.94
914.118	6547.58
914.43	6522.05
914.742	6505.55
915.054	6460.13
915.366	6496.06
915.678	6414.7
915.99	6396.85
916.302	6367.7
916.613	6351.43
916.925	6335.61
917.236	6313.46
917.548	6280.02
917.859	6268.49
918.171	6192.34
918.482	6195.27
918.794	6146.01
919.105	6127.48
919.416	6089.74
919.727	6045.67
920.038	6103.75
920.349	5994.15
920.66	6059.46
920.971	6041.61
921.282	6049.74
921.593	5976.75
921.903	5906.47
922.214	5912.34
922.525	5880.03
922.835	5815.4
923.146	5817.66
923.456	5824.44
923.767	5786.25
924.077	5755.74
924.387	5733.14
924.697	5677.32
925.008	5702.86
925.318	5665.57
925.628	5695.63
925.938	5572.92
926.248	5598.23
926.558	5518.46
926.867	5512.36
927.177	5523.2
927.487	5462.64
927.796	5488.85
928.106	5438.01
928.416	5414.05
928.725	5415.86
929.034	5359.82
929.344	5390.1
929.653	5380.83
929.962	5271.01
930.271	5301.97
930.581	5300.84
930.89	5224.68
931.199	5247.28
931.508	5203.89
931.817	5186.71
932.125	5212.7
932.434	5151.23
932.743	5031.92
933.051	5078.24
933.36	5077.79
933.669	5052.93
933.977	5013.16
934.286	5033.27
934.594	5007.74
934.902	4983.1
935.21	4919.83
935.519	4934.74
935.827	4911.01
936.135	4859.04
936.443	4859.26
936.751	4810.45
937.059	4870.79
937.367	4773.62
937.674	4786.05
937.982	4753.28
938.29	4744.92
938.597	4765.48
938.905	4711.92
939.213	4682.09
939.52	4615.66
939.827	4632.83
940.135	4599.38
940.442	4565.49
940.749	4550.8
941.056	4554.64
941.363	4524.58
941.67	4511.7
941.977	4517.35
942.284	4495.88
942.591	4461.54
942.898	4391.48
943.205	4409.79
943.511	4341.31
943.818	4381.31
944.125	4359.84
944.431	4356.45
944.738	4306.74
945.044	4300.64
945.35	4318.71
945.657	4208.43
945.963	4226.74
946.269	4222.45
946.575	4217.25
946.881	4185.16
947.187	4191.49
947.493	4147.42
947.799	4144.93
948.105	4126.18
948.41	4121.66
948.716	4111.26
949.022	4063.81
949.327	4056.35
949.633	4015.45
949.938	4026.74
950.244	4034.2
950.549	3949.91
950.854	3937.26
951.16	3935.45
951.465	3928.89
951.77	3924.83
952.075	3913.75
952.38	3897.03
952.685	3908.78
952.99	3894.54
953.294	3826.98
953.599	3821.33
953.904	3746.98
954.209	3785.85
954.513	3808.22
954.818	3768.22
955.122	3773.87
955.426	3713.08
955.731	3742.23
956.035	3670.14
956.339	3685.28
956.643	3665.85
956.948	3626.53
957.252	3609.81
957.556	3641.44
957.86	3662.91
958.163	3584.72
958.467	3557.15
958.771	3543.37
959.075	3506.08
959.378	3485.74
959.682	3536.81
959.985	3493.65
960.289	3495.68
960.592	3438.29
960.896	3442.58
961.199	3430.83
961.502	3399.64
961.805	3379.08
962.108	3390.83
962.411	3344.73
962.714	3322.13
963.017	3323.03
963.32	3330.04
963.623	3325.29
963.926	3311.51
964.228	3274
964.531	3283.26
964.833	3285.97
965.136	3252.98
965.438	3225.86
965.741	3232.42
966.043	3184.96
966.345	3149.93
966.648	3139.08
966.95	3174.56
967.252	3119.88
967.554	3164.62
967.856	3112.87
968.158	3057.28
968.46	3048.24
968.761	3046.88
969.063	3050.95
969.365	3048.01
969.666	3043.49
969.968	3033.32
970.269	3026.77
970.571	3019.31
970.872	3024.06
971.174	2996.49
971.475	2973.66
971.776	2939.77
972.077	2917.4
972.378	2950.61
972.679	2937.51
972.98	2919.2
973.281	2907.23
973.582	2893.89
973.883	2884.63
974.183	2839.43
974.484	2832.65
974.785	2826.32
975.085	2815.93
975.386	2845.08
975.686	2801.24
975.986	2827.68
976.287	2762.6
976.587	2768.25
976.887	2767.79
977.187	2746.78
977.487	2732.32
977.787	2726.21
978.087	2693.22
978.387	2670.85
978.687	2683.28
978.987	2681.92
979.286	2672.43
979.586	2659.32
979.885	2616.84
980.185	2585.88
980.484	2601.25
980.784	2614.13
981.083	2591.75
981.382	2590.17
981.682	2588.36
981.981	2540.68
982.28	2556.05
982.579	2530.96
982.878	2538.87
983.177	2489.38
983.475	2486.45
983.774	2504.75
984.073	2454.36
984.372	2467.24
984.67	2429.95
984.969	2432.44
985.267	2408.48
985.566	2424.75
985.864	2400.57
986.162	2369.61
986.461	2354.7
986.759	2373.45
987.057	2353.12
987.355	2360.57
987.653	2366.9
987.951	2357.64
988.249	2328.03
988.547	2296.85
988.844	2292.55
989.142	2302.27
989.44	2306.34
989.737	2270.41
990.035	2303.4
990.332	2228.37
990.63	2260.92
990.927	2233.35
991.224	2213.01
991.521	2213.91
991.819	2237.64
992.116	2200.8
992.413	2172.33
992.71	2168.49
993.006	2164.42
993.303	2166.23
993.6	2153.35
993.897	2164.42
994.193	2147.92
994.49	2113.8
994.787	2112.44
995.083	2128.72
995.379	2074.93
995.676	2068.15
995.972	2045.1
996.268	2047.36
996.565	2077.42
996.861	2018.21
997.157	2083.52
997.453	2029.73
997.749	1978.21
998.044	1967.36
998.34	1977.08
998.636	1953.35
998.932	1955.61
999.227	1950.64
999.523	1933.24
999.818	1950.87
1000.114	1926.01
1000.409	1885.11
1000.704	1921.94
1001	1897.08
1001.295	1919.46
1001.59	1870.87
1001.885	1873.81
1002.18	1848.04
1002.475	1832.23
1002.77	1827.71
1003.065	1835.16
1003.359	1803.53
1003.654	1825.45
1003.949	1805.33
1004.243	1803.53
1004.538	1763.08
1004.832	1773.7
1005.127	1763.08
1005.421	1760.82
1005.715	1761.49
1006.009	1728.5
1006.304	1731.21
1006.598	1710.87
1006.892	1698.22
1007.186	1712.91
1007.48	1666.35
1007.773	1667.26
1008.067	1698.44
1008.361	1667.94
1008.655	1677.65
1008.948	1639.46
1009.242	1660.48
1009.535	1621.38
1009.829	1625
1010.122	1620.25
1010.415	1578.22
1010.708	1586.36
1011.001	1575.96
1011.295	1547.49
1011.588	1574.38
1011.881	1551.1
1012.173	1557.43
1012.466	1530.09
1012.759	1562.63
1013.052	1546.13
1013.344	1493.25
1013.637	1521.5
1013.93	1478.56
1014.222	1474.95
1014.514	1472.01
1014.807	1472.69
1015.099	1448.96
1015.391	1445.57
1015.683	1442.86
1015.976	1418
1016.268	1417.32
1016.56	1427.26
1016.851	1377.77
1017.143	1389.98
1017.435	1384.78
1017.727	1358.57
1018.018	1370.09
1018.31	1346.36
1018.602	1337.32
1018.893	1354.5
1019.185	1325.35
1019.476	1325.12
1019.767	1330.77
1020.058	1334.16
1020.35	1295.06
1020.641	1291.9
1020.932	1288.29
1021.223	1260.94
1021.514	1276.99
1021.804	1251.22
1022.095	1225.69
1022.386	1223.2
1022.677	1243.54
1022.967	1231.34
1023.258	1189.98
1023.548	1231.79
1023.839	1208.97
1024.129	1231.34
1024.419	1193.6
1024.709	1201.73
1025	1194.05
1025.29	1163.54
1025.58	1152.7
1025.87	1152.02
1026.16	1148.18
1026.449	1158.12
1026.739	1152.7
1027.029	1128.06
1027.319	1111.57
1027.608	1106.6
1027.898	1104.56
1028.187	1121.28
1028.477	1090.55
1028.766	1079.25
1029.055	1077.9
1029.344	1071.79
1029.634	1066.82
1029.923	1061.62
1030.212	1077.67
1030.501	1052.36
1030.79	1020.72
1031.078	1028.63
1031.367	1011.23
1031.656	1020.27
1031.945	1053.26
1032.233	979.82
1032.522	992.47
1032.81	1009.65
1033.099	989.08
1033.387	974.17
1033.675	1012.81
1033.963	971.68
1034.251	941.4
1034.54	952.47
1034.828	935.75
1035.116	929.65
1035.403	942.76
1035.691	936.2
1035.979	932.14
1036.267	936.43
1036.554	893.49
1036.842	919.71
1037.129	901.85
1037.417	895.08
1037.704	904.79
1037.992	899.37
1038.279	892.36
1038.566	879.26
1038.853	879.26
1039.14	879.26
