Data from red_shiny_book_FLMS001491_00008.txt Node
Date: Wed Feb 08 15:23:34 GMT 2017
User: dcchb
Spectrometer: FLMS00149
Trigger mode: 0
Integration Time (sec): 2.000000E-2
Scans to average: 10
Electric dark correction enabled: true
Nonlinearity correction enabled: false
Boxcar width: 0
XAxis mode: Wavelengths
Number of Pixels in Spectrum: 2048
>>>>>Begin Spectral Data<<<<<
341.393	-23.52
341.776	-23.52
342.16	-23.52
342.543	-67.58
342.927	-87.7
343.31	-76.17
343.693	-43.63
344.077	-63.52
344.46	-68.49
344.843	-68.49
345.226	-36.4
345.61	-8.15
345.993	-5.89
346.376	-3.63
346.759	1.57
347.142	8.57
347.525	51.74
347.908	57.39
348.291	67.33
348.674	98.29
349.057	89.48
349.44	109.59
349.823	120.21
350.206	186.2
350.588	191.39
350.971	197.04
351.354	244.73
351.737	245.86
352.119	244.73
352.502	269.36
352.884	303.03
353.267	302.12
353.65	298.06
354.032	306.87
354.414	325.4
354.797	304.61
355.179	318.62
355.562	336.47
355.944	329.92
356.326	354.78
356.709	345.97
357.091	354.55
357.473	336.93
357.855	356.59
358.238	363.82
358.62	344.16
359.002	332.86
359.384	333.76
359.766	368.79
360.148	365.63
360.53	365.17
360.912	349.81
361.294	381.44
361.676	341.9
362.057	334.89
362.439	346.64
362.821	343.93
363.203	335.8
363.584	328.79
363.966	322.69
364.348	337.38
364.729	333.31
365.111	332.86
365.493	328.11
365.874	322.24
366.256	324.95
366.637	322.24
367.019	319.3
367.4	333.08
367.781	349.81
368.163	336.25
368.544	334.89
368.925	330.82
369.306	331.05
369.688	331.95
370.069	329.47
370.45	344.16
370.831	315.68
371.212	317.27
371.593	330.15
371.974	315.91
372.355	327.89
372.736	319.07
373.117	313.42
373.498	333.08
373.879	335.34
374.26	352.97
374.641	348
375.021	340.54
375.402	319.07
375.783	344.61
376.163	342.8
376.544	345.74
376.925	342.8
377.305	361.33
377.686	357.94
378.066	367.43
378.447	368.11
378.827	354.55
379.208	347.77
379.588	370.82
379.968	335.12
380.349	365.17
380.729	378.28
381.109	353.42
381.489	354.33
381.87	347.55
382.25	366.3
382.63	360.65
383.01	374.89
383.39	357.04
383.77	355.46
384.15	367.89
384.53	371.73
384.91	381.67
385.29	371.28
385.67	381.22
386.049	363.14
386.429	385.51
386.809	366.76
387.189	370.6
387.568	386.42
387.948	411.5
388.328	385.29
388.707	388.68
389.087	384.16
389.466	392.74
389.846	388
390.225	374.89
390.605	393.65
390.984	390.26
391.363	410.82
391.743	423.48
392.122	408.56
392.501	399.98
392.881	403.59
393.26	391.61
393.639	400.88
394.018	382.12
394.397	408.34
394.776	395.46
395.155	412.86
395.534	431.16
395.913	418.28
396.292	445.85
396.671	414.89
397.05	419.64
397.429	413.99
397.808	410.82
398.186	413.08
398.565	421.22
398.944	433.65
399.323	419.64
399.701	429.81
400.08	416.02
400.458	418.96
400.837	419.18
401.215	442.23
401.594	435.23
401.972	441.33
402.351	458.28
402.729	452.18
403.107	455.79
403.486	481.56
403.864	451.95
404.242	449.24
404.62	452.18
404.999	462.57
405.377	460.76
405.755	451.95
406.133	477.94
406.511	494.89
406.889	486.07
407.267	465.96
407.645	483.14
408.023	499.63
408.401	500.09
408.779	485.4
409.156	471.39
409.534	482.01
409.912	500.54
410.29	538.05
410.667	535.11
411.045	534.66
411.422	540.76
411.8	503.93
412.178	509.8
412.555	519.29
412.933	540.76
413.31	539.63
413.687	540.99
414.065	541.89
414.442	567.88
414.819	550.93
415.197	553.19
415.574	589.35
415.951	576.47
416.328	572.4
416.705	582.12
417.082	574.66
417.46	574.89
417.837	591.83
418.214	583.93
418.591	616.47
418.967	600.2
419.344	626.86
419.721	606.75
420.098	625.28
420.475	612.17
420.852	605.17
421.228	608.33
421.605	607.65
421.982	630.7
422.358	630.48
422.735	669.35
423.111	675
423.488	670.93
423.864	686.07
424.241	683.36
424.617	674.77
424.994	660.99
425.37	661.44
425.746	666.64
426.123	690.14
426.499	686.07
426.875	698.05
427.251	733.07
427.627	739.63
428.003	717.26
428.379	733.53
428.756	715.9
429.132	725.84
429.507	709.12
429.883	728.78
430.259	744.83
430.635	761.77
431.011	763.36
431.387	776.69
431.763	787.76
432.138	796.12
432.514	804.48
432.89	783.69
433.265	791.38
433.641	805.39
434.016	791.15
434.392	811.26
434.767	822.56
435.143	817.59
435.518	832.28
435.894	857.82
436.269	866.4
436.644	876.57
437.02	873.18
437.395	856.23
437.77	867.99
438.145	869.12
438.52	877.93
438.895	873.64
439.271	893.07
439.646	930.58
440.021	912.05
440.395	942.33
440.77	937.36
441.145	953.86
441.52	920.64
441.895	945.27
442.27	931.49
442.645	962.9
443.019	920.87
443.394	933.75
443.769	968.1
444.143	950.7
444.518	956.57
444.892	995.44
445.267	981.88
445.641	1001.99
446.016	997.7
446.39	999.51
446.764	968.77
447.139	989.79
447.513	973.75
447.887	970.81
448.262	958.83
448.636	994.99
449.01	1013.52
449.384	1052.16
449.758	1072.73
450.132	1066.17
450.506	1026.85
450.88	1042.22
451.254	1025.72
451.628	1056.46
452.002	1058.94
452.376	1056
452.75	1020.07
453.123	1054.87
453.497	1092.16
453.871	1073.86
454.244	1134.65
454.618	1139.62
454.992	1152.5
455.365	1138.94
455.739	1171.71
456.112	1171.03
456.486	1149.79
456.859	1124.25
457.232	1122.22
457.606	1146.17
457.979	1158.15
458.352	1157.47
458.725	1151.82
459.099	1195.89
459.472	1239.73
459.845	1250.57
460.218	1266.17
460.591	1276.56
460.964	1236.56
461.337	1232.72
461.71	1235.43
462.083	1232.72
462.456	1227.52
462.829	1237.69
463.201	1250.35
463.574	1280.4
463.947	1287.41
464.32	1334.87
464.692	1354.75
465.065	1342.1
465.438	1380.51
465.81	1372.83
466.183	1373.74
466.555	1351.14
466.928	1368.99
467.3	1327.86
467.672	1338.03
468.045	1391.14
468.417	1414.64
468.789	1434.07
469.161	1446.05
469.534	1520.62
469.906	1523.79
470.278	1543.45
470.65	1547.97
471.022	1553.62
471.394	1567.63
471.766	1546.39
472.138	1518.36
472.51	1560.4
472.882	1541.64
473.253	1563.11
473.625	1589.77
473.997	1618.7
474.369	1646.72
474.74	1698.25
475.112	1750.45
475.484	1778.02
475.855	1821.18
476.227	1815.76
476.598	1830.67
476.97	1828.64
477.341	1840.39
477.713	1801.07
478.084	1789.77
478.455	1834.06
478.827	1867.51
479.198	1924.68
479.569	1956.09
479.94	2014.85
480.311	2122.19
480.682	2145.69
481.053	2206.93
481.424	2198.57
481.795	2180.49
482.166	2201.96
482.537	2180.04
482.908	2155.64
483.279	2199.25
483.65	2234.5
484.021	2273.6
484.391	2276.08
484.762	2342.98
485.133	2374.61
485.503	2409.41
485.874	2547.72
486.244	2575.06
486.615	2651.44
486.985	2685.34
487.356	2697.77
487.726	2686.69
488.097	2706.13
488.467	2679.46
488.837	2686.02
489.207	2677.66
489.578	2695.28
489.948	2700.71
490.318	2808.27
490.688	2855.28
491.058	2939.8
491.428	3012.56
491.798	3056.18
492.168	3129.17
492.538	3209.17
492.908	3191.99
493.278	3198.09
493.648	3199.68
494.017	3248.04
494.387	3180.92
494.757	3181.82
495.126	3095.5
495.496	3165.1
495.866	3130.53
496.235	3214.14
496.605	3283.97
496.974	3383.85
497.344	3454.13
497.713	3497.52
498.082	3588.14
498.452	3638.99
498.821	3638.08
499.19	3621.81
499.559	3584.75
499.928	3529.38
500.298	3511.53
500.667	3483.06
501.036	3476.05
501.405	3434.02
501.774	3452.32
502.143	3478.99
502.512	3575.71
502.88	3640.12
503.249	3768.47
503.618	3796.72
503.987	3855.25
504.356	3905.87
504.724	3927.79
505.093	3924.4
505.462	3840.56
505.83	3876.95
506.199	3807.57
506.567	3766.44
506.936	3739.32
507.304	3718.31
507.672	3718.53
508.041	3711.98
508.409	3764.18
508.777	3884.86
509.145	3954.01
509.514	3974.57
509.882	4061.12
510.25	4148.58
510.618	4191.97
510.986	4220.89
511.354	4233.09
511.722	4160.55
512.09	4161.46
512.458	4039.88
512.826	4008.69
513.193	3951.29
513.561	3935.7
513.929	3866.55
514.297	3946.1
514.664	4030.39
515.032	4052.31
515.4	4138.63
515.767	4217.05
516.135	4330.72
516.502	4311.74
516.869	4442.13
517.237	4421.56
517.604	4428.34
517.972	4457.04
518.339	4408.01
518.706	4319.19
519.073	4240.33
519.44	4170.05
519.808	4156.26
520.175	4113.78
520.542	4118.3
520.909	4179.99
521.276	4213.43
521.643	4302.25
522.009	4412.53
522.376	4512.86
522.743	4610.94
523.11	4697.04
523.477	4749.01
523.843	4786.98
524.21	4789.24
524.577	4811.84
524.943	4739.97
525.31	4719.64
525.676	4649.58
526.043	4601.67
526.409	4492.3
526.776	4524.61
527.142	4505.63
527.508	4545.86
527.874	4652.97
528.241	4727.32
528.607	4784.49
528.973	4991.04
529.339	5067.42
529.705	5213.63
530.071	5330.47
530.437	5355.78
530.803	5389.9
531.169	5425.83
531.535	5329.56
531.901	5266.29
532.267	5189.23
532.632	5135.9
532.998	5069.46
533.364	5079.85
533.73	5003.02
534.095	5024.26
534.461	5083.92
534.826	5217.48
535.192	5282.56
535.557	5444.36
535.923	5584.25
536.288	5656.79
536.653	5827.86
537.019	5857.23
537.384	5953.28
537.749	5965.48
538.114	5970.22
538.479	5955.31
538.845	5842.32
539.21	5709.89
539.575	5620.4
539.94	5602.55
540.305	5547.41
540.67	5506.28
541.034	5544.25
541.399	5558.03
541.764	5651.14
542.129	5748.31
542.494	5871.24
542.858	6031.01
543.223	6148.52
543.587	6258.8
543.952	6360.04
544.316	6469.19
544.681	6434.62
545.045	6495.41
545.41	6491.79
545.774	6403.89
546.138	6379.25
546.503	6267.39
546.867	6129.54
547.231	6136.1
547.595	6030.79
547.959	5963.22
548.324	5987.17
548.688	6008.87
549.052	6047.96
549.416	6133.16
549.779	6303.1
550.143	6439.14
550.507	6595.74
550.871	6730.2
551.235	6750.99
551.599	6844.1
551.962	6865.57
552.326	6889.75
552.689	6883.65
553.053	6789.86
553.417	6697.89
553.78	6650.43
554.143	6547.38
554.507	6425.58
554.87	6340.84
555.234	6280.72
555.597	6208.64
555.96	6292.02
556.323	6342.87
556.686	6386.26
557.05	6520.94
557.413	6637.78
557.776	6786.93
558.139	6939.01
558.502	7034.38
558.865	7152.57
559.228	7358.66
559.59	7301.94
559.953	7320.02
560.316	7325.22
560.679	7280.7
561.041	7235.05
561.404	7005.45
561.767	6927.49
562.129	6823.76
562.492	6759.58
562.854	6653.6
563.217	6645.01
563.579	6609.3
563.941	6719.13
564.304	6808.85
564.666	6950.54
565.028	7120.7
565.39	7237.31
565.753	7407.25
566.115	7577.87
566.477	7740.8
566.839	7796.17
567.201	7846.56
567.563	7841.36
567.925	7836.62
568.287	7813.34
568.648	7652.44
569.01	7620.35
569.372	7520.69
569.734	7370.64
570.095	7258.33
570.457	7260.13
570.819	7210.42
571.18	7174.49
571.542	7207.93
571.903	7289.96
572.265	7361.6
572.626	7557.53
572.987	7698.77
573.349	7909.61
573.71	8151.18
574.071	8296.72
574.432	8436.15
574.794	8592.75
575.155	8740.1
575.516	8703.49
575.877	8725.18
576.238	8748.23
576.599	8725.41
576.96	8667.78
577.32	8581
577.681	8641.11
578.042	8551.85
578.403	8519.08
578.763	8545.3
579.124	8589.14
579.485	8702.58
579.845	8917.49
580.206	9101.89
580.566	9303.24
580.927	9660.75
581.287	9989.33
581.648	10279.49
582.008	10673.83
582.368	11013.26
582.728	11404.21
583.089	11657.76
583.449	11941.82
583.809	12343.39
584.169	12584.74
584.529	12737.73
584.889	13047.1
585.249	13151.96
585.609	13337.94
585.969	13661.55
586.329	13817.25
586.688	14112.84
587.048	14320.97
587.408	14735.19
587.768	15093.83
588.127	15581.5
588.487	16071.2
588.846	16713.22
589.206	17180.1
589.565	17780.54
589.925	18471.82
590.284	18998.36
590.643	19712.01
591.003	20359.45
591.362	20957.63
591.721	21502.92
592.08	22004.15
592.44	22635.55
592.799	23009.32
593.158	23361.86
593.517	23920.03
593.876	24188.28
594.235	24527.48
594.593	25040.23
594.952	25400.22
595.311	25660.55
595.67	26267.32
596.029	26773.29
596.387	27317.01
596.746	27888.29
597.104	28251.67
597.463	28804.43
597.822	29599.43
598.18	30099.76
598.538	30663.13
598.897	31483
599.255	31886.38
599.613	33101.94
599.972	33276.63
600.33	33851.75
600.688	34303.49
601.046	34835.45
601.404	35456.91
601.762	35755.43
602.12	36232.93
602.478	36581.17
602.836	36766.02
603.194	36762.64
603.552	37188.84
603.91	37351.09
604.268	37764.64
604.625	38057.29
604.983	38555.13
605.341	38689.82
605.698	39412.96
606.056	39870.8
606.413	40055.88
606.771	40777.67
607.128	41138.11
607.485	41543.07
607.843	41927.47
608.2	42610.84
608.557	43117.95
608.914	43359.52
609.272	43717.25
609.629	44237.92
609.986	44613.28
610.343	44679.04
610.7	45157.44
611.057	45119.93
611.414	45327.61
611.771	45493.48
612.127	45618.45
612.484	45573.93
612.841	45808.72
613.198	45646.02
613.554	45838.78
613.911	46061.83
614.267	46328.26
614.624	46264.08
614.98	46556.28
615.337	46893.67
615.693	47180.44
616.05	47365.97
616.406	47786.75
616.762	47860.42
617.118	48086.18
617.475	48448.2
617.831	48692.72
618.187	48834.63
618.543	49144
618.899	49417.22
619.255	49488.18
619.611	49390.33
619.967	49594.84
620.323	49593.94
620.678	49597.33
621.034	49439.82
621.39	49380.16
621.746	49400.95
622.101	49759.58
622.457	49301.06
622.812	49481.4
623.168	49463.32
623.523	49478.46
623.879	49640.26
624.234	49509.42
624.589	49686.82
624.945	49902.4
625.3	49989.63
625.655	50094.04
626.01	50317.53
626.365	50469.62
626.72	50535.83
627.075	50681.37
627.43	50793.9
627.785	50802.04
628.14	50949.83
628.495	51058.76
628.85	50934.47
629.205	50913.68
629.559	51223.95
629.914	50963.62
630.269	50921.81
630.623	50851.76
630.978	50743.96
631.332	50694.25
631.687	50663.51
632.041	50471.2
632.396	50448.15
632.75	50328.83
633.104	50367.02
633.459	50157.09
633.813	50185.33
634.167	50170.64
634.521	50282.51
634.875	50349.62
635.229	50395.95
635.583	50350.53
635.937	50435.95
636.291	50589.16
636.645	50657.41
636.999	50652.44
637.352	50920.23
637.706	50621.48
638.06	50941.25
638.413	50829.84
638.767	50821.47
639.121	50747.58
639.474	50600.24
639.828	50530.18
640.181	50534.7
640.534	50546
640.888	50342.62
641.241	50014.26
641.594	50057.43
641.947	50041.16
642.301	49892.46
642.654	49858.56
643.007	49718.9
643.36	49612.69
643.713	49610.21
644.066	49766.36
644.419	49539.7
644.771	49522.07
645.124	49040.05
645.477	49015.65
645.83	48902.88
646.182	48905.14
646.535	49028.3
646.888	49116.89
647.24	49088.19
647.593	49317.56
647.945	49292.48
648.298	49172.25
648.65	49153.72
649.002	49030.56
649.355	49239.6
649.707	48952.15
650.059	49134.06
650.411	49382.87
650.763	49383.32
651.115	49678.45
651.467	49410.66
651.819	49299.25
652.171	49144.46
652.523	48932.71
652.875	48794.86
653.227	48601.19
653.578	48863.56
653.93	48733.17
654.282	48713.96
654.633	48633.74
654.985	48671.93
655.337	48728.42
655.688	48871.47
656.039	49103.1
656.391	48734.07
656.742	48946.04
657.094	49122.54
657.445	49246.83
657.796	49317.79
658.147	49319.14
658.498	49364.34
658.849	49442.75
659.2	49325.69
659.551	49302.42
659.902	49489.76
660.253	49208.18
660.604	49299.25
660.955	49061.52
661.306	49062.88
661.656	48863.33
662.007	48867.4
662.358	48834.41
662.708	48616.56
663.059	48449.56
663.409	48344.7
663.76	48454.53
664.11	48289.79
664.461	48323.01
664.811	48350.58
665.161	48225.16
665.511	48219.73
665.862	48255.21
666.212	48316.23
666.562	48463.34
666.912	48414.98
667.262	48513.29
667.612	48506.96
667.962	48562.1
668.312	48623.11
668.662	48909.43
669.011	48908.08
669.361	48852.03
669.711	48845.26
670.06	48809.1
670.41	48686.39
670.76	48738.14
671.109	48760.74
671.459	48659.05
671.808	48567.75
672.157	48455.43
672.507	48296.34
672.856	48129.12
673.205	48085.5
673.554	48042.79
673.904	47891.61
674.253	47951.95
674.602	47709.01
674.951	47196.26
675.3	47023.83
675.649	47506.99
675.998	47430.83
676.346	47546.31
676.695	47641.67
677.044	47427.89
677.393	47519.41
677.741	47489.58
678.09	47614.55
678.438	47504.05
678.787	47800.99
679.135	47878.05
679.484	47775.23
679.832	47974.32
680.181	47732.97
680.529	47971.61
680.877	47821.55
681.225	47788.79
681.573	48079.17
681.922	47625.85
682.27	47644.38
682.618	47737.94
682.966	47412.52
683.314	47528
683.661	47220.21
684.009	47127.11
684.357	46819.32
684.705	46695.71
685.053	46733.67
685.4	46580
685.748	46351.54
686.095	46246.23
686.443	46013.01
686.79	45934.37
687.138	45975.5
687.485	45996.06
687.832	45934.37
688.18	45770.08
688.527	45714.72
688.874	45646.7
689.221	45616.19
689.568	45697.99
689.915	45606.47
690.262	45705.68
690.609	45736.86
690.956	45721.72
691.303	45677.88
691.65	45653.93
691.997	45699.35
692.344	45480.37
692.69	45487.15
693.037	45485.8
693.383	45250.32
693.73	45341.62
694.077	45055.98
694.423	44999.71
694.769	44869.54
695.116	44775.76
695.462	44437.91
695.808	44282.21
696.155	44113.18
696.501	43757.93
696.847	43725.39
697.193	43254.67
697.539	43308.45
697.885	43061.68
698.231	42908.01
698.577	42857.39
698.923	42701.24
699.269	42672.31
699.614	42407.01
699.96	42370.62
700.306	42338.08
700.651	42215.37
700.997	42184.87
701.342	42169.05
701.688	42315.48
702.033	42138.99
702.379	42317.07
702.724	42317.29
703.069	42396.39
703.415	42036.39
703.76	42101.25
704.105	42229.38
704.45	42068.71
704.795	41944.65
705.14	41871.43
705.485	41881.37
705.83	41630.76
706.175	41679.57
706.52	41372.01
706.865	41385.11
707.209	41159.58
707.554	40892.47
707.899	40912.36
708.243	40551.91
708.588	40503.1
708.932	40044.81
709.277	39961.42
709.621	40156.67
709.966	39544.26
710.31	39551.71
710.654	39312.4
710.998	39224.94
711.342	39282.34
711.687	39245.96
712.031	38988.79
712.375	38900.21
712.719	39115.57
713.063	39079.64
713.407	39145.17
713.75	39019.52
714.094	39130.93
714.438	38820.21
714.782	39039.41
715.125	38982.69
715.469	39218.16
715.812	39033.54
716.156	38870.38
716.499	39132.52
716.843	39127.09
717.186	38860.88
717.53	39109.92
717.873	39059.75
718.216	39031.05
718.559	38760.1
718.902	38464.74
719.246	38541.57
719.589	38289.15
719.932	38102.49
720.275	38065.43
720.617	37926.45
720.96	37854.13
721.303	37661.82
721.646	37655.94
721.989	37318.1
722.331	37365.56
722.674	37218.67
723.016	37126.24
723.359	36912.69
723.701	36915.63
724.044	36740.71
724.386	36459.82
724.729	36638.34
725.071	36537.1
725.413	36648.29
725.755	36616.88
726.097	36486.48
726.439	36421.63
726.782	36529.87
727.124	36574.17
727.465	36505.24
727.807	36552.7
728.149	36549.53
728.491	36530.55
728.833	36565.58
729.175	36528.74
729.516	36608.97
729.858	36601.96
730.199	36613.26
730.541	36476.77
730.882	36467.5
731.224	36558.12
731.565	36187.28
731.906	36305.25
732.248	36244
732.589	36045.14
732.93	35799.04
733.271	35719.27
733.612	35870
733.953	35649.22
734.294	35348.21
734.635	35155.45
734.976	35224.6
735.317	34957.71
735.658	34865.51
735.999	34881.55
736.339	34654.44
736.68	34810.6
737.021	34515.69
737.361	34338.52
737.702	34662.8
738.042	34504.39
738.383	34457.84
738.723	34410.15
739.063	34417.16
739.404	34592.75
739.744	34333.32
740.084	34477.27
740.424	34525.86
740.764	34545.74
741.104	34715.01
741.444	34536.93
741.784	34516.37
742.124	34542.58
742.464	34608.34
742.804	34488.8
743.143	34573.54
743.483	34595.46
743.823	34434.56
744.162	34393.66
744.502	34465.97
744.841	34342.36
745.181	34468.01
745.52	34274.56
745.86	34193.66
746.199	34121.8
746.538	33915.7
746.877	34077.73
747.216	33884.97
747.556	33620.12
747.895	33650.4
748.234	33259
748.573	33160.92
748.911	33122.73
749.25	33037.08
749.589	32710.54
749.928	32816.52
750.267	32698.11
750.605	32637.32
750.944	32607.04
751.283	32433.71
751.621	32378.57
751.96	32284.33
752.298	32369.98
752.636	32160.04
752.975	32213.83
753.313	32097.45
753.651	32356.42
753.989	32077.56
754.327	32148.75
754.666	32124.11
755.004	32081.63
755.342	32118.01
755.679	32185.58
756.017	32070.33
756.355	32292.02
756.693	32118.69
757.031	32195.3
757.368	31997.79
757.706	31910.33
758.044	31847.06
758.381	31834.63
758.719	31738.13
759.056	31722.99
759.394	31584.92
759.731	31429.44
760.068	31320.29
760.405	31196.68
760.743	31051.6
761.08	30919.4
761.417	30765.28
761.754	30666.3
762.091	30536.36
762.428	30387.21
762.765	30059.99
763.102	30172.53
763.438	29873.78
763.775	29735.02
764.112	29720.11
764.449	29635.36
764.785	29360.34
765.122	29258.2
765.458	29137.3
765.795	29169.16
766.131	29121.71
766.467	29061.82
766.804	28824.99
767.14	28758.33
767.476	28893.46
767.812	28774.6
768.148	28828.83
768.485	28638.1
768.821	28718.78
769.157	28560.59
769.492	28643.3
769.828	28559.23
770.164	28501.84
770.5	28469.07
770.836	28471.33
771.171	28253.93
771.507	28287.38
771.842	28051.68
772.178	28206.48
772.513	28087.61
772.849	27907.27
773.184	27837.67
773.519	27858.01
773.855	27684.46
774.19	27549.54
774.525	27453.05
774.86	27361.07
775.195	27265.71
775.53	27031.82
775.865	26851.03
776.2	26685.39
776.535	26425.96
776.87	26416.92
777.205	26222.8
777.539	26060.09
777.874	26072.97
778.209	25799.53
778.543	25720.89
778.878	25467.56
779.212	25500.78
779.547	25204.97
779.881	25278.19
780.215	25104.41
780.55	25214.01
780.884	25057.18
781.218	24884.08
781.552	24997.29
781.886	24803.63
782.22	24703.97
782.554	24638.66
782.888	24456.07
783.222	24460.81
783.556	24521.6
783.889	24357.31
784.223	24301.72
784.557	24362.28
784.89	24391.21
785.224	24332.68
785.557	24260.14
785.891	24155.28
786.224	24186.47
786.558	24194.38
786.891	23883.2
787.224	23840.94
787.557	23807.95
787.891	23854.05
788.224	23822.86
788.557	23873.26
788.89	23626.48
789.223	23479.37
789.556	23437.11
789.888	23379.26
790.221	23268.3
790.554	23029.21
790.887	22980.4
791.219	22881.19
791.552	22713.29
791.884	22502.9
792.217	22410.47
792.549	22366.4
792.882	22011.84
793.214	22072.85
793.546	22012.97
793.879	21761.67
794.211	21669.7
794.543	21615.24
794.875	21684.61
795.207	21763.03
795.539	21434.22
795.871	21432.64
796.203	21220.22
796.535	21178.86
796.867	21214.12
797.198	21096.61
797.53	21032.43
797.862	20895.26
798.193	21048.02
798.525	20838.76
798.856	20975.03
799.188	20781.36
799.519	20823.85
799.85	20690.06
800.182	20737.52
800.513	20787.91
800.844	20684.41
801.175	20765.09
801.506	20851.19
801.837	20669.05
802.168	20657.52
802.499	20611.42
802.83	20452.33
803.161	20483.06
803.491	20434.93
803.822	20363.52
804.153	20251.2
804.483	20133.24
804.814	20118.1
805.145	20037.43
805.475	20076.75
805.805	19875.62
806.136	19859.35
806.466	19763.31
806.796	19695.97
807.126	19547.49
807.457	19436.99
807.787	19494.16
808.117	19228.41
808.447	19215.98
808.777	19219.14
809.107	19162.19
809.436	18982.31
809.766	18979.37
810.096	18829.32
810.426	18808.76
810.755	18692.38
811.085	18666.16
811.414	18676.33
811.744	18481.31
812.073	18580.51
812.403	18487.41
812.732	18294.87
813.061	18301.88
813.39	18303.91
813.719	18173.52
814.049	18271.14
814.378	18378.49
814.707	18174.65
815.036	18219.62
815.365	18151.15
815.693	17983.92
816.022	18144.59
816.351	18062.34
816.68	17986.18
817.008	18074.54
817.337	17933.98
817.665	18014.2
817.994	18069.79
818.322	18081.09
818.651	18004.71
818.979	17885.84
819.307	17997.7
819.636	17943.69
819.964	17835.45
820.292	17882
820.62	17951.83
820.948	17802
821.276	17804.04
821.604	17755.68
821.932	17693.98
822.259	17675.23
822.587	17706.86
822.915	17613.31
823.243	17778.73
823.57	17557.94
823.898	17524.72
824.225	17515.23
824.553	17498.51
824.88	17351.62
825.207	17421.45
825.535	17321.11
825.862	17298.29
826.189	17260.32
826.516	17357.72
826.843	17261.68
827.17	17298.97
827.497	17278.85
827.824	17223.26
828.151	17284.28
828.478	17096.94
828.805	17256.26
829.131	17136.48
829.458	17182.13
829.785	17075.47
830.111	17131.29
830.438	17188.01
830.764	17228.01
831.09	17264.84
831.417	17170.83
831.743	17219.42
832.069	17272.98
832.395	17219.87
832.722	17465.74
833.048	17264.39
833.374	17265.07
833.7	17271.17
834.026	17358.85
834.351	17409.7
834.677	17387.1
835.003	17521.11
835.329	17335.12
835.654	17402.92
835.98	17353.88
836.306	17376.93
836.631	17265.52
836.956	17314.11
837.282	17272.3
837.607	17242.24
837.932	17244.73
838.258	17215.35
838.583	17100.33
838.908	16990.05
839.233	17020.33
839.558	16969.94
839.883	16993.21
840.208	16836.38
840.533	16815.14
840.858	16778.3
841.182	16651.53
841.507	16761.35
841.832	16579.89
842.156	16640.68
842.481	16529.04
842.805	16408.37
843.13	16406.56
843.454	16342.16
843.778	16214.47
844.103	16200.01
844.427	16157.3
844.751	16158.21
845.075	16116.62
845.399	15966.35
845.723	15819
846.047	15916.4
846.371	15734.26
846.695	15831.89
847.019	15618.33
847.343	15654.49
847.666	15600.03
847.99	15482.97
848.313	15518.45
848.637	15455.62
848.96	15429.86
849.284	15341.28
849.607	15236.42
849.931	15277.78
850.254	15184.45
850.577	15191.9
850.9	15113.49
851.223	15134.73
851.546	15077.33
851.869	14960.95
852.192	15045.92
852.515	14862.87
852.838	14862.42
853.161	15015.86
853.483	14820.39
853.806	14855.64
854.129	14727.28
854.451	14648.19
854.774	14744.23
855.096	14609.32
855.419	14624.91
855.741	14578.13
856.063	14454.75
856.385	14420.17
856.708	14401.19
857.03	14255.43
857.352	14288.2
857.674	14262.21
857.996	14152.83
858.318	14023.8
858.64	14088.2
858.961	13882.11
859.283	13926.85
859.605	13869.45
859.926	13867.42
860.248	13683.69
860.57	13684.82
860.891	13612.51
861.212	13549.01
861.534	13568.67
861.855	13436.02
862.176	13423.14
862.498	13340.2
862.819	13332.97
863.14	13290.26
863.461	13268.11
863.782	13137.72
864.103	13240.54
864.424	13188.57
864.745	13235.34
865.065	13103.14
865.386	13083.26
865.707	13082.35
866.027	13103.14
866.348	13059.08
866.668	13066.53
866.989	12980.89
867.309	12992.86
867.63	12971.85
867.95	13058.85
868.27	12986.54
868.59	13011.85
868.91	13040.55
869.23	13025.18
869.55	12851.63
869.87	13004.62
870.19	13050.72
870.51	13100.21
870.83	13099.08
871.15	12977.05
871.469	13076.03
871.789	13021.34
872.109	12990.6
872.428	12991.06
872.748	12975.46
873.067	12975.24
873.386	12957.39
873.706	12928.23
874.025	12900.89
874.344	12859.31
874.663	12866.54
874.982	12836.71
875.301	12794
875.62	12763.04
875.939	12718.75
876.258	12674.91
876.577	12657.73
876.896	12610.73
877.214	12447.12
877.533	12523.72
877.852	12530.05
878.17	12479.88
878.489	12435.37
878.807	12392.65
879.125	12288.25
879.444	12367.34
879.762	12219.33
880.08	12203.73
880.398	12155.15
880.716	12067.01
881.034	12071.53
881.352	12125.54
881.67	12036.73
881.988	12031.99
882.306	11857.75
882.624	11922.16
882.941	11888.26
883.259	11794.03
883.577	11812.33
883.894	11759.45
884.212	11748.6
884.529	11803.52
884.846	11710.41
885.164	11712.22
885.481	11686.91
885.798	11682.16
886.115	11631.54
886.432	11641.26
886.75	11651.2
887.067	11733.69
887.383	11583.86
887.7	11673.58
888.017	11546.8
888.334	11703.18
888.651	11628.38
888.967	11576.63
889.284	11484.43
889.6	11541.83
889.917	11469.74
890.233	11430.42
890.55	11466.58
890.866	11464.77
891.182	11471.32
891.498	11372.79
891.815	11363.75
892.131	11310.42
892.447	11331.44
892.763	11235.4
893.079	11236.3
893.395	11241.05
893.71	11210.99
894.026	11170.99
894.342	11184.1
894.657	11081.73
894.973	11012.58
895.289	11039.02
895.604	10929.64
895.92	10928.74
896.235	10819.81
896.55	10812.36
896.865	10826.37
897.181	10669.54
897.496	10699.82
897.811	10627.73
898.126	10570.1
898.441	10554.74
898.756	10510.9
899.071	10444.23
899.386	10433.16
899.7	10239.94
900.015	10226.38
900.33	10107.52
900.644	10106.61
900.959	10100.96
901.273	10087.18
901.588	9970.57
901.902	9893.06
902.216	9869.33
902.531	9854.19
902.845	9860.97
903.159	9813.29
903.473	9766.96
903.787	9669.79
904.101	9660.75
904.415	9620.3
904.729	9658.04
905.042	9558.38
905.356	9552.96
905.67	9473.18
905.984	9612.39
906.297	9465.27
906.611	9433.86
906.924	9464.82
907.237	9410.36
907.551	9390.25
907.864	9364.71
908.177	9373.98
908.491	9356.8
908.804	9354.99
909.117	9175.11
909.43	9216.47
909.743	9192.29
910.056	9185.06
910.368	9244.71
910.681	9157.94
910.994	9168.11
911.307	9172.17
911.619	9077.04
911.932	9005.85
912.244	8959.07
912.557	8980.31
912.869	8942.58
913.181	8932.41
913.494	8914.33
913.806	8802.01
914.118	8759.53
914.43	8760.43
914.742	8691.73
915.054	8697.61
915.366	8643.6
915.678	8555.69
915.99	8555.47
916.302	8520.44
916.613	8412.65
916.925	8409.48
917.236	8418.75
917.548	8318.64
917.859	8343.72
918.171	8224.4
918.482	8266.21
918.794	8229.15
919.105	8127.68
919.416	8059.66
919.727	7998.65
920.038	8013.56
920.349	7946.22
920.66	7884.3
920.971	7831.19
921.282	7811.76
921.593	7731.99
921.903	7755.49
922.214	7632.78
922.525	7622.61
922.835	7515.27
923.146	7516.62
923.456	7514.82
923.767	7417.42
924.077	7443.63
924.387	7444.08
924.697	7365.22
925.008	7316.18
925.318	7312.11
925.628	7275.73
925.938	7346.01
926.248	7167.93
926.558	7209.97
926.867	7111.66
927.177	7143.98
927.487	7101.04
927.796	7101.27
928.106	7064.66
928.416	7054.04
928.725	7121.15
929.034	6997.54
929.344	7027.82
929.653	6999.58
929.962	6988.05
930.271	6984.66
930.581	6908.73
930.89	6946.7
931.199	6873.03
931.508	6839.58
931.817	6816.76
932.125	6790.09
932.434	6785.12
932.743	6699.24
933.051	6760.71
933.36	6671
933.669	6677.32
933.977	6709.64
934.286	6637.33
934.594	6619.25
934.902	6594.16
935.21	6541.96
935.519	6536.99
935.827	6560.72
936.135	6466.03
936.443	6425.81
936.751	6452.47
937.059	6396.2
937.367	6328.63
937.674	6336.54
937.982	6294.74
938.29	6210.67
938.597	6227.17
938.905	6145.81
939.213	6131.35
939.52	6104.91
939.827	6069.66
940.135	6027.85
940.442	5970
940.749	5986.95
941.056	5956.44
941.363	5871.02
941.67	5814.07
941.977	5875.31
942.284	5815.2
942.591	5754.18
942.898	5743.79
943.205	5743.34
943.511	5664.47
943.818	5705.6
944.125	5627.18
944.431	5613.85
944.738	5576.79
945.044	5537.69
945.35	5563.46
945.657	5494.53
945.963	5487.3
946.269	5446.62
946.575	5452.05
946.881	5352.39
947.187	5376.12
947.493	5383.57
947.799	5361.43
948.105	5346.51
948.41	5280.3
948.716	5336.34
949.022	5261.77
949.327	5257.7
949.633	5200.08
949.938	5186.06
950.244	5208.44
950.549	5161.88
950.854	5122.79
951.16	5154.88
951.465	5142.22
951.77	5074.43
952.075	5078.27
952.38	5027.42
952.685	5088.21
952.99	5056.58
953.294	5050.02
953.599	5072.85
953.904	4972.74
954.209	4964.38
954.513	4992.62
954.818	4924.6
955.122	4947.65
955.426	4908.78
955.731	4872.63
956.035	4888.22
956.339	4874.43
956.643	4872.63
956.948	4837.6
957.252	4784.04
957.556	4816.36
957.86	4784.94
958.163	4807.54
958.467	4730.03
958.771	4693.2
959.075	4669.02
959.378	4662.91
959.682	4674.44
959.985	4601.67
960.289	4566.87
960.592	4546.31
960.896	4535.46
961.199	4522.8
961.502	4438.74
961.805	4444.84
962.108	4423.82
962.411	4358.06
962.714	4340.21
963.017	4374.79
963.32	4363.03
963.623	4346.76
963.926	4273.55
964.228	4209.59
964.531	4204.17
964.833	4245.98
965.136	4216.6
965.438	4175.02
965.741	4087.56
966.043	4128.69
966.345	4087.56
966.648	4076.04
966.95	4070.39
967.252	4061.8
967.554	4033.33
967.856	3994.91
968.158	3921.46
968.46	3935.25
968.761	3910.17
969.063	3905.42
969.365	3902.26
969.666	3889.6
969.968	3892.09
970.269	3863.39
970.571	3843.27
970.872	3829.04
971.174	3822.71
971.475	3793.11
971.776	3776.61
972.077	3766.21
972.378	3757.63
972.679	3748.59
972.98	3757.63
973.281	3736.38
973.582	3695.03
973.883	3688.7
974.183	3668.59
974.484	3659.32
974.785	3636.5
975.085	3658.42
975.386	3670.85
975.686	3651.87
975.986	3627.69
976.287	3613.9
976.587	3572.32
976.887	3607.8
977.187	3558.76
977.487	3562.38
977.787	3513.79
978.087	3502.94
978.387	3476.28
978.687	3488.03
978.987	3464.3
979.286	3450.97
979.586	3438.77
979.885	3446
980.185	3404.64
980.484	3407.81
980.784	3382.27
981.083	3389.95
981.382	3350.86
981.682	3360.35
981.981	3321.93
982.28	3331.2
982.579	3290.07
982.878	3282.39
983.177	3277.41
983.475	3277.87
983.774	3219.11
984.073	3222.27
984.372	3235.38
984.67	3151.99
984.969	3174.59
985.267	3150.41
985.566	3102.73
985.864	3095.27
986.162	3126.01
986.461	3089.62
986.759	3085.1
987.057	3050.3
987.355	3000.81
987.653	2985.22
987.951	2982.73
988.249	2959.46
988.547	2968.95
988.844	2906.12
989.142	2931.89
989.44	2889.85
989.737	2874.71
990.035	2869.74
990.332	2849.85
990.63	2865.22
990.927	2842.62
991.224	2788.61
991.521	2804.43
991.819	2807.37
992.116	2786.58
992.413	2766.92
992.71	2744.09
993.006	2746.35
993.303	2704.55
993.6	2725.79
993.897	2717.2
994.193	2697.09
994.49	2683.31
994.787	2676.07
995.083	2591.78
995.379	2628.62
995.676	2631.56
995.972	2630.65
996.268	2610.09
996.565	2584.78
996.861	2531.44
997.157	2576.87
997.453	2538.9
997.749	2540.03
998.044	2527.38
998.34	2520.82
998.636	2502.97
998.932	2486.47
999.227	2494.61
999.523	2477.89
999.818	2487.38
1000.114	2485.8
1000.409	2489.86
1000.704	2416.65
1001	2429.98
1001.295	2424.1
1001.59	2399.24
1001.885	2395.18
1002.18	2391.79
1002.475	2365.35
1002.77	2370.32
1003.065	2332.58
1003.359	2368.29
1003.654	2325.8
1003.949	2298.23
1004.243	2293.03
1004.538	2258.46
1004.832	2298.46
1005.127	2289.42
1005.421	2283.32
1005.715	2229.76
1006.009	2240.83
1006.304	2225.69
1006.598	2204.22
1006.892	2184.34
1007.186	2182.08
1007.48	2203.77
1007.773	2171.23
1008.067	2168.97
1008.361	2171.45
1008.655	2088.07
1008.948	2104.11
1009.242	2103.66
1009.535	2061.63
1009.829	2036.09
1010.122	2044.68
1010.415	2038.12
1010.708	2003.55
1011.001	2010.55
1011.295	1975.53
1011.588	1972.59
1011.881	1945.92
1012.173	1937.79
1012.466	1924.91
1012.759	1911.35
1013.052	1929.88
1013.344	1934.17
1013.637	1898.69
1013.93	1854.17
1014.222	1867.28
1014.514	1846.94
1014.807	1840.84
1015.099	1829.32
1015.391	1816.44
1015.683	1799.49
1015.976	1801.97
1016.268	1764.46
1016.56	1748.19
1016.851	1766.49
1017.143	1747.96
1017.435	1744.57
1017.727	1702.99
1018.018	1704.35
1018.31	1706.83
1018.602	1681.75
1018.893	1657.8
1019.185	1645.14
1019.476	1660.06
1019.767	1614.86
1020.058	1644.91
1020.35	1647.85
1020.641	1605.59
1020.932	1587.29
1021.223	1588.64
1021.514	1581.64
1021.804	1564.69
1022.095	1565.14
1022.386	1565.59
1022.677	1556.78
1022.967	1543.45
1023.258	1519.04
1023.548	1504.58
1023.839	1504.35
1024.129	1509.55
1024.419	1485.6
1024.709	1494.64
1025	1463.22
1025.29	1460.51
1025.58	1444.02
1025.87	1450.12
1026.16	1442.89
1026.449	1432.26
1026.739	1421.64
1027.029	1400.18
1027.319	1422.32
1027.608	1403.11
1027.898	1375.09
1028.187	1371.02
1028.477	1382.32
1028.766	1356.33
1029.055	1296.22
1029.344	1343.45
1029.634	1334.87
1029.923	1289.9
1030.212	1320.63
1030.501	1282.89
1030.79	1265.72
1031.078	1268.2
1031.367	1293.06
1031.656	1275.88
1031.945	1252.16
1032.233	1240.86
1032.522	1244.47
1032.81	1229.56
1033.099	1238.15
1033.387	1221.2
1033.675	1191.14
1033.963	1205.15
1034.251	1191.82
1034.54	1194.08
1034.828	1185.72
1035.116	1175.1
1035.403	1134.42
1035.691	1136.45
1035.979	1147.53
1036.267	1125.15
1036.554	1127.64
1036.842	1109.79
1037.129	1115.44
1037.417	1106.62
1037.704	1105.95
1037.992	1106.4
1038.279	1089.22
1038.566	1062.1
1038.853	1062.1
1039.14	1062.1
