Data from red_cardboard_box_FLMS001491_00085.txt Node
Date: Wed Feb 08 11:33:16 GMT 2017
User: dcchb
Spectrometer: FLMS00149
Trigger mode: 0
Integration Time (sec): 2.000000E-2
Scans to average: 10
Electric dark correction enabled: true
Nonlinearity correction enabled: false
Boxcar width: 0
XAxis mode: Wavelengths
Number of Pixels in Spectrum: 2048
>>>>>Begin Spectral Data<<<<<
341.393	-23.33
341.776	-23.33
342.16	-23.33
342.543	-56.78
342.927	-71.24
343.31	-80.28
343.693	-55.42
344.077	-55.87
344.46	-65.37
344.843	-50.22
345.226	-43.9
345.61	-43.9
345.993	-9.55
346.376	6.5
346.759	7.4
347.142	20.51
347.525	40.62
347.908	50.79
348.291	67.06
348.674	84.69
349.057	126.95
349.44	135.08
349.823	139.15
350.206	153.84
350.588	194.29
350.971	197.68
351.354	226.83
351.737	236.77
352.119	271.35
352.502	258.69
352.884	274.06
353.267	310.44
353.65	303.66
354.032	296.43
354.414	319.26
354.797	319.94
355.179	304.12
355.562	344.34
355.944	323.1
356.326	333.27
356.709	326.04
357.091	358.8
357.473	323.55
357.855	355.64
358.238	365.13
358.62	363.32
359.002	345.47
359.384	335.75
359.766	337.56
360.148	338.69
360.53	337.79
360.912	356.54
361.294	338.92
361.676	362.42
362.057	328.52
362.439	333.49
362.821	328.52
363.203	337.79
363.584	350.89
363.966	308.18
364.348	319.71
364.729	326.26
365.111	313.16
365.493	317.9
365.874	328.97
366.256	329.43
366.637	338.69
367.019	302.99
367.4	316.32
367.781	320.16
368.163	302.99
368.544	305.25
368.925	320.39
369.306	339.14
369.688	342.08
370.069	301.86
370.45	320.61
370.831	309.77
371.212	324.68
371.593	325.81
371.974	320.39
372.355	312.93
372.736	327.39
373.117	315.42
373.498	326.94
373.879	331.91
374.26	326.04
374.641	321.97
375.021	331.91
375.402	337.11
375.783	333.27
376.163	332.82
376.544	351.8
376.925	310.9
377.305	322.65
377.686	340.5
378.066	362.42
378.447	334.17
378.827	321.07
379.208	333.04
379.588	317.22
379.968	338.01
380.349	336.21
380.729	326.49
381.109	329.88
381.489	340.05
381.87	346.83
382.25	336.88
382.63	350.22
383.01	338.69
383.39	351.8
383.77	351.57
384.15	362.19
384.53	345.47
384.91	361.52
385.29	352.02
385.67	356.54
386.049	358.58
386.429	344.12
386.809	353.83
387.189	351.35
387.568	357.22
387.948	342.99
388.328	352.93
388.707	346.83
389.087	347.05
389.466	369.88
389.846	357.9
390.225	345.02
390.605	343.89
390.984	352.48
391.363	370.33
391.743	366.71
392.122	364.91
392.501	372.14
392.881	366.26
393.26	362.65
393.639	366.49
394.018	363.78
394.397	386.83
394.776	373.72
395.155	364.45
395.534	373.94
395.913	360.39
396.292	360.39
396.671	361.97
397.05	357.22
397.429	384.79
397.808	375.07
398.186	360.61
398.565	359.71
398.944	358.35
399.323	391.57
399.701	387.05
400.08	361.06
400.458	387.28
400.837	414.17
401.215	373.49
401.594	397.45
401.972	385.02
402.351	397.67
402.729	394.96
403.107	387.96
403.486	382.76
403.864	387.28
404.242	395.87
404.62	382.08
404.999	394.96
405.377	394.74
405.755	418.24
406.133	397.45
406.511	397.67
406.889	414.85
407.267	438.58
407.645	402.19
408.023	419.82
408.401	408.75
408.779	409.88
409.156	408.75
409.534	407.62
409.912	415.75
410.29	408.52
410.667	417.11
411.045	436.99
411.422	422.53
411.8	434.51
412.178	452.14
412.555	444.68
412.933	427.95
413.31	427.28
413.687	434.73
414.065	448.97
414.442	456.88
414.819	449.65
415.197	448.29
415.574	472.02
415.951	458.46
416.328	469.31
416.705	444.45
417.082	474.28
417.46	461.4
417.837	462.3
418.214	476.09
418.591	474.96
418.967	473.38
419.344	465.69
419.721	480.61
420.098	448.29
420.475	478.57
420.852	467.95
421.228	502.98
421.605	476.09
421.982	505.47
422.358	473.15
422.735	495.3
423.111	486.48
423.488	502.08
423.864	512.47
424.241	506.6
424.617	494.85
424.994	501.85
425.37	516.31
425.746	504.79
426.123	523.77
426.499	531.23
426.875	522.64
427.251	512.02
427.627	505.92
428.003	540.95
428.379	518.8
428.756	507.95
429.132	528.52
429.507	550.21
429.883	559.02
430.259	556.54
430.635	544.79
431.011	532.36
431.387	539.82
431.763	554.28
432.138	554.73
432.514	562.64
432.89	559.25
433.265	577.56
433.641	587.95
434.016	575.52
434.392	569.42
434.767	587.72
435.143	592.02
435.518	616.2
435.894	623.88
436.269	611.9
436.644	601.74
437.02	608.74
437.395	615.52
437.77	587.95
438.145	610.32
438.52	611.68
438.895	646.93
439.271	620.27
439.646	658.68
440.021	632.92
440.395	609.19
440.77	624.56
441.145	637.89
441.52	657.1
441.895	652.81
442.27	669.08
442.645	662.3
443.019	667.95
443.394	637.67
443.769	650.77
444.143	663.65
444.518	675.86
444.892	652.81
445.267	656.2
445.641	683.99
446.016	653.94
446.39	663.43
446.764	700.49
447.139	695.52
447.513	668.63
447.887	688.51
448.262	681.73
448.636	693.71
449.01	704.11
449.384	711.56
449.758	720.15
450.132	713.6
450.506	728.29
450.88	699.13
451.254	732.13
451.628	713.6
452.002	717.21
452.376	713.6
452.75	735.29
453.123	758.34
453.497	738.46
453.871	748.62
454.244	766.93
454.618	761.28
454.992	748.85
455.365	767.15
455.739	780.94
456.112	771
456.486	777.32
456.859	761.05
457.232	779.13
457.606	784.33
457.979	812.13
458.352	819.58
458.725	800.15
459.099	851.45
459.472	805.12
459.845	808.06
460.218	848.96
460.591	852.58
460.964	830.43
461.337	853.03
461.71	853.93
462.083	860.94
462.456	883.76
462.829	888.06
463.201	887.15
463.574	855.51
463.947	892.12
464.32	888.73
464.692	913.82
465.065	924.89
465.438	915.85
465.81	948.62
466.183	941.61
466.555	932.8
466.928	939.81
467.3	957.43
467.672	961.05
468.045	966.25
468.417	979.35
468.789	1001.27
469.161	1027.26
469.534	1026.13
469.906	1003.98
470.278	1007.37
470.65	1049.18
471.022	1057.54
471.394	1051.44
471.766	1065.23
472.138	1070.88
472.51	1105.45
472.882	1077.2
473.253	1087.82
473.625	1114.26
473.997	1119.24
474.369	1169.4
474.74	1128.05
475.112	1188.16
475.484	1169.86
475.855	1208.05
476.227	1199.46
476.598	1237.43
476.97	1227.26
477.341	1276.07
477.713	1273.58
478.084	1270.64
478.455	1317.2
478.827	1318.55
479.198	1335.95
479.569	1359.91
479.94	1374.82
480.311	1364.43
480.682	1409.17
481.053	1388.83
481.424	1453.92
481.795	1431.77
482.166	1460.02
482.537	1512.22
482.908	1534.37
483.279	1513.12
483.65	1545.44
484.021	1574.82
484.391	1566.23
484.762	1591.77
485.133	1593.12
485.503	1610.3
485.874	1623.63
486.244	1666.11
486.615	1682.39
486.985	1704.31
487.356	1711.99
487.726	1738.2
488.097	1748.15
488.467	1758.77
488.837	1827.01
489.207	1813.91
489.578	1837.41
489.948	1827.92
490.318	1870.18
490.688	1891.65
491.058	1900.23
491.428	1941.59
491.798	1969.16
492.168	1989.5
492.538	1986.33
492.908	1999.89
493.278	2053.67
493.648	2076.27
494.017	2075.82
494.387	2099.78
494.757	2134.12
495.126	2121.47
495.496	2116.05
495.866	2130.06
496.235	2170.51
496.605	2176.61
496.974	2173.45
497.344	2210.96
497.713	2245.99
498.082	2247.34
498.452	2253.44
498.821	2251.86
499.19	2260.45
499.559	2324.18
499.928	2315.36
500.298	2312.65
500.667	2331.41
501.036	2375.25
501.405	2403.72
501.774	2343.16
502.143	2386.55
502.512	2439.43
502.88	2428.58
503.249	2434.91
503.618	2459.31
503.987	2472.87
504.356	2497.5
504.724	2498.18
505.093	2494.12
505.462	2537.28
505.83	2546.32
506.199	2518.75
506.567	2610.72
506.936	2623.83
507.304	2625.64
507.672	2622.25
508.041	2646.2
508.409	2695.47
508.777	2687.56
509.145	2695.47
509.514	2748.35
509.882	2739.08
510.25	2748.57
510.618	2796.03
510.986	2773.88
511.354	2827.67
511.722	2833.09
512.09	2882.81
512.458	2872.64
512.826	2889.59
513.193	2870.15
513.561	2952.86
513.929	2939.98
514.297	2964.39
514.664	2995.57
515.032	2991.05
515.4	3024.95
515.767	3025.85
516.135	3092.74
516.502	3037.15
516.869	3117.15
517.237	3122.35
517.604	3124.61
517.972	3150.82
518.339	3195.79
518.706	3170.48
519.073	3215.9
519.44	3231.72
519.808	3295
520.175	3260.2
520.542	3290.7
520.909	3341.1
521.276	3322.12
521.643	3360.31
522.009	3433.07
522.376	3437.14
522.743	3474.2
523.11	3464.49
523.477	3498.38
523.843	3547.65
524.21	3593.3
524.577	3602.33
524.943	3595.1
525.31	3651.37
525.676	3643.69
526.043	3731.82
526.409	3718.26
526.776	3746.74
527.142	3769.56
527.508	3797.36
527.874	3805.95
528.241	3837.81
528.607	3875.55
528.973	3907.86
529.339	3922.33
529.705	3939.95
530.071	3988.09
530.437	4050.46
530.803	4038.48
531.169	4102.89
531.535	4030.57
531.901	4087.97
532.267	4082.32
532.632	4148.76
532.998	4167.29
533.364	4134.52
533.73	4211.36
534.095	4234.86
534.461	4210.68
534.826	4279.83
535.192	4271.02
535.557	4351.24
535.923	4380.17
536.288	4379.26
536.653	4399.6
537.019	4327.51
537.384	4366.61
537.749	4449.09
538.114	4455.87
538.479	4508.75
538.845	4495.87
539.21	4521.63
539.575	4541.97
539.94	4573.38
540.305	4584.23
540.67	4586.49
541.034	4599.6
541.399	4628.52
541.764	4651.12
542.129	4683.21
542.494	4693.61
542.858	4761.85
543.223	4720.95
543.587	4777.9
543.952	4809.99
544.316	4780.83
544.681	4845.69
545.045	4802.53
545.41	4852.92
545.774	4921.85
546.138	4951.9
546.503	4919.59
546.867	4954.39
547.231	5008.17
547.595	5060.15
547.959	5040.71
548.324	5045.69
548.688	5083.65
549.052	5099.7
549.416	5082.97
549.779	5150.32
550.143	5163.42
550.507	5216.3
550.871	5273.25
551.235	5232.8
551.599	5299.24
551.962	5397.32
552.326	5339.01
552.689	5336.07
553.053	5399.12
553.417	5437.99
553.78	5468.27
554.143	5581.27
554.507	5592.56
554.87	5548.5
555.234	5631.43
555.597	5620.36
555.96	5710.3
556.323	5733.8
556.686	5727.93
557.05	5842.05
557.413	5807.7
557.776	5870.98
558.139	5885.66
558.502	5994.59
558.865	5983.74
559.228	6038.65
559.59	6133.57
559.953	6115.04
560.316	6188.48
560.679	6260.12
561.041	6240.91
561.404	6347.12
561.767	6388.02
562.129	6390.06
562.492	6486.78
562.854	6504.63
563.217	6539.21
563.579	6608.58
563.941	6675.7
564.304	6784.4
564.666	6825.75
565.028	6830.05
565.39	6834.11
565.753	7001.34
566.115	7023.49
566.477	7085.86
566.839	7193.88
567.201	7216.93
567.563	7270.71
567.925	7377.38
568.287	7428.45
568.648	7420.99
569.01	7587.09
569.372	7624.38
569.734	7652.85
570.095	7744.15
570.457	7804.71
570.819	7938.04
571.18	7949.34
571.542	8066.62
571.903	8091.93
572.265	8201.31
572.626	8269.56
572.987	8308.88
573.349	8451.92
573.71	8521.75
574.071	8589.77
574.432	8728.98
574.794	8818.92
575.155	8879.03
575.516	8959.48
575.877	9053.94
576.238	9117.22
576.599	9244.45
576.96	9326.03
577.32	9439.24
577.681	9499.58
578.042	9645.79
578.403	9775.28
578.763	9857.54
579.124	9970.53
579.485	10109.06
579.845	10234.7
580.206	10397.86
580.566	10466.79
580.927	10577.52
581.287	10773.9
581.648	10871.3
582.008	11063.16
582.368	11208.01
582.728	11320.78
583.089	11435.35
583.449	11609.81
583.809	11820.88
584.169	12007.09
584.529	12114.43
584.889	12446.4
585.249	12560.52
585.609	12704.24
585.969	12996.66
586.329	13121.41
586.688	13409.53
587.048	13568.4
587.408	13732.01
587.768	13946.7
588.127	14238.21
588.487	14404.08
588.846	14729.95
589.206	14955.26
589.565	15225.08
589.925	15580.55
590.284	15785.29
590.643	16140.08
591.003	16365.16
591.362	16710.24
591.721	16964.02
592.08	17249.89
592.44	17549.76
592.799	17883.54
593.158	18187.49
593.517	18480.59
593.876	18825.21
594.235	19146.33
594.593	19435.36
594.952	19937.27
595.311	20173.2
595.67	20501.1
596.029	20946.96
596.387	21271.93
596.746	21824.68
597.104	22056.76
597.463	22396.64
597.822	22761.6
598.18	23088.15
598.538	23474.58
598.897	24002.7
599.255	24100.1
599.613	24782.79
599.972	24996.8
600.33	25496.67
600.688	25653.05
601.046	26170.55
601.404	26483.77
601.762	26891.89
602.12	27383.18
602.478	27638.09
602.836	28055.25
603.194	28408.01
603.552	28728.45
603.91	28925.96
604.268	29517.13
604.625	29693.63
604.983	30170.45
605.341	30426.26
605.698	30903.31
606.056	31266.69
606.413	31560.47
606.771	31868.71
607.128	32250.62
607.485	32419.43
607.843	32686.54
608.2	33167.21
608.557	33573.3
608.914	33770.58
609.272	34150.68
609.629	34453.5
609.986	34776.2
610.343	34924
610.7	35474.49
611.057	35537.09
611.414	35729.17
611.771	36069.96
612.127	36402.38
612.484	36656.61
612.841	36897.96
613.198	36970.72
613.554	37236.93
613.911	37493.19
614.267	37782.9
614.624	37860.42
614.98	38075.55
615.337	38391.7
615.693	38595.09
616.05	38804.12
616.406	39079.82
616.762	39092.25
617.118	39300.83
617.475	39605.23
617.831	39868.5
618.187	39967.48
618.543	40249.51
618.899	40431.87
619.255	40680.46
619.611	40550.74
619.967	40893.78
620.323	41171.52
620.678	41083.38
621.034	41108.47
621.39	41306.65
621.746	41322.02
622.101	41825.06
622.457	41588
622.812	41900.31
623.168	41954.77
623.523	42082.9
623.879	42361.54
624.234	42038.16
624.589	42368.77
624.945	42539.62
625.3	42546.17
625.655	42690.8
626.01	42780.06
626.365	42808.31
626.72	42822.77
627.075	42928.98
627.43	42872.49
627.785	42988.42
628.14	43101.64
628.495	43139.15
628.85	43349.54
629.205	43221.63
629.559	43560.61
629.914	43282.87
630.269	43425.69
630.623	43371.01
630.978	43440.38
631.332	43651
631.687	43652.13
632.041	43687.38
632.396	43695.97
632.75	43529.87
633.104	43683.09
633.459	43654.39
633.813	43493.26
634.167	43612.13
634.521	43662.3
634.875	43869.07
635.229	43678.12
635.583	43642.64
635.937	43619.81
636.291	43677.67
636.645	43680.38
636.999	43633.15
637.352	43941.39
637.706	43649.87
638.06	43801.28
638.413	43719.47
638.767	43690.55
639.121	43779.58
639.474	43534.39
639.828	43693.71
640.181	43740.71
640.534	43857.77
640.888	43681.05
641.241	43661.85
641.594	43554.28
641.947	43829.98
642.301	43728.96
642.654	43703.2
643.007	43735.97
643.36	43832.01
643.713	43756.53
644.066	43857.1
644.419	43532.36
644.771	43258.02
645.124	42961.53
645.477	42838.14
645.83	42673.85
646.182	42544.14
646.535	42614.64
646.888	42656.68
647.24	42520.41
647.593	42746.62
647.945	42603.34
648.298	42462.56
648.65	42413.07
649.002	42317.02
649.355	42552.04
649.707	42401.09
650.059	42603.57
650.411	43087.17
650.763	43152.03
651.115	43532.13
651.467	43428.63
651.819	43439.48
652.171	43431.8
652.523	43346.37
652.875	43325.81
653.227	43187.73
653.578	43488.52
653.93	43396.32
654.282	43242.2
654.633	43188.64
654.985	43234.96
655.337	43354.06
655.688	43263.66
656.039	43467.5
656.391	43154.29
656.742	43142.31
657.094	43225.25
657.445	43314.51
657.796	43148.41
658.147	43236.55
658.498	43116.55
658.849	43325.36
659.2	43084.01
659.551	43182.31
659.902	43250.56
660.253	43200.84
660.604	43224.12
660.955	43082.88
661.306	43096.21
661.656	43238.35
662.007	43132.82
662.358	43275.19
662.708	43236.09
663.059	43184.8
663.409	43053.05
663.76	43348.86
664.11	43192.71
664.461	43224.57
664.811	43343.21
665.161	43177.57
665.511	43139.6
665.862	43145.7
666.212	43270.44
666.562	43212.37
666.912	43137.79
667.262	43119.71
667.612	43094.86
667.962	43121.52
668.312	43134.63
668.662	43239.71
669.011	43162.65
669.361	43076.32
669.711	43111.58
670.06	43066.16
670.41	42992.49
670.76	42831.13
671.109	43011.69
671.459	42879.72
671.808	42936.22
672.157	42961.07
672.507	42760.85
672.856	42766.73
673.205	42853.28
673.554	42923.33
673.904	42667.3
674.253	43002.43
674.602	42827.29
674.951	42357.7
675.3	42113.41
675.649	42766.95
675.998	42703.23
676.346	42594.53
676.695	42785.49
677.044	42578.48
677.393	42643.34
677.741	42832.72
678.09	42602.67
678.438	42480.18
678.787	42538.49
679.135	42533.51
679.484	42399.73
679.832	42452.84
680.181	42250.36
680.529	42401.77
680.877	42152.96
681.225	42246.06
681.573	42538.71
681.922	42290.58
682.27	41981.21
682.618	42154.54
682.966	42009.01
683.314	42016.47
683.661	42045.84
684.009	41724.04
684.357	41738.73
684.705	41628.91
685.053	41781.22
685.4	41601.11
685.748	41391.4
686.095	41462.58
686.443	41233.44
686.79	41350.04
687.138	41260.55
687.485	41288.35
687.832	41070.5
688.18	41139.65
688.527	40996.83
688.874	40975.59
689.221	40881.81
689.568	40617.18
689.915	40621.47
690.262	40758.87
690.609	40426.68
690.956	40556.39
691.303	40378.99
691.65	40260.13
691.997	40217.64
692.344	40034.6
692.69	39983.07
693.037	40067.14
693.383	39643.19
693.73	39827.82
694.077	39567.72
694.423	39555.51
694.769	39549.86
695.116	39460.15
695.462	39293.37
695.808	39219.25
696.155	39280.04
696.501	38988.52
696.847	39000.05
697.193	38703.78
697.539	38835.98
697.885	38583.56
698.231	38505.15
698.577	38595.76
698.923	38443.68
699.269	38279.16
699.614	38012.05
699.96	38104.03
700.306	38121.65
700.651	37899.29
700.997	37826.07
701.342	37635.11
701.688	37685.05
702.033	37450.94
702.379	37553.08
702.724	37431.95
703.069	37403.03
703.415	37081
703.76	37209.81
704.105	37126.2
704.45	37026.54
704.795	36834
705.14	36792.65
705.485	36764.17
705.83	36656.61
706.175	36641.69
706.52	36618.19
706.865	36462.49
707.209	36271.08
707.554	36220.91
707.899	36224.98
708.243	35983.63
708.588	35946.79
708.932	35868.83
709.277	35785.9
709.621	35804.43
709.966	35447.6
710.31	35669.29
710.654	35328.05
710.998	35397.43
711.342	35370.76
711.687	35382.06
712.031	35259.13
712.375	35072.02
712.719	35180.26
713.063	35165.57
713.407	35128.06
713.75	34902.75
714.094	35019.36
714.438	34722.19
714.782	34786.15
715.125	34635.64
715.469	34794.51
715.812	34439.94
716.156	34304.58
716.499	34347.74
716.843	34443.78
717.186	34189.55
717.53	34413.28
717.873	34279.04
718.216	34207.63
718.559	34076.56
718.902	33881.99
719.246	34073.62
719.589	33807.19
719.932	33615.56
720.275	33677.25
720.617	33724.03
720.96	33544.15
721.303	33614.2
721.646	33649.68
721.989	33388.22
722.331	33616.01
722.674	33478.16
723.016	33548.21
723.359	33358.84
723.701	33368.56
724.044	33169.69
724.386	33160.65
724.729	33204.95
725.071	33034.78
725.413	33062.13
725.755	32996.82
726.097	32937.61
726.439	32768.8
726.782	32827.1
727.124	32920.89
727.465	32628.69
727.807	32727.44
728.149	32645.64
728.491	32689.93
728.833	32592.98
729.175	32521.12
729.516	32476.15
729.858	32304.86
730.199	32384.18
730.541	32308.02
730.882	32310.73
731.224	32429.37
731.565	32178.08
731.906	32061.02
732.248	32153
732.589	32070.96
732.93	31979.89
733.271	32007.24
733.612	31929.73
733.953	31876.39
734.294	31804.3
734.635	31786.9
734.976	32015.6
735.317	31762.72
735.658	31598.89
735.999	31694.48
736.339	31597.76
736.68	31681.82
737.021	31583.52
737.361	31465.33
737.702	31654.03
738.042	31479.57
738.383	31363.86
738.723	31496.29
739.063	31357.76
739.404	31436.41
739.744	31154.83
740.084	31215.62
740.424	31365.45
740.764	31193.7
741.104	31278.22
741.444	31028.96
741.784	30881.62
742.124	31008.17
742.464	31014.04
742.804	30878.45
743.143	30851.79
743.483	30870.09
743.823	30591
744.162	30621.96
744.502	30691.11
744.841	30612.25
745.181	30687.05
745.52	30628.97
745.86	30594.85
746.199	30550.33
746.538	30497.67
746.877	30523.43
747.216	30437.11
747.556	30376.55
747.895	30378.13
748.234	30237.11
748.573	30174.07
748.911	30175.87
749.25	30242.76
749.589	30056.55
749.928	29998.48
750.267	30126.83
750.605	30040.06
750.944	29951.7
751.283	29865.6
751.621	29911.47
751.96	29737.24
752.298	29760.29
752.636	29699.73
752.975	29524.59
753.313	29476.68
753.651	29663.8
753.989	29492.05
754.327	29384.26
754.666	29268.33
755.004	29405.5
755.342	29336.12
755.679	29202.34
756.017	29097.26
756.355	29198.72
756.693	29043.7
757.031	29185.84
757.368	28982.23
757.706	28921.67
758.044	28829.02
758.381	28870.14
758.719	28704.05
759.056	28700.66
759.394	28662.24
759.731	28504.28
760.068	28376.6
760.405	28302.93
760.743	28301.12
761.08	28484.17
761.417	28203.72
761.754	28109.49
762.091	27893.22
762.428	28067.91
762.765	27870.85
763.102	27871.08
763.438	27761.7
763.775	27617.97
764.112	27562.83
764.449	27575.49
764.785	27504.98
765.122	27246.46
765.458	27248.04
765.795	27137.99
766.131	27128.27
766.467	27098.21
766.804	26891.21
767.14	26770.09
767.476	26758.34
767.812	26549.53
768.148	26778.9
768.485	26543.2
768.821	26298.46
769.157	26422.53
769.492	26249.2
769.828	26262.76
770.164	26025.7
770.5	25998.13
770.836	26052.14
771.171	25867.29
771.507	25873.84
771.842	25571.47
772.178	25655.09
772.513	25646.95
772.849	25544.13
773.184	25354.98
773.519	25456.45
773.855	25274.76
774.19	25189.56
774.525	24971.04
774.86	24928.78
775.195	24969
775.53	24821.44
775.865	24804.94
776.2	24600.43
776.535	24488.79
776.87	24331.96
777.205	24377.38
777.539	24106.2
777.874	24364.95
778.209	24161.79
778.543	24051.29
778.878	23877.06
779.212	23812.65
779.547	23710.96
779.881	23828.24
780.215	23592.54
780.55	23731.52
780.884	23475.03
781.218	23520
781.552	23442.72
781.886	23232.1
782.22	23204.31
782.554	23121.82
782.888	22854.26
783.222	22724.09
783.556	22770.42
783.889	22645
784.223	22478.45
784.557	22449.07
784.89	22505.11
785.224	22409.98
785.557	22301.5
785.891	22084.33
786.224	22078.91
786.558	22125.92
786.891	21951.68
787.224	21917.33
787.557	21746.04
787.891	21820.39
788.224	21683.89
788.557	21692.48
788.89	21639.37
789.223	21594.4
789.556	21444.8
789.888	21389.44
790.221	21251.14
790.554	21140.63
790.887	21190.8
791.219	21032.84
791.552	20986.51
791.884	20930.24
792.217	20938.6
792.549	20757.36
792.882	20608.22
793.214	20560.08
793.546	20475.34
793.879	20300.88
794.211	20190.6
794.543	20387.2
794.875	20286.87
795.207	20328.9
795.539	20284.16
795.871	20211.84
796.203	20031.96
796.535	19883.49
796.867	19917.84
797.198	19861.79
797.53	19777.5
797.862	19663.83
798.193	19708.35
798.525	19600.11
798.856	19625.87
799.188	19411.41
799.519	19420.9
799.85	19304.52
800.182	19359.43
800.513	19246.9
800.844	19050.97
801.175	19147.24
801.506	19122.15
801.837	19007.58
802.168	19080.8
802.499	18914.02
802.83	18815.49
803.161	18829.96
803.491	18735.95
803.822	18747.93
804.153	18674.25
804.483	18416.63
804.814	18507.93
805.145	18516.29
805.475	18423.87
805.805	18305.45
806.136	18357.2
806.466	18435.84
806.796	18257.99
807.126	18108.62
807.457	18164.21
807.787	17996.08
808.117	17973.48
808.447	18017.1
808.777	17949.53
809.107	17928.29
809.436	17824.33
809.766	17863.88
810.096	17769.19
810.426	17689.65
810.755	17664.34
811.085	17711.12
811.414	17698.01
811.744	17434.06
812.073	17496.21
812.403	17398.81
812.732	17356.55
813.061	17394.51
813.39	17223.22
813.719	17228.42
814.049	17207.85
814.378	17130.11
814.707	17011.25
815.036	17000.17
815.365	17026.16
815.693	16901.65
816.022	16972.38
816.351	16845.38
816.68	16707.75
817.008	16869.56
817.337	16625.27
817.665	16594.54
817.994	16713.18
818.322	16594.31
818.651	16561.32
818.979	16522.45
819.307	16567.64
819.636	16513.18
819.964	16435.67
820.292	16450.81
820.62	16421.21
820.948	16303.24
821.276	16430.02
821.604	16367.65
821.932	16360.19
822.259	16413.07
822.587	16283.58
822.915	16376.46
823.243	16377.82
823.57	16264.15
823.898	16235.22
824.225	16262.11
824.553	16225.73
824.88	16248.56
825.207	16237.48
825.535	16364.71
825.862	16329.46
826.189	16193.64
826.516	16321.55
826.843	16353.41
827.17	16298.95
827.497	16327.2
827.824	16305.96
828.151	16290.81
828.478	16332.85
828.805	16289.68
829.131	16230.25
829.458	16245.39
829.785	16145.73
830.111	16176.92
830.438	16269.57
830.764	16190.48
831.09	16202.46
831.417	16187.31
831.743	16269.12
832.069	16239.52
832.395	16243.58
832.722	16200.65
833.048	16091.95
833.374	16255.11
833.7	16127.43
834.026	16115
834.351	16158.39
834.677	16182.57
835.003	16162
835.329	16123.14
835.654	16122.91
835.98	15961.78
836.306	15993.42
836.631	15903.25
836.956	15973.76
837.282	16019.64
837.607	15802.01
837.932	15866.87
838.258	15865.29
838.583	15870.94
838.908	15791.39
839.233	15784.61
839.558	15692.64
839.883	15653.32
840.208	15541.68
840.533	15632.98
840.858	15687.89
841.182	15671.17
841.507	15542.36
841.832	15572.64
842.156	15541.46
842.481	15564.96
842.805	15395.92
843.13	15442.02
843.454	15452.87
843.778	15295.13
844.103	15368.13
844.427	15241.8
844.751	15324.06
845.075	15244.74
845.399	15187.34
845.723	15077.97
846.047	15073.67
846.371	14989.38
846.695	15011.53
847.019	14811.31
847.343	14763.85
847.666	14686.34
847.99	14670.74
848.313	14664.87
848.637	14518.43
848.96	14581.48
849.284	14539.45
849.607	14404.31
849.931	14407.93
850.254	14281.38
850.577	14264.65
850.9	14111.89
851.223	14063.3
851.546	14054.49
851.869	13983.08
852.192	14007.03
852.515	13865.79
852.838	13819.24
853.161	13832.35
853.483	13814.95
853.806	13764.78
854.129	13672.8
854.451	13659.47
854.774	13553.03
855.096	13587.61
855.419	13512.58
855.741	13407.05
856.063	13393.49
856.385	13388.52
856.708	13315.3
857.03	13330.44
857.352	13338.12
857.674	13268.07
857.996	13195.3
858.318	13007.96
858.64	13118.47
858.961	13017.23
859.283	12936.55
859.605	12987.62
859.926	13085.7
860.248	12984.01
860.57	12955.54
860.891	12863.33
861.212	12754.64
861.534	12823.34
861.855	12722.77
862.176	12862.43
862.498	12807.06
862.819	12759.61
863.14	12606.17
863.461	12636.45
863.782	12570.69
864.103	12668.54
864.424	12580.86
864.745	12609.33
865.065	12596
865.386	12561.87
865.707	12500.18
866.027	12491.59
866.348	12413.85
866.668	12423.12
866.989	12369.34
867.309	12294.54
867.63	12366.85
867.95	12336.57
868.27	12313.29
868.59	12283.46
868.91	12245.27
869.23	12207.08
869.55	12050.02
869.87	12183.13
870.19	12123.24
870.51	12165.95
870.83	12085.28
871.15	12119.17
871.469	12098.83
871.789	12091.83
872.109	12088.67
872.428	12003.02
872.748	11998.27
873.067	11927.54
873.386	11970.7
873.706	11964.83
874.025	11911.49
874.344	11808.22
874.663	11907.88
874.982	11801.22
875.301	11873.98
875.62	11870.37
875.939	11797.83
876.258	11794.66
876.577	11743.82
876.896	11823.36
877.214	11685.96
877.533	11811.61
877.852	11723.03
878.17	11727.77
878.489	11713.99
878.807	11685.06
879.125	11632.18
879.444	11606.64
879.762	11578.62
880.08	11605.51
880.398	11485.74
880.716	11600.32
881.034	11461.34
881.352	11508.34
881.67	11474.22
881.988	11506.31
882.306	11495.69
882.624	11460.66
882.941	11424.28
883.259	11346.09
883.577	11255.01
883.894	11332.07
884.212	11237.16
884.529	11224.28
884.846	11255.47
885.164	11212.76
885.481	11130.72
885.798	11184.51
886.115	11088.92
886.432	11055.02
886.75	11031.07
887.067	11062.93
887.383	10987.68
887.7	10995.59
888.017	10841.01
888.334	10907.91
888.651	10885.76
888.967	10790.62
889.284	10843.27
889.6	10717.63
889.917	10707.91
890.233	10751.53
890.55	10677.85
890.866	10667.91
891.182	10609.61
891.498	10538.65
891.815	10535.26
892.131	10483.51
892.447	10522.38
892.763	10574.81
893.079	10452.32
893.395	10431.76
893.71	10402.83
894.026	10345.43
894.342	10322.16
894.657	10254.14
894.973	10241.26
895.289	10217.98
895.604	10167.13
895.92	10132.11
896.235	10204.19
896.55	10144.08
896.865	10099.34
897.181	10020.7
897.496	10051.88
897.811	9924.65
898.126	9917.65
898.441	9862.96
898.756	9928.27
899.071	9846.69
899.386	9833.13
899.7	9782.29
900.015	9765.79
900.33	9599.69
900.644	9652.57
900.959	9656.19
901.273	9553.14
901.588	9597.66
901.902	9452.35
902.216	9549.07
902.531	9474.5
902.845	9427.04
903.159	9351.56
903.473	9334.61
903.787	9342.52
904.101	9278.57
904.415	9297.1
904.729	9200.15
905.042	9238.8
905.356	9166.93
905.67	9145.69
905.984	9152.92
906.297	9057.11
906.611	9025.92
906.924	8962.65
907.237	8936.66
907.551	8878.58
907.864	8925.36
908.177	8824.34
908.491	8851.69
908.804	8752.48
909.117	8798.13
909.43	8726.04
909.743	8702.31
910.056	8648.53
910.368	8566.05
910.681	8532.37
910.994	8547.06
911.307	8534.18
911.619	8405.37
911.932	8426.61
912.244	8327.18
912.557	8346.84
912.869	8324.47
913.181	8342.55
913.494	8269.78
913.806	8263
914.118	8206.73
914.43	8138.71
914.742	8157.02
915.054	8075.21
915.366	7980.75
915.678	7964.93
915.99	8022.11
916.302	7941.66
916.613	7938.49
916.925	7915.44
917.236	7835.44
917.548	7820.98
917.859	7806.74
918.171	7724.49
918.482	7706.63
918.794	7661.21
919.105	7670.02
919.416	7562.68
919.727	7578.28
920.038	7509.12
920.349	7523.36
920.66	7488.33
920.971	7508.45
921.282	7500.54
921.593	7299.64
921.903	7334.21
922.214	7281.56
922.525	7288.11
922.835	7272.07
923.146	7202.01
923.456	7231.84
923.767	7165.18
924.077	7176.48
924.387	7103.26
924.697	7104.39
925.008	7068.23
925.318	7057.16
925.628	7008.35
925.938	6957.95
926.248	6891.97
926.558	6958.4
926.867	6877.73
927.177	6887.22
927.487	6734.91
927.796	6685.42
928.106	6775.36
928.416	6741.91
928.725	6751.4
929.034	6720.22
929.344	6615.81
929.653	6626.21
929.962	6560.9
930.271	6548.92
930.581	6490.17
930.89	6466.67
931.199	6528.13
931.508	6430.06
931.817	6419.21
932.125	6390.51
932.434	6397.06
932.743	6308.7
933.051	6313.45
933.36	6279.1
933.669	6252.43
933.977	6251.08
934.286	6153.45
934.594	6191.42
934.902	6099.22
935.21	6100.57
935.519	6079.56
935.827	6089.95
936.135	6084.98
936.443	6024.87
936.751	5973.57
937.059	5935.38
937.367	5885.66
937.674	5875.5
937.982	5870.3
938.29	5876.17
938.597	5836.85
938.905	5825.33
939.213	5721.15
939.52	5755.72
939.827	5774.71
940.135	5683.18
940.442	5668.5
940.749	5694.48
941.056	5662.85
941.363	5579.23
941.67	5606.35
941.977	5572.45
942.284	5495.84
942.591	5501.27
942.898	5511.66
943.205	5460.36
943.511	5400.93
943.818	5402.51
944.125	5410.2
944.431	5353.25
944.738	5350.54
945.044	5291.78
945.35	5301.95
945.657	5240.48
945.963	5236.64
946.269	5223.76
946.575	5261.05
946.881	5187.83
947.187	5176.53
947.493	5135.18
947.799	5128.62
948.105	5052.47
948.41	5038.68
948.716	5111.9
949.022	5015.86
949.327	5000.94
949.633	4994.61
949.938	4978.34
950.244	4936.99
950.549	4893.37
950.854	4860.61
951.16	4879.82
951.465	4840.72
951.77	4830.78
952.075	4797.11
952.38	4777.22
952.685	4797.33
952.99	4776.99
953.294	4723.44
953.599	4747.62
953.904	4664.23
954.209	4662.87
954.513	4634.17
954.818	4668.75
955.122	4631.23
955.426	4588.98
955.731	4546.94
956.035	4516.89
956.339	4527.28
956.643	4511.24
956.948	4491.12
957.252	4426.72
957.556	4435.99
957.86	4431.47
958.163	4446.38
958.467	4354.86
958.771	4376.55
959.075	4337
959.378	4306.95
959.682	4386.72
959.985	4279.83
960.289	4254.97
960.592	4237.12
960.896	4245.03
961.199	4201.64
961.502	4208.87
961.805	4134.75
962.108	4175.88
962.411	4127.74
962.714	4171.36
963.017	4127.29
963.32	4131.13
963.623	4054.75
963.926	4083.45
964.228	4008.88
964.531	4020.85
964.833	3983.12
965.136	3988.09
965.438	3959.16
965.741	3928.2
966.043	3941.31
966.345	3886.85
966.648	3882.78
966.95	3883.91
967.252	3863.57
967.554	3854.53
967.856	3868.99
968.158	3792.84
968.46	3797.13
968.761	3778.15
969.063	3749.45
969.365	3744.7
969.666	3738.6
969.968	3753.07
970.269	3701.77
970.571	3647.08
970.872	3678.04
971.174	3616.8
971.475	3630.36
971.776	3618.15
972.077	3619.74
972.378	3617.02
972.679	3564.6
972.98	3590.58
973.281	3531.6
973.582	3521.88
973.883	3540.19
974.183	3460.64
974.484	3447.31
974.785	3438.95
975.085	3463.13
975.386	3445.5
975.686	3425.62
975.986	3363.7
976.287	3412.74
976.587	3347.88
976.887	3353.3
977.187	3327.77
977.487	3307.65
977.787	3251.16
978.087	3306.3
978.387	3269.46
978.687	3283.02
978.987	3265.39
979.286	3234.66
979.586	3218.84
979.885	3175.23
980.185	3165.06
980.484	3179.97
980.784	3148.11
981.083	3176.13
981.382	3157.6
981.682	3099.07
981.981	3151.27
982.28	3071.05
982.579	3073.54
982.878	3089.13
983.177	3088.9
983.475	3043.71
983.774	3027.89
984.073	2968.68
984.372	2968.68
984.67	3047.1
984.969	2979.75
985.267	2984.72
985.566	2907.89
985.864	2942.47
986.162	2932.07
986.461	2929.58
986.759	2884.16
987.057	2876.93
987.355	2862.02
987.653	2838.74
987.951	2870.83
988.249	2834.67
988.547	2839.87
988.844	2800.77
989.142	2827.44
989.44	2775.46
989.737	2773.2
990.035	2742.7
990.332	2745.63
990.63	2746.31
990.927	2684.39
991.224	2681.91
991.521	2642.59
991.819	2684.62
992.116	2708.8
992.413	2639.42
992.71	2616.82
993.006	2623.83
993.303	2603.94
993.6	2589.03
993.897	2592.42
994.193	2596.49
994.49	2560.33
994.787	2511.06
995.083	2565.75
995.379	2520.33
995.676	2495.02
995.972	2482.14
996.268	2470.16
996.565	2469.03
996.861	2477.84
997.157	2433.78
997.453	2451.18
997.749	2448.47
998.044	2381.8
998.34	2401.24
998.636	2420.22
998.932	2363.05
999.227	2383.38
999.523	2353.1
999.818	2318.07
1000.114	2349.71
1000.409	2310.39
1000.704	2293.67
1001	2303.16
1001.295	2310.17
1001.59	2274.91
1001.885	2260.22
1002.18	2237.62
1002.475	2251.41
1002.77	2198.08
1003.065	2180.68
1003.359	2188.81
1003.654	2153.11
1003.949	2194.69
1004.243	2175.93
1004.538	2130.28
1004.832	2090.74
1005.127	2098.42
1005.421	2093.9
1005.715	2085.31
1006.009	2080.79
1006.304	2083.5
1006.598	2040.12
1006.892	2065.88
1007.186	2045.31
1007.48	2035.82
1007.773	2002.15
1008.067	2003.51
1008.361	1983.39
1008.655	1979.55
1008.948	1970.29
1009.242	1960.12
1009.535	1954.92
1009.829	1955.15
1010.122	1920.34
1010.415	1948.59
1010.708	1891.42
1011.001	1882.83
1011.295	1876.73
1011.588	1843.06
1011.881	1871.98
1012.173	1855.49
1012.466	1832.44
1012.759	1833.79
1013.052	1831.53
1013.344	1801.25
1013.637	1801.03
1013.93	1784.76
1014.222	1775.94
1014.514	1766.68
1014.807	1761.93
1015.099	1740.24
1015.391	1739.56
1015.683	1728.26
1015.976	1741.37
1016.268	1694.81
1016.56	1676.06
1016.851	1681.03
1017.143	1700.01
1017.435	1644.87
1017.727	1635.83
1018.018	1627.25
1018.31	1609.17
1018.602	1657.98
1018.893	1612.1
1019.185	1583.63
1019.476	1584.76
1019.767	1600.58
1020.058	1533.46
1020.35	1575.04
1020.641	1507.02
1020.932	1514.71
1021.223	1522.62
1021.514	1509.73
1021.804	1488.49
1022.095	1512.67
1022.386	1487.36
1022.677	1487.59
1022.967	1467.02
1023.258	1474.26
1023.548	1418.66
1023.839	1432.45
1024.129	1446.91
1024.419	1393.58
1024.709	1381.38
1025	1417.08
1025.29	1411.43
1025.58	1360.36
1025.87	1372.79
1026.16	1324.65
1026.449	1390.87
1026.739	1362.17
1027.029	1297.31
1027.319	1345.44
1027.608	1314.49
1027.898	1285.11
1028.187	1299.57
1028.477	1276.52
1028.766	1251.44
1029.055	1246.69
1029.344	1257.54
1029.634	1268.84
1029.923	1242.85
1030.212	1253.24
1030.501	1235.17
1030.79	1188.16
1031.078	1203.3
1031.367	1196.52
1031.656	1167.82
1031.945	1189.52
1032.233	1180.7
1032.522	1162.17
1032.81	1156.07
1033.099	1135.73
1033.387	1155.17
1033.675	1166.01
1033.963	1151.55
1034.251	1134.15
1034.54	1117.65
1034.828	1139.12
1035.116	1114.94
1035.403	1094.83
1035.691	1087.15
1035.979	1090.99
1036.267	1072.01
1036.554	1053.02
1036.842	1076.98
1037.129	1074.04
1037.417	1057.99
1037.704	1042.63
1037.992	1026.58
1038.279	1037.2
1038.566	1036.07
1038.853	1036.07
1039.14	1036.07
