Data from red_shiny_book_FLMS001491_00085.txt Node
Date: Wed Feb 08 15:25:29 GMT 2017
User: dcchb
Spectrometer: FLMS00149
Trigger mode: 0
Integration Time (sec): 2.000000E-2
Scans to average: 10
Electric dark correction enabled: true
Nonlinearity correction enabled: false
Boxcar width: 0
XAxis mode: Wavelengths
Number of Pixels in Spectrum: 2048
>>>>>Begin Spectral Data<<<<<
341.393	-0.55
341.776	-0.55
342.16	-0.55
342.543	-56.82
342.927	-68.35
343.31	-93.88
343.693	-38.29
344.077	-76.03
344.46	-62.92
344.843	-59.31
345.226	-29.7
345.61	-43.26
345.993	-24.51
346.376	-22.25
346.759	8.04
347.142	31.99
347.525	58.88
347.908	58.2
348.291	81.71
348.674	100.69
349.057	110.63
349.44	134.81
349.823	127.58
350.206	157.64
350.588	188.6
350.971	206.68
351.354	217.97
351.737	229.05
352.119	241.7
352.502	256.62
352.884	288.48
353.267	276.73
353.65	308.37
354.032	301.59
354.414	310.4
354.797	310.18
355.179	333.23
355.562	323.96
355.944	330.51
356.326	332.1
356.709	348.37
357.091	326.45
357.473	338.42
357.855	335.94
358.238	338.65
358.62	345.2
359.002	359.21
359.384	341.14
359.766	351.3
360.148	357.63
360.53	340.91
360.912	345.43
361.294	335.94
361.676	350.4
362.057	346.33
362.439	350.17
362.821	327.8
363.203	331.64
363.584	360.57
363.966	317.63
364.348	312.21
364.729	330.06
365.111	314.47
365.493	306.33
365.874	329.38
366.256	322.38
366.637	305.88
367.019	308.14
367.4	316.5
367.781	326.9
368.163	318.31
368.544	340.46
368.925	308.37
369.306	299.55
369.688	294.58
370.069	324.86
370.45	333.45
370.831	327.8
371.212	340.23
371.593	308.37
371.974	324.41
372.355	296.16
372.736	300.91
373.117	313.34
373.498	327.58
373.879	313.57
374.26	312.44
374.641	324.19
375.021	343.39
375.402	326.67
375.783	312.21
376.163	332.32
376.544	327.8
376.925	328.93
377.305	315.83
377.686	325.99
378.066	316.5
378.447	323.73
378.827	341.59
379.208	331.87
379.588	357.86
379.968	337.29
380.349	363.96
380.729	344.07
381.109	337.75
381.489	367.12
381.87	330.51
382.25	337.52
382.63	338.88
383.01	357.63
383.39	356.05
383.77	358.08
384.15	345.43
384.53	352.66
384.91	352.66
385.29	342.04
385.67	345.43
386.049	351.98
386.429	344.98
386.809	351.3
387.189	367.12
387.568	365.99
387.948	368.48
388.328	395.6
388.707	380.91
389.087	364.41
389.466	370.96
389.846	370.06
390.225	370.06
390.605	377.07
390.984	350.85
391.363	382.26
391.743	379.55
392.122	399.21
392.501	371.42
392.881	372.55
393.26	390.85
393.639	375.26
394.018	385.43
394.397	399.66
394.776	375.26
395.155	377.74
395.534	407.8
395.913	381.59
396.292	385.43
396.671	383.17
397.05	382.72
397.429	412.09
397.808	404.18
398.186	398.99
398.565	393.79
398.944	400.12
399.323	410.51
399.701	405.77
400.08	380.23
400.458	379.1
400.837	392.66
401.215	412.32
401.594	433.11
401.972	420.91
402.351	424.52
402.729	412.77
403.107	408.48
403.486	417.07
403.864	398.08
404.242	408.03
404.62	415.26
404.999	408.7
405.377	431.3
405.755	423.39
406.133	433.11
406.511	427.01
406.889	429.95
407.267	432.88
407.645	438.08
408.023	428.59
408.401	456.39
408.779	446.22
409.156	445.99
409.534	463.17
409.912	442.15
410.29	481.47
410.667	479.89
411.045	471.75
411.422	470.17
411.8	456.16
412.178	470.62
412.555	445.09
412.933	460.91
413.31	489.15
413.687	499.1
414.065	502.94
414.442	511.53
414.819	498.65
415.197	508.59
415.574	512.2
415.951	510.4
416.328	523.73
416.705	510.62
417.082	519.66
417.46	519.89
417.837	545.42
418.214	538.64
418.591	568.7
418.967	547.68
419.344	552.43
419.721	541.36
420.098	542.03
420.475	540.68
420.852	536.61
421.228	563.28
421.605	555.82
421.982	570.06
422.358	559.43
422.735	573.22
423.111	587.91
423.488	619.32
423.864	574.58
424.241	589.26
424.617	575.48
424.994	607.57
425.37	589.94
425.746	599.89
426.123	601.92
426.499	602.37
426.875	623.61
427.251	615.48
427.627	631.52
428.003	637.85
428.379	625.65
428.756	617.74
429.132	626.1
429.507	613.22
429.883	624.29
430.259	646.66
430.635	636.04
431.011	660
431.387	687.11
431.763	704.74
432.138	689.6
432.514	695.93
432.89	671.97
433.265	673.33
433.641	682.6
434.016	692.76
434.392	690.73
434.767	698.87
435.143	705.65
435.518	712.65
435.894	735.48
436.269	740.9
436.644	756.27
437.02	754.46
437.395	763.27
437.77	744.06
438.145	736.83
438.52	734.12
438.895	735.02
439.271	756.94
439.646	773.44
440.021	770.5
440.395	800.56
440.77	805.08
441.145	815.47
441.52	847.79
441.895	824.51
442.27	800.33
442.645	803.27
443.019	784.97
443.394	772.54
443.769	770.28
444.143	790.84
444.518	808.92
444.892	823.16
445.267	862.25
445.641	851.63
446.016	834.23
446.39	851.4
446.764	860.67
447.139	846.88
447.513	827.22
447.887	821.57
448.262	826.77
448.636	825.42
449.01	853.21
449.384	856.15
449.758	876.49
450.132	885.75
450.506	908.58
450.88	876.04
451.254	881.01
451.628	879.65
452.002	907.9
452.376	882.14
452.75	857.05
453.123	874.91
453.497	862.25
453.871	885.08
454.244	913.55
454.618	922.81
454.992	935.02
455.365	937.28
455.739	964.17
456.112	961.46
456.486	947.45
456.859	951.74
457.232	958.97
457.606	957.62
457.979	935.92
458.352	937.73
458.725	931.85
459.099	951.29
459.472	985.86
459.845	977.05
460.218	988.12
460.591	1039.65
460.964	1044.39
461.337	1045.75
461.71	1081.45
462.083	1047.56
462.456	1032.87
462.829	998.74
463.201	997.16
463.574	1040.1
463.947	1004.85
464.32	1021.12
464.692	1051.4
465.065	1083.49
465.438	1118.29
465.81	1107.89
466.183	1134.33
466.555	1198.06
466.928	1160.1
467.3	1135.24
467.672	1132.3
468.045	1119.87
468.417	1117.39
468.789	1094.11
469.161	1118.97
469.534	1120.55
469.906	1179.31
470.278	1196.25
470.65	1203.26
471.022	1267.66
471.394	1268.79
471.766	1275.35
472.138	1279.64
472.51	1303.37
472.882	1299.75
473.253	1288.45
473.625	1305.18
473.997	1283.03
474.369	1291.39
474.74	1276.93
475.112	1297.72
475.484	1344.5
475.855	1374.55
476.227	1401.9
476.598	1446.87
476.97	1477.6
477.341	1515.79
477.713	1532.52
478.084	1523.25
478.455	1500.88
478.827	1521.22
479.198	1513.31
479.569	1482.57
479.94	1516.47
480.311	1507.43
480.682	1522.35
481.053	1549.24
481.424	1614.55
481.795	1639.18
482.166	1743.13
482.537	1765.96
482.908	1804.83
483.279	1813.86
483.65	1869.91
484.021	1873.75
484.391	1847.76
484.762	1833.75
485.133	1796.01
485.503	1809.12
485.874	1816.12
486.244	1796.46
486.615	1855.22
486.985	1906.74
487.356	1976.8
487.726	2034.42
488.097	2116.68
488.467	2149.9
488.837	2231.71
489.207	2238.26
489.578	2236.68
489.948	2241.88
490.318	2239.39
490.688	2158.49
491.058	2169.11
491.428	2180.86
491.798	2143.57
492.168	2191.71
492.538	2243.01
492.908	2290.46
493.278	2356
493.648	2400.06
494.017	2441.42
494.387	2532.72
494.757	2557.57
495.126	2604.35
495.496	2586.5
495.866	2605.26
496.235	2596.22
496.605	2573.84
496.974	2522.55
497.344	2501.53
497.713	2509.67
498.082	2475.54
498.452	2495.88
498.821	2511.47
499.19	2560.74
499.559	2659.04
499.928	2694.52
500.298	2798.02
500.667	2841.63
501.036	2839.15
501.405	2869.2
501.774	2867.85
502.143	2835.08
502.512	2797.12
502.88	2748.98
503.249	2736.78
503.618	2664.24
503.987	2669.89
504.356	2687.74
504.724	2656.1
505.093	2715.31
505.462	2740.85
505.83	2837.34
506.199	2882.09
506.567	2974.06
506.936	2973.83
507.304	3048.63
507.672	3062.87
508.041	3107.16
508.409	3038.47
508.777	3010.9
509.145	2934.51
509.514	2904.91
509.882	2820.17
510.25	2818.36
510.618	2796.89
510.986	2798.02
511.354	2850.67
511.722	2854.52
512.09	2958.02
512.458	3012.48
512.826	3098.12
513.193	3121.85
513.561	3214.05
513.929	3237.33
514.297	3258.12
514.664	3249.99
515.032	3181.74
515.4	3151.23
515.767	3114.17
516.135	3054.28
516.502	2974.51
516.869	2975.19
517.237	2925.02
517.604	2927.51
517.972	2965.25
518.339	3020.39
518.706	3073.72
519.073	3162.76
519.44	3266.48
519.808	3300.83
520.175	3367.04
520.542	3400.94
520.909	3419.92
521.276	3403.88
521.643	3403.65
522.009	3323.2
522.376	3268.74
522.743	3265.13
523.11	3148.29
523.477	3140.84
523.843	3134.06
524.21	3141.06
524.577	3138.8
524.943	3165.69
525.31	3267.16
525.676	3388.29
526.043	3447.49
526.409	3561.84
526.776	3614.95
527.142	3691.1
527.508	3764.1
527.874	3804.77
528.241	3767.49
528.607	3713.48
528.973	3669.18
529.339	3638
529.705	3584.44
530.071	3557.77
530.437	3490.88
530.803	3433.71
531.169	3447.49
531.535	3486.36
531.901	3504.44
532.267	3605.68
532.632	3713.93
532.998	3783.3
533.364	3938.78
533.73	4022.85
534.095	4102.62
534.461	4190.53
534.826	4247.7
535.192	4220.81
535.557	4189.85
535.923	4130.41
536.288	4100.13
536.653	4019.23
537.019	3944.2
537.384	3876.64
537.749	3855.84
538.114	3816.07
538.479	3870.31
538.845	3863.53
539.21	3922.51
539.575	4006.12
539.94	4113.01
540.305	4215.38
540.67	4326.79
541.034	4454.47
541.399	4515.04
541.764	4597.52
542.129	4621.02
542.494	4650.17
542.858	4613.79
543.223	4570.4
543.587	4515.71
543.952	4409.95
544.316	4357.3
544.681	4254.93
545.045	4244.31
545.41	4230.98
545.774	4177.19
546.138	4197.53
546.503	4290.86
546.867	4334.25
547.231	4424.87
547.595	4555.49
547.959	4629.38
548.324	4789.83
548.688	4836.61
549.052	4957.28
549.416	4978.3
549.779	4917.74
550.143	4955.03
550.507	4940.34
550.871	4845.42
551.235	4775.37
551.599	4676.16
551.962	4600.91
552.326	4468.71
552.689	4468.94
553.053	4397.75
553.417	4380.12
553.78	4486.56
554.143	4436.17
554.507	4574.92
554.87	4622.83
555.234	4756.84
555.597	4875.93
555.96	4949.83
556.323	5068.92
556.686	5141.01
557.05	5207.22
557.413	5232.31
557.776	5243.38
558.139	5242.25
558.502	5117.96
558.865	5048.81
559.228	4936.04
559.59	4875.48
559.953	4764.97
560.316	4777.85
560.679	4649.5
561.041	4640.91
561.404	4684.52
561.767	4738.76
562.129	4764.07
562.492	4849.04
562.854	4954.57
563.217	5030.05
563.579	5200.22
563.941	5350.49
564.304	5432.3
564.666	5514.11
565.028	5553.88
565.39	5549.36
565.753	5629.36
566.115	5614.44
566.477	5532.41
566.839	5434.56
567.201	5353.21
567.563	5173.32
567.925	5198.41
568.287	5075.02
568.648	5023.5
569.01	4978.53
569.372	4990.28
569.734	4959.54
570.095	5094.68
570.457	5153.21
570.819	5295.81
571.18	5395.24
571.542	5494.9
571.903	5640.43
572.265	5846.98
572.626	5994.09
572.987	6049.91
573.349	6100.08
573.71	6135.33
574.071	6115.45
574.432	6164.48
574.794	6080.65
575.155	6045.84
575.516	5905.51
575.877	5923.14
576.238	5849.01
576.599	5828.67
576.96	5735.12
577.32	5810.14
577.681	5897.83
578.042	5973.98
578.403	6046.52
578.763	6208.1
579.124	6461.2
579.485	6670.91
579.845	6893.05
580.206	7093.73
580.566	7294.85
580.927	7545.01
581.287	7810.77
581.648	7986.36
582.008	8201.72
582.368	8376.4
582.728	8509.06
583.089	8624.31
583.449	8757.18
583.809	8919.21
584.169	9034.92
584.529	9153.56
584.889	9415.25
585.249	9528.24
585.609	9652.98
585.969	9954.22
586.329	10264.94
586.688	10629.45
587.048	10975.43
587.408	11419.49
587.768	11791
588.127	12289.97
588.487	12804.76
588.846	13414.46
589.206	13720.44
589.565	14263.93
589.925	14832.05
590.284	15178.03
590.643	15563.56
591.003	16094.85
591.362	16458.9
591.721	16827.26
592.08	17185.66
592.44	17554.24
592.799	17963.04
593.158	18132.53
593.517	18486.65
593.876	18743.59
594.235	19182.67
594.593	19544.92
594.952	20078.24
595.311	20385.58
595.67	20863.53
596.029	21511.88
596.387	22070.73
596.746	22590.95
597.104	22990.94
597.463	23654.19
597.822	24206.04
598.18	24695.3
598.538	25201.27
598.897	25829.28
599.255	26185.43
599.613	27056.82
599.972	27182.69
600.33	27723.69
600.688	28004.59
601.046	28287.52
601.404	28725.93
601.762	28974.05
602.12	29390.54
602.478	29552.34
602.836	29780.36
603.194	29914.37
603.552	30293.57
603.91	30441.59
604.268	30915.02
604.625	31308
604.983	31746.64
605.341	31874.09
605.698	32673.17
606.056	33107.28
606.413	33396.09
606.771	33971.21
607.128	34414.82
607.485	34625.21
607.843	35099.77
608.2	35537.72
608.557	35904.49
608.914	36139.29
609.272	36515.78
609.629	36852.72
609.986	37064.92
610.343	37131.81
610.7	37467.84
611.057	37599.82
611.414	37575.41
611.771	37744.45
612.127	37894.5
612.484	38044.78
612.841	38183.53
613.198	38148.05
613.554	38325.9
613.911	38667.58
614.267	38878.65
614.624	39042.04
614.98	39323.61
615.337	39698.52
615.693	39964.05
616.05	40188
616.406	40665.72
616.762	40808.77
617.118	40948.88
617.475	41237.23
617.831	41474.06
618.187	41706.38
618.543	41896.2
618.899	42325.79
619.255	42217.77
619.611	42176.87
619.967	42356.3
620.323	42472.23
620.678	42237.21
621.034	42325.57
621.39	42112.24
621.746	42158.34
622.101	42510.2
622.457	42122.86
622.812	42154.5
623.168	42250.09
623.523	42336.87
623.879	42564.88
624.234	42420.93
624.589	42831.77
624.945	42794.03
625.3	43144.76
625.655	43216.84
626.01	43398.53
626.365	43533.67
626.72	43605.76
627.075	43739.09
627.43	43916.94
627.785	43880.1
628.14	44186.31
628.495	44262.01
628.85	44078.74
629.205	44031.96
629.559	44271.51
629.914	44053.66
630.269	44085.75
630.623	43842.14
630.978	43785.19
631.332	43767.56
631.687	43694.12
632.041	43667.45
632.396	43654.35
632.75	43247.58
633.104	43390.62
633.459	43246.67
633.813	43192.66
634.167	43186.79
634.521	43308.37
634.875	43416.84
635.229	43535.03
635.583	43400.79
635.937	43466.1
636.291	43646.89
636.645	43773.89
636.999	43902.7
637.352	43930.05
637.706	43821.8
638.06	44148.8
638.413	44073.77
638.767	43889.82
639.121	44001
639.474	43805.53
639.828	43753.55
640.181	43711.52
640.534	43597.85
640.888	43426.33
641.241	43268.82
641.594	43212.1
641.947	43234.92
642.301	42944.99
642.654	42868.83
643.007	42862.28
643.36	42798.55
643.713	42665.9
644.066	42856.4
644.419	42695.95
644.771	42207.6
645.124	42010.77
645.477	41890.33
645.83	41778.01
646.182	41883.55
646.535	41775.75
646.888	42009.64
647.24	41863.89
647.593	42243.54
647.945	42214.16
648.298	42078.57
648.65	42105.01
649.002	42009.87
649.355	42149.53
649.707	41956.09
650.059	42085.35
650.411	42590.19
650.763	42417.09
651.115	42785.67
651.467	42707.03
651.819	42362.18
652.171	42247.38
652.523	42145.69
652.875	41987.05
653.227	41744.57
653.578	41957.44
653.93	41739.14
654.282	41633.38
654.633	41546.61
654.985	41620.28
655.337	41673.38
655.688	41778.01
656.039	41759.71
656.391	41720.61
656.742	41681.97
657.094	41884.9
657.445	42136.42
657.796	42015.52
658.147	42134.84
658.498	42134.84
658.849	42465
659.2	42325.79
659.551	42283.76
659.902	42426.36
660.253	42424.55
660.604	42307.04
660.955	42155.4
661.306	42222.75
661.656	41987.27
662.007	41988.85
662.358	41806.71
662.708	41912.47
663.059	41692.14
663.409	41361.07
663.76	41507.74
664.11	41347.74
664.461	41401.98
664.811	41262.09
665.161	41204.24
665.511	41012.16
665.862	41052.38
666.212	41204.02
666.562	41197.69
666.912	41260.96
667.262	41227.97
667.612	41225.26
667.962	41494.18
668.312	41331.92
668.662	41639.71
669.011	41566.04
669.361	41608.98
669.711	41582.31
670.06	41773.94
670.41	41527.62
670.76	41593.16
671.109	41893.49
671.459	41844.9
671.808	41677.45
672.157	41711.12
672.507	41472.48
672.856	41448.53
673.205	41359.49
673.554	41410.34
673.904	41151.59
674.253	41251.02
674.602	41004.7
674.951	40314.77
675.3	40184.61
675.649	40597.7
675.998	40465.73
676.346	40485.62
676.695	40563.81
677.044	40246.53
677.393	40427.31
677.741	40441.78
678.09	40434.09
678.438	40170.14
678.787	40380.08
679.135	40429.12
679.484	40367.43
679.832	40464.15
680.181	40396.13
680.529	40548.67
680.877	40540.3
681.225	40498.95
681.573	40682.22
681.922	40487.88
682.27	40513.86
682.618	40520.64
682.966	40461.44
683.314	40600.64
683.661	40526.29
684.009	40242.91
684.357	40105.97
684.705	40165.17
685.053	40083.37
685.4	39835.24
685.748	39573.55
686.095	39461.46
686.443	39315.25
686.79	39207.01
687.138	39137.63
687.485	39142.37
687.832	38943.51
688.18	38896.51
688.527	38766.57
688.874	38520.7
689.221	38468.27
689.568	38316.63
689.915	38251.1
690.262	38324.54
690.609	38228.73
690.956	38211.78
691.303	38261.27
691.65	38121.61
691.997	38263.98
692.344	38102.85
692.69	38194.6
693.037	38227.14
693.383	37955.51
693.73	38239.35
694.077	38052.91
694.423	38154.83
694.769	37966.13
695.116	37945.34
695.462	37808.17
695.808	37646.14
696.155	37745.58
696.501	37312.59
696.847	37346.94
697.193	36921.64
697.539	37179.26
697.885	36866.28
698.231	36604.36
698.577	36446.4
698.923	36355.1
699.269	36166.63
699.614	35839.64
699.96	35790.37
700.306	35784.5
700.651	35569.36
700.997	35417.27
701.342	35305.64
701.688	35292.76
702.033	35169.6
702.379	35220.44
702.724	35079.66
703.069	35217.96
703.415	34840.11
703.76	35130.73
704.105	34999.88
704.45	35039.43
704.795	34735.26
705.14	34860.91
705.485	34917.63
705.83	34849.15
706.175	34974.57
706.52	34814.8
706.865	34675.83
707.209	34773
707.554	34656.84
707.899	34786.56
708.243	34541.37
708.588	34443.97
708.932	34161.04
709.277	34206.01
709.621	34097.54
709.966	33930.99
710.31	33754.27
710.654	33477.44
710.998	33473.6
711.342	33432.69
711.687	33244.9
712.031	32949.54
712.375	32797.68
712.719	32938.92
713.063	32695.76
713.407	32815.76
713.75	32552.94
714.094	32569.67
714.438	32444.02
714.782	32390.46
715.125	32270.92
715.469	32411.7
715.812	32307.07
716.156	32281.54
716.499	32230.92
716.843	32360.18
717.186	32091.49
717.53	32489.44
717.873	32378.03
718.216	32390.46
718.559	32279.28
718.902	32114.08
719.246	32248.77
719.589	32196.79
719.932	32178.49
720.275	32165.84
720.617	32185.5
720.96	31995.44
721.303	32067.76
721.646	31943.92
721.989	31814.43
722.331	31916.12
722.674	31689.46
723.016	31577.6
723.359	31432.07
723.701	31365.18
724.044	31221.23
724.386	31124.73
724.729	31069.59
725.071	30896.26
725.413	30853.1
725.755	30645.65
726.097	30508.93
726.439	30370.63
726.782	30382.61
727.124	30543.5
727.465	30232.1
727.807	30339.67
728.149	30140.13
728.491	30149.62
728.833	30203.85
729.175	30025.55
729.516	30101.03
729.858	30087.02
730.199	30110.3
730.541	30047.47
730.882	30194.36
731.224	30336.05
731.565	30031.43
731.906	30244.53
732.248	30411.3
732.589	30119.79
732.93	30121.14
733.271	30217.86
733.612	30274.81
733.953	30288.6
734.294	30151.42
734.635	30059
734.976	29951.88
735.317	29784.88
735.658	29847.03
735.999	29805.9
736.339	29689.74
736.68	29778.33
737.021	29535.62
737.361	29333.14
737.702	29419.01
738.042	29342.63
738.383	29240.49
738.723	29196.2
739.063	29040.27
739.404	28954.17
739.744	28810.67
740.084	28716.66
740.424	28702.88
740.764	28556.89
741.104	28720.95
741.444	28419.72
741.784	28448.87
742.124	28470.34
742.464	28426.27
742.804	28424.46
743.143	28391.92
743.483	28336.78
743.823	28242.1
744.162	28390.12
744.502	28443.9
744.841	28345.82
745.181	28479.15
745.52	28365.26
745.86	28467.4
746.199	28464.24
746.538	28511.69
746.877	28539.49
747.216	28488.64
747.556	28381.53
747.895	28428.53
748.234	28287.29
748.573	28250.23
748.911	28226.73
749.25	28258.14
749.589	28093.4
749.928	28158.48
750.267	28064.25
750.605	27883.69
750.944	27730.25
751.283	27690.7
751.621	27593.75
751.96	27437.82
752.298	27375.23
752.636	27292.29
752.975	27121.45
753.313	26938.85
753.651	27102.47
753.989	26800.1
754.327	26780.89
754.666	26619.77
755.004	26601.69
755.342	26566.21
755.679	26551.29
756.017	26327.57
756.355	26399.43
756.693	26263.84
757.031	26267.23
757.368	26170.06
757.706	26118.54
758.044	26074.24
758.381	26160.34
758.719	26050.97
759.056	26232.21
759.394	26117.63
759.731	25930.07
760.068	26064.3
760.405	26000.57
760.743	25969.61
761.08	26012.32
761.417	25940.46
761.754	25924.87
762.091	25828.37
762.428	25770.07
762.765	25661.15
763.102	25730.98
763.438	25661.83
763.775	25374.6
764.112	25586.57
764.449	25434.94
764.785	25377.09
765.122	25163.31
765.458	24988.17
765.795	24883.99
766.131	24795.41
766.467	24691.91
766.804	24514.74
767.14	24268.42
767.476	24394.97
767.812	24170.57
768.148	24221.41
768.485	23995.65
768.821	23831.59
769.157	23734.87
769.492	23685.15
769.828	23613.29
770.164	23344.15
770.5	23338.27
770.836	23271.38
771.171	23138.73
771.507	23152.06
771.842	22946.19
772.178	23002.91
772.513	22975.79
772.849	22908.9
773.184	22818.28
773.519	22884.27
773.855	22884.05
774.19	22792.07
774.525	22672.3
774.86	22651.06
775.195	22648.12
775.53	22517.73
775.865	22443.38
776.2	22341.01
776.535	22421.23
776.87	22336.04
777.205	22249.26
777.539	22201.13
777.874	22177.17
778.209	22034.35
778.543	22074.12
778.878	21834.36
779.212	21847.69
779.547	21625.32
779.881	21821.7
780.215	21551.2
780.55	21591.42
780.884	21373.58
781.218	21230.53
781.552	21181.72
781.886	21059.23
782.22	20855.17
782.554	20845.68
782.888	20672.35
783.222	20441.62
783.556	20343.1
783.889	20333.15
784.223	20124.34
784.557	20134.96
784.89	20159.82
785.224	19915.99
785.557	19845.48
785.891	19760.74
786.224	19725.26
786.558	19727.74
786.891	19508.09
787.224	19531.14
787.557	19488.2
787.891	19393.74
788.224	19367.75
788.557	19377.24
788.89	19401.2
789.223	19442.33
789.556	19292.73
789.888	19205.5
790.221	19209.79
790.554	19141.09
790.887	19153.75
791.219	19135.9
791.552	19146.52
791.884	19054.09
792.217	18932.06
792.549	18949.91
792.882	18761.22
793.214	18767.77
793.546	18803.02
793.879	18675.34
794.211	18532.3
794.543	18612.97
794.875	18551.28
795.207	18586.53
795.539	18424.5
795.871	18399.64
796.203	18319.65
796.535	18152.19
796.867	18060.44
797.198	17973.67
797.53	18004.63
797.862	17845.08
798.193	17821.13
798.525	17712.2
798.856	17655.03
799.188	17562.6
799.519	17332.33
799.85	17204.42
800.182	17146.12
800.513	17198.32
800.844	16943.18
801.175	17141.6
801.506	17001.04
801.837	16943.41
802.168	16842.17
802.499	16808.95
802.83	16701.38
803.161	16712
803.491	16698.45
803.822	16689.41
804.153	16540.71
804.483	16462.52
804.814	16417.77
805.145	16420.49
805.475	16495.51
805.805	16425.68
806.136	16395.63
806.466	16454.61
806.796	16416.42
807.126	16328.06
807.457	16332.35
807.787	16289.42
808.117	16216.42
808.447	16197.89
808.777	16322.86
809.107	16337.32
809.436	16265.01
809.766	16182.53
810.096	16186.37
810.426	16117.44
810.755	16159.7
811.085	15996.99
811.414	16014.85
811.744	15797.45
812.073	15860.73
812.403	15815.98
812.732	15697.57
813.061	15733.5
813.39	15613.95
813.719	15523.33
814.049	15474.07
814.378	15479.04
814.707	15405.82
815.036	15333.74
815.365	15295.77
815.693	15122.44
816.022	15143.46
816.351	15013.07
816.68	14902.33
817.008	14939.85
817.337	14845.61
817.665	14820.98
817.994	14783.92
818.322	14702.79
818.651	14663.92
818.979	14680.87
819.307	14718.38
819.636	14563.13
819.964	14552.74
820.292	14589.57
820.62	14597.94
820.948	14629.8
821.276	14522.01
821.604	14465.74
821.932	14573.08
822.259	14530.82
822.587	14613.08
822.915	14544.15
823.243	14707.76
823.57	14603.13
823.898	14664.37
824.225	14636.58
824.553	14635.67
824.88	14645.84
825.207	14712.73
825.535	14776.91
825.862	14778.5
826.189	14703.7
826.516	14783.92
826.843	14787.76
827.17	14828.21
827.497	14780.53
827.824	14776.01
828.151	14808.33
828.478	14772.62
828.805	14741.89
829.131	14769
829.458	14697.14
829.785	14625.51
830.111	14726.29
830.438	14715.22
830.764	14630.02
831.09	14722.68
831.417	14560.65
831.743	14677.03
832.069	14521.1
832.395	14416.92
832.722	14528.11
833.048	14336.47
833.374	14502.12
833.7	14297.6
834.026	14345.96
834.351	14332.41
834.677	14255.12
835.003	14211.96
835.329	14243.59
835.654	14206.76
835.98	14114.11
836.306	14139.64
836.631	14163.6
836.956	14120.43
837.282	14096.48
837.607	14003.15
837.932	14013.09
838.258	13930.38
838.583	13950.27
838.908	13889.71
839.233	13957.95
839.558	13903.26
839.883	13946.43
840.208	13812.19
840.533	13857.39
840.858	13916.37
841.182	13940.33
841.507	14059.42
841.832	13854
842.156	13976.26
842.481	13951.4
842.805	13934.45
843.13	13891.29
843.454	13804.74
843.778	13882.25
844.103	13806.54
844.427	13742.14
844.751	13848.12
845.075	13791.85
845.399	13710.95
845.723	13633.89
846.047	13710.28
846.371	13556.61
846.695	13520.45
847.019	13442.94
847.343	13386.44
847.666	13301.02
847.99	13265.32
848.313	13321.81
848.637	13148.93
848.96	13109.16
849.284	13071.42
849.607	12879.11
849.931	12950.07
850.254	12741.26
850.577	12798.43
850.9	12617.65
851.223	12585.11
851.546	12492.45
851.869	12327.49
852.192	12508.27
852.515	12339.01
852.838	12203.87
853.161	12233.48
853.483	12105.57
853.806	12093.14
854.129	12023.31
854.451	11986.25
854.774	11909.87
855.096	11880.72
855.419	11809.31
855.741	11862.41
856.063	11737.22
856.385	11769.54
856.708	11699.93
857.03	11689.99
857.352	11740.84
857.674	11684.79
857.996	11590.78
858.318	11557.79
858.64	11520.95
858.961	11580.61
859.283	11479.37
859.605	11500.84
859.926	11554.63
860.248	11557.11
860.57	11554.17
860.891	11559.37
861.212	11428.75
861.534	11445.02
861.855	11433.5
862.176	11499.49
862.498	11463.78
862.819	11464.01
863.14	11427.62
863.461	11368.64
863.782	11387.4
864.103	11372.94
864.424	11363.9
864.745	11415.87
865.065	11317.8
865.386	11204.58
865.707	11191.25
866.027	11253.62
866.348	11235.54
866.668	11198.48
866.989	11172.26
867.309	11101.53
867.63	11034.64
867.95	11065.15
868.27	11018.37
868.59	11025.37
868.91	10925.04
869.23	10914.19
869.55	10835.1
869.87	10855.89
870.19	10824.02
870.51	10845.49
870.83	10838.26
871.15	10744.48
871.469	10734.76
871.789	10767.08
872.109	10644.59
872.428	10621.32
872.748	10646.85
873.067	10572.73
873.386	10597.81
873.706	10478.27
874.025	10492.73
874.344	10443.69
874.663	10494.31
874.982	10427.65
875.301	10418.61
875.62	10407.09
875.939	10427.2
876.258	10405.28
876.577	10353.08
876.896	10366.63
877.214	10303.13
877.533	10320.53
877.852	10302.46
878.17	10353.53
878.489	10367.54
878.807	10341.55
879.125	10326.86
879.444	10341.32
879.762	10315.11
880.08	10292.96
880.398	10286.18
880.716	10350.36
881.034	10254.55
881.352	10236.02
881.67	10295.9
881.988	10300.2
882.306	10217.26
882.624	10207.99
882.941	10143.82
883.259	10120.54
883.577	10241.21
883.894	10208.45
884.212	10144.27
884.529	10130.26
884.846	10070.14
885.164	10022.91
885.481	10118.51
885.798	10092.97
886.115	9956.7
886.432	9973.42
886.75	9855.24
887.067	9930.94
887.383	9869.47
887.7	9881.68
888.017	9849.13
888.334	9881.22
888.651	9819.98
888.967	9751.96
889.284	9597.16
889.6	9591.74
889.917	9534.11
890.233	9567.56
890.55	9467.45
890.866	9507.45
891.182	9461.12
891.498	9438.52
891.815	9368.24
892.131	9348.13
892.447	9270.17
892.763	9252.77
893.079	9170.96
893.395	9154.01
893.71	9058.65
894.026	9178.87
894.342	9092.09
894.657	9057.06
894.973	9062.26
895.289	8996.73
895.604	8973.45
895.92	8947.91
896.235	8911.08
896.55	8876.5
896.865	8892.32
897.181	8844.19
897.496	8827.69
897.811	8814.58
898.126	8760.12
898.441	8754.47
898.756	8782.95
899.071	8697.53
899.386	8746.56
899.7	8617.3
900.015	8688.49
900.33	8608.49
900.644	8675.15
900.959	8666.11
901.273	8638.32
901.588	8587.92
901.902	8529.39
902.216	8481.94
902.531	8466.57
902.845	8483.29
903.159	8467.25
903.473	8436.06
903.787	8405.1
904.101	8299.8
904.415	8303.41
904.729	8349.96
905.042	8208.95
905.356	8189.97
905.67	8209.85
905.984	8213.7
906.297	8141.83
906.611	8128.27
906.924	8142.06
907.237	8115.17
907.551	8051.21
907.864	8036.07
908.177	7951.78
908.491	7921.95
908.804	7911.78
909.117	7846.02
909.43	7767.15
909.743	7721.73
910.056	7776.19
910.368	7712.01
910.681	7596.54
910.994	7498.24
911.307	7522.19
911.619	7460.04
911.932	7459.59
912.244	7385.02
912.557	7388.63
912.869	7314.29
913.181	7285.36
913.494	7278.58
913.806	7190.45
914.118	7150
914.43	7125.36
914.742	7126.72
915.054	7077.91
915.366	7092.6
915.678	7018.93
915.99	6975.08
916.302	6958.14
916.613	6893.05
916.925	6923.79
917.236	6928.08
917.548	6895.09
917.859	6879.27
918.171	6882.43
918.482	6755.88
918.794	6746.16
919.105	6771.47
919.416	6699.84
919.727	6763.79
920.038	6733.06
920.349	6693.28
920.66	6610.8
920.971	6672.95
921.282	6646.05
921.593	6654.19
921.903	6559.5
922.214	6576.68
922.525	6515.66
922.835	6544.59
923.146	6393.63
923.456	6501.2
923.767	6457.81
924.077	6459.62
924.387	6418.94
924.697	6366.97
925.008	6359.51
925.318	6382.11
925.628	6304.14
925.938	6302.79
926.248	6232.96
926.558	6199.06
926.867	6190.47
927.177	6193.86
927.487	6169
927.796	6105.5
928.106	6099.85
928.416	6078.84
928.725	6033.19
929.034	6020.76
929.344	6007.2
929.653	5964.94
929.962	5943.25
930.271	5874.55
930.581	5848.33
930.89	5810.82
931.199	5785.06
931.508	5767.89
931.817	5731.95
932.125	5741.9
932.434	5665.29
932.743	5629.36
933.051	5599.75
933.36	5538.96
933.669	5552.52
933.977	5499.64
934.286	5491.51
934.594	5476.37
934.902	5402.7
935.21	5447.67
935.519	5405.86
935.827	5381
936.135	5334.68
936.443	5268.92
936.751	5251.97
937.059	5220.78
937.367	5244.51
937.674	5178.07
937.982	5189.37
938.29	5159.09
938.597	5091.07
938.905	5076.15
939.213	5102.59
939.52	5040.67
939.827	5043.16
940.135	5051.29
940.442	4999.54
940.749	5045.42
941.056	5011.29
941.363	4947.79
941.67	4922.48
941.977	4945.31
942.284	4909.6
942.591	4914.57
942.898	4855.82
943.205	4824.63
943.511	4842.94
943.818	4834.12
944.125	4807.91
944.431	4812.66
944.738	4836.16
945.044	4802.49
945.35	4699.66
945.657	4726.33
945.963	4712.09
946.269	4743.51
946.575	4728.82
946.881	4697.86
947.187	4693.11
947.493	4618.99
947.799	4619.67
948.105	4644.52
948.41	4627.58
948.716	4583.74
949.022	4559.1
949.327	4561.82
949.633	4491.08
949.938	4527.24
950.244	4503.96
950.549	4423.29
950.854	4463.06
951.16	4364.08
951.465	4382.84
951.77	4357.3
952.075	4328.37
952.38	4335.61
952.685	4331.54
952.99	4341.48
953.294	4256.29
953.599	4270.3
953.904	4191.66
954.209	4193.69
954.513	4203.18
954.818	4184.88
955.122	4162.96
955.426	4104.88
955.731	4056.74
956.035	4047.03
956.339	4063.07
956.643	4050.64
956.948	4034.6
957.252	4001.6
957.556	4008.84
957.86	3981.94
958.163	3934.94
958.467	3928.39
958.771	3902.62
959.075	3863.53
959.378	3903.53
959.682	3850.65
959.985	3826.92
960.289	3826.02
960.592	3749.18
960.896	3712.12
961.199	3719.35
961.502	3745.34
961.805	3710.54
962.108	3639.81
962.411	3702.18
962.714	3653.82
963.017	3642.52
963.32	3611.78
963.623	3628.05
963.926	3601.16
964.228	3631.67
964.531	3577.89
964.833	3585.12
965.136	3552.8
965.438	3534.05
965.741	3541.95
966.043	3517.1
966.345	3515.29
966.648	3494.95
966.95	3529.07
967.252	3464.44
967.554	3446.14
967.856	3449.3
968.158	3444.56
968.46	3423.77
968.761	3420.83
969.063	3398
969.365	3383.54
969.666	3366.59
969.968	3353.49
970.269	3365.24
970.571	3323.88
970.872	3328.63
971.174	3321.85
971.475	3335.63
971.776	3275.97
972.077	3238.23
972.378	3235.3
972.679	3292.02
972.98	3244.34
973.281	3240.95
973.582	3230.32
973.883	3209.53
974.183	3190.33
974.484	3145.81
974.785	3160.95
975.085	3193.26
975.386	3139.25
975.686	3113.04
975.986	3086.37
976.287	3109.88
976.587	3068.52
976.887	3056.77
977.187	3007.96
977.487	3013.16
977.787	2991.46
978.087	2983.78
978.387	2953.27
978.687	2967.51
978.987	2948.52
979.286	2940.16
979.586	2921.63
979.885	2884.57
980.185	2865.14
980.484	2850
980.784	2827.85
981.083	2838.24
981.382	2806.38
981.682	2809.54
981.981	2811.8
982.28	2763.22
982.579	2723.67
982.878	2718.93
983.177	2716.89
983.475	2714.18
983.774	2682.99
984.073	2669.89
984.372	2705.14
984.67	2653.62
984.969	2645.03
985.267	2653.84
985.566	2634.86
985.864	2648.42
986.162	2603
986.461	2570.46
986.759	2578.82
987.057	2563.22
987.355	2527.97
987.653	2554.18
987.951	2545.14
988.249	2520.74
988.547	2506.73
988.844	2481.87
989.142	2501.53
989.44	2494.52
989.737	2480.97
990.035	2446.84
990.332	2466.5
990.63	2456.33
990.927	2470.8
991.224	2446.39
991.521	2411.14
991.819	2429.44
992.116	2438.03
992.413	2385.15
992.71	2404.13
993.006	2369.78
993.303	2370.91
993.6	2373.62
993.897	2363.23
994.193	2382.89
994.49	2329.78
994.787	2326.17
995.083	2305.38
995.379	2283.68
995.676	2307.86
995.972	2297.69
996.268	2297.24
996.565	2296.34
996.861	2250.24
997.157	2231.93
997.453	2214.53
997.749	2235.1
998.044	2218.15
998.34	2177.25
998.636	2190.8
998.932	2188.09
999.227	2196.91
999.523	2148.09
999.818	2123.46
1000.114	2173.63
1000.409	2165.95
1000.704	2100.41
1001	2112.39
1001.295	2067.64
1001.59	2091.82
1001.885	2089.34
1002.18	2044.82
1002.475	2052.28
1002.77	2024.25
1003.065	2009.57
1003.359	1995.78
1003.654	1991.49
1003.949	1988.55
1004.243	1951.71
1004.538	1953.52
1004.832	1925.95
1005.127	1935.67
1005.421	1913.3
1005.715	1892.51
1006.009	1879.4
1006.304	1900.87
1006.598	1889.79
1006.892	1857.71
1007.186	1838.95
1007.48	1840.53
1007.773	1842.79
1008.067	1816.35
1008.361	1799.18
1008.655	1789.91
1008.948	1797.14
1009.242	1755.79
1009.535	1753.53
1009.829	1761.21
1010.122	1745.62
1010.415	1726.64
1010.708	1705.84
1011.001	1706.07
1011.295	1683.25
1011.588	1662.46
1011.881	1673.53
1012.173	1667.65
1012.466	1654.32
1012.759	1676.47
1013.052	1635.11
1013.344	1631.95
1013.637	1636.92
1013.93	1617.94
1014.222	1606.19
1014.514	1597.15
1014.807	1606.41
1015.099	1564.15
1015.391	1563.02
1015.683	1563.25
1015.976	1563.02
1016.268	1551.27
1016.56	1548.11
1016.851	1511.5
1017.143	1540.88
1017.435	1496.13
1017.727	1501.33
1018.018	1506.75
1018.31	1498.17
1018.602	1493.42
1018.893	1480.99
1019.185	1463.59
1019.476	1421.78
1019.767	1436.02
1020.058	1443.7
1020.35	1420.88
1020.641	1424.5
1020.932	1400.99
1021.223	1415.23
1021.514	1374.33
1021.804	1371.39
1022.095	1396.25
1022.386	1375.46
1022.677	1378.4
1022.967	1348.79
1023.258	1335.46
1023.548	1343.59
1023.839	1293.88
1024.129	1310.38
1024.419	1326.19
1024.709	1286.87
1025	1290.49
1025.29	1298.4
1025.58	1284.16
1025.87	1285.52
1026.16	1256.59
1026.449	1260.43
1026.739	1259.98
1027.029	1231.28
1027.319	1239.42
1027.608	1196.03
1027.898	1199.87
1028.187	1189.7
1028.477	1190.83
1028.766	1198.29
1029.055	1169.36
1029.344	1198.97
1029.634	1172.53
1029.923	1162.81
1030.212	1126.88
1030.501	1142.7
1030.79	1148.57
1031.078	1111.06
1031.367	1104.96
1031.656	1113.77
1031.945	1098.18
1032.233	1104.05
1032.522	1079.87
1032.81	1075.81
1033.099	1085.3
1033.387	1037.61
1033.675	1036.94
1033.963	1050.04
1034.251	1045.98
1034.54	1024.96
1034.828	1036.48
1035.116	1007.56
1035.403	1003.26
1035.691	1009.14
1035.979	996.94
1036.267	989.93
1036.554	979.08
1036.842	988.8
1037.129	973.66
1037.417	958.97
1037.704	983.6
1037.992	940.44
1038.279	943.83
1038.566	941.35
1038.853	941.35
1039.14	941.35
