Data from red_shiny_book_FLMS001491_00058.txt Node
Date: Wed Feb 08 15:25:03 GMT 2017
User: dcchb
Spectrometer: FLMS00149
Trigger mode: 0
Integration Time (sec): 2.000000E-2
Scans to average: 10
Electric dark correction enabled: true
Nonlinearity correction enabled: false
Boxcar width: 0
XAxis mode: Wavelengths
Number of Pixels in Spectrum: 2048
>>>>>Begin Spectral Data<<<<<
341.393	1.91
341.776	1.91
342.16	1.91
342.543	-62.5
342.927	-50.75
343.31	-58.66
343.693	-69.05
344.077	-70.63
344.46	-56.85
344.843	-65.89
345.226	-55.72
345.61	-34.93
345.993	-16.4
346.376	6.65
346.759	5.75
347.142	29.48
347.525	43.71
347.908	60.44
348.291	92.07
348.674	80.1
349.057	109.93
349.44	132.52
349.823	156.48
350.206	165.97
350.588	229.25
350.971	226.76
351.354	234.44
351.737	238.06
352.119	253.43
352.502	279.87
352.884	290.26
353.267	307.89
353.65	295.68
354.032	332.97
354.414	301.79
354.797	325.97
355.179	330.94
355.562	352.41
355.944	339.52
356.326	326.42
356.709	350.15
357.091	337.49
357.473	361.45
357.855	351.95
358.238	361.67
358.62	364.84
359.002	353.54
359.384	375
359.766	366.87
360.148	351.5
360.53	344.5
360.912	337.94
361.294	346.98
361.676	347.43
362.057	343.14
362.439	359.64
362.821	323.48
363.203	359.86
363.584	353.31
363.966	337.27
364.348	341.33
364.729	333.2
365.111	348.11
365.493	355.12
365.874	337.49
366.256	313.31
366.637	334.78
367.019	325.29
367.4	327.55
367.781	329.81
368.163	339.3
368.544	313.54
368.925	339.75
369.306	358.96
369.688	339.98
370.069	335.23
370.45	329.36
370.831	336.81
371.212	330.94
371.593	321.9
371.974	340.43
372.355	346.53
372.736	365.29
373.117	353.31
373.498	347.21
373.879	342.46
374.26	332.07
374.641	344.95
375.021	357.6
375.402	353.99
375.783	345.17
376.163	375.23
376.544	344.95
376.925	344.04
377.305	338.17
377.686	370.94
378.066	352.86
378.447	363.03
378.827	364.61
379.208	357.6
379.588	365.06
379.968	361.45
380.349	367.55
380.729	364.16
381.109	372.07
381.489	377.72
381.87	362.8
382.25	356.47
382.63	375.23
383.01	368.9
383.39	391.73
383.77	402.57
384.15	379.98
384.53	366.64
384.91	391.5
385.29	388.56
385.67	390.6
386.049	390.82
386.429	404.83
386.809	408.68
387.189	407.77
387.568	385.85
387.948	385.85
388.328	405.96
388.707	376.13
389.087	404.16
389.466	422.01
389.846	415.68
390.225	413.65
390.605	410.71
390.984	407.09
391.363	411.61
391.743	429.92
392.122	416.59
392.501	421.56
392.881	440.09
393.26	451.39
393.639	433.99
394.018	429.47
394.397	422.91
394.776	445.28
395.155	452.52
395.534	435.57
395.913	443.48
396.292	426.53
396.671	426.3
397.05	442.35
397.429	441.44
397.808	453.65
398.186	429.69
398.565	443.03
398.944	458.39
399.323	441.22
399.701	466.3
400.08	473.08
400.458	490.93
400.837	502.23
401.215	467.66
401.594	473.76
401.972	459.52
402.351	484.83
402.729	461.1
403.107	466.08
403.486	489.58
403.864	480.54
404.242	494.55
404.62	501.55
404.999	500.2
405.377	499.29
405.755	494.1
406.133	475.34
406.511	513.98
406.889	520.54
407.267	526.86
407.645	511.05
408.023	520.54
408.401	542.68
408.779	533.87
409.156	528.67
409.534	525.28
409.912	541.55
410.29	527.32
410.667	545.17
411.045	570.03
411.422	572.06
411.8	582.91
412.178	587.65
412.555	583.59
412.933	579.29
413.31	583.81
413.687	595.56
414.065	616.81
414.442	608.44
414.819	616.35
415.197	616.81
415.574	613.87
415.951	648.44
416.328	626.52
416.705	678.05
417.082	644.38
417.46	631.04
417.837	647.09
418.214	645.96
418.591	660.87
418.967	664.94
419.344	672.17
419.721	697.03
420.098	711.72
420.475	705.62
420.852	700.87
421.228	708.33
421.605	716.24
421.982	703.13
422.358	706.07
422.735	696.35
423.111	685.73
423.488	736.35
423.864	721.89
424.241	763.92
424.617	774.09
424.994	764.37
425.37	770.7
425.746	778.84
426.123	761.43
426.499	717.14
426.875	756.69
427.251	775.9
427.627	800.08
428.003	804.6
428.379	821.55
428.756	823.58
429.132	850.02
429.507	828.78
429.883	857.7
430.259	843.92
430.635	819.06
431.011	805.05
431.387	857.7
431.763	863.8
432.138	831.04
432.514	903.13
432.89	910.13
433.265	936.57
433.641	941.54
434.016	936.8
434.392	945.84
434.767	921.43
435.143	909.91
435.518	921.66
435.894	906.97
436.269	953.29
436.644	974.54
437.02	994.42
437.395	1014.08
437.77	1028.32
438.145	1054.76
438.52	1055.66
438.895	1048.43
439.271	1017.25
439.646	1011.82
440.021	1029.22
440.395	1046.17
440.77	1008.66
441.145	1019.96
441.52	1096.34
441.895	1081.2
442.27	1116.91
442.645	1111.71
443.019	1118.94
443.394	1111.26
443.769	1128.43
444.143	1075.78
444.518	1069.45
444.892	1074.42
445.267	1075.55
445.641	1094.53
446.016	1126.4
446.39	1159.62
446.764	1186.06
447.139	1193.06
447.513	1186.51
447.887	1190.58
448.262	1192.16
448.636	1176.11
449.01	1135.44
449.384	1138.37
449.758	1162.55
450.132	1183.12
450.506	1160.97
450.88	1177.02
451.254	1193.51
451.628	1265.83
452.002	1268.77
452.376	1282.55
452.75	1283.91
453.123	1257.69
453.497	1245.49
453.871	1226.96
454.244	1227.64
454.618	1262.89
454.992	1242.78
455.365	1248.2
455.739	1326.39
456.112	1349.22
456.486	1370.01
456.859	1386.28
457.232	1425.6
457.606	1413.4
457.979	1398.93
458.352	1388.31
458.725	1375.43
459.099	1352.83
459.472	1361.42
459.845	1360.52
460.218	1407.07
460.591	1433.73
460.964	1465.37
461.337	1510.79
461.71	1533.62
462.083	1568.42
462.456	1556.89
462.829	1530.23
463.201	1535.43
463.574	1526.16
463.947	1514.86
464.32	1520.28
464.692	1513.51
465.065	1513.51
465.438	1529.55
465.81	1589.21
466.183	1624.46
466.555	1661.75
466.928	1724.8
467.3	1735.19
467.672	1739.94
468.045	1774.52
468.417	1737
468.789	1700.39
469.161	1705.36
469.534	1691.58
469.906	1704.46
470.278	1724.35
470.65	1758.24
471.022	1828.53
471.394	1861.29
471.766	1913.72
472.138	1966.15
472.51	1998.92
472.882	2023.1
473.253	2080.95
473.625	2039.59
473.997	2021.51
474.369	1977.22
474.74	1971.8
475.112	1944.45
475.484	2025.81
475.855	2033.94
476.227	2095.86
476.598	2147.84
476.97	2260.6
477.341	2317.78
477.713	2382.18
478.084	2387.38
478.455	2475.06
478.827	2461.28
479.198	2457.21
479.569	2414.5
479.94	2421.28
480.311	2402.97
480.682	2401.62
481.053	2427.15
481.424	2484.1
481.795	2577.21
482.166	2678.67
482.537	2717.09
482.908	2870.98
483.279	2909.17
483.65	2990.98
484.021	3049.74
484.391	3031.88
484.762	3018.78
485.133	2990.98
485.503	2925.67
485.874	2935.39
486.244	2972.9
486.615	2995.27
486.985	2987.14
487.356	3089.51
487.726	3221.26
488.097	3357.52
488.467	3426.45
488.837	3578.08
489.207	3641.59
489.578	3694.24
489.948	3700.57
490.318	3687.91
490.688	3653.11
491.058	3625.31
491.428	3619.44
491.798	3570.63
492.168	3558.65
492.538	3610.63
492.908	3682.94
493.278	3763.16
493.648	3794.8
494.017	3973.55
494.387	4080.9
494.757	4231.85
495.126	4289.48
495.496	4315.47
495.866	4339.87
496.235	4322.47
496.605	4256.03
496.974	4237.05
497.344	4096.04
497.713	4086.09
498.082	4079.99
498.452	4069.82
498.821	4144.17
499.19	4224.39
499.559	4271.4
499.928	4483.82
500.298	4597.27
500.667	4731.05
501.036	4757.71
501.405	4822.34
501.774	4795.23
502.143	4755.68
502.512	4701.44
502.88	4652.63
503.249	4522.47
503.618	4485.4
503.987	4402.69
504.356	4442.02
504.724	4418.74
505.093	4530.83
505.462	4610.15
505.83	4693.31
506.199	4842.68
506.567	4991.15
506.936	5120.19
507.304	5250.36
507.672	5208.55
508.041	5248.1
508.409	5157.03
508.777	5127.2
509.145	5026.86
509.514	4987.99
509.882	4881.78
510.25	4754.55
510.618	4732.86
510.986	4772.63
511.354	4913.42
511.722	5044.03
512.09	5117.7
512.458	5202.67
512.826	5292.84
513.193	5481.76
513.561	5529.9
513.929	5620.97
514.297	5632.49
514.664	5563.79
515.032	5539.61
515.4	5445.83
515.767	5313.41
516.135	5143.47
516.502	5088.55
516.869	5053.98
517.237	5025.28
517.604	5096.91
517.972	5220.3
518.339	5385.95
518.706	5521.08
519.073	5676.11
519.44	5841.98
519.808	5968.98
520.175	6006.04
520.542	6085.36
520.909	6100.5
521.276	6002.43
521.643	5903.22
522.009	5861.64
522.376	5733.51
522.743	5641.98
523.11	5550.69
523.477	5499.16
523.843	5495.1
524.21	5573.96
524.577	5685.15
524.943	5870.68
525.31	6067.96
525.676	6269.54
526.043	6397.67
526.409	6575.75
526.776	6749.07
527.142	6745.01
527.508	6752.92
527.874	6719.02
528.241	6651.22
528.607	6545.69
528.973	6409.42
529.339	6265.7
529.705	6234.96
530.071	6152.03
530.437	6139.6
530.803	6159.48
531.169	6261.63
531.535	6401.06
531.901	6567.61
532.267	6815.96
532.632	7041.04
532.998	7152.45
533.364	7330.98
533.73	7428.15
534.095	7579.11
534.461	7609.62
534.826	7588.15
535.192	7463.63
535.557	7270.42
535.923	7155.84
536.288	7026.58
536.653	6897.77
537.019	6827.04
537.384	6778.68
537.749	6821.84
538.114	7001.72
538.479	7081.49
538.845	7227.03
539.21	7393.58
539.575	7654.36
539.94	7907.69
540.305	8047.57
540.67	8255.7
541.034	8294.57
541.399	8430.84
541.764	8357.17
542.129	8338.86
542.494	8180.9
542.858	7961.02
543.223	7814.36
543.587	7654.81
543.952	7484.87
544.316	7443.07
544.681	7416.18
545.045	7473.57
545.41	7569.84
545.774	7773.45
546.138	7900.68
546.503	8149.94
546.867	8345.87
547.231	8669.25
547.595	8818.17
547.959	8895.68
548.324	9033.08
548.688	9047.77
549.052	9042.12
549.416	8915.57
549.779	8766.2
550.143	8606.43
550.507	8413.44
550.871	8321.91
551.235	8041.7
551.599	7937.97
551.962	7879.44
552.326	7859.1
552.689	7992.21
553.053	8105.65
553.417	8289.82
553.78	8565.98
554.143	8740.21
554.507	9016.13
554.87	9177.48
555.234	9375.9
555.597	9384.03
555.96	9469
556.323	9546.06
556.686	9439.4
557.05	9287.54
557.413	9164.15
557.776	9001.9
558.139	8803.48
558.502	8690.94
558.865	8487.56
559.228	8461.12
559.59	8385.42
559.953	8359.65
560.316	8496.6
560.679	8669.7
561.041	8890.03
561.404	9024.04
561.767	9378.61
562.129	9487.76
562.492	9829.44
562.854	10002.1
563.217	9977.46
563.579	10177.46
563.941	10162.09
564.304	10148.31
564.666	10112.15
565.028	9878.03
565.39	9751.25
565.753	9598.04
566.115	9386.97
566.477	9284.83
566.839	9045.28
567.201	9069.46
567.563	9016.81
567.925	9109.92
568.287	9199.63
568.648	9361.66
569.01	9610.47
569.372	9871.93
569.734	10123
570.095	10431.69
570.457	10599.59
570.819	10870.1
571.18	10928.85
571.542	11020.37
571.903	11020.83
572.265	11001.39
572.626	10942.86
572.987	10830.77
573.349	10575.41
573.71	10496.77
574.071	10273.5
574.432	10090.23
574.794	10013.85
575.155	9908.76
575.516	9924.81
575.877	10129.1
576.238	10204.58
576.599	10432.82
576.96	10638.24
577.32	11031.9
577.681	11350.99
578.042	11719.11
578.403	12061.7
578.763	12387.12
579.124	12654.23
579.485	12818.29
579.845	13005.18
580.206	13119.53
580.566	13186.42
580.927	13163.82
581.287	13269.13
581.648	13125.18
582.008	13183.93
582.368	13187.77
582.728	13256.93
583.089	13307.32
583.449	13485.85
583.809	13792.73
584.169	14070.46
584.529	14456.67
584.889	15053.04
585.249	15470.65
585.609	16010.3
585.969	16723.05
586.329	17353.54
586.688	18043.69
587.048	18792.83
587.408	19274.62
587.768	19820.82
588.127	20293.12
588.487	20676.84
588.846	21212.2
589.206	21552.98
589.565	21722.24
589.925	22064.83
590.284	22195.22
590.643	22624.81
591.003	22908.88
591.362	23458.24
591.721	23613.26
592.08	24074.27
592.44	24665.67
592.799	25194.69
593.158	25729.14
593.517	26490.02
593.876	27281.64
594.235	28013.37
594.593	28838.66
594.952	29684.52
595.311	30445.63
595.67	31125.16
596.029	31991.8
596.387	32507.94
596.746	33213.91
597.104	33593.57
597.463	34156.04
597.822	34652.97
598.18	34898.16
598.538	35141.77
598.897	35459.28
599.255	35527.07
599.613	36112.6
599.972	36354.17
600.33	36746.03
600.688	36923.87
601.046	37628.26
601.404	38114.58
601.762	38418.75
602.12	39233.42
602.478	39763.35
602.836	40383.9
603.194	40903.66
603.552	41617.99
603.91	42016.17
604.268	42816.6
604.625	43190.15
604.983	44008.89
605.341	44140.63
605.698	44631.24
606.056	45199.59
606.413	45398.68
606.771	45579.47
607.128	45856.75
607.485	45790.08
607.843	45828.5
608.2	46251.54
608.557	46355.94
608.914	46352.78
609.272	46529.04
609.629	46996.6
609.986	47206.32
610.343	47263.94
610.7	47645.4
611.057	47883.81
611.414	48114.77
611.771	48599.27
612.127	48891.24
612.484	49241.06
612.841	49799.92
613.198	49860.71
613.554	50154.94
613.911	50623.63
614.267	50841.93
614.624	50936.16
614.98	51094.35
615.337	51436.94
615.693	51457.73
616.05	51379.31
616.406	51568.91
616.762	51472.64
617.118	51419.31
617.475	51396.94
617.831	51459.31
618.187	51413.89
618.543	51373.44
618.899	51544.51
619.255	51547.44
619.611	51493.66
619.967	51706.76
620.323	51937.72
620.678	51934.78
621.034	52003.7
621.39	52155.11
621.746	52333.86
622.101	52857.47
622.457	52809.78
622.812	52985.6
623.168	53252.71
623.523	53351.46
623.879	53527.05
624.234	53407.06
624.589	53562.08
624.945	53607.5
625.3	53643.66
625.655	53600.27
626.01	53599.59
626.365	53421.07
626.72	53365.7
627.075	53281.64
627.43	53134.52
627.785	53081.64
628.14	53053.85
628.495	53016.56
628.85	52890.01
629.205	52801.42
629.559	53069.89
629.914	52985.82
630.269	53099.49
630.623	53187.4
630.978	53145.14
631.332	53395.98
631.687	53513.27
632.041	53463.78
632.396	53742.87
632.75	53676.88
633.104	53930.66
633.459	53871.9
633.813	53921.62
634.167	53936.53
634.521	53955.74
634.875	53928.4
635.229	53864.9
635.583	53640.5
635.937	53655.19
636.291	53491.12
636.645	53403.89
636.999	53191.69
637.352	53201.41
637.706	52899.5
638.06	52948.54
638.413	52823.57
638.767	52606.4
639.121	52670.35
639.474	52509.9
639.828	52590.35
640.181	52660.64
640.534	52741.76
640.888	52717.36
641.241	52688.66
641.594	52844.13
641.947	53112.37
642.301	53136.55
642.654	53252.94
643.007	53393.72
643.36	53375.64
643.713	53430.78
644.066	53600.95
644.419	53385.59
644.771	53204.8
645.124	52845.26
645.477	52710.13
645.83	52469.68
646.182	52341.32
646.535	52023.82
646.888	52068.11
647.24	51853.65
647.593	51817.72
647.945	51716.93
648.298	51356.04
648.65	51278.3
649.002	51117.85
649.355	51212.54
649.707	51034.24
650.059	51157.62
650.411	51699.3
650.763	51713.77
651.115	52029.92
651.467	52110.14
651.819	52140.87
652.171	52171.38
652.523	52241.89
652.875	52372.96
653.227	52264.71
653.578	52704.02
653.93	52585.38
654.282	52556.68
654.633	52473.07
654.985	52590.35
655.337	52621.09
655.688	52641.88
656.039	52601.65
656.391	52297.25
656.742	52238.95
657.094	52220.87
657.445	52083.25
657.796	51890.26
658.147	51665.18
658.498	51674.45
658.849	51549.48
659.2	51469.03
659.551	51349.71
659.902	51381.35
660.253	51273.55
660.604	51372.08
660.955	51208.02
661.306	51394.68
661.656	51421.12
662.007	51554.9
662.358	51549.03
662.708	51783.14
663.059	51754.44
663.409	51777.49
663.76	52023.14
664.11	52065.85
664.461	52266.97
664.811	52246.63
665.161	52195.56
665.511	52198.73
665.862	52317.14
666.212	52294.09
666.562	52206.18
666.912	52092.74
667.262	52045.96
667.612	51784.5
667.962	51803.71
668.312	51569.14
668.662	51664.5
669.011	51429.26
669.361	51277.17
669.711	51091.86
670.06	50897.07
670.41	50787.01
670.76	50701.36
671.109	50809.84
671.459	50678.99
671.808	50734.13
672.157	50775.26
672.507	50629.5
672.856	50703.4
673.205	50909.04
673.554	51130.96
673.904	50982.26
674.253	51314.23
674.602	51276.26
674.951	51115.14
675.3	50900
675.649	51612.53
675.998	51599.19
676.346	51608.91
676.695	51664.05
677.044	51545.86
677.393	51587.44
677.741	51446.66
678.09	51369.82
678.438	51038.76
678.787	51298.64
679.135	51107.91
679.484	50674.25
679.832	50750.63
680.181	50369.17
680.529	50435.38
680.877	50189.51
681.225	50066.35
681.573	50220.25
681.922	49809.18
682.27	49735.06
682.618	49725.8
682.966	49629.3
683.314	49701.84
683.661	49741.62
684.009	49662.3
684.357	49664.33
684.705	49751.56
685.053	49803.31
685.4	49902.52
685.748	49826.36
686.095	49897.09
686.443	49843.99
686.79	49947.49
687.138	50140.48
687.485	50255.27
687.832	50062.74
688.18	50038.78
688.527	49953.81
688.874	50053.47
689.221	49886.7
689.568	49660.04
689.915	49474.05
690.262	49471.34
690.609	49212.36
690.956	49005.59
691.303	48811.47
691.65	48526.28
691.997	48488.77
692.344	48122.22
692.69	47916.13
693.037	47847.43
693.383	47437.72
693.73	47507.32
694.077	47112.31
694.423	47201.12
694.769	46964.06
695.116	47055.13
695.462	46910.96
695.808	46919.54
696.155	47112.98
696.501	46937.85
696.847	47029.6
697.193	46943.05
697.539	47151.85
697.885	46938.98
698.231	46993.89
698.577	47149.37
698.923	47216.94
699.269	47013.55
699.614	47009.71
699.96	46978.75
700.306	46845.87
700.651	46754.12
700.997	46473.23
701.342	46605.2
701.688	46625.54
702.033	46353.91
702.379	46118.21
702.724	45894.71
703.069	45740.82
703.415	45042.3
703.76	45269.42
704.105	45006.6
704.45	44775.19
704.795	44413.85
705.14	44206.17
705.485	44006.4
705.83	43919.17
706.175	43833.75
706.52	43670.36
706.865	43577.48
707.209	43454.32
707.554	43418.17
707.899	43567.77
708.243	43520.08
708.588	43457.71
708.932	43225.85
709.277	43408
709.621	43553.76
709.966	43459.97
710.31	43665.84
710.654	43337.49
710.998	43663.81
711.342	43632.62
711.687	43487.09
712.031	43487.77
712.375	43493.19
712.719	43466.53
713.063	43316.47
713.407	43518.28
713.75	43116.71
714.094	43116.93
714.438	42938.63
714.782	42917.61
715.125	42662.93
715.469	42591.3
715.812	42277.18
716.156	41852.33
716.499	41765.55
716.843	41661.83
717.186	41355.17
717.53	41422.74
717.873	41296.41
718.216	41140.03
718.559	40865.01
718.902	40535.76
719.246	40689.65
719.589	40436.78
719.932	40416.44
720.275	40398.81
720.617	40460.96
720.96	40440.84
721.303	40577.56
721.646	40565.59
721.989	40530.33
722.331	40770.33
722.674	40721.97
723.016	40792.47
723.359	40785.92
723.701	40961.51
724.044	40842.41
724.386	40652.36
724.729	40890.32
725.071	40748.18
725.413	40872.92
725.755	40727.62
726.097	40651.23
726.439	40476.77
726.782	40318.36
727.124	40476.1
727.465	40178.93
727.807	40116.78
728.149	39780.07
728.491	39594.09
728.833	39668.43
729.175	39327.2
729.516	39129.01
729.858	38937.61
730.199	38803.15
730.541	38601.57
730.882	38535.36
731.224	38574.9
731.565	38177.85
731.906	38274.57
732.248	38187.8
732.589	38136.72
732.93	37915.03
733.271	38002.72
733.612	38176.04
733.953	38108.25
734.294	37989.38
734.635	37992.09
734.976	38261.69
735.317	38233.67
735.658	38223.73
735.999	38303.27
736.339	38323.61
736.68	38613.77
737.021	38352.99
737.361	38422.59
737.702	38731.96
738.042	38432.99
738.383	38638.18
738.723	38615.58
739.063	38521.35
739.404	38441.12
739.744	38419.2
740.084	38300.11
740.424	38168.81
740.764	38193.22
741.104	38086.33
741.444	37687.47
741.784	37621.48
742.124	37571.09
742.464	37353.92
742.804	37176.3
743.143	37028.96
743.483	36897.66
743.823	36588.52
744.162	36578.12
744.502	36484.56
744.841	36236.89
745.181	36320.27
745.52	36160.05
745.86	36123.44
746.199	36019.26
746.538	36030.11
746.877	36148.3
747.216	35979.04
747.556	35992.15
747.895	36007.51
748.234	35928.65
748.573	36013.16
748.911	36037.12
749.25	36063.33
749.589	35933.62
749.928	36127.96
750.267	36245.93
750.605	36202.76
750.944	36242.54
751.283	36116.44
751.621	36242.08
751.96	36086.83
752.298	36113.05
752.636	36146.72
752.975	36059.72
753.313	35868.53
753.651	36019.94
753.989	35766.62
754.327	35630.35
754.666	35382.22
755.004	35387.19
755.342	35320.98
755.679	35144.71
756.017	34742.01
756.355	34853.19
756.693	34557.83
757.031	34520.77
757.368	34156.04
757.706	34105.42
758.044	33913.56
758.381	33721.02
758.719	33536.17
759.056	33598.31
759.394	33238.77
759.731	33119
760.068	33069.96
760.405	32993.13
760.743	32913.58
761.08	32839.24
761.417	32835.17
761.754	32858.9
762.091	32759.46
762.428	32825.22
762.765	32667.94
763.102	32809.41
763.438	32597.43
763.775	32588.62
764.112	32745.23
764.449	32875.84
764.785	32834.72
765.122	32589.98
765.458	32453.26
765.795	32603.31
766.131	32655.74
766.467	32618.22
766.804	32446.7
767.14	32268.63
767.476	32446.7
767.812	32305.92
768.148	32345.24
768.485	31938.92
768.821	31816.44
769.157	31702.32
769.492	31629.78
769.828	31369.67
770.164	31295.77
770.5	31054.88
770.836	30881.55
771.171	30452.86
771.507	30365.4
771.842	30133.09
772.178	30083.15
772.513	29958.41
772.849	29815.81
773.184	29572.65
773.519	29499.66
773.855	29292.89
774.19	29141.71
774.525	29033.69
774.86	29072.1
775.195	28798.21
775.53	28649.06
775.865	28546.92
776.2	28499.24
776.535	28368.84
776.87	28387.15
777.205	28312.8
777.539	28274.84
777.874	28180.6
778.209	28201.39
778.543	28066.71
778.878	28146.03
779.212	28073.03
779.547	27976.76
779.881	28186.7
780.215	27998.01
780.55	28173.6
780.884	28022.41
781.218	28125.01
781.552	27989.19
781.886	27866.03
782.22	27634.85
782.554	27669.43
782.888	27271.25
783.222	27246.84
783.556	27251.13
783.889	27075.55
784.223	26774.76
784.557	26804.14
784.89	26824.25
785.224	26525.05
785.557	26397.37
785.891	26338.62
786.224	26066.53
786.558	26057.27
786.891	25688.46
787.224	25512.2
787.557	25439.88
787.891	25390.84
788.224	25263.39
788.557	25107.24
788.89	24968.93
789.223	24969.39
789.556	24854.36
789.888	24636.06
790.221	24519.23
790.554	24360.81
790.887	24391.55
791.219	24306.35
791.552	24325.56
791.884	24314.49
792.217	24120.59
792.549	24138
792.882	23998.56
793.214	23857.32
793.546	23965.8
793.879	23970.32
794.211	23776.42
794.543	23936.42
794.875	23892.8
795.207	23968.96
795.539	23832.92
795.871	23941.16
796.203	23707.72
796.535	23738.01
796.867	23892.58
797.198	23722.64
797.53	23786.14
797.862	23467.96
798.193	23657.33
798.525	23396.09
798.856	23420.95
799.188	23212.82
799.519	23038.14
799.85	22931.93
800.182	22949.55
800.513	22855.77
800.844	22628.2
801.175	22731.03
801.506	22507.53
801.837	22484.93
802.168	22307.08
802.499	22153.64
802.83	21941.67
803.161	21838.17
803.491	21783.03
803.822	21770.37
804.153	21638.17
804.483	21369.03
804.814	21324.96
805.145	21201.12
805.475	21233.66
805.805	21098.75
806.136	21124.52
806.466	21072.77
806.796	20981.24
807.126	20894.46
807.457	20843.62
807.787	20855.82
808.117	20762.94
808.447	20717.97
808.777	20942.15
809.107	20721.36
809.436	20724.53
809.766	20868.25
810.096	20801.81
810.426	20698.54
810.755	20753.45
811.085	20641.82
811.414	20678.65
811.744	20593
812.073	20604.98
812.403	20756.62
812.732	20567.02
813.061	20565.66
813.39	20559.33
813.719	20452.89
814.049	20578.99
814.378	20434.36
814.707	20510.75
815.036	20342.39
815.365	20266.23
815.693	20052.9
816.022	20053.36
816.351	19976.52
816.68	19947.82
817.008	19955.05
817.337	19711.22
817.665	19602.52
817.994	19556.19
818.322	19522.3
818.651	19338.35
818.979	19286.37
819.307	19267.16
819.636	19072.82
819.964	19005.47
820.292	18959.15
820.62	18929.54
820.948	18826.5
821.276	18961.18
821.604	18708.53
821.932	18766.61
822.259	18748.76
822.587	18662.66
822.915	18602.1
823.243	18749.66
823.57	18604.36
823.898	18774.52
824.225	18686.39
824.553	18696.56
824.88	18805.93
825.207	18699.04
825.535	18725.03
825.862	18839.6
826.189	18731.81
826.516	19006.38
826.843	19104
827.17	19043.89
827.497	19066.94
827.824	19165.7
828.151	19191.01
828.478	19164.11
828.805	19319.82
829.131	19246.82
829.458	19209.54
829.785	19244.56
830.111	19297.22
830.438	19322.53
830.764	19383.09
831.09	19381.51
831.417	19246.6
831.743	19362.75
832.069	19288.41
832.395	19131.35
832.722	19183.32
833.048	19057
833.374	19132.03
833.7	19113.95
834.026	19042.76
834.351	19090.44
834.677	18890
835.003	18889.77
835.329	18872.6
835.654	18735.88
835.98	18630.57
836.306	18539.05
836.631	18416.56
836.956	18438.71
837.282	18408.88
837.607	18254.99
837.932	18176.12
838.258	18089.79
838.583	18125.27
838.908	17892.51
839.233	18111.26
839.558	17919.18
839.883	17846.41
840.208	17831.04
840.533	17839.4
840.858	17779.74
841.182	17875.56
841.507	17817.94
841.832	17727.77
842.156	17800.99
842.481	17830.14
842.805	17807.54
843.13	17881.89
843.454	17694.1
843.778	17617.04
844.103	17770.25
844.427	17782.23
844.751	17722.34
845.075	17814.32
845.399	17804.83
845.723	17674.21
846.047	17813.19
846.371	17622.91
846.695	17689.58
847.019	17574.33
847.343	17600.99
847.666	17447.55
847.99	17452.07
848.313	17463.37
848.637	17315.58
848.96	17311.73
849.284	17117.84
849.607	17131.85
849.931	17024.96
850.254	16942.03
850.577	16758.98
850.9	16735.25
851.223	16673.56
851.546	16470.17
851.869	16436.28
852.192	16391.31
852.515	16282.61
852.838	16158.09
853.161	16211.42
853.483	15966.91
853.806	15875.84
854.129	15828.61
854.451	15778.44
854.774	15626.58
855.096	15543.42
855.419	15475.62
855.741	15414.38
856.063	15269.98
856.385	15164.22
856.708	15169.64
857.03	15149.31
857.352	15127.84
857.674	15060.04
857.996	14943.43
858.318	14943.89
858.64	14966.94
858.961	14847.84
859.283	14792.25
859.605	14667.74
859.926	14753.84
860.248	14674.52
860.57	14681.07
860.891	14777.34
861.212	14626.61
861.534	14620.73
861.855	14667.51
862.176	14674.06
862.498	14661.41
862.819	14743.89
863.14	14683.55
863.461	14696.21
863.782	14644.46
864.103	14742.76
864.424	14780.95
864.745	14725.81
865.065	14687.85
865.386	14550.68
865.707	14686.27
866.027	14636.78
866.348	14629.09
866.668	14613.95
866.989	14660.96
867.309	14526.95
867.63	14635.42
867.95	14516.33
868.27	14463.45
868.59	14398.14
868.91	14422.77
869.23	14310.23
869.55	14256
869.87	14314.75
870.19	14283.57
870.51	14368.08
870.83	14329.67
871.15	14132.16
871.469	14106.62
871.789	14151.14
872.109	14101.2
872.428	13967.42
872.748	13961.99
873.067	13833.41
873.386	13892.39
873.706	13751.6
874.025	13671.83
874.344	13649.91
874.663	13656.01
874.982	13513.42
875.301	13552.96
875.62	13475.9
875.939	13438.84
876.258	13403.59
876.577	13398.84
876.896	13311.39
877.214	13279.3
877.533	13254.44
877.852	13311.39
878.17	13218.28
878.489	13183.26
878.807	13324.49
879.125	13183.71
879.444	13207.89
879.762	13204.05
880.08	13312.52
880.398	13136.48
880.716	13159.75
881.034	13145.74
881.352	13195.46
881.67	13161.56
881.988	13181.9
882.306	13173.76
882.624	13107.32
882.941	13176.25
883.259	13155.23
883.577	13144.39
883.894	13143.26
884.212	13094.44
884.529	13177.38
884.846	13103.94
885.164	13146.87
885.481	13114.1
885.798	13108
886.115	12996.14
886.432	12974.9
886.75	12995.24
887.067	13078.63
887.383	12971.96
887.7	13019.42
888.017	12872.53
888.334	12853.32
888.651	12827.78
888.967	12858.52
889.284	12738.3
889.6	12719.76
889.917	12522.03
890.233	12501.47
890.55	12469.83
890.866	12501.47
891.182	12394.58
891.498	12260.12
891.815	12239.78
892.131	12162.04
892.447	12087.92
892.763	12014.7
893.079	11995.94
893.395	11951.88
893.71	11924.08
894.026	11918.66
894.342	11784.87
894.657	11654.71
894.973	11685.67
895.289	11614.93
895.604	11606.12
895.92	11435.73
896.235	11401.16
896.55	11416.3
896.865	11394.38
897.181	11400.03
897.496	11286.13
897.811	11322.06
898.126	11303.53
898.441	11257.2
898.756	11282.06
899.071	11147.6
899.386	11193.48
899.7	11141.95
900.015	11171.1
900.33	10983.76
900.644	11014.72
900.959	11034.39
901.273	10998.91
901.588	10988.28
901.902	10917.55
902.216	10924.11
902.531	10863.77
902.845	10902.41
903.159	10849.98
903.473	10858.57
903.787	10786.93
904.101	10772.92
904.415	10847.27
904.729	10700.38
905.042	10692.93
905.356	10664.23
905.67	10751.68
905.984	10655.64
906.297	10750.55
906.611	10613.15
906.924	10542.19
907.237	10583.78
907.551	10435.3
907.864	10467.85
908.177	10536.54
908.491	10417.68
908.804	10386.04
909.117	10304.69
909.43	10205.25
909.743	10135.65
910.056	10097.91
910.368	10088.2
910.681	9996.9
910.994	9923.68
911.307	9890.91
911.619	9767.75
911.932	9720.07
912.244	9700.18
912.557	9674.19
912.869	9614.99
913.181	9537.93
913.494	9425.61
913.806	9377.48
914.118	9350.36
914.43	9238.05
914.742	9249.8
915.054	9160.76
915.366	9089.58
915.678	9023.59
915.99	9064.27
916.302	8974.33
916.613	8898.4
916.925	8845.29
917.236	8904.72
917.548	8805.29
917.859	8786.08
918.171	8688.91
918.482	8720.77
918.794	8664.96
919.105	8641.23
919.416	8573.43
919.727	8648.23
920.038	8551.29
920.349	8462.25
920.66	8522.59
920.971	8515.13
921.282	8549.03
921.593	8502.7
921.903	8447.11
922.214	8433.55
922.525	8401.01
922.835	8336.38
923.146	8310.84
923.456	8300.45
923.767	8260.45
924.077	8223.61
924.387	8253.89
924.697	8208.7
925.008	8252.76
925.318	8267.9
925.628	8176.61
925.938	8160.11
926.248	8127.79
926.558	8040.11
926.867	8092.09
927.177	8078.98
927.487	8036.95
927.796	7934.81
928.106	7956.5
928.416	7946.56
928.725	7844.64
929.034	7807.13
929.344	7814.13
929.653	7848.03
929.962	7718.09
930.271	7677.41
930.581	7635.6
930.89	7551.54
931.199	7547.92
931.508	7461.37
931.817	7523.74
932.125	7429.06
932.434	7401.49
932.743	7307.48
933.051	7264.54
933.36	7174.6
933.669	7143.64
933.977	7149.74
934.286	7141.15
934.594	7066.13
934.902	7029.97
935.21	6953.59
935.519	6970.09
935.827	6898.22
936.135	6852.35
936.443	6795.17
936.751	6792.69
937.059	6680.38
937.367	6699.58
937.674	6675.4
937.982	6645.12
938.29	6585.91
938.597	6607.16
938.905	6436.99
939.213	6524.9
939.52	6422.3
939.827	6473.6
940.135	6417.56
940.442	6397.9
940.749	6385.47
941.056	6301.4
941.363	6332.36
941.67	6252.14
941.977	6253.95
942.284	6256.88
942.591	6222.53
942.898	6199.71
943.205	6261.63
943.511	6193.61
943.818	6169.65
944.125	6125.81
944.431	6145.25
944.738	6143.21
945.044	6150.67
945.35	6123.78
945.657	6075.65
945.963	6063.67
946.269	6089.43
946.575	6102.99
946.881	6069.77
947.187	5996.33
947.493	6000.39
947.799	5979.15
948.105	5943.9
948.41	5956.55
948.716	5934.86
949.022	5842.66
949.327	5868.19
949.633	5800.17
949.938	5764.69
950.244	5773.96
950.549	5714.07
950.854	5728.08
951.16	5703
951.465	5687.41
951.77	5636.11
952.075	5606.96
952.38	5544.59
952.685	5614.19
952.99	5503.23
953.294	5474.08
953.599	5502.55
953.904	5444.02
954.209	5419.17
954.513	5399.96
954.818	5375.78
955.122	5353.63
955.426	5267.76
955.731	5292.16
956.035	5230.92
956.339	5212.62
956.643	5224.59
956.948	5159.96
957.252	5150.02
957.556	5129.46
957.86	5058.04
958.163	5047.65
958.467	4960.19
958.771	4926.3
959.075	4936.92
959.378	4927.65
959.682	4890.59
959.985	4858.28
960.289	4864.15
960.592	4835.68
960.896	4797.49
961.199	4747.54
961.502	4738.05
961.805	4673.87
962.108	4703.93
962.411	4660.77
962.714	4700.77
963.017	4610.15
963.32	4644.27
963.623	4596.14
963.926	4603.59
964.228	4528.57
964.531	4572.41
964.833	4551.17
965.136	4538.96
965.438	4513.65
965.741	4477.72
966.043	4470.04
966.345	4483.14
966.648	4447.44
966.95	4423.71
967.252	4420.1
967.554	4432.75
967.856	4372.87
968.158	4333.09
968.46	4353.66
968.761	4344.17
969.063	4340.32
969.365	4355.01
969.666	4336.48
969.968	4297.16
970.269	4297.16
970.571	4274.11
970.872	4251.74
971.174	4254.22
971.475	4205.64
971.776	4201.12
972.077	4167.22
972.378	4207.22
972.679	4149.82
972.98	4146.66
973.281	4152.31
973.582	4124.06
973.883	4114.11
974.183	4081.12
974.484	4052.65
974.785	4064.85
975.085	4056.94
975.386	4044.96
975.686	4004.51
975.986	3985.98
976.287	3916.83
976.587	3898.53
976.887	3910.05
977.187	3842.71
977.487	3889.94
977.787	3862.14
978.087	3788.25
978.387	3799.77
978.687	3801.35
978.987	3750.73
979.286	3719.55
979.586	3677.97
979.885	3716.84
980.185	3640.68
980.484	3614.02
980.784	3584.41
981.083	3604.07
981.382	3566.11
981.682	3546.45
981.981	3546.22
982.28	3507.13
982.579	3519.1
982.878	3467.8
983.177	3439.78
983.475	3421.03
983.774	3387.13
984.073	3385.32
984.372	3363.63
984.67	3371.54
984.969	3323.18
985.267	3334.02
985.566	3319.79
985.864	3296.06
986.162	3284.08
986.461	3258.32
986.759	3195.72
987.057	3237.3
987.355	3164.31
987.653	3212.22
987.951	3196.4
988.249	3219.9
988.547	3155.27
988.844	3167.7
989.142	3110.75
989.44	3133.8
989.737	3106.46
990.035	3128.15
990.332	3078.66
990.63	3075.05
990.927	3100.13
991.224	3092.67
991.521	3067.81
991.819	3062.84
992.116	3083.63
992.413	3008.83
992.71	3034.82
993.006	2993.01
993.303	3013.35
993.6	3048.38
993.897	2988.04
994.193	2979.68
994.49	2963.86
994.787	2944.65
995.083	2944.2
995.379	2931.32
995.676	2928.16
995.972	2887.03
996.268	2907.37
996.565	2854.49
996.861	2842.96
997.157	2854.49
997.453	2827.14
997.749	2806.8
998.044	2817.2
998.34	2789.86
998.636	2781.95
998.932	2715.28
999.227	2715.96
999.523	2773.59
999.818	2695.17
1000.114	2706.02
1000.409	2677.09
1000.704	2676.86
1001	2701.95
1001.295	2621.95
1001.59	2603.65
1001.885	2631.44
1002.18	2586.47
1002.475	2592.35
1002.77	2550.09
1003.065	2534.27
1003.359	2457.21
1003.654	2506.7
1003.949	2452.69
1004.243	2478.68
1004.538	2468.06
1004.832	2426.48
1005.127	2447.94
1005.421	2380.83
1005.715	2395.29
1006.009	2369.08
1006.304	2337.44
1006.598	2320.94
1006.892	2299.02
1007.186	2325.69
1007.48	2263.99
1007.773	2280.26
1008.067	2249.98
1008.361	2205.24
1008.655	2233.94
1008.948	2196.2
1009.242	2205.24
1009.535	2197.78
1009.829	2155.07
1010.122	2139.7
1010.415	2134.96
1010.708	2129.53
1011.001	2107.84
1011.295	2070.1
1011.588	2097.67
1011.881	2073.72
1012.173	2091.8
1012.466	2046.82
1012.759	2073.26
1013.052	1998.46
1013.344	2015.41
1013.637	2012.25
1013.93	2000.05
1014.222	1984
1014.514	1979.03
1014.807	2012.25
1015.099	1952.36
1015.391	1967.05
1015.683	1944.91
1015.976	1936.32
1016.268	1900.16
1016.56	1896.55
1016.851	1909.65
1017.143	1899.03
1017.435	1865.59
1017.727	1858.81
1018.018	1851.12
1018.31	1845.7
1018.602	1845.93
1018.893	1825.81
1019.185	1829.2
1019.476	1834.4
1019.767	1812.71
1020.058	1770.9
1020.35	1753.5
1020.641	1761.63
1020.932	1743.56
1021.223	1722.99
1021.514	1727.06
1021.804	1727.74
1022.095	1686.38
1022.386	1704.23
1022.677	1698.59
1022.967	1700.39
1023.258	1682.31
1023.548	1660.39
1023.839	1647.29
1024.129	1641.86
1024.419	1615.42
1024.709	1623.11
1025	1583.56
1025.29	1592.83
1025.58	1585.82
1025.87	1569.1
1026.16	1552.15
1026.449	1551.7
1026.739	1510.57
1027.029	1534.97
1027.319	1529.78
1027.608	1525.71
1027.898	1515.77
1028.187	1483.45
1028.477	1466.28
1028.766	1451.13
1029.055	1431.7
1029.344	1426.5
1029.634	1419.04
1029.923	1391.02
1030.212	1420.4
1030.501	1418.14
1030.79	1367.52
1031.078	1358.93
1031.367	1346.5
1031.656	1346.05
1031.945	1343.11
1032.233	1323.91
1032.522	1317.13
1032.81	1313.28
1033.099	1307.41
1033.387	1281.87
1033.675	1262.66
1033.963	1268.54
1034.251	1288.43
1034.54	1245.94
1034.828	1257.69
1035.116	1208.65
1035.403	1207.98
1035.691	1193.74
1035.979	1191.03
1036.267	1188.77
1036.554	1170.46
1036.842	1179.28
1037.129	1161.2
1037.417	1171.14
1037.704	1163.68
1037.992	1137.47
1038.279	1134.08
1038.566	1116.45
1038.853	1116.45
1039.14	1116.45
