Data from red_shiny_book_FLMS001491_00083.txt Node
Date: Wed Feb 08 15:25:29 GMT 2017
User: dcchb
Spectrometer: FLMS00149
Trigger mode: 0
Integration Time (sec): 2.000000E-2
Scans to average: 10
Electric dark correction enabled: true
Nonlinearity correction enabled: false
Boxcar width: 0
XAxis mode: Wavelengths
Number of Pixels in Spectrum: 2048
>>>>>Begin Spectral Data<<<<<
341.393	-11.43
341.776	-11.43
342.16	-11.43
342.543	-51.43
342.927	-65.21
343.31	-54.14
343.693	-71.99
344.077	-44.87
344.46	-44.42
344.843	-57.75
345.226	-35.61
345.61	-41.48
345.993	-26.12
346.376	-8.71
346.759	1.45
347.142	31.51
347.525	51.62
347.908	64.05
348.291	69.48
348.674	66.99
349.057	99.98
349.44	118.29
349.823	144.05
350.206	176.14
350.588	212.07
350.971	214.1
351.354	216.82
351.737	238.74
352.119	259.3
352.502	264.05
352.884	280.54
353.267	287.32
353.65	291.84
354.032	298.17
354.414	318.73
354.797	320.77
355.179	333.2
355.562	310.83
355.944	343.82
356.326	331.16
356.709	340.88
357.091	343.14
357.473	349.69
357.855	336.81
358.238	350.15
358.62	342.01
359.002	360.09
359.384	361.67
359.766	335.01
360.148	345.4
360.53	349.47
360.912	344.27
361.294	329.81
361.676	338.62
362.057	313.08
362.439	355.34
362.821	317.6
363.203	325.06
363.584	341.56
363.966	347.89
364.348	332.75
364.729	337.04
365.111	310.83
365.493	305.4
365.874	313.31
366.256	325.97
366.637	330.26
367.019	328.23
367.4	318.96
367.781	315.8
368.163	309.47
368.544	292.29
368.925	301.11
369.306	329.81
369.688	294.55
370.069	313.31
370.45	303.82
370.831	319.86
371.212	315.34
371.593	301.33
371.974	308.11
372.355	310.6
372.736	328.23
373.117	335.01
373.498	337.72
373.879	318.06
374.26	319.86
374.641	333.42
375.021	308.79
375.402	308.79
375.783	306.76
376.163	326.87
376.544	353.31
376.925	320.54
377.305	332.52
377.686	341.33
378.066	326.87
378.447	344.04
378.827	338.85
379.208	326.42
379.588	342.01
379.968	354.21
380.349	338.62
380.729	335.23
381.109	335.68
381.489	348.79
381.87	342.24
382.25	313.99
382.63	330.71
383.01	353.76
383.39	328.45
383.77	339.75
384.15	369.35
384.53	343.59
384.91	358.73
385.29	348.79
385.67	346.98
386.049	340.65
386.429	366.64
386.809	358.73
387.189	339.75
387.568	359.41
387.948	356.02
388.328	368
388.707	360.77
389.087	366.64
389.466	357.15
389.846	351.05
390.225	373.65
390.605	369.35
390.984	375.68
391.363	355.12
391.743	364.84
392.122	375.23
392.501	369.58
392.881	375.91
393.26	371.61
393.639	384.04
394.018	378.62
394.397	390.6
394.776	384.5
395.155	382.91
395.534	370.71
395.913	392.4
396.292	409.58
396.671	383.14
397.05	386.98
397.429	413.42
397.808	406.87
398.186	401.67
398.565	399.41
398.944	411.84
399.323	397.15
399.701	394.66
400.08	397.83
400.458	407.32
400.837	386.53
401.215	389.02
401.594	418.62
401.972	409.58
402.351	412.74
402.729	427.66
403.107	415.91
403.486	431.05
403.864	404.16
404.242	414.33
404.62	404.61
404.999	416.59
405.377	422.23
405.755	416.59
406.133	445.06
406.511	414.33
406.889	420.88
407.267	444.38
407.645	431.73
408.023	430.6
408.401	435.34
408.779	439.18
409.156	456.13
409.534	442.35
409.912	456.58
410.29	477.83
410.667	473.08
411.045	479.18
411.422	478.73
411.8	459.97
412.178	480.99
412.555	487.54
412.933	469.47
413.31	486.19
413.687	501.1
414.065	489.8
414.442	512.18
414.819	514.66
415.197	493.87
415.574	522.8
415.951	501.1
416.328	513.31
416.705	523.02
417.082	489.8
417.46	529.58
417.837	538.62
418.214	542.68
418.591	558.73
418.967	547.43
419.344	549.24
419.721	545.62
420.098	544.72
420.475	541.55
420.852	555.79
421.228	556.47
421.605	556.69
421.982	564.15
422.358	550.59
422.735	588.78
423.111	587.65
423.488	587.2
423.864	578.84
424.241	566.41
424.617	570.03
424.994	570.25
425.37	578.16
425.746	583.13
426.123	595.56
426.499	610.25
426.875	640.76
427.251	629.46
427.627	645.73
428.003	643.7
428.379	646.86
428.756	655
429.132	642.57
429.507	624.72
429.883	627.2
430.259	652.06
430.635	640.08
431.011	661.32
431.387	661.78
431.763	675.34
432.138	683.92
432.514	702.91
432.89	687.09
433.265	709.68
433.641	692.96
434.016	667.2
434.392	661.32
434.767	683.47
435.143	685.96
435.518	707.42
435.894	752.85
436.269	727.09
436.644	736.12
437.02	754.2
437.395	751.04
437.77	741.77
438.145	755.11
438.52	774.32
438.895	734.09
439.271	742.45
439.646	765.05
440.021	779.29
440.395	765.28
440.77	783.81
441.145	789.23
441.52	804.6
441.895	831.72
442.27	798.27
442.645	776.12
443.019	794.65
443.394	774.54
443.769	798.72
444.143	807.08
444.518	813.18
444.892	824.71
445.267	834.43
445.641	859.74
446.016	824.26
446.39	846.63
446.764	835.56
447.139	836.24
447.513	827.65
447.887	823.35
448.262	814.54
448.636	794.88
449.01	823.81
449.384	865.16
449.758	870.58
450.132	880.08
450.506	902.22
450.88	891.83
451.254	884.6
451.628	916.01
452.002	889.57
452.376	883.92
452.75	906.06
453.123	859.06
453.497	866.74
453.871	876.46
454.244	897.25
454.618	899.06
454.992	941.77
455.365	962.11
455.739	953.75
456.112	954.65
456.486	951.03
456.859	940.41
457.232	937.93
457.606	945.16
457.979	941.32
458.352	945.84
458.725	943.8
459.099	966.4
459.472	961.43
459.845	977.47
460.218	1011.6
460.591	1030.35
460.964	1028.77
461.337	1052.5
461.71	1064.93
462.083	1045.27
462.456	1030.35
462.829	1008.21
463.201	1015.89
463.574	999.17
463.947	1009.34
464.32	1030.81
464.692	1038.94
465.065	1071.03
465.438	1118.26
465.81	1130.01
466.183	1125.49
466.555	1148.77
466.928	1146.74
467.3	1132.05
467.672	1124.82
468.045	1122.56
468.417	1106.06
468.789	1119.84
469.161	1104.48
469.534	1126.62
469.906	1159.62
470.278	1191.71
470.65	1219.95
471.022	1269.9
471.394	1285.94
471.766	1287.75
472.138	1278.03
472.51	1326.17
472.882	1285.49
473.253	1289.33
473.625	1270.8
473.997	1274.87
474.369	1271.25
474.74	1248.2
475.112	1303.12
475.484	1316.45
475.855	1363.68
476.227	1402.77
476.598	1437.58
476.97	1472.15
477.341	1508.31
477.713	1522.09
478.084	1538.59
478.455	1525.03
478.827	1522.54
479.198	1492.04
479.569	1479.16
479.94	1506.5
480.311	1532.26
480.682	1539.04
481.053	1567.97
481.424	1623.56
481.795	1676.21
482.166	1739.04
482.537	1801.63
482.908	1798.47
483.279	1813.61
483.65	1883.89
484.021	1830.79
484.391	1843.44
484.762	1842.76
485.133	1810.22
485.503	1753.5
485.874	1805.25
486.244	1829.66
486.615	1866.72
486.985	1913.27
487.356	1977.9
487.726	1999.37
488.097	2103.77
488.467	2148.74
488.837	2233.94
489.207	2243.2
489.578	2224.22
489.948	2229.87
490.318	2204.11
490.688	2208.4
491.058	2183.77
491.428	2163.66
491.798	2156.88
492.168	2181.96
492.538	2227.38
492.908	2267.16
493.278	2295.41
493.648	2381.51
494.017	2481.84
494.387	2525.23
494.757	2553.48
495.126	2617.88
495.496	2594.38
495.866	2583.76
496.235	2606.81
496.605	2560.48
496.974	2518
497.344	2513.25
497.713	2448.4
498.082	2475.51
498.452	2461.73
498.821	2536.08
499.19	2570.43
499.559	2622.18
499.928	2672.12
500.298	2722.29
500.667	2821.27
501.036	2817.2
501.405	2857.88
501.774	2865.56
502.143	2833.47
502.512	2831.44
502.88	2759.12
503.249	2688.84
503.618	2666.24
503.987	2665.34
504.356	2671.89
504.724	2660.37
505.093	2720.25
505.462	2745.34
505.83	2801.38
506.199	2849.74
506.567	2980.81
506.936	3001.6
507.304	3085.22
507.672	3044.99
508.041	3054.03
508.409	3060.36
508.777	3030.75
509.145	2963.18
509.514	2931.55
509.882	2857.88
510.25	2831.21
510.618	2804.32
510.986	2838.67
511.354	2827.6
511.722	2898.33
512.09	2943.07
512.458	3017.19
512.826	3063.97
513.193	3179
513.561	3185.78
513.929	3221.71
514.297	3229.62
514.664	3261.03
515.032	3198.66
515.4	3169.28
515.767	3080.7
516.135	3057.19
516.502	2949.17
516.869	2931.32
517.237	2930.19
517.604	2926.12
517.972	2996.86
518.339	3037.76
518.706	3107.14
519.073	3140.13
519.44	3237.98
519.808	3302.61
520.175	3331.54
520.542	3426.22
520.909	3396.39
521.276	3396.62
521.643	3396.62
522.009	3354.13
522.376	3292.22
522.743	3254.48
523.11	3180.58
523.477	3145.55
523.843	3100.58
524.21	3125.44
524.577	3129.51
524.943	3172.22
525.31	3239.34
525.676	3355.94
526.043	3450.86
526.409	3532.21
526.776	3614.69
527.142	3686.33
527.508	3740.11
527.874	3750.73
528.241	3739.89
528.607	3717.74
528.973	3668.03
529.339	3632.09
529.705	3533.79
530.071	3543.28
530.437	3453.12
530.803	3452.44
531.169	3464.87
531.535	3456.05
531.901	3509.39
532.267	3616.27
532.632	3734.01
532.998	3814.91
533.364	3950.73
533.73	4002.25
534.095	4097.84
534.461	4171.29
534.826	4216.71
535.192	4199.76
535.557	4194.79
535.923	4107.11
536.288	4118.63
536.653	4026.43
537.019	3946.21
537.384	3851.07
537.749	3861.24
538.114	3824.63
538.479	3810.62
538.845	3877.06
539.21	3906.21
539.575	3998.41
539.94	4095.81
540.305	4261.68
540.67	4339.87
541.034	4466.87
541.399	4515.23
541.764	4598.17
542.129	4646.3
542.494	4674.33
542.858	4646.53
543.223	4546.65
543.587	4490.38
543.952	4415.58
544.316	4347.33
544.681	4319.31
545.045	4211.51
545.41	4151.85
545.774	4190.05
546.138	4250.38
546.503	4271.85
546.867	4393.66
547.231	4444.05
547.595	4545.29
547.959	4650.82
548.324	4733.31
548.688	4863.93
549.052	4920.2
549.416	4953.64
549.779	4957.93
550.143	4988.89
550.507	4918.84
550.871	4882.68
551.235	4794.32
551.599	4688.34
551.962	4609.24
552.326	4532.41
552.689	4491.51
553.053	4405.18
553.417	4388.01
553.78	4479.08
554.143	4451.96
554.507	4568.34
554.87	4652.41
555.234	4792.52
555.597	4840.2
555.96	4957.26
556.323	5092.85
556.686	5204.93
557.05	5210.36
557.413	5286.06
557.776	5237.48
558.139	5227.53
558.502	5162
558.865	4974.21
559.228	4973.3
559.59	4835.68
559.953	4802.68
560.316	4748.22
560.679	4650.15
561.041	4646.98
561.404	4644.72
561.767	4677.26
562.129	4722.46
562.492	4853.3
562.854	4930.82
563.217	5069.57
563.579	5151.38
563.941	5294.65
564.304	5422.1
564.666	5527.19
565.028	5536.22
565.39	5561.31
565.753	5597.24
566.115	5605.38
566.477	5504.36
566.839	5431.59
567.201	5344.37
567.563	5198.15
567.925	5173.97
568.287	5063.47
568.648	4991.38
569.01	4971.04
569.372	4992.51
569.734	4987.54
570.095	5077.93
570.457	5159.51
570.819	5320.18
571.18	5445.83
571.542	5538.71
571.903	5660.06
572.265	5800.17
572.626	5934.18
572.987	6035.42
573.349	6112.48
573.71	6161.74
574.071	6159.48
574.432	6146.38
574.794	6075.65
575.155	6050.34
575.516	5992.48
575.877	5928.53
576.238	5859.61
576.599	5805.37
576.96	5739.61
577.32	5777.57
577.681	5815.31
578.042	5926.95
578.403	6049.88
578.763	6254.4
579.124	6380.5
579.485	6661.17
579.845	6878.11
580.206	7088.73
580.566	7343.63
580.927	7556.74
581.287	7827.69
581.648	7962.15
582.008	8250.96
582.368	8379.54
582.728	8595.35
583.089	8642.36
583.449	8795.12
583.809	8897.27
584.169	9035.79
584.529	9122.12
584.889	9341.77
585.249	9440.53
585.609	9697.02
585.969	9980.63
586.329	10291.58
586.688	10654.51
587.048	10980.83
587.408	11356.86
587.768	11823.06
588.127	12311.64
588.487	12734.68
588.846	13349.13
589.206	13692.39
589.565	14201.08
589.925	14790.67
590.284	15158.57
590.643	15671.1
591.003	16095.95
591.362	16501.59
591.721	16779.77
592.08	17164.17
592.44	17572.74
592.799	17819.07
593.158	18187.42
593.517	18558.71
593.876	18787.63
594.235	19137.67
594.593	19579.47
594.952	19896.07
595.311	20386.91
595.67	20861.25
596.029	21482.25
596.387	22057.6
596.746	22649.22
597.104	23022.77
597.463	23646.71
597.822	24281.27
598.18	24654.82
598.538	25213.22
598.897	25889.59
599.255	26024.05
599.613	26961.65
599.972	27195.54
600.33	27756.21
600.688	27758.24
601.046	28280.03
601.404	28750.76
601.762	28921.37
602.12	29291.31
602.478	29521.81
602.836	29736.04
603.194	29921.12
603.552	30193.2
603.91	30417.6
604.268	30892.62
604.625	31269.79
604.983	31709.32
605.341	31925.59
605.698	32503.65
606.056	32834.49
606.413	33364.65
606.771	33822.71
607.128	34304.06
607.485	34586.99
607.843	34869.92
608.2	35480.52
608.557	35861.98
608.914	36020.17
609.272	36405.24
609.629	36807.04
609.986	37018.56
610.343	37111.44
610.7	37423.97
611.057	37548.72
611.414	37485.44
611.771	37714.81
612.127	37729.5
612.484	38080
612.841	38210.17
613.198	38141.69
613.554	38388.69
613.911	38701.68
614.267	38853.77
614.624	39059.18
614.98	39331.72
615.337	39745.72
615.693	39909.11
616.05	40045.15
616.406	40534.63
616.762	40653.95
617.118	40950.89
617.475	41146.14
617.831	41523.07
618.187	41578.44
618.543	41803.29
618.899	42218.65
619.255	42202.61
619.611	42098.2
619.967	42340.68
620.323	42334.13
620.678	42176.62
621.034	42069.5
621.39	42084.42
621.746	42057.52
622.101	42459.77
622.457	42121.7
622.812	42168.48
623.168	42327.8
623.523	42379.78
623.879	42476.95
624.234	42397.85
624.589	42567.12
624.945	42766.88
625.3	43035.8
625.655	43118.51
626.01	43338.39
626.365	43428.56
626.72	43527.09
627.075	43695.22
627.43	43822
627.785	43891.37
628.14	44148.99
628.495	44135.21
628.85	44172.04
629.205	44096.34
629.559	44282.55
629.914	44026.74
630.269	44043.01
630.623	43676.46
630.978	43733.19
631.332	43691.61
631.687	43727.99
632.041	43482.35
632.396	43544.49
632.75	43203.71
633.104	43415.68
633.459	43107.67
633.813	43163.03
634.167	43210.26
634.521	43284.84
634.875	43426.98
635.229	43510.59
635.583	43303.37
635.937	43434.89
636.291	43537.94
636.645	43648.67
636.999	43697.25
637.352	43854.76
637.706	43688.67
638.06	44055.44
638.413	43970.47
638.767	43869
639.121	43887.08
639.474	43698.84
639.828	43719.63
640.181	43710.81
640.534	43580.87
640.888	43468.56
641.241	43140.89
641.594	43156.03
641.947	43210.49
642.301	42905.19
642.654	42767.34
643.007	42777.96
643.36	42646.21
643.713	42599.43
644.066	42893.21
644.419	42604.63
644.771	42185.43
645.124	41810.07
645.477	41855.95
645.83	41621.83
646.182	41860.69
646.535	41769.4
646.888	41919.22
647.24	41927.13
647.593	42264.98
647.945	42134.13
648.298	42108.82
648.65	41983.4
649.002	41957.41
649.355	42048.26
649.707	41920.8
650.059	42020.01
650.411	42487.12
650.763	42392.2
651.115	42800.78
651.467	42552.43
651.819	42295.48
652.171	42145.43
652.523	41994.02
652.875	41883.52
653.227	41710.41
653.578	41921.26
653.93	41719.68
654.282	41535.5
654.633	41562.85
654.985	41608.5
655.337	41530.98
655.688	41666.57
656.039	41860.24
656.391	41597.65
656.742	41627.93
657.094	41902.27
657.445	42185.88
657.796	41949.96
658.147	42023.4
658.498	42120.57
658.849	42285.77
659.2	42202.15
659.551	42078.99
659.902	42406.67
660.253	42163.28
660.604	42290.74
660.955	42030.41
661.306	42284.18
661.656	41945.89
662.007	42014.81
662.358	41738.66
662.708	41739.11
663.059	41656.4
663.409	41247.6
663.76	41538.44
664.11	41345.23
664.461	41352.01
664.811	41256.42
665.161	41155.4
665.511	40897.78
665.862	41121.28
666.212	41117.89
666.562	41232.91
666.912	41034.73
667.262	41038.12
667.612	41283.31
667.962	41334.61
668.312	41300.03
668.662	41570.31
669.011	41512.91
669.361	41525.33
669.711	41569.4
670.06	41535.73
670.41	41488.95
670.76	41554.71
671.109	41889.39
671.459	41769.85
671.808	41672.45
672.157	41826.34
672.507	41433.59
672.856	41387.03
673.205	41378.45
673.554	41350.88
673.904	41091
674.253	41268.84
674.602	40902.3
674.951	40166.05
675.3	40082.43
675.649	40708.86
675.998	40526.72
676.346	40436.1
676.695	40715.64
677.044	40138.03
677.393	40275.65
677.741	40344.57
678.09	40280.85
678.438	40059.84
678.787	40406.95
679.135	40319.72
679.484	40269.55
679.832	40440.84
680.181	40235.88
680.529	40410.11
680.877	40482.65
681.225	40503.89
681.573	40788.18
681.922	40503.67
682.27	40503.67
682.618	40646.49
682.966	40503.89
683.314	40527.39
683.661	40377.79
684.009	40266.38
684.357	40145.48
684.705	39977.35
685.053	40122.43
685.4	39782.56
685.748	39551.6
686.095	39547.31
686.443	39224.38
686.79	39114.55
687.138	39192.74
687.485	39029.58
687.832	38764.05
688.18	38889.92
688.527	38581.46
688.874	38475.47
689.221	38523.61
689.568	38265.53
689.915	38242.48
690.262	38263.73
690.609	38166.55
690.956	38196.38
691.303	38274.12
691.65	38085.2
691.997	38249.94
692.344	37930.85
692.69	38043.17
693.037	38206.1
693.383	37957.52
693.73	38149.83
694.077	37958.42
694.423	38005.88
694.769	37870.06
695.116	37778.99
695.462	37803.17
695.808	37597.75
696.155	37721.82
696.501	37303.75
696.847	37205.67
697.193	36873.25
697.539	37022.63
697.885	36729.53
698.231	36539.7
698.577	36530.66
698.923	36280.27
699.269	36094.52
699.614	35752.15
699.96	35835.31
700.306	35721.65
700.651	35482.1
700.997	35389.9
701.342	35269.23
701.688	35327.08
702.033	35120.53
702.379	35195.56
702.724	34975.45
703.069	35257.7
703.415	34798.51
703.76	35001.89
704.105	35003.92
704.45	34981.1
704.795	34744.27
705.14	34860.65
705.485	34883.93
705.83	34719.64
706.175	34976.58
706.52	34834.89
706.865	34806.87
707.209	34732.97
707.554	34603.26
707.899	34673.09
708.243	34445.52
708.588	34379.08
708.932	34201.69
709.277	34173.21
709.621	34176.38
709.966	33724.86
710.31	33873.11
710.654	33511.31
710.998	33448.03
711.342	33318.77
711.687	33320.58
712.031	33043.75
712.375	32846.69
712.719	32834.94
713.063	32646.02
713.407	32586.13
713.75	32471.34
714.094	32533.25
714.438	32440.38
714.782	32437.21
715.125	32160.38
715.469	32353.15
715.812	32199.03
716.156	32141.17
716.499	32116.77
716.843	32327.16
717.186	32151.8
717.53	32284
717.873	32413.71
718.216	32350.21
718.559	32295.52
718.902	31979.15
719.246	32308.4
719.589	32202.87
719.932	32200.61
720.275	32164.45
720.617	32061.18
720.96	32007.62
721.303	32030.67
721.646	31952.03
721.989	31715.2
722.331	31786.16
722.674	31713.62
723.016	31632.71
723.359	31353.85
723.701	31318.82
724.044	31199.73
724.386	30871.83
724.729	31087.87
725.071	30732.85
725.413	30714.09
725.755	30603.14
726.097	30543.7
726.439	30305.06
726.782	30256.7
727.124	30460.77
727.465	30151.62
727.807	30259.87
728.149	30090.83
728.491	29964.51
728.833	30100.55
729.175	29999.99
729.516	30079.31
729.858	30025.52
730.199	30075.92
730.541	30063.72
730.882	30033.89
731.224	30311.39
731.565	29993.43
731.906	30195.69
732.248	30310.26
732.589	30187.33
732.93	30035.02
733.271	30040.21
733.612	30101.23
733.953	30212.64
734.294	30060.1
734.635	29944.4
734.976	30023.04
735.317	29882.7
735.658	29877.51
735.999	29854.23
736.339	29648.81
736.68	29643.16
737.021	29569.49
737.361	29282.94
737.702	29392.32
738.042	29239.33
738.383	29054.93
738.723	29144.19
739.063	28995.72
739.404	28909.17
739.744	28782.39
740.084	28699.91
740.424	28632.34
740.764	28540.59
741.104	28659.91
741.444	28369.52
741.784	28467.6
742.124	28599.12
742.464	28457.88
742.804	28406.81
743.143	28330.65
743.483	28353.93
743.823	28246.81
744.162	28362.97
744.502	28433.25
744.841	28295.63
745.181	28542.17
745.52	28243.2
745.86	28483.19
746.199	28381.73
746.538	28544.89
746.877	28462.4
747.216	28469.18
747.556	28438.9
747.895	28392.35
748.234	28286.81
748.573	28272.58
748.911	28275.74
749.25	28142.86
749.589	28034.84
749.928	28022.64
750.267	27960.72
750.605	27955.52
750.944	27824.9
751.283	27607.96
751.621	27666.94
751.96	27355.54
752.298	27263.56
752.636	27251.13
752.975	27152.61
753.313	26986.51
753.651	27010.91
753.989	26816.79
754.327	26801.65
754.666	26611.15
755.004	26509.91
755.342	26619.06
755.679	26503.13
756.017	26253.87
756.355	26274.66
756.693	26144.72
757.031	26317.15
757.368	26126.42
757.706	26182.46
758.044	26150.6
758.381	26215.23
758.719	26130.26
759.056	26161.44
759.394	26043.48
759.731	25951.51
760.068	25964.61
760.405	25928
760.743	25884.16
761.08	25850.04
761.417	25875.12
761.754	25821.79
762.091	25907.89
762.428	25810.95
762.765	25641.46
763.102	25784.73
763.438	25569.37
763.775	25353.56
764.112	25490.95
764.449	25445.31
764.785	25217.97
765.122	25166.67
765.458	24818.2
765.795	25047.8
766.131	24786.11
766.467	24718.54
766.804	24568.04
767.14	24291.66
767.476	24338.22
767.812	24276.75
768.148	24190.2
768.485	23996.53
768.821	23721.96
769.157	23727.84
769.492	23679.93
769.828	23544.79
770.164	23387.96
770.5	23331.24
770.836	23313.16
771.171	23216.66
771.507	23111.36
771.842	23052.83
772.178	23006.05
772.513	22951.59
772.849	22928.08
773.184	22754.53
773.519	22806.73
773.855	22767.18
774.19	22728.31
774.525	22583.01
774.86	22699.39
775.195	22640.63
775.53	22460.3
775.865	22595.66
776.2	22413.75
776.535	22243.13
776.87	22268.21
777.205	22194.32
777.539	22103.02
777.874	22281.32
778.209	21971.72
778.543	22059.18
778.878	21786.87
779.212	21772.18
779.547	21654.22
779.881	21688.34
780.215	21510.04
780.55	21544.62
780.884	21416.26
781.218	21224.4
781.552	21240.67
781.886	21049.94
782.22	20896.72
782.554	20790.51
782.888	20604.98
783.222	20514.14
783.556	20401.82
783.889	20341.94
784.223	20066.69
784.557	20125.9
784.89	20099.91
785.224	19865.34
785.557	19799.13
785.891	19870.31
786.224	19684.1
786.558	19667.15
786.891	19506.03
787.224	19516.42
787.557	19368.63
787.891	19473.71
788.224	19337.9
788.557	19436.42
788.89	19339.93
789.223	19309.65
789.556	19309.87
789.888	19184.68
790.221	19237.33
790.554	19014.51
790.887	19093.83
791.219	18981.29
791.552	19062.2
791.884	18978.36
792.217	18935.42
792.549	18958.02
792.882	18811.81
793.214	18805.48
793.546	18818.59
793.879	18622.43
794.211	18556.45
794.543	18599.38
794.875	18396.23
795.207	18583.34
795.539	18413.63
795.871	18437.13
796.203	18193.07
796.535	18174.31
796.867	18020.87
797.198	17960.98
797.53	17880.76
797.862	17798.73
798.193	17777.71
798.525	17674.89
798.856	17659.97
799.188	17341.79
799.519	17343.6
799.85	17224.73
800.182	17133.89
800.513	17160.1
800.844	17039.88
801.175	17131.85
801.506	16960.56
801.837	16961.91
802.168	16844.18
802.499	16812.99
802.83	16688.02
803.161	16591.53
803.491	16697.29
803.822	16583.84
804.153	16607.12
804.483	16509.27
804.814	16374.13
805.145	16441.02
805.475	16383.62
805.805	16386.79
806.136	16372.1
806.466	16376.39
806.796	16362.15
807.126	16338.2
807.457	16285.77
807.787	16310.18
808.117	16263.63
808.447	16188.83
808.777	16253
809.107	16210.52
809.436	16186.11
809.766	16139.56
810.096	16166.45
810.426	16085.55
810.755	16028.15
811.085	16048.26
811.414	15937.53
811.744	15837.87
812.073	15738.44
812.403	15807.82
812.732	15632.23
813.061	15739.35
813.39	15587.26
813.719	15533.7
814.049	15533.48
814.378	15470.43
814.707	15407.38
815.036	15401.28
815.365	15239.92
815.693	15075.63
816.022	15010.1
816.351	15006.03
816.68	14874.28
817.008	14957.9
817.337	14760.61
817.665	14740.73
817.994	14713.16
818.322	14661.18
818.651	14603.33
818.979	14565.14
819.307	14675.19
819.636	14557.91
819.964	14519.49
820.292	14534.86
820.62	14498.7
820.948	14513.16
821.276	14577.12
821.604	14480.85
821.932	14554.07
822.259	14559.04
822.587	14601.75
822.915	14468.42
823.243	14613.73
823.57	14466.84
823.898	14698.24
824.225	14633.16
824.553	14542.54
824.88	14568.08
825.207	14700.5
825.535	14622.99
825.862	14688.53
826.189	14681.52
826.516	14778.47
826.843	14784.57
827.17	14793.83
827.497	14784.12
827.824	14685.36
828.151	14757.68
828.478	14812.14
828.805	14859.6
829.131	14792.7
829.458	14720.62
829.785	14664.35
830.111	14661.63
830.438	14759.03
830.764	14666.61
831.09	14645.82
831.417	14627.51
831.743	14619.15
832.069	14480.17
832.395	14432.71
832.722	14523.56
833.048	14404.47
833.374	14409.66
833.7	14250.57
834.026	14325.37
834.351	14269.78
834.677	14107.52
835.003	14239.95
835.329	14263.23
835.654	14174.19
835.98	14084.47
836.306	14112.5
836.631	14079.5
836.956	13999.28
837.282	14033.63
837.607	13993.86
837.932	13994.76
838.258	14026.85
838.583	13898.49
838.908	13923.8
839.233	13923.57
839.558	13975.32
839.883	13919.05
840.208	13840.86
840.533	13880.41
840.858	13913.41
841.182	14011.48
841.507	13907.76
841.832	13830.47
842.156	13827.53
842.481	13869.34
842.805	13928.55
843.13	13842.45
843.454	13877.47
843.778	13768.1
844.103	13867.08
844.427	13809.68
844.751	13777.14
845.075	13715.9
845.399	13747.99
845.723	13682
846.047	13642.23
846.371	13544.38
846.695	13570.82
847.019	13487.88
847.343	13408.11
847.666	13329.01
847.99	13280.43
848.313	13279.98
848.637	13076.14
848.96	13139.87
849.284	13039.3
849.607	12995.46
849.931	12905.07
850.254	12822.81
850.577	12690.39
850.9	12613.1
851.223	12557.28
851.546	12471.64
851.869	12294.92
852.192	12419.43
852.515	12312.77
852.838	12198.87
853.161	12210.4
853.483	12118.88
853.806	12143.06
854.129	12031.65
854.451	11987.81
854.774	11987.58
855.096	11858.32
855.419	11862.16
855.741	11807.47
856.063	11698.77
856.385	11770.41
856.708	11722.05
857.03	11670.53
857.352	11658.1
857.674	11609.29
857.996	11622.84
858.318	11547.59
858.64	11574.03
858.961	11563.18
859.283	11522.51
859.605	11507.82
859.926	11579.68
860.248	11535.39
860.57	11458.33
860.891	11490.64
861.212	11525.45
861.534	11389.18
861.855	11517.54
862.176	11470.76
862.498	11496.75
862.819	11379.91
863.14	11377.43
863.461	11378.78
863.782	11404.54
864.103	11445
864.424	11281.38
864.745	11337.88
865.065	11341.5
865.386	11273.7
865.707	11300.14
866.027	11224.21
866.348	11177.43
866.668	11200.93
866.989	11173.82
867.309	11080.26
867.63	11088.85
867.95	11095.85
868.27	10977.44
868.59	11064.67
868.91	10964.56
869.23	10963.88
869.55	10835.52
869.87	10920.26
870.19	10792.81
870.51	10828.29
870.83	10802.3
871.15	10732.25
871.469	10719.14
871.789	10682.53
872.109	10642.08
872.428	10588.75
872.748	10617.45
873.067	10578.58
873.386	10599.59
873.706	10538.8
874.025	10461.52
874.344	10458.58
874.663	10437.79
874.982	10431.69
875.301	10440.73
875.62	10406.83
875.939	10368.87
876.258	10363.22
876.577	10398.02
876.896	10301.75
877.214	10265.37
877.533	10293.61
877.852	10318.02
878.17	10336.55
878.489	10337.68
878.807	10344.23
879.125	10334.52
879.444	10324.12
879.762	10240.28
880.08	10348.53
880.398	10206.38
880.716	10266.04
881.034	10256.55
881.352	10293.61
881.67	10240.51
881.988	10244.8
882.306	10244.12
882.624	10172.71
882.941	10211.81
883.259	10188.53
883.577	10139.72
883.894	10097.69
884.212	10203.9
884.529	10109.21
884.846	10081.64
885.164	10025.82
885.481	10046.16
885.798	10070.79
886.115	9896.56
886.432	10026.05
886.75	9921.19
887.067	9883.23
887.383	9842.78
887.7	9850.69
888.017	9801.65
888.334	9789.67
888.651	9734.76
888.967	9730.46
889.284	9716.23
889.6	9616.12
889.917	9561.88
890.233	9569.11
890.55	9457.93
890.866	9488.44
891.182	9451.6
891.498	9401.66
891.815	9364.6
892.131	9333.19
892.447	9241.66
892.763	9191.27
893.079	9160.08
893.395	9129.12
893.71	9144.72
894.026	9080.76
894.342	9090.26
894.657	9043.48
894.973	8989.02
895.289	9027.88
895.604	9017.94
895.92	8923.03
896.235	8879.19
896.55	8940.65
896.865	8877.15
897.181	8905.4
897.496	8842.8
897.811	8810.49
898.126	8803.03
898.441	8791.96
898.756	8780.43
899.071	8684.62
899.386	8750.6
899.7	8645.07
900.015	8670.15
900.33	8560.78
900.644	8599.19
900.959	8611.62
901.273	8627.22
901.588	8539.54
901.902	8511.97
902.216	8513.77
902.531	8499.99
902.845	8443.27
903.159	8438.3
903.473	8383.61
903.787	8375.7
904.101	8334.79
904.415	8264.97
904.729	8299.32
905.042	8198.98
905.356	8245.98
905.67	8188.13
905.984	8196.49
906.297	8139.32
906.611	8129.83
906.924	8129.6
907.237	8060.45
907.551	8081.02
907.864	8003.73
908.177	7952.43
908.491	7904.07
908.804	7902.49
909.117	7792.89
909.43	7756.96
909.743	7695.72
910.056	7744.08
910.368	7674.7
910.681	7603.74
910.994	7558.32
911.307	7503.86
911.619	7430.86
911.932	7451.43
912.244	7363.97
912.557	7385.67
912.869	7305.44
913.181	7340.47
913.494	7321.94
913.806	7247.82
914.118	7249.85
914.43	7154.71
914.742	7155.84
915.054	7037.2
915.366	7070.87
915.678	7053.02
915.99	6974.38
916.302	6975.06
916.613	6908.17
916.925	6917.43
917.236	6907.49
917.548	6851.67
917.859	6874.04
918.171	6845.12
918.482	6798.34
918.794	6794.72
919.105	6746.36
919.416	6691
919.727	6761.5
920.038	6642.18
920.349	6701.39
920.66	6630.21
920.971	6691.22
921.282	6643.54
921.593	6624.78
921.903	6566.93
922.214	6585.46
922.525	6460.72
922.835	6522.41
923.146	6484
923.456	6463.43
923.767	6466.82
924.077	6424.56
924.387	6382.3
924.697	6396.31
925.008	6372.36
925.318	6303.21
925.628	6318.8
925.938	6280.39
926.248	6224.34
926.558	6218.92
926.867	6213.04
927.177	6146.83
927.487	6184.57
927.796	6074.74
928.106	6153.61
928.416	6002.65
928.725	6036.1
929.034	6002.43
929.344	5977.34
929.653	5954.07
929.962	5874.97
930.271	5850.34
930.581	5848.98
930.89	5797.69
931.199	5797.69
931.508	5771.7
931.817	5733.06
932.125	5684.02
932.434	5682.44
932.743	5630.01
933.051	5578.48
933.36	5602.21
933.669	5543
933.977	5480.86
934.286	5479.28
934.594	5471.14
934.902	5380.3
935.21	5428.43
935.519	5372.39
935.827	5400.41
936.135	5289.9
936.443	5258.94
936.751	5232.96
937.059	5221.66
937.367	5230.47
937.674	5185.5
937.982	5158.16
938.29	5131.26
938.597	5131.26
938.905	5064.6
939.213	5075.9
939.52	5034.54
939.827	5066.41
940.135	5029.35
940.442	5032.96
940.749	4999.29
941.056	5016.46
941.363	4978.95
941.67	4994.54
941.977	4919.97
942.284	4893.76
942.591	4878.39
942.898	4900.53
943.205	4891.72
943.511	4865.73
943.818	4887.2
944.125	4782.35
944.431	4808.56
944.738	4813.76
945.044	4800.2
945.35	4757.04
945.657	4726.3
945.963	4724.27
946.269	4709.13
946.575	4722.69
946.881	4694.66
947.187	4675.91
947.493	4630.26
947.799	4643.37
948.105	4626.19
948.41	4571.5
948.716	4578.28
949.022	4566.08
949.327	4544.16
949.633	4487.21
949.938	4526.31
950.244	4552.3
950.549	4477.95
950.854	4476.82
951.16	4414.22
951.465	4388.46
951.77	4374
952.075	4379.64
952.38	4392.07
952.685	4337.61
952.99	4298.29
953.294	4255.81
953.599	4224.85
953.904	4243.83
954.209	4191.85
954.513	4162.48
954.818	4142.36
955.122	4156.83
955.426	4138.75
955.731	4071.4
956.035	4076.6
956.339	4071.18
956.643	4074.57
956.948	3971.07
957.252	4006.1
957.556	3957.73
957.86	3963.16
958.163	3951.18
958.467	3929.26
958.771	3911.63
959.075	3870.28
959.378	3868.25
959.682	3823.28
959.985	3796.38
960.289	3806.78
960.592	3772.43
960.896	3741.24
961.199	3742.37
961.502	3747.57
961.805	3721.36
962.108	3710.51
962.411	3690.4
962.714	3709.61
963.017	3632.32
963.32	3645.2
963.623	3658.99
963.926	3600.91
964.228	3617.4
964.531	3606.56
964.833	3567.69
965.136	3559.33
965.438	3567.46
965.741	3557.97
966.043	3544.86
966.345	3502.61
966.648	3518.88
966.95	3483.85
967.252	3498.54
967.554	3413.79
967.856	3475.49
968.158	3425.55
968.46	3415.6
968.761	3424.87
969.063	3439.33
969.365	3368.15
969.666	3370.41
969.968	3359.56
970.269	3401.14
970.571	3355.26
970.872	3333.57
971.174	3300.35
971.475	3315.49
971.776	3248.15
972.077	3261.71
972.378	3278.88
972.679	3256.51
972.98	3256.28
973.281	3234.59
973.582	3211.31
973.883	3224.42
974.183	3197.53
974.484	3179.45
974.785	3134.25
975.085	3152.11
975.386	3129.96
975.686	3108.49
975.986	3105.1
976.287	3108.94
976.587	3057.42
976.887	3065.33
977.187	3014.48
977.487	3008.61
977.787	2988.49
978.087	2967.7
978.387	2982.62
978.687	2971.55
978.987	2951.43
979.286	2922.73
979.586	2941.94
979.885	2926.12
980.185	2885.45
980.484	2875.73
980.784	2860.14
981.083	2843.64
981.382	2818.78
981.682	2824.66
981.981	2789.86
982.28	2795.96
982.579	2749.41
982.878	2736.52
983.177	2721.38
983.475	2743.98
983.774	2687.49
984.073	2701.04
984.372	2706.47
984.67	2669.63
984.969	2657.43
985.267	2650.2
985.566	2633.25
985.864	2631.22
986.162	2614.49
986.461	2567.26
986.759	2578.79
987.057	2546.7
987.355	2540.6
987.653	2542.18
987.951	2546.92
988.249	2506.02
988.547	2488.17
988.844	2506.47
989.142	2510.99
989.44	2494.5
989.737	2465.12
990.035	2464.67
990.332	2443.65
990.63	2456.53
990.927	2444.78
991.224	2448.62
991.521	2421.96
991.819	2426.93
992.116	2393.93
992.413	2415.85
992.71	2366.14
993.006	2395.06
993.303	2367.49
993.6	2377.44
993.897	2357.55
994.193	2387.83
994.49	2308.51
994.787	2321.17
995.083	2330.66
995.379	2291.79
995.676	2257.21
995.972	2292.02
996.268	2278.23
996.565	2257.89
996.861	2221.28
997.157	2243.2
997.453	2253.15
997.749	2233.71
998.044	2205.92
998.34	2208.18
998.636	2163.21
998.932	2170.66
999.227	2143.55
999.523	2155.75
999.818	2133.83
1000.114	2124.34
1000.409	2117.11
1000.704	2070.1
1001	2120.5
1001.295	2066.26
1001.59	2087.5
1001.885	2100.83
1002.18	2032.36
1002.475	2008.41
1002.77	2004.11
1003.065	2030.55
1003.359	2011.57
1003.654	1979.03
1003.949	1955.98
1004.243	1956.88
1004.538	1924.34
1004.832	1958.24
1005.127	1946.71
1005.421	1932.25
1005.715	1924.57
1006.009	1902.2
1006.304	1869.2
1006.598	1866.49
1006.892	1854.29
1007.186	1850.9
1007.48	1855.64
1007.773	1823.55
1008.067	1837.11
1008.361	1788.75
1008.655	1789.43
1008.948	1785.81
1009.242	1778.13
1009.535	1732.48
1009.829	1739.71
1010.122	1711.01
1010.415	1723.44
1010.708	1696.78
1011.001	1717.12
1011.295	1695.42
1011.588	1678.02
1011.881	1663.56
1012.173	1658.13
1012.466	1634.63
1012.759	1617.46
1013.052	1618.81
1013.344	1630.79
1013.637	1635.54
1013.93	1619.94
1014.222	1614.52
1014.514	1576.78
1014.807	1594.18
1015.099	1579.04
1015.391	1584.92
1015.683	1537.91
1015.976	1534.97
1016.268	1542.66
1016.56	1549.21
1016.851	1526.39
1017.143	1511.02
1017.435	1499.49
1017.727	1505.6
1018.018	1533.39
1018.31	1470.57
1018.602	1482.77
1018.893	1460.4
1019.185	1459.04
1019.476	1471.7
1019.767	1448.42
1020.058	1424.24
1020.35	1444.35
1020.641	1389.44
1020.932	1399.38
1021.223	1395.32
1021.514	1397.35
1021.804	1367.29
1022.095	1387.86
1022.386	1364.36
1022.677	1360.74
1022.967	1360.97
1023.258	1318.48
1023.548	1343.34
1023.839	1323.45
1024.129	1312.61
1024.419	1306.96
1024.709	1318.93
1025	1293.85
1025.29	1295.66
1025.58	1299.73
1025.87	1296.11
1026.16	1258.14
1026.449	1236.68
1026.739	1221.99
1027.029	1241.87
1027.319	1239.84
1027.608	1227.41
1027.898	1176.79
1028.187	1214.98
1028.477	1199.84
1028.766	1194.64
1029.055	1169.11
1029.344	1166.85
1029.634	1168.2
1029.923	1176.34
1030.212	1154.87
1030.501	1138.6
1030.79	1141.54
1031.078	1139.5
1031.367	1097.7
1031.656	1092.05
1031.945	1081.43
1032.233	1097.02
1032.522	1071.26
1032.81	1077.36
1033.099	1054.08
1033.387	1054.08
1033.675	1075.78
1033.963	1065.38
1034.251	1040.52
1034.54	1006.17
1034.828	1022.44
1035.116	1010.02
1035.403	1010.02
1035.691	980.86
1035.979	987.87
1036.267	1007.08
1036.554	1002.78
1036.842	971.6
1037.129	964.59
1037.417	957.81
1037.704	943.58
1037.992	932.28
1038.279	953.07
1038.566	922.79
1038.853	922.79
1039.14	922.79
