Data from red_shiny_book_FLMS001491_00026.txt Node
Date: Wed Feb 08 15:24:38 GMT 2017
User: dcchb
Spectrometer: FLMS00149
Trigger mode: 0
Integration Time (sec): 2.000000E-2
Scans to average: 10
Electric dark correction enabled: true
Nonlinearity correction enabled: false
Boxcar width: 0
XAxis mode: Wavelengths
Number of Pixels in Spectrum: 2048
>>>>>Begin Spectral Data<<<<<
341.393	-10.92
341.776	-10.92
342.16	-10.92
342.543	-33.52
342.927	-81.65
343.31	-60.41
343.693	-81.65
344.077	-69.45
344.46	-59.28
344.843	-37.58
345.226	-47.3
345.61	-28.54
345.993	-33.06
346.376	-13.63
346.759	27.73
347.142	22.53
347.525	47.39
347.908	60.72
348.291	67.27
348.674	101.17
349.057	104.11
349.44	107.95
349.823	138.91
350.206	149.08
350.588	213.03
350.971	198.12
351.354	230.43
351.737	233.6
352.119	261.62
352.502	260.49
352.884	281.05
353.267	279.24
353.65	284.44
354.032	291.67
354.414	300.71
354.797	291.9
355.179	330.77
355.562	338.68
355.944	344.55
356.326	333.25
356.709	341.84
357.091	355.4
357.473	349.52
357.855	359.47
358.238	349.3
358.62	352.91
359.002	344.33
359.384	356.76
359.766	349.98
360.148	362.41
360.53	348.39
360.912	309.07
361.294	348.62
361.676	356.3
362.057	334.16
362.439	327.6
362.821	318.57
363.203	342.97
363.584	340.26
363.966	327.83
364.348	330.77
364.729	319.92
365.111	319.24
365.493	317.44
365.874	338.23
366.256	316.98
366.637	323.08
367.019	320.82
367.4	310.88
367.781	318.57
368.163	326.25
368.544	327.38
368.925	314.05
369.306	313.14
369.688	312.69
370.069	338
370.45	338.45
370.831	320.37
371.212	306.36
371.593	320.82
371.974	335.06
372.355	300.49
372.736	330.09
373.117	334.16
373.498	318.34
373.879	309.07
374.26	307.72
374.641	309.3
375.021	321.28
375.402	339.81
375.783	322.18
376.163	345.46
376.544	351.33
376.925	355.63
377.305	366.25
377.686	321.5
378.066	333.03
378.447	356.3
378.827	335.97
379.208	345.46
379.588	322.86
379.968	324.67
380.349	338
380.729	320.15
381.109	347.04
381.489	347.26
381.87	334.38
382.25	344.78
382.63	364.21
383.01	336.42
383.39	335.06
383.77	361.28
384.15	337.55
384.53	362.41
384.91	344.78
385.29	370.77
385.67	363.08
386.049	381.61
386.429	363.08
386.809	368.51
387.189	386.13
387.568	358.79
387.948	361.73
388.328	363.54
388.707	388.17
389.087	376.19
389.466	380.94
389.846	383.2
390.225	372.8
390.605	371.22
390.984	388.62
391.363	369.19
391.743	367.83
392.122	393.59
392.501	386.81
392.881	390.88
393.26	389.07
393.639	396.76
394.018	406.7
394.397	413.03
394.776	392.46
395.155	396.08
395.534	388.39
395.913	403.53
396.292	413.25
396.671	415.06
397.05	395.63
397.429	418.22
397.808	408.51
398.186	452.12
398.565	423.42
398.944	416.19
399.323	416.87
399.701	429.07
400.08	418
400.458	428.17
400.837	434.04
401.215	450.31
401.594	432.23
401.972	443.08
402.351	450.31
402.729	418.68
403.107	450.09
403.486	445.57
403.864	444.66
404.242	447.38
404.62	463.42
404.999	468.84
405.377	457.77
405.755	487.37
406.133	481.72
406.511	459.35
406.889	471.33
407.267	467.04
407.645	495.96
408.023	509.75
408.401	470.65
408.779	504.55
409.156	516.3
409.534	503.87
409.912	486.47
410.29	508.16
410.667	505
411.045	511.33
411.422	519.69
411.8	523.76
412.178	539.12
412.555	538.45
412.933	542.74
413.31	566.69
413.687	539.35
414.065	554.72
414.442	555.4
414.819	553.59
415.197	578.9
415.574	588.39
415.951	578.67
416.328	613.92
416.705	609.4
417.082	614.83
417.46	600.14
417.837	605.56
418.214	627.48
418.591	613.92
418.967	604.66
419.344	626.58
419.721	630.42
420.098	629.52
420.475	646.69
420.852	655.28
421.228	640.59
421.605	663.19
421.982	655.51
422.358	657.99
422.735	656.86
423.111	657.99
423.488	665.67
423.864	693.92
424.241	696.86
424.617	719.46
424.994	734.37
425.37	693.02
425.746	681.49
426.123	697.76
426.499	722.4
426.875	688.72
427.251	729.63
427.627	719.23
428.003	740.7
428.379	770.3
428.756	770.98
429.132	770.76
429.507	774.6
429.883	771.43
430.259	766.01
430.635	771.43
431.011	778.44
431.387	803.52
431.763	811.43
432.138	824.09
432.514	828.61
432.89	843.97
433.265	855.05
433.641	877.65
434.016	846.69
434.392	860.25
434.767	881.49
435.143	857.53
435.518	869.96
435.894	882.39
436.269	928.49
436.644	914.48
437.02	932.79
437.395	935.95
437.77	971.2
438.145	959.68
438.52	970.75
438.895	970.98
439.271	967.59
439.646	963.29
440.021	959.45
440.395	963.29
440.77	951.77
441.145	964.2
441.52	1007.36
441.895	1044.87
442.27	1041.48
442.645	1042.61
443.019	1067.92
443.394	1055.49
443.769	1043.07
444.143	1026.57
444.518	1030.18
444.892	1018.21
445.267	1016.85
445.641	1067.92
446.016	1057.98
446.39	1090.07
446.764	1099.34
447.139	1113.57
447.513	1151.09
447.887	1108.15
448.262	1092.78
448.636	1118.54
449.01	1113.12
449.384	1117.19
449.758	1104.53
450.132	1126.91
450.506	1112.89
450.88	1169.84
451.254	1183.4
451.628	1186.56
452.002	1231.31
452.376	1233.8
452.75	1220.46
453.123	1224.98
453.497	1185.43
453.871	1177.75
454.244	1209.16
454.618	1203.29
454.992	1235.15
455.365	1241.25
455.739	1306.34
456.112	1318.76
456.486	1308.14
456.859	1331.19
457.232	1362.38
457.606	1349.72
457.979	1357.41
458.352	1344.98
458.725	1326
459.099	1331.87
459.472	1329.84
459.845	1318.09
460.218	1379.1
460.591	1423.62
460.964	1447.35
461.337	1474.01
461.71	1501.13
462.083	1514.01
462.456	1507.91
462.829	1514.47
463.201	1505.2
463.574	1447.35
463.947	1465.43
464.32	1441.02
464.692	1490.29
465.065	1504.75
465.438	1583.16
465.81	1610.51
466.183	1623.62
466.555	1690.73
466.928	1703.39
467.3	1707.91
467.672	1694.35
468.045	1714.69
468.417	1678.98
468.789	1624.29
469.161	1667.46
469.534	1675.59
469.906	1724.18
470.278	1724.63
470.65	1768.24
471.022	1860.67
471.394	1904.51
471.766	1951.74
472.138	1974.57
472.51	2002.81
472.882	2022.25
473.253	2003.27
473.625	1997.17
473.997	1944.06
474.369	1933.21
474.74	1946.77
475.112	1984.06
475.484	2042.81
475.855	2073.32
476.227	2162.36
476.598	2218.85
476.97	2279.42
477.341	2357.83
477.713	2427.44
478.084	2409.13
478.455	2445.06
478.827	2393.31
479.198	2352.18
479.569	2375.23
479.94	2371.17
480.311	2370.26
480.682	2452.29
481.053	2509.02
481.424	2592.86
481.795	2685.96
482.166	2803.7
482.537	2853.87
482.908	2928.67
483.279	2944.03
483.65	3004.14
484.021	3009.79
484.391	2956.69
484.762	2938.61
485.133	2920.76
485.503	2877.14
485.874	2937.25
486.244	3016.57
486.615	3050.92
486.985	3184.48
487.356	3281.43
487.726	3392.83
488.097	3539.95
488.467	3632.6
488.837	3671.7
489.207	3699.04
489.578	3720.06
489.948	3628.08
490.318	3621.76
490.688	3520.74
491.058	3563
491.428	3550.57
491.798	3603.45
492.168	3673.05
492.538	3820.17
492.908	3873.5
493.278	4030.78
493.648	4089.09
494.017	4198.92
494.387	4317.33
494.757	4354.17
495.126	4339.02
495.496	4319.14
495.866	4316.2
496.235	4194.62
496.605	4151.91
496.974	4138.8
497.344	4114.4
497.713	4147.16
498.082	4272.36
498.452	4308.29
498.821	4399.59
499.19	4556.42
499.559	4680.03
499.928	4790.54
500.298	4898.78
500.667	4926.35
501.036	4901.04
501.405	4852.23
501.774	4710.54
502.143	4695.63
502.512	4581.28
502.88	4592.8
503.249	4494.5
503.618	4546.93
503.987	4655.4
504.356	4707.15
504.724	4798.67
505.093	4896.52
505.462	5075.95
505.83	5155.95
506.199	5277.53
506.567	5366.34
506.936	5331.31
507.304	5371.09
507.672	5266.68
508.041	5174.26
508.409	5054.26
508.777	4993.92
509.145	4936.3
509.514	4862.4
509.882	4950.31
510.25	4964.32
510.618	5095.39
510.986	5208.83
511.354	5367.7
511.722	5538.54
512.09	5710.06
512.458	5679.33
512.826	5828.7
513.193	5771.53
513.561	5748.7
513.929	5690.63
514.297	5637.97
514.664	5472.33
515.032	5402.05
515.4	5340.13
515.767	5278.43
516.135	5326.79
516.502	5264.2
516.869	5408.15
517.237	5589.84
517.604	5690.63
517.972	5889.94
518.339	6046.1
518.706	6173.33
519.073	6260.33
519.44	6326.99
519.808	6267.34
520.175	6184.4
520.542	6137.17
520.909	6009.94
521.276	5881.13
521.643	5790.51
522.009	5727.24
522.376	5741.7
522.743	5741.25
523.11	5791.87
523.477	5948.02
523.843	6041.13
524.21	6299.88
524.577	6432.98
524.943	6653.99
525.31	6825.29
525.676	6909.58
526.043	7034.55
526.409	6975.57
526.776	6922.01
527.142	6873.42
527.508	6704.39
527.874	6590.26
528.241	6488.57
528.607	6413.55
528.973	6397.5
529.339	6332.64
529.705	6464.62
530.071	6597.72
530.437	6773.99
530.803	6977.6
531.169	7177.37
531.535	7294.65
531.901	7513.86
532.267	7647.41
532.632	7797.92
532.998	7875.65
533.364	7785.49
533.73	7736.22
534.095	7547.98
534.461	7458.72
534.826	7270.25
535.192	7162.68
535.557	7079.74
535.923	7077.48
536.288	7075
536.653	7224.15
537.019	7270.7
537.384	7489.68
537.749	7668.65
538.114	7960.17
538.479	8127.63
538.845	8312.25
539.21	8361.74
539.575	8584.79
539.94	8500.5
540.305	8460.95
540.67	8358.58
541.034	8264.57
541.399	8078.36
541.764	7961.75
542.129	7822.32
542.494	7774.41
542.858	7651.03
543.223	7694.19
543.587	7769.22
543.952	7837.92
544.316	8053.28
544.681	8257.79
545.045	8519.03
545.41	8730.55
545.774	8905.46
546.138	9052.35
546.503	9137.32
546.867	9170.54
547.231	9291.89
547.595	9173.93
547.959	8994.5
548.324	8846.7
548.688	8687.16
549.052	8541.4
549.416	8357.22
549.779	8214.63
550.143	8177.34
550.507	8207.62
550.871	8249.66
551.235	8338.24
551.599	8509.08
551.962	8632.92
552.326	8863.43
552.689	9097.77
553.053	9274.49
553.417	9428.83
553.78	9696.62
554.143	9673.57
554.507	9671.31
554.87	9669.73
555.234	9552.45
555.597	9252.79
555.96	9163.98
556.323	9001.5
556.686	8854.16
557.05	8670.44
557.413	8606.03
557.776	8583.21
558.139	8613.04
558.502	8705.01
558.865	8816.87
559.228	9036.3
559.59	9209.4
559.953	9430.87
560.316	9767.13
560.679	9923.28
561.041	10104.52
561.404	10218.19
561.767	10335.25
562.129	10228.14
562.492	10233.78
562.854	10110.85
563.217	9887.35
563.579	9683.06
563.941	9531.66
564.304	9372.56
564.666	9249.63
565.028	9134.83
565.39	9096.87
565.753	9106.58
566.115	9189.52
566.477	9399.68
566.839	9589.96
567.201	9730.75
567.563	10054.13
567.925	10326.44
568.287	10539.54
568.648	10721.46
569.01	10885.52
569.372	11011.39
569.734	11003.93
570.095	10947.89
570.457	10840.77
570.819	10717.39
571.18	10599.65
571.542	10412.31
571.903	10150.17
572.265	10061.36
572.626	9943.85
572.987	9827.24
573.349	9819.56
573.71	9933.23
574.071	10029.72
574.432	10224.52
574.794	10511.74
575.155	10732.3
575.516	11001.45
575.877	11320.76
576.238	11574.31
576.599	11843.23
576.96	12058.6
577.32	12277.8
577.681	12365.93
578.042	12371.36
578.403	12330
578.763	12247.97
579.124	12129.78
579.485	12095.2
579.845	11928.88
580.206	11929.79
580.566	11815.66
580.927	11804.82
581.287	11955.1
581.648	12071.48
582.008	12411.58
582.368	12749.65
582.728	13098.12
583.089	13475.28
583.449	13996.62
583.809	14520.45
584.169	15075.92
584.529	15524.04
584.889	16202.89
585.249	16461.42
585.609	16890.33
585.969	17424.78
586.329	17712.46
586.688	17951.77
587.048	18259.34
587.408	18350.18
587.768	18594.02
588.127	18746.56
588.487	19025.42
588.846	19415.46
589.206	19493.43
589.565	20007.31
589.925	20402.56
590.284	20821.75
590.643	21402.3
591.003	22140.36
591.362	22823.96
591.721	23497.84
592.08	24253.3
592.44	25002.66
592.799	25846.03
593.158	26404.21
593.517	27159.22
593.876	27685.98
594.235	28366.42
594.593	28780.64
594.952	29231.25
595.311	29413.17
595.67	29924.79
596.029	30330.66
596.387	30531.78
596.746	30939.68
597.104	31189.17
597.463	31399.33
597.822	31899.43
598.18	32138.52
598.538	32620.99
598.897	33397.7
599.255	33522.44
599.613	34621.39
599.972	35176.63
600.33	35868.36
600.688	36344.74
601.046	37166.64
601.404	37990.34
601.762	38479.14
602.12	39239.12
602.478	39686.12
602.836	40222.37
603.194	40529.71
603.552	40934.45
603.91	40984.61
604.268	41544.83
604.625	41433.42
604.983	41794.08
605.341	41860.98
605.698	42154.3
606.056	42439.94
606.413	42346.61
606.771	42767.84
607.128	42973.94
607.485	43264.55
607.843	43449.86
608.2	44135.27
608.557	44499.32
608.914	44846.89
609.272	45477.38
609.629	45967.53
609.986	46488.2
610.343	46842.77
610.7	47433.94
611.057	47570.2
611.414	47947.37
611.771	48061.49
612.127	48600.01
612.484	48567.47
612.841	48727.46
613.198	48733.56
613.554	48711.19
613.911	48892.43
614.267	48779.21
614.624	48818.53
614.98	49015.59
615.337	49032.99
615.693	48964.29
616.05	49076.61
616.406	49235.47
616.762	49186.66
617.118	49270.05
617.475	49451.28
617.831	49959.29
618.187	50181.43
618.543	50355.22
618.899	50731.93
619.255	50813.73
619.611	51006.05
619.967	51337.79
620.323	51624.56
620.678	51640.15
621.034	51701.62
621.39	51820.71
621.746	51745.69
622.101	52119.91
622.457	51937.55
622.812	51933.93
623.168	51954.27
623.523	51775.74
623.879	51808.51
624.234	51417.56
624.589	51594.73
624.945	51598.35
625.3	51557.9
625.655	51512.7
626.01	51543.43
626.365	51523.32
626.72	51501.85
627.075	51636.76
627.43	51814.39
627.785	51848.06
628.14	52080.59
628.495	52092.34
628.85	52318.78
629.205	52456.18
629.559	52723.51
629.914	52600.13
630.269	52805.32
630.623	52765.55
630.978	52736.62
631.332	52939.78
631.687	52877.18
632.041	52761.48
632.396	52710.86
632.75	52518.1
633.104	52477.19
633.459	52111.55
633.813	52080.82
634.167	51973.25
634.521	51894.84
634.875	51896.42
635.229	51728.06
635.583	51608.29
635.937	51578.91
636.291	51620.49
636.645	51681.73
636.999	51592.47
637.352	51848.96
637.706	51824.56
638.06	52012.12
638.413	51974.83
638.767	52029.07
639.121	52228.61
639.474	52239.23
639.828	52321.94
640.181	52398.55
640.534	52501.15
640.888	52416.4
641.241	52328.72
641.594	52265.67
641.947	52307.03
642.301	52062.74
642.654	52139.8
643.007	51930.77
643.36	51743.43
643.713	51606.71
644.066	51507.5
644.419	51224.8
644.771	50887.4
645.124	50571.71
645.477	50410.13
645.83	50183.92
646.182	50143.7
646.535	50040.65
646.888	50040.42
647.24	50007.88
647.593	50354.99
647.945	50269.57
648.298	50262.56
648.65	50379.4
649.002	50488.55
649.355	50665.04
649.707	50719.27
650.059	51021.86
650.411	51443.1
650.763	51524.45
651.115	51745.91
651.467	51679.93
651.819	51580.49
652.171	51453.04
652.523	51230.22
652.875	51255.08
653.227	50988.42
653.578	51146.16
653.93	50927.18
654.282	50638.6
654.633	50369.23
654.985	50234.09
655.337	50337.59
655.688	50247.87
656.039	50344.37
656.391	50025.05
656.742	50088.1
657.094	50187.54
657.445	50332.84
657.796	50286.74
658.147	50310.47
658.498	50391.37
658.849	50632.95
659.2	50651.03
659.551	50638.37
659.902	50895.99
660.253	50932.6
660.604	51013.96
660.955	50966.5
661.306	51130.11
661.656	51046.27
662.007	51020.73
662.358	50988.65
662.708	50875.88
663.059	50799.27
663.409	50492.16
663.76	50625.26
664.11	50463.69
664.461	50408.1
664.811	50196.35
665.161	50065.73
665.511	49849.92
665.862	49775.12
666.212	49779.86
666.562	49731.73
666.912	49609.47
667.262	49581.45
667.612	49557.72
667.962	49746.64
668.312	49647.21
668.662	49948.67
669.011	49906.19
669.361	50095.34
669.711	50063.02
670.06	50259.62
670.41	50191.38
670.76	50339.17
671.109	50559.5
671.459	50627.75
671.808	50551.37
672.157	50641.08
672.507	50476.12
672.856	50438.83
673.205	50426.4
673.554	50511.37
673.904	50450.13
674.253	50427.53
674.602	50074.09
674.951	49484.96
675.3	49357.05
675.649	49686.76
675.998	49556.14
676.346	49363.38
676.695	49389.14
677.044	49016.95
677.393	49058.3
677.741	48964.74
678.09	48841.13
678.438	48692.21
678.787	48798.19
679.135	48898.53
679.484	48706.9
679.832	49007.91
680.181	48903.05
680.529	49006.32
680.877	48977.4
681.225	49247.22
681.573	49512.98
681.922	49389.37
682.27	49355.92
682.618	49424.17
682.966	49472.53
683.314	49530.15
683.661	49591.39
684.009	49304.17
684.357	49263.72
684.705	49172.65
685.053	49120.22
685.4	49050.62
685.748	48665.54
686.095	48574.7
686.443	48384.19
686.79	48125.9
687.138	48035.73
687.485	48007.93
687.832	47614.72
688.18	47655.17
688.527	47338.8
688.874	47200.04
689.221	47056.09
689.568	46891.35
689.915	46753.95
690.262	46939.26
690.609	46774.97
690.956	46717.35
691.303	46823.33
691.65	46694.75
691.997	46735.88
692.344	46630.57
692.69	46847.74
693.037	46959.6
693.383	46820.62
693.73	46935.87
694.077	46721.41
694.423	46935.42
694.769	46861.52
695.116	46779.26
695.462	46986.04
695.808	46716.22
696.155	46767.51
696.501	46361.2
696.847	46287.53
697.193	45852.06
697.539	45917.59
697.885	45607.32
698.231	45289.59
698.577	45302.02
698.923	45029.25
699.269	44551.98
699.614	44351.08
699.96	44223.4
700.306	44076.51
700.651	43825.9
700.997	43624.55
701.342	43477.88
701.688	43581.38
702.033	43293.93
702.379	43404.44
702.724	43288.51
703.069	43459.8
703.415	43077.21
703.76	43236.53
704.105	43229.08
704.45	43418
704.795	43329.41
705.14	43428.84
705.485	43328.28
705.83	43287.38
706.175	43348.62
706.52	43191.34
706.865	43240.6
707.209	43388.85
707.554	43122.64
707.899	43253.71
708.243	42968.97
708.588	42865.47
708.932	42519.94
709.277	42508.87
709.621	42423.67
709.966	41982.55
710.31	42033.4
710.654	41422.8
710.998	41526.75
711.342	41402.91
711.687	41108.45
712.031	40962.69
712.375	40570.16
712.719	40634.12
713.063	40430.96
713.407	40641.8
713.75	40286.33
714.094	40161.36
714.438	40213.11
714.782	40338.98
715.125	40071.42
715.469	40188.48
715.812	40021.25
716.156	39988.26
716.499	40153.9
716.843	40349.38
717.186	39987.13
717.53	40368.81
717.873	40463.27
718.216	40454.46
718.559	40364.07
718.902	40262.15
719.246	40305.76
719.589	40233.67
719.932	40175.6
720.275	40189.61
720.617	40166.56
720.96	40162.04
721.303	40086.11
721.646	39992.55
721.989	39604.31
722.331	39760.69
722.674	39474.37
723.016	39148.28
723.359	39082.07
723.701	39051.78
724.044	38645.24
724.386	38245.03
724.729	38517.33
725.071	38062.66
725.413	38003.68
725.755	37963.45
726.097	37699.73
726.439	37631.26
726.782	37564.82
727.124	37709.67
727.465	37428.55
727.807	37459.06
728.149	37489.11
728.491	37389.45
728.833	37609.56
729.175	37445.95
729.516	37512.84
729.858	37767.75
730.199	37817.24
730.541	37794.87
730.882	37847.97
731.224	37988.76
731.565	37814.75
731.906	37990.12
732.248	38130.9
732.589	37840.52
732.93	37762.78
733.271	37796.9
733.612	37718.49
733.953	37746.96
734.294	37540.86
734.635	37330.7
734.976	37460.19
735.317	37229.46
735.658	37009.8
735.999	36888.9
736.339	36775.69
736.68	36721.22
737.021	36470.61
737.361	36215.25
737.702	36263.83
738.042	36076.95
738.383	35961.02
738.723	35918.53
739.063	35703.62
739.404	35686.67
739.744	35512.22
740.084	35448.26
740.424	35553.57
740.764	35521.48
741.104	35655.72
741.444	35441.03
741.784	35451.65
742.124	35589.73
742.464	35529.39
742.804	35584.76
743.143	35641.7
743.483	35632.21
743.823	35520.13
744.162	35634.25
744.502	35882.38
744.841	35791.3
745.181	35874.01
745.52	35805.77
745.86	35991.3
746.199	35935.48
746.538	35860.91
746.877	35859.55
747.216	35751.08
747.556	35633.12
747.895	35547.47
748.234	35462.05
748.573	35273.35
748.911	35222.28
749.25	35149.29
749.589	34843.98
749.928	34678.79
750.267	34662.52
750.605	34521.28
750.944	34420.27
751.283	34071.58
751.621	34060.95
751.96	33711.59
752.298	33654.86
752.636	33571.02
752.975	33360.41
753.313	33235.67
753.651	33295.1
753.989	33079.51
754.327	33130.81
754.666	32964.26
755.004	32982.79
755.342	33119.96
755.679	33018.72
756.017	32931.27
756.355	33059.85
756.693	32839.07
757.031	33138.27
757.368	32918.84
757.706	33059.63
758.044	32977.37
758.381	33094.43
758.719	32999.74
759.056	33022.34
759.394	33040.19
759.731	32889.69
760.068	32950.7
760.405	32753.64
760.743	32668.45
761.08	32734.44
761.417	32697.83
761.754	32427.78
762.091	32482.01
762.428	32301.68
762.765	32137.16
763.102	32007.68
763.438	31824.86
763.775	31522.49
764.112	31583.28
764.449	31484.98
764.785	31235.04
765.122	30856.29
765.458	30769.52
765.795	30673.93
766.131	30525.68
766.467	30279.81
766.804	30102.87
767.14	29903.32
767.476	29912.82
767.812	29887.28
768.148	29722.09
768.485	29631.24
768.821	29416.11
769.157	29405.71
769.492	29404.81
769.828	29444.13
770.164	29176.34
770.5	29091.14
770.836	29331.36
771.171	29131.59
771.507	29244.58
771.842	29053.85
772.178	29169.11
772.513	29175.66
772.849	29047.98
773.184	29075.32
773.519	29061.31
773.855	28984.93
774.19	28865.61
774.525	28745.61
774.86	28767.76
775.195	28657.03
775.53	28525.51
775.865	28288.23
776.2	28196.25
776.535	27929.82
776.87	27829.48
777.205	27713.32
777.539	27601.92
777.874	27590.84
778.209	27316.73
778.543	27253.68
778.878	26860.24
779.212	26816.17
779.547	26722.16
779.881	26666.8
780.215	26375.96
780.55	26455.73
780.884	26138.68
781.218	26034.5
781.552	25907.27
781.886	25733.04
782.22	25604.68
782.554	25551.35
782.888	25277.23
783.222	25241.98
783.556	25188.87
783.889	25221.19
784.223	25031.81
784.557	25045.15
784.89	25166.73
785.224	24887.18
785.557	24934.42
785.891	24879.28
786.224	24834.53
786.558	24896.45
786.891	24693.74
787.224	24637.7
787.557	24738.04
787.891	24768.09
788.224	24634.76
788.557	24701.65
788.89	24756.34
789.223	24637.02
789.556	24473.64
789.888	24348.67
790.221	24450.81
790.554	24237.03
790.887	24302.79
791.219	24133.31
791.552	24029.81
791.884	23877.04
792.217	23817.61
792.549	23699.87
792.882	23462.14
793.214	23353.21
793.546	23287.45
793.879	23092.88
794.211	22902.83
794.543	22974.69
794.875	22767.24
795.207	22717.52
795.539	22473.91
795.871	22487.47
796.203	22218.78
796.535	22019.46
796.867	21945.57
797.198	21974.72
797.53	21911.9
797.862	21743.54
798.193	21764.33
798.525	21578.12
798.856	21645.46
799.188	21347.39
799.519	21228.3
799.85	21253.83
800.182	21308.52
800.513	21301.52
800.844	21114.4
801.175	21286.38
801.506	21383.77
801.837	21286.83
802.168	21183.55
802.499	21239.82
802.83	21130.9
803.161	21058.13
803.491	21188.07
803.822	21252.25
804.153	21055.42
804.483	21032.82
804.814	21097.91
805.145	20992.6
805.475	21115.76
805.805	20927.29
806.136	20947.4
806.466	20873.96
806.796	20909.89
807.126	20684.58
807.457	20547.86
807.787	20532.5
808.117	20482.1
808.447	20321.43
808.777	20340.41
809.107	20282.33
809.436	20145.39
809.766	20104.26
810.096	19972.06
810.426	19943.81
810.755	19812.29
811.085	19644.61
811.414	19486.2
811.744	19324.17
812.073	19346.31
812.403	19348.8
812.732	19193.55
813.061	19120.33
813.39	18959.2
813.719	18872.43
814.049	19034.91
814.378	18835.59
814.707	18759.21
815.036	18721.92
815.365	18641.02
815.693	18572.32
816.022	18631.98
816.351	18458.88
816.68	18459.11
817.008	18587.92
817.337	18406.68
817.665	18411.42
817.994	18480.12
818.322	18424.3
818.651	18345.21
818.979	18364.87
819.307	18400.58
819.636	18426.79
819.964	18411.87
820.292	18503.17
820.62	18547.01
820.948	18484.42
821.276	18533
821.604	18485.32
821.932	18584.75
822.259	18584.75
822.587	18546.33
822.915	18609.61
823.243	18668.14
823.57	18598.54
823.898	18649.38
824.225	18463.62
824.553	18554.02
824.88	18536.39
825.207	18466.79
825.535	18421.82
825.862	18385.43
826.189	18318.77
826.516	18278.32
826.843	18310.86
827.17	18204.42
827.497	18195.84
827.824	18115.39
828.151	18154.03
828.478	18126.23
828.805	18049.62
829.131	17892.11
829.458	17816.41
829.785	17697.77
830.111	17780.03
830.438	17839.01
830.764	17806.47
831.09	17765.56
831.417	17621.61
831.743	17856.18
832.069	17730.31
832.395	17679.69
832.722	17807.37
833.048	17678.33
833.374	17668.17
833.7	17647.37
834.026	17791.33
834.351	17766.47
834.677	17707.03
835.003	17876.97
835.329	17777.99
835.654	17805.79
835.98	17831.32
836.306	17914.03
836.631	17773.02
836.956	17862.51
837.282	17948.61
837.607	17816.64
837.932	17735.51
838.258	17789.97
838.583	17835.17
838.908	17755.17
839.233	17920.14
839.558	17889.18
839.883	17707.71
840.208	17667.04
840.533	17700.25
840.858	17699.58
841.182	17733.93
841.507	17607.15
841.832	17463.65
842.156	17556.98
842.481	17483.76
842.805	17328.74
843.13	17333.94
843.454	17276.09
843.778	17107.73
844.103	17079.93
844.427	16954.51
844.751	16948.18
845.075	16914.06
845.399	16793.84
845.723	16583.67
846.047	16614.18
846.371	16463.9
846.695	16427.07
847.019	16332.83
847.343	16162.44
847.666	16132.61
847.99	16147.98
848.313	15976.23
848.637	15862.34
848.96	15821.66
849.284	15686.3
849.607	15701.89
849.931	15645.17
850.254	15590.03
850.577	15613.53
850.9	15436.13
851.223	15408.11
851.546	15383.03
851.869	15318.62
852.192	15450.6
852.515	15269.13
852.838	15275.46
853.161	15255.12
853.483	15161.34
853.806	15303.48
854.129	15150.72
854.451	15196.14
854.774	15164.73
855.096	15108.01
855.419	15124.73
855.741	15064.17
856.063	15007.22
856.385	14975.81
856.708	14920.89
857.03	14953.21
857.352	14920.44
857.674	14861.01
857.996	14852.42
858.318	14741.69
858.64	14772.65
858.961	14753.21
859.283	14680.45
859.605	14541.69
859.926	14623.73
860.248	14511.64
860.57	14374.69
860.891	14421.02
861.212	14266.9
861.534	14261.02
861.855	14129.95
862.176	14034.81
862.498	14148.48
862.819	13988.26
863.14	13920.69
863.461	13915.5
863.782	13824.88
864.103	13897.42
864.424	13729.74
864.745	13761.38
865.065	13578.1
865.386	13463.98
865.707	13510.08
866.027	13502.4
866.348	13448.62
866.668	13426.69
866.989	13416.53
867.309	13294.04
867.63	13380.37
867.95	13258.79
868.27	13280.48
868.59	13284.1
868.91	13207.49
869.23	13287.26
869.55	13160.04
869.87	13373.59
870.19	13267.38
870.51	13329.3
870.83	13354.15
871.15	13237.55
871.469	13385.11
871.789	13313.93
872.109	13376.75
872.428	13219.69
872.748	13419.46
873.067	13349.63
873.386	13426.69
873.706	13393.93
874.025	13375.17
874.344	13345.79
874.663	13376.75
874.982	13376.98
875.301	13388.73
875.62	13320.48
875.939	13299.92
876.258	13282.52
876.577	13258.34
876.896	13241.16
877.214	13137.89
877.533	13101.05
877.852	13083.65
878.17	13151.45
878.489	13091.56
878.807	13139.24
879.125	13097.21
879.444	13055.18
879.762	12955.97
880.08	12952.58
880.398	12846.82
880.716	12837.56
881.034	12668.07
881.352	12732.48
881.67	12632.14
881.988	12647.96
882.306	12528.19
882.624	12464.23
882.941	12346.72
883.259	12305.82
883.577	12273.96
883.894	12258.36
884.212	12200.96
884.529	12133.62
884.846	12183.11
885.164	12086.62
885.481	12066.28
885.798	12037.8
886.115	12021.99
886.432	11942.21
886.75	11897.92
887.067	11900.41
887.383	11892.27
887.7	11831.26
888.017	11843.23
888.334	11813.63
888.651	11815.66
888.967	11763.69
889.284	11832.61
889.6	11760.98
889.917	11653.41
890.233	11828.09
890.55	11668.55
890.866	11747.87
891.182	11695.67
891.498	11644.37
891.815	11661.54
892.131	11594.88
892.447	11598.95
892.763	11647.53
893.079	11568.21
893.395	11573.86
893.71	11509.68
894.026	11577.25
894.342	11503.81
894.657	11449.12
894.973	11462.23
895.289	11479.18
895.604	11477.59
895.92	11415
896.235	11386.97
896.55	11371.16
896.865	11308.33
897.181	11326.86
897.496	11342
897.811	11252.29
898.126	11116.7
898.441	11108.79
898.756	11120.77
899.071	11043.03
899.386	10970.04
899.7	10812.53
900.015	10791.74
900.33	10736.37
900.644	10676.03
900.959	10624.06
901.273	10562.59
901.588	10522.36
901.902	10447.56
902.216	10374.8
902.531	10343.84
902.845	10271.3
903.159	10202.37
903.473	10180.9
903.787	10097.52
904.101	10062.72
904.415	10030.4
904.729	9953.34
905.042	9886.45
905.356	9876.96
905.67	9805.55
905.984	9843.06
906.297	9773.46
906.611	9751.76
906.924	9711.54
907.237	9739.56
907.551	9604.87
907.864	9612.56
908.177	9520.58
908.491	9547.93
908.804	9463.64
909.117	9502.5
909.43	9422.73
909.743	9460.25
910.056	9450.08
910.368	9412.56
910.681	9358.78
910.994	9372.11
911.307	9343.19
911.619	9312
911.932	9295.28
912.244	9236.3
912.557	9203.08
912.869	9180.03
913.181	9109.97
913.494	9156.98
913.806	9051.67
914.118	9095.51
914.43	9057.09
914.742	9045.34
915.054	9022.52
915.366	9013.7
915.678	8956.98
915.99	8874.5
916.302	8861.39
916.613	8825.91
916.925	8774.61
917.236	8767.61
917.548	8717.44
917.859	8725.58
918.171	8613.94
918.482	8644.22
918.794	8550.89
919.105	8494.17
919.416	8430.22
919.727	8424.79
920.038	8361.74
920.349	8358.35
920.66	8277.45
920.971	8275.64
921.282	8187.06
921.593	8093.5
921.903	8035.88
922.214	8044.24
922.525	8025.03
922.835	7934.18
923.146	7883.34
923.456	7858.48
923.767	7807.41
924.077	7794.07
924.387	7746.39
924.697	7602.44
925.008	7649.22
925.318	7531.71
925.628	7611.93
925.938	7569.67
926.248	7468.21
926.558	7440.86
926.867	7406.06
927.177	7364.48
927.487	7300.3
927.796	7258.04
928.106	7292.17
928.416	7210.81
928.725	7227.31
929.034	7174.66
929.344	7120.19
929.653	7139.85
929.962	7089.69
930.271	7041.1
930.581	7047.88
930.89	7032.96
931.199	7055.79
931.508	6990.03
931.817	7028.9
932.125	7004.72
932.434	6965.4
932.743	6937.37
933.051	6981.44
933.36	6923.14
933.669	6859.18
933.977	6898.28
934.286	6847.88
934.594	6898.73
934.902	6806.76
935.21	6808.56
935.519	6741.22
935.827	6775.12
936.135	6699.87
936.443	6681.79
936.751	6632.75
937.059	6613.77
937.367	6592.3
937.674	6593.65
937.982	6584.16
938.29	6499.87
938.597	6486.76
938.905	6453.77
939.213	6405.64
939.52	6408.35
939.827	6398.41
940.135	6372.19
940.442	6310.5
940.749	6250.84
941.056	6335.13
941.363	6145.3
941.67	6167.9
941.977	6106.21
942.284	6083.84
942.591	6108.02
942.898	6049.94
943.205	5996.61
943.511	5985.08
943.818	5931.07
944.125	5913.67
944.431	5874.58
944.738	5857.85
945.044	5827.57
945.35	5795.94
945.657	5713.68
945.963	5707.35
946.269	5697.86
946.575	5693.79
946.881	5545.77
947.187	5579.44
947.493	5525.21
947.799	5511.42
948.105	5472.33
948.41	5487.69
948.716	5430.75
949.022	5367.7
949.327	5355.27
949.633	5352.11
949.938	5338.32
950.244	5280.47
950.549	5261.49
950.854	5284.31
951.16	5240.02
951.465	5223.52
951.77	5179.91
952.075	5219.45
952.38	5224.88
952.685	5179.23
952.99	5174.26
953.294	5150.75
953.599	5144.2
953.904	5082.96
954.209	5129.96
954.513	5105.11
954.818	5093.81
955.122	5051.77
955.426	5039.34
955.731	5032.11
956.035	5039.12
956.339	5010.19
956.643	4970.87
956.948	4925.9
957.252	4974.26
957.556	4937.65
957.86	4939.91
958.163	4922.51
958.467	4843.87
958.771	4862.63
959.075	4848.84
959.378	4853.59
959.682	4819.46
959.985	4775.62
960.289	4801.16
960.592	4781.95
960.896	4703.76
961.199	4681.84
961.502	4613.37
961.805	4688.39
962.108	4652.91
962.411	4629.86
962.714	4600.71
963.017	4610.43
963.32	4599.58
963.623	4553.93
963.926	4513.71
964.228	4463.99
964.531	4469.64
964.833	4433.26
965.136	4410.21
965.438	4367.95
965.741	4396.88
966.043	4351.91
966.345	4353.71
966.648	4300.16
966.95	4257.22
967.252	4240.95
967.554	4199.37
967.856	4176.32
968.158	4120.27
968.46	4143.32
968.761	4132.48
969.063	4056.32
969.365	4076.88
969.666	4046.6
969.968	4014.97
970.269	3975.87
970.571	3956.66
970.872	3944.01
971.174	3903.56
971.475	3892.93
971.776	3865.82
972.077	3823.33
972.378	3855.2
972.679	3840.51
972.98	3788.76
973.281	3776.33
973.582	3790.56
973.883	3788.76
974.183	3766.38
974.484	3779.04
974.785	3725.26
975.085	3755.54
975.386	3713.05
975.686	3668.08
975.986	3659.72
976.287	3694.52
976.587	3640.96
976.887	3634.18
977.187	3626.73
977.487	3574.3
977.787	3619.04
978.087	3570.23
978.387	3611.36
978.687	3598.48
978.987	3558.71
979.286	3539.5
979.586	3553.73
979.885	3556.9
980.185	3504.92
980.484	3464.47
980.784	3520.06
981.083	3456.11
981.382	3441.19
981.682	3479.39
981.981	3440.06
982.28	3424.47
982.579	3399.84
982.878	3427.86
983.177	3414.3
983.475	3414.98
983.774	3379.5
984.073	3330.46
984.372	3320.07
984.67	3343.34
984.969	3341.99
985.267	3301.09
985.566	3288.43
985.864	3278.26
986.162	3274.65
986.461	3245.27
986.759	3206.17
987.057	3200.75
987.355	3133.41
987.653	3172.05
987.951	3161.88
988.249	3134.54
988.547	3109.9
988.844	3067.65
989.142	3052.28
989.44	3030.13
989.737	3029
990.035	3004.6
990.332	2999.4
990.63	2984.26
990.927	2985.84
991.224	2976.8
991.521	2948.55
991.819	2928.89
992.116	2891.15
992.413	2860.19
992.71	2843.24
993.006	2845.05
993.303	2831.49
993.6	2810.7
993.897	2813.41
994.193	2812.96
994.49	2729.12
994.787	2754.21
995.083	2700.42
995.379	2687.77
995.676	2669.92
995.972	2712.17
996.268	2691.84
996.565	2669.69
996.861	2637.83
997.157	2653.19
997.453	2608.67
997.749	2628.79
998.044	2589.92
998.34	2596.25
998.636	2562.12
998.932	2543.14
999.227	2565.74
999.523	2534.33
999.818	2532.29
1000.114	2531.16
1000.409	2517.15
1000.704	2490.03
1001	2521.45
1001.295	2466.53
1001.59	2511.28
1001.885	2449.13
1002.18	2431.5
1002.475	2455.23
1002.77	2439.87
1003.065	2380.43
1003.359	2438.74
1003.654	2379.53
1003.949	2396.93
1004.243	2381.11
1004.538	2354.44
1004.832	2358.74
1005.127	2325.74
1005.421	2318.51
1005.715	2321.68
1006.009	2315.35
1006.304	2316.03
1006.598	2276.93
1006.892	2278.97
1007.186	2259.76
1007.48	2248.01
1007.773	2230.15
1008.067	2210.27
1008.361	2166.88
1008.655	2197.84
1008.948	2156.93
1009.242	2174.79
1009.535	2138.4
1009.829	2149.48
1010.122	2125.52
1010.415	2109.7
1010.708	2095.69
1011.001	2090.27
1011.295	2081.68
1011.588	2041.01
1011.881	2018.86
1012.173	2045.75
1012.466	2010.5
1012.759	1993.1
1013.052	2035.36
1013.344	2007.56
1013.637	1990.84
1013.93	1969.37
1014.222	1930.05
1014.514	1943.83
1014.807	1914.46
1015.099	1848.92
1015.391	1894.34
1015.683	1875.59
1015.976	1881.46
1016.268	1856.15
1016.56	1811.63
1016.851	1807.79
1017.143	1811.63
1017.435	1792.2
1017.727	1759.21
1018.018	1756.49
1018.31	1748.36
1018.602	1758.98
1018.893	1739.09
1019.185	1713.1
1019.476	1679.21
1019.767	1691.64
1020.058	1695.03
1020.35	1660.68
1020.641	1685.31
1020.932	1654.35
1021.223	1628.36
1021.514	1631.98
1021.804	1632.43
1022.095	1575.26
1022.386	1564.86
1022.677	1562.83
1022.967	1556.95
1023.258	1541.81
1023.548	1543.84
1023.839	1530.96
1024.129	1524.86
1024.419	1516.05
1024.709	1521.02
1025	1501.81
1025.29	1486.44
1025.58	1498.87
1025.87	1489.16
1026.16	1478.53
1026.449	1469.95
1026.739	1423.39
1027.029	1443.28
1027.319	1449.61
1027.608	1420.46
1027.898	1436.5
1028.187	1399.67
1028.477	1391.08
1028.766	1404.64
1029.055	1402.6
1029.344	1363.96
1029.634	1347.01
1029.923	1413.45
1030.212	1347.69
1030.501	1358.54
1030.79	1329.16
1031.078	1301.36
1031.367	1302.27
1031.656	1287.13
1031.945	1308.6
1032.233	1302.72
1032.522	1272.66
1032.81	1271.53
1033.099	1293.45
1033.387	1255.26
1033.675	1259.78
1033.963	1261.82
1034.251	1259.33
1034.54	1219.78
1034.828	1218.65
1035.116	1212.1
1035.403	1227.02
1035.691	1197.41
1035.979	1215.72
1036.267	1191.08
1036.554	1179.79
1036.842	1192.67
1037.129	1182.72
1037.417	1146.57
1037.704	1152.89
1037.992	1126
1038.279	1116.96
1038.566	1135.04
1038.853	1135.04
1039.14	1135.04
