Data from red_cardboard_box_FLMS001491_00095.txt Node
Date: Wed Feb 08 11:33:25 GMT 2017
User: dcchb
Spectrometer: FLMS00149
Trigger mode: 0
Integration Time (sec): 2.000000E-2
Scans to average: 10
Electric dark correction enabled: true
Nonlinearity correction enabled: false
Boxcar width: 0
XAxis mode: Wavelengths
Number of Pixels in Spectrum: 2048
>>>>>Begin Spectral Data<<<<<
341.393	-10.24
341.776	-10.24
342.16	-10.24
342.543	-35.32
342.927	-62.67
343.31	-69.22
343.693	-73.29
344.077	-58.37
344.46	-69
344.843	-68.09
345.226	-41.2
345.61	-34.87
345.993	-24.7
346.376	2.64
346.759	15.3
347.142	48.74
347.525	45.13
347.908	43.77
348.291	64.11
348.674	105.01
349.057	114.05
349.44	122.64
349.823	122.64
350.206	154.5
350.588	203.09
350.971	219.58
351.354	231.79
351.737	260.26
352.119	245.12
352.502	269.3
352.884	271.56
353.267	287.38
353.65	292.58
354.032	315.4
354.414	312.46
354.797	317.44
355.179	318.79
355.562	322.18
355.944	336.42
356.326	342.75
356.709	351.78
357.091	331.22
357.473	348.85
357.855	375.51
358.238	345.91
358.62	333.03
359.002	343.65
359.384	352.01
359.766	369.86
360.148	355.63
360.53	357.43
360.912	334.16
361.294	347.72
361.676	336.19
362.057	330.32
362.439	347.72
362.821	337.1
363.203	326.93
363.584	336.64
363.966	325.8
364.348	326.93
364.729	346.36
365.111	312.24
365.493	331.22
365.874	344.33
366.256	301.39
366.637	331.67
367.019	326.93
367.4	322.18
367.781	326.25
368.163	331.67
368.544	315.4
368.925	302.97
369.306	347.26
369.688	313.14
370.069	325.12
370.45	300.49
370.831	332.35
371.212	311.11
371.593	321.73
371.974	307.27
372.355	307.04
372.736	308.85
373.117	318.57
373.498	311.11
373.879	325.8
374.26	315.4
374.641	313.37
375.021	327.83
375.402	320.37
375.783	332.35
376.163	329.19
376.544	332.58
376.925	330.09
377.305	337.1
377.686	337.55
378.066	313.37
378.447	326.47
378.827	338.45
379.208	354.72
379.588	356.76
379.968	316.53
380.349	349.3
380.729	340.49
381.109	358.79
381.489	338.23
381.87	332.8
382.25	362.41
382.63	340.94
383.01	344.55
383.39	320.37
383.77	336.87
384.15	357.21
384.53	349.07
384.91	361.28
385.29	348.17
385.67	351.56
386.049	347.72
386.429	378.45
386.809	358.79
387.189	355.85
387.568	349.3
387.948	338.23
388.328	361.95
388.707	354.04
389.087	360.82
389.466	345.68
389.846	351.56
390.225	354.95
390.605	356.3
390.984	369.86
391.363	388.85
391.743	364.89
392.122	372.57
392.501	363.99
392.881	366.93
393.26	376.19
393.639	368.51
394.018	371.45
394.397	387.49
394.776	368.96
395.155	365.8
395.534	380.71
395.913	390.43
396.292	371.45
396.671	365.57
397.05	370.54
397.429	394.72
397.808	386.59
398.186	383.2
398.565	394.27
398.944	389.52
399.323	380.03
399.701	416.87
400.08	398.34
400.458	413.7
400.837	411.9
401.215	408.96
401.594	402.86
401.972	386.59
402.351	401.95
402.729	406.02
403.107	410.99
403.486	419.81
403.864	409.18
404.242	410.77
404.62	408.51
404.999	414.38
405.377	423.65
405.755	409.86
406.133	408.51
406.511	418.22
406.889	433.59
407.267	436.98
407.645	426.36
408.023	421.39
408.401	426.58
408.779	442.86
409.156	433.14
409.534	432.91
409.912	444.89
410.29	441.73
410.667	444.21
411.045	449.86
411.422	452.12
411.8	459.13
412.178	447.15
412.555	462.29
412.933	446.25
413.31	455.51
413.687	466.36
414.065	454.38
414.442	455.28
414.819	471.56
415.197	461.84
415.574	463.42
415.951	470.2
416.328	469.3
416.705	476.98
417.082	489.86
417.46	488.28
417.837	486.02
418.214	479.92
418.591	484.21
418.967	492.8
419.344	505.9
419.721	498.67
420.098	516.75
420.475	505.45
420.852	508.39
421.228	516.53
421.605	526.02
421.982	512.68
422.358	528.96
422.735	512.01
423.111	521.95
423.488	533.25
423.864	517.66
424.241	522.18
424.617	540.93
424.994	558.78
425.37	539.12
425.746	571.89
426.123	541.61
426.499	539.8
426.875	552.91
427.251	542.97
427.627	560.82
428.003	560.14
428.379	554.72
428.756	582.74
429.132	579.8
429.507	575.73
429.883	575.73
430.259	603.76
430.635	583.87
431.011	595.39
431.387	602.4
431.763	617.31
432.138	606.47
432.514	603.76
432.89	585.45
433.265	613.02
433.641	631.78
434.016	635.39
434.392	624.77
434.767	624.09
435.143	631.1
435.518	639.69
435.894	629.07
436.269	657.31
436.644	659.57
437.02	676.52
437.395	662.51
437.77	665.67
438.145	676.07
438.52	671.78
438.895	693.02
439.271	692.34
439.646	683.53
440.021	686.69
440.395	685.56
440.77	700.25
441.145	713.58
441.52	699.12
441.895	703.41
442.27	668.39
442.645	689.85
443.019	702.96
443.394	699.12
443.769	697.99
444.143	737.76
444.518	721.94
444.892	744.54
445.267	743.19
445.641	709.52
446.016	739.34
446.39	730.08
446.764	760.59
447.139	733.47
447.513	722.85
447.887	754.94
448.262	733.7
448.636	763.07
449.01	759.46
449.384	754.71
449.758	758.1
450.132	776.63
450.506	771.21
450.88	790.87
451.254	775.73
451.628	797.42
452.002	812.34
452.376	793.81
452.75	805.78
453.123	785.22
453.497	830.87
453.871	840.13
454.244	835.16
454.618	847.59
454.992	821.38
455.365	827.7
455.739	853.01
456.112	861.38
456.486	878.1
456.859	885.1
457.232	886.91
457.606	890.3
457.979	891.88
458.352	891.88
458.725	898.89
459.099	910.19
459.472	927.14
459.845	923.97
460.218	948.15
460.591	939.34
460.964	939.11
461.337	970.98
461.71	970.98
462.083	984.08
462.456	958.55
462.829	980.02
463.201	1017.76
463.574	997.87
463.947	1009.39
464.32	1028.15
464.692	1019.11
465.065	1017.08
465.438	1060.24
465.81	1062.27
466.183	1050.52
466.555	1037.87
466.928	1061.37
467.3	1077.87
467.672	1100.69
468.045	1093.69
468.417	1123.29
468.789	1139.56
469.161	1110.86
469.534	1133.46
469.906	1152.22
470.278	1166
470.65	1171.42
471.022	1177.07
471.394	1213.46
471.766	1209.62
472.138	1198.77
472.51	1258.88
472.882	1260.69
473.253	1252.55
473.625	1310.86
473.997	1314.7
474.369	1313.12
474.74	1304.3
475.112	1344.3
475.484	1354.47
475.855	1363.74
476.227	1400.12
476.598	1431.76
476.97	1398.54
477.341	1454.13
477.713	1456.61
478.084	1483.05
478.455	1504.75
478.827	1528.25
479.198	1580.23
479.569	1573
479.94	1577.29
480.311	1611.41
480.682	1619.77
481.053	1646.21
481.424	1662.03
481.795	1690.96
482.166	1688.92
482.537	1723.95
482.908	1738.64
483.279	1754.46
483.65	1804.63
484.021	1814.12
484.391	1880.11
484.762	1898.41
485.133	1887.56
485.503	1893.66
485.874	1922.82
486.244	1937.28
486.615	1982.48
486.985	2025.19
487.356	2038.07
487.726	2040.78
488.097	2077.61
488.467	2109.93
488.837	2143.6
489.207	2129.59
489.578	2189.02
489.948	2213.66
490.318	2233.99
490.688	2222.02
491.058	2258.85
491.428	2288.91
491.798	2313.09
492.168	2365.29
492.538	2355.35
492.908	2375.91
493.278	2393.09
493.648	2398.74
494.017	2458.85
494.387	2471.5
494.757	2481.22
495.126	2511.5
495.496	2557.83
495.866	2570.03
496.235	2578.62
496.605	2558.28
496.974	2591.05
497.344	2656.36
497.713	2644.15
498.082	2670.37
498.452	2688.9
498.821	2707.88
499.19	2761.21
499.559	2745.17
499.928	2759.63
500.298	2749.69
500.667	2807.77
501.036	2853.41
501.405	2828.78
501.774	2843.47
502.143	2891.6
502.512	2876.24
502.88	2911.94
503.249	2953.52
503.618	2934.77
503.987	2930.93
504.356	3003.69
504.724	2999.85
505.093	3017.7
505.462	3017.48
505.83	3044.6
506.199	3065.61
506.567	3082.11
506.936	3105.16
507.304	3149.9
507.672	3158.72
508.041	3164.14
508.409	3215.66
508.777	3222.44
509.145	3229.22
509.514	3232.61
509.882	3260.18
510.25	3278.49
510.618	3326.17
510.986	3335.43
511.354	3362.33
511.722	3366.17
512.09	3405.26
512.458	3386.73
512.826	3463.57
513.193	3470.35
513.561	3507.18
513.929	3508.31
514.297	3578.37
514.664	3558.93
515.032	3591.47
515.4	3607.07
515.767	3677.12
516.135	3695.65
516.502	3630.12
516.869	3717.12
517.237	3747.85
517.604	3729.55
517.972	3786.04
518.339	3821.07
518.706	3814.74
519.073	3844.8
519.44	3875.99
519.808	3938.36
520.175	3936.55
520.542	3976.1
520.909	4036.43
521.276	4002.76
521.643	4017.45
522.009	4027.17
522.376	4109.88
522.743	4150.78
523.11	4194.4
523.477	4221.29
523.843	4195.07
524.21	4294.51
524.577	4308.74
524.943	4334.73
525.31	4341.51
525.676	4400.04
526.043	4430.55
526.409	4459.25
526.776	4549.41
527.142	4513.93
527.508	4558.91
527.874	4625.8
528.241	4634.16
528.607	4649.75
528.973	4737.21
529.339	4672.35
529.705	4762.74
530.071	4769.52
530.437	4835.28
530.803	4857.43
531.169	4863.76
531.535	4915.05
531.901	4907.6
532.267	4982.85
532.632	4957.99
532.998	4981.72
533.364	5043.64
533.73	5015.62
534.095	5127.7
534.461	5126.12
534.826	5137.87
535.192	5224.2
535.557	5193.92
535.923	5242.05
536.288	5238.89
536.653	5258.32
537.019	5275.27
537.384	5288.38
537.749	5331.09
538.114	5342.16
538.479	5390.52
538.845	5415.83
539.21	5379.22
539.575	5419.45
539.94	5458.54
540.305	5558.2
540.67	5539.9
541.034	5549.84
541.399	5593.91
541.764	5605.21
542.129	5638.43
542.494	5633.23
542.858	5657.18
543.223	5644.53
543.587	5742.38
543.952	5714.13
544.316	5790.51
544.681	5830.28
545.045	5852.88
545.41	5849.72
545.774	5864.41
546.138	5833.22
546.503	5939.43
546.867	5979.89
547.231	6024.4
547.595	6068.24
547.959	6075.7
548.324	6071.41
548.688	6107.34
549.052	6083.61
549.416	6164.06
549.779	6129.03
550.143	6198.86
550.507	6244.06
550.871	6242.7
551.235	6258.3
551.599	6365.41
551.962	6394.11
552.326	6423.94
552.689	6405.18
553.053	6495.8
553.417	6518.85
553.78	6511.4
554.143	6655.57
554.507	6621.68
554.87	6677.27
555.234	6788.68
555.597	6763.37
555.96	6787.77
556.323	6830.26
556.686	6867.09
557.05	6916.36
557.413	6903.02
557.776	6965.85
558.139	7105.05
558.502	7111.83
558.865	7146.86
559.228	7168.1
559.59	7229.12
559.953	7294.43
560.316	7371.04
560.679	7398.83
561.041	7512.73
561.404	7583.68
561.767	7588.2
562.129	7611.48
562.492	7789.56
562.854	7815.54
563.217	7823.9
563.579	7908.87
563.941	7952.71
564.304	7996.78
564.666	8096.89
565.028	8206.27
565.39	8181.18
565.753	8310.67
566.115	8329.2
566.477	8479.48
566.839	8536.65
567.201	8592.25
567.563	8617.1
567.925	8766.7
568.287	8811.68
568.648	8866.14
569.01	8970.77
569.372	9020.26
569.734	9147.94
570.095	9219.12
570.457	9266.58
570.819	9326.92
571.18	9390.19
571.542	9546.57
571.903	9653.46
572.265	9754.25
572.626	9754.93
572.987	9822.27
573.349	9962.83
573.71	10053.22
574.071	10165.31
574.432	10308.13
574.794	10326.21
575.155	10402.59
575.516	10547.9
575.877	10642.59
576.238	10712.42
576.599	10905.18
576.96	10936.59
577.32	11075.8
577.681	11158.05
578.042	11322.57
578.403	11415
578.763	11537.48
579.124	11693.63
579.485	11855.44
579.845	12014.08
580.206	12069.22
580.566	12237.12
580.927	12413.61
581.287	12538.36
581.648	12668.3
582.008	12968.85
582.368	13030.77
582.728	13200.26
583.089	13400.03
583.449	13623.07
583.809	13770.64
584.169	13965.66
584.529	14127.92
584.889	14448.82
585.249	14612.65
585.609	14672.54
585.969	14933.55
586.329	15225.74
586.688	15409.69
587.048	15696.47
587.408	15918.15
587.768	16145.95
588.127	16380.74
588.487	16681.98
588.846	17041.52
589.206	17206.93
589.565	17516.53
589.925	17844.88
590.284	18153.12
590.643	18451.2
591.003	18822.71
591.362	19212.98
591.721	19464.05
592.08	19736.81
592.44	20141.55
592.799	20510.58
593.158	20864.47
593.517	21166.15
593.876	21544.67
594.235	22006.58
594.593	22212.9
594.952	22732.66
595.311	23070.74
595.67	23498.75
596.029	23990.03
596.387	24451.04
596.746	24776.23
597.104	25157.91
597.463	25468.64
597.822	25949.98
598.18	26330.54
598.538	26592.45
598.897	27220.91
599.255	27407.34
599.613	28238.96
599.972	28440.76
600.33	28817.25
600.688	29125.94
601.046	29672.6
601.404	30111.45
601.762	30434.16
602.12	31096.74
602.478	31372.44
602.836	31813.33
603.194	32082.7
603.552	32495.12
603.91	32879.29
604.268	33453.74
604.625	33743.22
604.983	34213.95
605.341	34471.79
605.698	34918.56
606.056	35433.57
606.413	35759.89
606.771	36316.04
607.128	36584.28
607.485	36707.44
607.843	37125.96
608.2	37615.21
608.557	37946.5
608.914	38202.31
609.272	38673.71
609.629	38929.08
609.986	39407.48
610.343	39504.65
610.7	40021.93
611.057	40284.97
611.414	40437.06
611.771	40705.3
612.127	41183.03
612.484	41379.63
612.841	41742.33
613.198	41810.36
613.554	41944.59
613.911	42356.33
614.267	42569.88
614.624	42874.51
614.98	43060.72
615.337	43352.46
615.693	43536.19
616.05	43712
616.406	44112.22
616.762	44206.68
617.118	44361.47
617.475	44544.97
617.831	44919.88
618.187	45080.78
618.543	45238.74
618.899	45529.13
619.255	45600.31
619.611	45664.49
619.967	46070.81
620.323	46163.69
620.678	46121.2
621.034	46210.92
621.39	46242.1
621.746	46495.43
622.101	47017
622.457	46683
622.812	46865.59
623.168	47134.06
623.523	47134.28
623.879	47440.72
624.234	47252.7
624.589	47466.7
624.945	47565.46
625.3	47746.92
625.655	47761.16
626.01	47898.33
626.365	47924.32
626.72	48008.84
627.075	48080.47
627.43	48131.77
627.785	48084.99
628.14	48295.61
628.495	48345.32
628.85	48490.18
629.205	48345.32
629.559	48573.79
629.914	48532.89
630.269	48498.09
630.623	48444.08
630.978	48502.38
631.332	48796.39
631.687	48896.72
632.041	48729.95
632.396	48892.66
632.75	48786.22
633.104	48750.74
633.459	48653.11
633.813	48802.26
634.167	48792.32
634.521	48839.1
634.875	48879.77
635.229	48813.34
635.583	48782.83
635.937	48805.65
636.291	48858.31
636.645	48997.51
636.999	48728.37
637.352	48867.35
637.706	48822.15
638.06	48905.54
638.413	48798.87
638.767	48809.49
639.121	48967
639.474	48679.78
639.828	48885.88
640.181	48922.26
640.534	48880.9
640.888	48833.22
641.241	48598.2
641.594	48789.16
641.947	48926.33
642.301	48771.53
642.654	48858.31
643.007	48922.48
643.36	48894.91
643.713	48748.25
644.066	48944.63
644.419	48572.89
644.771	48471.65
645.124	48115.95
645.477	48037.31
645.83	47837.54
646.182	47668.73
646.535	47743.08
646.888	47860.14
647.24	47637.55
647.593	47999.8
647.945	47804.1
648.298	47640.94
648.65	47645.68
649.002	47513.48
649.355	47669.41
649.707	47648.62
650.059	47795.73
650.411	48025.11
650.763	48359.79
651.115	48668.25
651.467	48608.82
651.819	48506.9
652.171	48627.8
652.523	48499.22
652.875	48442.95
653.227	48448.15
653.578	48731.08
653.93	48636.84
654.282	48467.13
654.633	48326.57
654.985	48427.81
655.337	48490.63
655.688	48496.06
656.039	48517.07
656.391	48378.32
656.742	48382.61
657.094	48353.23
657.445	48450.18
657.796	48327.25
658.147	48285.89
658.498	48365.21
658.849	48354.82
659.2	48216.51
659.551	48261.71
659.902	48288.83
660.253	48244.99
660.604	48297.87
660.955	48200.24
661.306	48330.64
661.656	48145.78
662.007	48290.41
662.358	48232.11
662.708	48257.64
663.059	48282.28
663.409	48030.08
663.76	48277.08
664.11	48276.17
664.461	48385.32
664.811	48216.51
665.161	48241.6
665.511	48141.94
665.862	48222.62
666.212	48288.15
666.562	48295.38
666.912	48185.78
667.262	48223.52
667.612	48211.77
667.962	48138.1
668.312	48123.64
668.662	48291.77
669.011	48258.1
669.361	48238.21
669.711	48221.03
670.06	48201.83
670.41	48034.82
670.76	48011.1
671.109	48059
671.459	48026.01
671.808	48113.47
672.157	48206.8
672.507	47772.01
672.856	47963.41
673.205	47866.69
673.554	48040.25
673.904	47896.3
674.253	48068.72
674.602	47965.67
674.951	47468.74
675.3	47241.4
675.649	47947.14
675.998	47796.41
676.346	47857.43
676.695	47972.45
677.044	47697.21
677.393	47796.64
677.741	47788.5
678.09	47636.42
678.438	47624.89
678.787	47753.02
679.135	47711.22
679.484	47495.63
679.832	47595.29
680.181	47430.77
680.529	47607.04
680.877	47482.07
681.225	47447.27
681.573	47612.69
681.922	47371.11
682.27	47131.57
682.618	47343.54
682.966	47135.87
683.314	47150.1
683.661	47127.05
684.009	46798.92
684.357	46831.47
684.705	46683.9
685.053	46674.41
685.4	46767.29
685.748	46602.09
686.095	46633.51
686.443	46383.79
686.79	46390.57
687.138	46608.2
687.485	46373.17
687.832	46195.78
688.18	46211.14
688.527	46056.12
688.874	46115.33
689.221	46076.46
689.568	45807.99
689.915	45750.59
690.262	45793.98
690.609	45669.69
690.956	45502.24
691.303	45598.05
691.65	45289.59
691.997	45309.25
692.344	45198.29
692.69	45170.72
693.037	45057.95
693.383	44742.93
693.73	45039.65
694.077	44687.57
694.423	44827
694.769	44530.51
695.116	44498.65
695.462	44504.3
695.808	44243.29
696.155	44438.99
696.501	44103.85
696.847	44077.19
697.193	43830.42
697.539	43949.73
697.885	43764.43
698.231	43585.9
698.577	43729.85
698.923	43587.48
699.269	43189.08
699.614	43229.75
699.96	43163.09
700.306	43070.21
700.651	42896.65
700.997	42777.56
701.342	42713.16
701.688	42783.44
702.033	42450.56
702.379	42641.07
702.724	42397.23
703.069	42359.27
703.415	41925.61
703.76	42032.04
704.105	42083.57
704.45	41974.87
704.795	41678.83
705.14	41597.71
705.485	41625.73
705.83	41443.59
706.175	41464.6
706.52	41402.68
706.865	41269.13
707.209	41140.99
707.554	41158.4
707.899	41126.31
708.243	40912.98
708.588	40834.34
708.932	40649.93
709.277	40628.01
709.621	40548.02
709.966	40385.76
710.31	40309.38
710.654	40116.16
710.998	40279.77
711.342	40120.68
711.687	40180.34
712.031	39956.17
712.375	39926.56
712.719	39856.73
713.063	39873.23
713.407	39770.18
713.75	39641.37
714.094	39517.53
714.438	39481.15
714.782	39424.2
715.125	39287.03
715.469	39520.92
715.812	39230.08
716.156	38875.07
716.499	38996.64
716.843	39037.1
717.186	38973.82
717.53	39075.06
717.873	39049.07
718.216	38848.63
718.559	38745.58
718.902	38391.24
719.246	38602.08
719.589	38327.28
719.932	38174.74
720.275	38309.66
720.617	38192.82
720.96	38099.49
721.303	38096.55
721.646	38148.76
721.989	38024.24
722.331	37983.11
722.674	37911.93
723.016	37990.12
723.359	37854.3
723.701	37923
724.044	37707.64
724.386	37357.37
724.729	37639.17
725.071	37428.1
725.413	37474.65
725.755	37463.58
726.097	37342.45
726.439	37183.58
726.782	37210.7
727.124	37298.38
727.465	37178.39
727.807	37116.47
728.149	36994.66
728.491	36924.16
728.833	37071.05
729.175	36770.49
729.516	36628.57
729.858	36643.26
730.199	36796.02
730.541	36623.6
730.882	36559.19
731.224	36718.96
731.565	36432.64
731.906	36509.25
732.248	36499.99
732.589	36325.75
732.93	36288.24
733.271	36179.77
733.612	36216.38
733.953	36320.56
734.294	36054.12
734.635	35984.97
734.976	36135.48
735.317	35983.62
735.658	35946.33
735.999	35867.46
736.339	35708.37
736.68	35936.84
737.021	35728.93
737.361	35638.77
737.702	35782.49
738.042	35668.82
738.383	35563.97
738.723	35631.53
739.063	35376.63
739.404	35605.77
739.744	35469.73
740.084	35420.02
740.424	35400.35
740.764	35219.79
741.104	35357.42
741.444	35180.93
741.784	35091.21
742.124	35072.23
742.464	35255.5
742.804	35085.79
743.143	34982.96
743.483	34916.3
743.823	34791.56
744.162	34829.07
744.502	34863.65
744.841	34675.85
745.181	34825.23
745.52	34617.55
745.86	34752.46
746.199	34550.66
746.538	34632.69
746.877	34608.74
747.216	34527.61
747.556	34392.92
747.895	34531.9
748.234	34338.69
748.573	34349.31
748.911	34284.23
749.25	34137.34
749.589	34003.33
749.928	34194.51
750.267	34167.84
750.605	34022.09
750.944	33930.34
751.283	33868.64
751.621	33893.73
751.96	33660.06
752.298	33644.47
752.636	33604.47
752.975	33490.12
753.313	33412.38
753.651	33508.65
753.989	33305.72
754.327	33338.94
754.666	33238.6
755.004	33181.43
755.342	33134.2
755.679	32997.25
756.017	32957.71
756.355	32983.69
756.693	32833.87
757.031	32926.52
757.368	32632.74
757.706	32533.31
758.044	32497.61
758.381	32611.05
758.719	32401.11
759.056	32399.3
759.394	32229.36
759.731	32144.39
760.068	32092.42
760.405	31857.4
760.743	31832.76
761.08	32050.84
761.417	31651.75
761.754	31636.61
762.091	31589.16
762.428	31615.14
762.765	31343.51
763.102	31517.97
763.438	31316.39
763.775	31178.54
764.112	31188.71
764.449	31097.64
764.785	31098.32
765.122	30742.85
765.458	30658.33
765.795	30629.41
766.131	30597.09
766.467	30447.94
766.804	30325.91
767.14	30076.2
767.476	30214.05
767.812	30060.83
768.148	30108.97
768.485	29965.02
768.821	29607.96
769.157	29684.35
769.492	29616.78
769.828	29587.63
770.164	29340.17
770.5	29373.62
770.836	29316.9
771.171	29104.93
771.507	29197.81
771.842	28823.35
772.178	28822.67
772.513	28723.24
772.849	28646.18
773.184	28463.36
773.519	28524.83
773.855	28476.02
774.19	28326.42
774.525	28161
774.86	28189.02
775.195	28175.01
775.53	27999.65
775.865	27814.11
776.2	27726.43
776.535	27516.04
776.87	27553.56
777.205	27403.28
777.539	27380.9
777.874	27370.74
778.209	27128.03
778.543	27072.66
778.878	26907.92
779.212	26931.88
779.547	26841.26
779.881	26780.92
780.215	26639.45
780.55	26733.92
780.884	26457.76
781.218	26387.03
781.552	26419.8
781.886	26246.7
782.22	26095.29
782.554	25933.94
782.888	25703.89
783.222	25668.41
783.556	25595.19
783.889	25619.82
784.223	25355.19
784.557	25380.28
784.89	25297.57
785.224	25295.99
785.557	25090.57
785.891	25069.78
786.224	24933.74
786.558	24950.91
786.891	24706.85
787.224	24654.87
787.557	24608.32
787.891	24610.81
788.224	24439.74
788.557	24343.24
788.89	24396.8
789.223	24343.92
789.556	24073.87
789.888	24090.37
790.221	23998.62
790.554	23894.89
790.887	23828.46
791.219	23787.55
791.552	23630.27
791.884	23582.59
792.217	23539.88
792.549	23354.57
792.882	23214.91
793.214	23125.42
793.546	23167.68
793.879	23040
794.211	22914.36
794.543	23066.22
794.875	22844.3
795.207	22835.49
795.539	22785.09
795.871	22760.01
796.203	22604.53
796.535	22381.94
796.867	22499.9
797.198	22270.76
797.53	22302.85
797.862	22240.93
798.193	22306.24
798.525	22105.79
798.856	22171.1
799.188	21852.24
799.519	21848.17
799.85	21742.41
800.182	21733.14
800.513	21700.83
800.844	21591.23
801.175	21659.7
801.506	21582.86
801.837	21384.23
802.168	21562.53
802.499	21415.86
802.83	21268.75
803.161	21160.95
803.491	21185.14
803.822	21237.56
804.153	20942.2
804.483	20817.01
804.814	20846.61
805.145	20800.51
805.475	20739.72
805.805	20692.04
806.136	20730.68
806.466	20691.36
806.796	20603.46
807.126	20539.05
807.457	20439.17
807.787	20363.91
808.117	20253.86
808.447	20204.6
808.777	20315.55
809.107	20112.62
809.436	20043.47
809.766	20001.66
810.096	20007.54
810.426	19855.68
810.755	19914.89
811.085	19868.56
811.414	19847.32
811.744	19652.29
812.073	19649.36
812.403	19734.55
812.732	19441
813.061	19491.62
813.39	19371.17
813.719	19370.49
814.049	19452.3
814.378	19338.4
814.707	19286.43
815.036	19207.79
815.365	19182.48
815.693	18941.13
816.022	19156.26
816.351	18946.32
816.68	18855.93
817.008	18889.38
817.337	18767.8
817.665	18745.2
817.994	18775.71
818.322	18741.13
818.651	18695.93
818.979	18516.73
819.307	18643.73
819.636	18592.89
819.964	18465.43
820.292	18494.13
820.62	18445.32
820.948	18394.7
821.276	18501.82
821.604	18427.02
821.932	18422.27
822.259	18442.61
822.587	18406
822.915	18332.33
823.243	18454.81
823.57	18220.92
823.898	18334.81
824.225	18262.95
824.553	18315.15
824.88	18268.15
825.207	18364.64
825.535	18352.67
825.862	18340.46
826.189	18264.99
826.516	18316.28
826.843	18399.67
827.17	18363.74
827.497	18394.25
827.824	18246.23
828.151	18309.96
828.478	18235.61
828.805	18350.18
829.131	18328.71
829.458	18275.83
829.785	18175.72
830.111	18217.53
830.438	18327.81
830.764	18277.41
831.09	18258.43
831.417	18231.77
831.743	18300.92
832.069	18164.42
832.395	18109.06
832.722	18196.74
833.048	18231.99
833.374	18079.45
833.7	18134.59
834.026	18091.88
834.351	18058.66
834.677	18123.75
835.003	18141.37
835.329	18061.15
835.654	18050.75
835.98	17946.8
836.306	18007.14
836.631	17913.36
836.956	18050.75
837.282	17960.36
837.607	17857.76
837.932	17887.59
838.258	17811.44
838.583	17780.25
838.908	17692.35
839.233	17887.59
839.558	17685.79
839.883	17570.99
840.208	17561.95
840.533	17633.82
840.858	17514.5
841.182	17570.77
841.507	17621.84
841.832	17466.36
842.156	17415.06
842.481	17380.26
842.805	17363.54
843.13	17283.99
843.454	17159.25
843.778	17248.97
844.103	17169.87
844.427	17139.37
844.751	17155.86
845.075	17114.73
845.399	17050.33
845.723	16920.16
846.047	16918.58
846.371	16818.92
846.695	16844.91
847.019	16660.28
847.343	16610.57
847.666	16448.54
847.99	16414.64
848.313	16522.43
848.637	16319.5
848.96	16323.57
849.284	16288.77
849.607	16141.43
849.931	16123.35
850.254	16050.81
850.577	15942.34
850.9	15844.03
851.223	15888.33
851.546	15709.57
851.869	15740.31
852.192	15612.85
852.515	15529.69
852.838	15528.56
853.161	15637.71
853.483	15428
853.806	15385.74
854.129	15273.2
854.451	15348.45
854.774	15153.2
855.096	15185.07
855.419	15166.76
855.741	15142.13
856.063	15011.51
856.385	15040.21
856.708	14952.08
857.03	14839.54
857.352	14855.58
857.674	14855.58
857.996	14778.98
858.318	14625.99
858.64	14687.68
858.961	14698.3
859.283	14614.23
859.605	14536.72
859.926	14581.69
860.248	14524.52
860.57	14371.75
860.891	14382.6
861.212	14354.81
861.534	14287.69
861.855	14301.02
862.176	14361.81
862.498	14349.16
862.819	14287.92
863.14	14126.79
863.461	14143.51
863.782	14128.37
864.103	14122.5
864.424	13982.84
864.745	14193
865.065	14054.02
865.386	13964.53
865.707	14041.14
866.027	13946.68
866.348	13920.24
866.668	13938.32
866.989	13805.44
867.309	13782.62
867.63	13832.56
867.95	13863.07
868.27	13849.06
868.59	13828.04
868.91	13801.15
869.23	13755.95
869.55	13659.01
869.87	13684.77
870.19	13614.26
870.51	13625.56
870.83	13665.33
871.15	13603.19
871.469	13623.53
871.789	13561.83
872.109	13484.32
872.428	13438.22
872.748	13461.5
873.067	13414.27
873.386	13505.34
873.706	13444.1
874.025	13375.85
874.344	13299.92
874.663	13418.11
874.982	13336.53
875.301	13277.55
875.62	13296.98
875.939	13287.49
876.258	13182.18
876.577	13159.13
876.896	13289.07
877.214	13162.07
877.533	13142.41
877.852	13088.17
878.17	13181.5
878.489	13077.1
878.807	13123.43
879.125	13046.14
879.444	13080.94
879.762	12959.36
880.08	13036.2
880.398	12909.87
880.716	13013.82
881.034	12909.65
881.352	12990.32
881.67	12919.82
881.988	12956.2
882.306	12898.12
882.624	12768.18
882.941	12778.8
883.259	12660.61
883.577	12689.09
883.894	12565.47
884.212	12628.75
884.529	12667.84
884.846	12627.85
885.164	12548.53
885.481	12468.75
885.798	12525.02
886.115	12421.3
886.432	12366.61
886.75	12346.05
887.067	12358.7
887.383	12348.08
887.7	12339.49
888.017	12252.49
888.334	12263.34
888.651	12207.74
888.967	12200.06
889.284	12107.86
889.6	12035.32
889.917	12074.19
890.233	12115.77
890.55	12001.2
890.866	11970.91
891.182	11895.66
891.498	11840.3
891.815	11785.16
892.131	11772.28
892.447	11694.54
892.763	11747.42
893.079	11639.85
893.395	11642.79
893.71	11630.58
894.026	11630.81
894.342	11567.31
894.657	11436.92
894.973	11467.42
895.289	11513.75
895.604	11429.23
895.92	11376.13
896.235	11253.19
896.55	11331.16
896.865	11258.39
897.181	11172.52
897.496	11263.81
897.811	11179.3
898.126	11134.33
898.441	11087.77
898.756	11082.8
899.071	11011.84
899.386	11003.48
899.7	10909.47
900.015	10881.23
900.33	10681.23
900.644	10812.3
900.959	10782.24
901.273	10776.82
901.588	10692.98
901.902	10697.05
902.216	10629.25
902.531	10608.69
902.845	10529.14
903.159	10494.57
903.473	10520.56
903.787	10430.39
904.101	10367.57
904.415	10368.24
904.729	10322.14
905.042	10264.97
905.356	10297.51
905.67	10237.4
905.984	10212.32
906.297	10148.82
906.611	9987.01
906.924	10080.79
907.237	10034.69
907.551	10042.38
907.864	9971.42
908.177	9919.22
908.491	9904.98
908.804	9845.55
909.117	9757.41
909.43	9704.98
909.743	9711.31
910.056	9641.94
910.368	9573.69
910.681	9567.14
910.994	9575.04
911.307	9531.2
911.619	9460.47
911.932	9414.6
912.244	9399.46
912.557	9329.85
912.869	9269.74
913.181	9288.95
913.494	9286.24
913.806	9239.69
914.118	9132.8
914.43	9069.52
914.742	9116.3
915.054	9016.19
915.366	9059.35
915.678	8968.28
915.99	8945
916.302	8829.98
916.613	8808.51
916.925	8899.58
917.236	8793.82
917.548	8756.54
917.859	8693.71
918.171	8680.15
918.482	8669.31
918.794	8629.98
919.105	8566.03
919.416	8498.46
919.727	8485.13
920.038	8432.7
920.349	8437.67
920.66	8361.29
920.971	8341.4
921.282	8305.7
921.593	8213.27
921.903	8212.37
922.214	8152.48
922.525	8104.12
922.835	8114.07
923.146	8051.24
923.456	8041.75
923.767	8025.03
924.077	8023
924.387	7976.89
924.697	7892.15
925.008	7876.78
925.318	7855.77
925.628	7815.09
925.938	7752.95
926.248	7778.93
926.558	7693.29
926.867	7624.81
927.177	7647.64
927.487	7622.55
927.796	7512.27
928.106	7552.95
928.416	7506.17
928.725	7445.16
929.034	7501.88
929.344	7420.3
929.653	7413.52
929.962	7371.26
930.271	7282.22
930.581	7265.95
930.89	7241.77
931.199	7231.38
931.508	7192.73
931.817	7090.82
932.125	7135.79
932.434	7136.01
932.743	7048.11
933.051	7037.71
933.36	6984.6
933.669	6948.45
933.977	6897.83
934.286	6878.39
934.594	6918.84
934.902	6820.09
935.21	6804.27
935.519	6787.1
935.827	6807.66
936.135	6723.59
936.443	6690.6
936.751	6662.13
937.059	6628
937.367	6619.87
937.674	6557.95
937.982	6517.27
938.29	6532.86
938.597	6506.65
938.905	6488.35
939.213	6397.05
939.52	6380.33
939.827	6366.54
940.135	6312.76
940.442	6261.01
940.749	6275.92
941.056	6288.35
941.363	6281.8
941.67	6230.05
941.977	6200.22
942.284	6114.57
942.591	6181.01
942.898	6081.13
943.205	6078.87
943.511	6057.85
943.818	6101.01
944.125	6008.36
944.431	6019.21
944.738	5941.69
945.044	5966.78
945.35	5898.08
945.657	5817.4
945.963	5832.54
946.269	5798.65
946.575	5814.92
946.881	5804.97
947.187	5753.22
947.493	5717.29
947.799	5735.15
948.105	5660.12
948.41	5616.5
948.716	5656.5
949.022	5623.96
949.327	5581.7
949.633	5497.19
949.938	5576.51
950.244	5508.94
950.549	5434.14
950.854	5407.47
951.16	5353.91
951.465	5404.53
951.77	5356.4
952.075	5372.67
952.38	5416.06
952.685	5335.16
952.99	5294.93
953.294	5223.75
953.599	5207.25
953.904	5202.05
954.209	5210.41
954.513	5214.71
954.818	5102.39
955.122	5124.99
955.426	5098.33
955.731	5045.45
956.035	5045.9
956.339	5050.19
956.643	4997.99
956.948	4962.28
957.252	4977.88
957.556	4955.05
957.86	4881.83
958.163	4921.83
958.467	4883.64
958.771	4839.12
959.075	4870.31
959.378	4805.45
959.682	4829.41
959.985	4813.81
960.289	4740.37
960.592	4732.01
960.896	4704.89
961.199	4680.03
961.502	4630.77
961.805	4580.37
962.108	4611.79
962.411	4594.84
962.714	4545.12
963.017	4530.88
963.32	4555.52
963.623	4548.28
963.926	4508.51
964.228	4504.44
964.531	4451.56
964.833	4493.6
965.136	4409.98
965.438	4454.5
965.741	4401.4
966.043	4373.37
966.345	4306.71
966.648	4308.74
966.95	4280.27
967.252	4275.52
967.554	4262.19
967.856	4257.9
968.158	4239.14
968.46	4204.56
968.761	4143.78
969.063	4170.22
969.365	4160.5
969.666	4138.8
969.968	4098.58
970.269	4089.54
970.571	4103.78
970.872	4093.61
971.174	4039.37
971.475	4027.17
971.776	4007.73
972.077	3972.71
972.378	4004.57
972.679	3988.75
972.98	3932.26
973.281	3904.23
973.582	3913.72
973.883	3841.86
974.183	3882.09
974.484	3869.21
974.785	3807.29
975.085	3802.77
975.386	3817.23
975.686	3762.54
975.986	3755.31
976.287	3765.03
976.587	3718.25
976.887	3679.15
977.187	3707.4
977.487	3622.66
977.787	3683.67
978.087	3626.95
978.387	3626.73
978.687	3635.09
978.987	3615.88
979.286	3577.46
979.586	3585.37
979.885	3519.16
980.185	3522.77
980.484	3520.06
980.784	3467.63
981.083	3523.9
981.382	3476
981.682	3459.73
981.981	3502.44
982.28	3419.27
982.579	3403.46
982.878	3373.4
983.177	3353.74
983.475	3339.95
983.774	3365.26
984.073	3297.02
984.372	3301.76
984.67	3286.4
984.969	3264.25
985.267	3291.59
985.566	3244.59
985.864	3253.86
986.162	3212.73
986.461	3220.41
986.759	3204.14
987.057	3181.31
987.355	3142.22
987.653	3173.63
987.951	3123.46
988.249	3143.35
988.547	3057.93
988.844	3081.43
989.142	3097.25
989.44	3045.27
989.737	3037.36
990.035	3024.93
990.332	3031.94
990.63	2994.65
990.927	2953.98
991.224	2969.34
991.521	2961.66
991.819	2974.31
992.116	2911.49
992.413	2899.97
992.71	2887.54
993.006	2845.05
993.303	2868.33
993.6	2890.7
993.897	2871.94
994.193	2794.43
994.49	2819.52
994.787	2789.46
995.083	2808.22
995.379	2804.6
995.676	2771.61
995.972	2762.57
996.268	2757.82
996.565	2725.51
996.861	2731.16
997.157	2682.34
997.453	2671.72
997.749	2690.93
998.044	2639.18
998.34	2633.31
998.636	2631.5
998.932	2635.79
999.227	2599.41
999.523	2601.22
999.818	2606.19
1000.114	2590.82
1000.409	2551.27
1000.704	2535.91
1001	2533.65
1001.295	2506.53
1001.59	2532.29
1001.885	2460.2
1002.18	2465.4
1002.475	2443.93
1002.77	2452.29
1003.065	2409.58
1003.359	2436.93
1003.654	2403.26
1003.949	2390.15
1004.243	2363.48
1004.538	2361.45
1004.832	2377.04
1005.127	2309.47
1005.421	2325.29
1005.715	2329.59
1006.009	2301.11
1006.304	2298.17
1006.598	2259.08
1006.892	2263.37
1007.186	2262.92
1007.48	2233.54
1007.773	2227.89
1008.067	2184.5
1008.361	2151.29
1008.655	2181.79
1008.948	2182.92
1009.242	2146.31
1009.535	2123.26
1009.829	2131.4
1010.122	2131.85
1010.415	2096.37
1010.708	2071.74
1011.001	2089.82
1011.295	2047.56
1011.588	2052.3
1011.881	2025.86
1012.173	2008.69
1012.466	2055.02
1012.759	2010.95
1013.052	2009.59
1013.344	1994.91
1013.637	1962.14
1013.93	1933.89
1014.222	1921.23
1014.514	1922.14
1014.807	1915.59
1015.099	1920.56
1015.391	1888.24
1015.683	1868.13
1015.976	1875.13
1016.268	1854.12
1016.56	1831.97
1016.851	1829.94
1017.143	1831.52
1017.435	1822.03
1017.727	1785.42
1018.018	1754.69
1018.31	1759.43
1018.602	1770.05
1018.893	1768.7
1019.185	1695.48
1019.476	1694.57
1019.767	1724.86
1020.058	1708.59
1020.35	1710.62
1020.641	1674.69
1020.932	1677.63
1021.223	1631.52
1021.514	1646.44
1021.804	1615.48
1022.095	1625.88
1022.386	1620.68
1022.677	1608.02
1022.967	1608.25
1023.258	1577.97
1023.548	1560.79
1023.839	1568.48
1024.129	1573.22
1024.419	1541.36
1024.709	1524.41
1025	1513.34
1025.29	1487.57
1025.58	1514.01
1025.87	1492.09
1026.16	1475.82
1026.449	1483.05
1026.739	1476.5
1027.029	1437.41
1027.319	1429.5
1027.608	1441.02
1027.898	1409.16
1028.187	1400.57
1028.477	1408.25
1028.766	1375.94
1029.055	1384.75
1029.344	1371.42
1029.634	1354.92
1029.923	1333.23
1030.212	1328.93
1030.501	1330.06
1030.79	1313.12
1031.078	1336.84
1031.367	1328.26
1031.656	1285.09
1031.945	1266.11
1032.233	1277.86
1032.522	1266.11
1032.81	1250.07
1033.099	1264.53
1033.387	1232.21
1033.675	1214.81
1033.963	1249.16
1034.251	1235.6
1034.54	1221.37
1034.828	1183.18
1035.116	1194.93
1035.403	1208.26
1035.691	1201.25
1035.979	1164.64
1036.267	1149.96
1036.554	1163.51
1036.842	1164.87
1037.129	1126.68
1037.417	1157.41
1037.704	1134.59
1037.992	1129.17
1038.279	1099.11
1038.566	1098.66
1038.853	1098.66
1039.14	1098.66
