Data from red_cardboard_box_FLMS001491_00014.txt Node
Date: Wed Feb 08 11:31:36 GMT 2017
User: dcchb
Spectrometer: FLMS00149
Trigger mode: 0
Integration Time (sec): 2.000000E-2
Scans to average: 10
Electric dark correction enabled: true
Nonlinearity correction enabled: false
Boxcar width: 0
XAxis mode: Wavelengths
Number of Pixels in Spectrum: 2048
>>>>>Begin Spectral Data<<<<<
341.393	-7.4
341.776	-7.4
342.16	-7.4
342.543	-76.78
342.927	-56.21
343.31	-67.29
343.693	-60.51
344.077	-70.68
344.46	-75.42
344.843	-40.39
345.226	-41.98
345.61	-40.85
345.993	-19.6
346.376	-12.15
346.759	11.58
347.142	21.3
347.525	73.95
347.908	40.28
348.291	63.33
348.674	108.75
349.057	109.66
349.44	106.27
349.823	144.69
350.206	193.05
350.588	199.15
350.971	215.87
351.354	228.75
351.737	249.77
352.119	262.2
352.502	258.58
352.884	265.36
353.267	280.05
353.65	285.92
354.032	300.39
354.414	280.28
354.797	329.09
355.179	317.34
355.562	313.95
355.944	322.53
356.326	331.57
356.709	305.59
357.091	352.59
357.473	340.16
357.855	362.53
358.238	339.71
358.62	353.72
359.002	331.57
359.384	336.54
359.766	355.3
360.148	341.29
360.53	336.54
360.912	338.58
361.294	347.39
361.676	320.27
362.057	343.32
362.439	350.56
362.821	317.56
363.203	326.6
363.584	327.05
363.966	312.59
364.348	327.96
364.729	342.87
365.111	320.27
365.493	327.05
365.874	307.85
366.256	318.24
366.637	332.93
367.019	292.03
367.4	316.21
367.781	315.08
368.163	308.97
368.544	294.51
368.925	309.65
369.306	319.6
369.688	309.43
370.069	315.08
370.45	327.05
370.831	315.08
371.212	329.54
371.593	310.1
371.974	297
372.355	301.52
372.736	316.88
373.117	304.23
373.498	322.76
373.879	310.1
374.26	299.48
374.641	295.42
375.021	303.78
375.402	325.92
375.783	318.47
376.163	304
376.544	313.95
376.925	320.95
377.305	320.95
377.686	327.05
378.066	311.46
378.447	321.86
378.827	322.99
379.208	323.44
379.588	315.53
379.968	309.43
380.349	316.43
380.729	326.38
381.109	305.13
381.489	329.09
381.87	319.6
382.25	315.98
382.63	333.83
383.01	337.45
383.39	321.86
383.77	333.83
384.15	321.86
384.53	329.77
384.91	322.99
385.29	328.41
385.67	337.9
386.049	347.17
386.429	325.02
386.809	311.46
387.189	340.39
387.568	344.68
387.948	334.06
388.328	337.22
388.707	316.66
389.087	359.82
389.466	338.35
389.846	348.07
390.225	347.17
390.605	358.01
390.984	332.93
391.363	361.85
391.743	348.97
392.122	336.77
392.501	331.12
392.881	337
393.26	341.74
393.639	336.54
394.018	354.4
394.397	356.88
394.776	347.84
395.155	365.47
395.534	368.86
395.913	369.09
396.292	353.95
396.671	353.95
397.05	354.85
397.429	358.01
397.808	360.5
398.186	367.73
398.565	371.12
398.944	359.6
399.323	361.85
399.701	349.2
400.08	367.5
400.458	355.98
400.837	369.31
401.215	359.6
401.594	357.56
401.972	372.93
402.351	339.26
402.729	368.63
403.107	378.35
403.486	356.88
403.864	369.09
404.242	363.89
404.62	389.88
404.999	391.01
405.377	375.87
405.755	369.31
406.133	393.49
406.511	396.66
406.889	384.68
407.267	391.91
407.645	388.29
408.023	400.72
408.401	409.31
408.779	397.79
409.156	412.02
409.534	385.81
409.912	388.07
410.29	397.79
410.667	391.01
411.045	401.18
411.422	395.07
411.8	414.06
412.178	438.46
412.555	390.1
412.933	419.03
413.31	407.05
413.687	421.51
414.065	421.51
414.442	423.32
414.819	404.11
415.197	413.6
415.574	437.33
415.951	440.5
416.328	413.38
416.705	415.64
417.082	408.63
417.46	404.11
417.837	439.37
418.214	436.88
418.591	418.8
418.967	425.58
419.344	423.1
419.721	436.66
420.098	434.85
420.475	453.15
420.852	443.43
421.228	420.38
421.605	427.84
421.982	445.47
422.358	454.51
422.735	452.02
423.111	448.63
423.488	443.66
423.864	441.17
424.241	462.19
424.617	468.97
424.994	471.46
425.37	450.44
425.746	475.3
426.123	484.34
426.499	455.86
426.875	459.48
427.251	465.81
427.627	479.82
428.003	495.64
428.379	489.76
428.756	468.52
429.132	494.05
429.507	476.43
429.883	489.54
430.259	495.64
430.635	487.95
431.011	482.98
431.387	495.86
431.763	499.93
432.138	515.3
432.514	489.54
432.89	514.39
433.265	506.71
433.641	510.78
434.016	523.88
434.392	493.83
434.767	536.54
435.143	533.83
435.518	516.65
435.894	520.72
436.269	531.57
436.644	541.96
437.02	522.98
437.395	522.75
437.77	537.67
438.145	536.31
438.52	539.93
438.895	546.26
439.271	548.06
439.646	529.99
440.021	558.46
440.395	552.13
440.77	541.06
441.145	567.27
441.52	556.88
441.895	572.7
442.27	574.05
442.645	566.14
443.019	579.48
443.394	570.89
443.769	564.34
444.143	577.67
444.518	568.18
444.892	586.26
445.267	584.9
445.641	584.22
446.016	595.07
446.39	603.66
446.764	574.05
447.139	595.75
447.513	602.07
447.887	596.2
448.262	600.72
448.636	587.16
449.01	622.19
449.384	608.63
449.758	617.67
450.132	613.37
450.506	603.43
450.88	605.92
451.254	602.98
451.628	611.57
452.002	600.72
452.376	650.89
452.75	629.19
453.123	642.07
453.497	642.3
453.871	643.88
454.244	645.69
454.618	656.99
454.992	665.58
455.365	666.93
455.739	656.54
456.112	670.77
456.486	660.83
456.859	679.81
457.232	701.73
457.606	691.79
457.979	699.02
458.352	675.07
458.725	699.93
459.099	706.03
459.472	699.7
459.845	716.42
460.218	707.61
460.591	705.57
460.964	702.41
461.337	730.21
461.71	723.2
462.083	763.2
462.456	734.05
462.829	743.31
463.201	756.19
463.574	757.55
463.947	740.83
464.32	778.12
464.692	782.18
465.065	757.32
465.438	761.84
465.81	793.03
466.183	777.21
466.555	800.94
466.928	789.19
467.3	785.8
467.672	776.31
468.045	811.56
468.417	825.12
468.789	807.27
469.161	837.1
469.534	820.37
469.906	845.68
470.278	859.02
470.65	852.69
471.022	871.22
471.394	911.9
471.766	888.62
472.138	878.45
472.51	920.48
472.882	917.77
473.253	930.88
473.625	931.56
473.997	941.05
474.369	948.28
474.74	944.44
475.112	962.52
475.484	976.75
475.855	996.41
476.227	977.43
476.598	1021.95
476.97	1033.48
477.341	1031.67
477.713	1031.22
478.084	1036.41
478.455	1082.74
478.827	1070.99
479.198	1094.04
479.569	1100.14
479.94	1119.35
480.311	1117.32
480.682	1148.05
481.053	1158.67
481.424	1166.58
481.795	1161.83
482.166	1178.1
482.537	1210.65
482.908	1221.95
483.279	1239.57
483.65	1261.94
484.021	1267.82
484.391	1287.71
484.762	1288.61
485.133	1305.78
485.503	1321.15
485.874	1336.74
486.244	1338.55
486.615	1357.31
486.985	1343.75
487.356	1391.88
487.726	1402.28
488.097	1445.44
488.467	1433.47
488.837	1468.04
489.207	1467.59
489.578	1489.28
489.948	1503.52
490.318	1520.47
490.688	1553.24
491.058	1539.45
491.428	1542.16
491.798	1573.57
492.168	1586.23
492.538	1616.96
492.908	1640.24
493.278	1614.03
493.648	1633.91
494.017	1663.97
494.387	1676.17
494.757	1679.56
495.126	1688.83
495.496	1727.92
495.866	1736.28
496.235	1737.86
496.605	1735.6
496.974	1747.58
497.344	1781.7
497.713	1760.24
498.082	1802.27
498.452	1808.37
498.821	1831.19
499.19	1822.61
499.559	1858.99
499.928	1837.75
500.298	1868.26
500.667	1866.9
501.036	1874.13
501.405	1881.81
501.774	1894.47
502.143	1897.18
502.512	1943.73
502.88	1938.54
503.249	1948.93
503.618	1968.59
503.987	1989.83
504.356	1997.52
504.724	1992.32
505.093	1981.47
505.462	2025.77
505.83	2001.59
506.199	2042.49
506.567	2071.87
506.936	2072.77
507.304	2083.62
507.672	2065.09
508.041	2111.41
508.409	2128.81
508.777	2127.23
509.145	2153.9
509.514	2190.73
509.882	2171.75
510.25	2195.7
510.618	2207.46
510.986	2203.61
511.354	2225.31
511.722	2262.6
512.09	2285.42
512.458	2259.66
512.826	2285.42
513.193	2290.39
513.561	2307.11
513.929	2315.25
514.297	2345.31
514.664	2372.88
515.032	2378.53
515.4	2374.23
515.767	2381.01
516.135	2403.38
516.502	2423.04
516.869	2495.13
517.237	2506.21
517.604	2455.59
517.972	2498.75
518.339	2516.83
518.706	2517.96
519.073	2542.14
519.44	2576.94
519.808	2600.67
520.175	2540.1
520.542	2608.35
520.909	2609.48
521.276	2644.96
521.643	2678.86
522.009	2679.76
522.376	2678.63
522.743	2715.69
523.11	2726.31
523.477	2774.67
523.843	2786.42
524.21	2826.2
524.577	2808.12
524.943	2821
525.31	2828.68
525.676	2870.04
526.043	2904.39
526.409	2938.51
526.776	2950.49
527.142	2928.79
527.508	2933.76
527.874	2992.07
528.241	3030.26
528.607	3036.13
528.973	3046.08
529.339	3039.52
529.705	3078.85
530.071	3132.86
530.437	3105.74
530.803	3131.5
531.169	3166.53
531.535	3176.7
531.901	3209.24
532.267	3218.5
532.632	3235.23
532.998	3267.54
533.364	3282.46
533.73	3232.06
534.095	3338.95
534.461	3328.33
534.826	3342.79
535.192	3365.84
535.557	3405.39
535.923	3368.56
536.288	3436.12
536.653	3424.83
537.019	3437.48
537.384	3427.09
537.749	3431.6
538.114	3491.04
538.479	3482.68
538.845	3520.64
539.21	3527.87
539.575	3544.82
539.94	3567.42
540.305	3574.2
540.67	3564.03
541.034	3583.69
541.399	3574.88
541.764	3635.22
542.129	3660.07
542.494	3662.56
542.858	3701.65
543.223	3724.03
543.587	3715.44
543.952	3697.13
544.316	3734.42
544.681	3745.49
545.045	3745.27
545.41	3823.23
545.774	3793.4
546.138	3837.47
546.503	3819.17
546.867	3859.84
547.231	3895.77
547.595	3897.13
547.959	3928.31
548.324	3990.69
548.688	3963.12
549.052	4006.73
549.416	3997.01
549.779	4014.19
550.143	4023.91
550.507	4091.25
550.871	4100.74
551.235	4103.68
551.599	4121.98
551.962	4146.39
552.326	4191.13
552.689	4197.69
553.053	4214.86
553.417	4238.36
553.78	4305.03
554.143	4282.88
554.507	4329.89
554.87	4347.06
555.234	4426.61
555.597	4426.83
555.96	4449.88
556.323	4467.28
556.686	4456.89
557.05	4533.04
557.413	4582.53
557.776	4597.9
558.139	4573.04
558.502	4647.39
558.865	4637
559.228	4710.67
559.59	4719.48
559.953	4777.33
560.316	4793.38
560.679	4842.64
561.041	4869.31
561.404	4904.56
561.767	4990.43
562.129	4955.18
562.492	4999.93
562.854	5038.12
563.217	5081.5
563.579	5141.39
563.941	5156.31
564.304	5223.42
564.666	5279.24
565.028	5258.22
565.39	5358.56
565.753	5397.88
566.115	5448.27
566.477	5460.48
566.839	5488.5
567.201	5607.37
567.563	5598.78
567.925	5716.29
568.287	5698.44
568.648	5719.45
569.01	5814.37
569.372	5909.96
569.734	5895.95
570.095	5958.32
570.457	5993.12
570.819	6059.78
571.18	6099.56
571.542	6225.43
571.903	6221.14
572.265	6333
572.626	6366.44
572.987	6316.5
573.349	6456.38
573.71	6545.2
574.071	6611.63
574.432	6623.39
574.794	6699.32
575.155	6749.71
575.516	6825.19
575.877	6886.66
576.238	6956.48
576.599	7020.89
576.96	7085.07
577.32	7181.34
577.681	7215.46
578.042	7388.56
578.403	7454.78
578.763	7429.69
579.124	7602.79
579.485	7733.64
579.845	7807.76
580.206	7869.91
580.566	7949.68
580.927	8069
581.287	8168.43
581.648	8253.62
582.008	8370.01
582.368	8514.41
582.728	8534.07
583.089	8738.13
583.449	8840.73
583.809	8984.45
584.169	9096.54
584.529	9224.67
584.889	9446.14
585.249	9587.38
585.609	9679.12
585.969	9882.96
586.329	9941.94
586.688	10158.43
587.048	10358.2
587.408	10484.3
587.768	10697.85
588.127	10873.44
588.487	11122.93
588.846	11362.02
589.206	11425.07
589.565	11706.64
589.925	11855.56
590.284	12066.41
590.643	12411.26
591.003	12608.76
591.362	12813.73
591.721	13070.67
592.08	13275.19
592.44	13569.64
592.799	13901.39
593.158	14128.05
593.517	14380.02
593.876	14638.54
594.235	14912.88
594.593	15171.41
594.952	15530.27
595.311	15781.34
595.67	16128.22
596.029	16555.1
596.387	16759.39
596.746	17034.41
597.104	17193.05
597.463	17545.58
597.822	17988.28
598.18	18331.78
598.538	18497.2
598.897	19004.08
599.255	19108.03
599.613	19768.58
599.972	20022.81
600.33	20347.77
600.688	20590.25
601.046	20861.43
601.404	21336.44
601.762	21656.44
602.12	22076.09
602.478	22338.9
602.836	22751.1
603.194	22831.32
603.552	23149.28
603.91	23551.75
604.268	23933.89
604.625	24155.35
604.983	24527.55
605.341	24782.46
605.698	25255.66
606.056	25583.34
606.413	25778.14
606.771	26209.76
607.128	26544.22
607.485	26588.74
607.843	26959.8
608.2	27230.53
608.557	27646.79
608.914	27830.06
609.272	28130.16
609.629	28284.96
609.986	28774.22
610.343	28810.15
610.7	29300.53
611.057	29473.18
611.414	29603.35
611.771	29980.51
612.127	30331.69
612.484	30374.85
612.841	30724.67
613.198	30829.3
613.554	31011.44
613.911	31324.88
614.267	31483.52
614.624	31652.56
614.98	31907.92
615.337	32194.69
615.693	32207.8
616.05	32464.06
616.406	32925.74
616.762	32944.05
617.118	32948.12
617.475	33158.05
617.831	33400.31
618.187	33499.06
618.543	33741.99
618.899	34050.01
619.255	34096.34
619.611	34277.35
619.967	34455.87
620.323	34657.68
620.678	34509.21
621.034	34665.81
621.39	34791.68
621.746	34836.65
622.101	35394.15
622.457	35126.14
622.812	35336.08
623.168	35456.98
623.523	35467.37
623.879	35840.7
624.234	35704.2
624.589	35863.07
624.945	36016.28
625.3	36200.23
625.655	36148.94
626.01	36122.95
626.365	36557.29
626.72	36379.89
627.075	36579.66
627.43	36414.24
627.785	36415.82
628.14	36684.74
628.495	36719.99
628.85	36587.34
629.205	36799.31
629.559	36977.39
629.914	36930.84
630.269	37204.95
630.623	36957.73
630.978	36959.08
631.332	37043.6
631.687	37182.58
632.041	37129.93
632.396	37360.2
632.75	37186.65
633.104	37293.77
633.459	37187.55
633.813	37182.81
634.167	37231.17
634.521	37220.32
634.875	37376.93
635.229	37234.11
635.583	37199.76
635.937	37357.49
636.291	37297.38
636.645	37314.1
636.999	37236.82
637.352	37266.65
637.706	37251.05
638.06	37354.78
638.413	37188.01
638.767	37202.02
639.121	37336.48
639.474	37239.53
639.828	37278.62
640.181	37546.41
640.534	37453.53
640.888	37209.25
641.241	37063.49
641.594	37364.72
641.947	37381.9
642.301	37290.15
642.654	37244.5
643.007	37299.64
643.36	37419.86
643.713	37294.9
644.066	37472.52
644.419	37229.81
644.771	36919.31
645.124	36549.6
645.477	36526.78
645.83	36418.08
646.182	36345.32
646.535	36249.72
646.888	36443.62
647.24	36367.46
647.593	36536.72
647.945	36331.98
648.298	36313
648.65	36280.91
649.002	36204.53
649.355	36342.83
649.707	36318.2
650.059	36291.31
650.411	36875.47
650.763	36863.72
651.115	37316.14
651.467	37185.29
651.819	37263.03
652.171	37181.23
652.523	37228
652.875	37131.74
653.227	37063.26
653.578	37266.87
653.93	37283.14
654.282	36979.42
654.633	36987.33
654.985	37096.03
655.337	37137.61
655.688	36965.41
656.039	37251.73
656.391	37008.8
656.742	36975.81
657.094	36994.79
657.445	37087.22
657.796	37093.32
658.147	37017.61
658.498	36866.43
658.849	37015.35
659.2	36922.7
659.551	36868.01
659.902	36996.82
660.253	37035.69
660.604	36947.11
660.955	36888.58
661.306	37056.26
661.656	37012.87
662.007	37065.97
662.358	37050.16
662.708	37005.19
663.059	36978.97
663.409	36752.31
663.76	37052.87
664.11	37098.74
664.461	37162.92
664.811	37037.95
665.161	36948.92
665.511	36806.32
665.862	36898.3
666.212	37142.36
666.562	37084.96
666.912	37010.16
667.262	36985.07
667.612	36981.23
667.962	36939.2
668.312	36813.1
668.662	37076.37
669.011	37066.88
669.361	36888.35
669.711	37069.59
670.06	36995.92
670.41	36808.58
670.76	36757.73
671.109	36836.15
671.459	36928.58
671.808	36688.81
672.157	36900.56
672.507	36596.16
672.856	36557.06
673.205	36754.8
673.554	36847
673.904	36640.45
674.253	36701.24
674.602	36731.52
674.951	36236.39
675.3	36060.8
675.649	36720.9
675.998	36593.67
676.346	36711.63
676.695	36750.95
677.044	36599.09
677.393	36443.39
677.741	36623.73
678.09	36424.64
678.438	36455.6
678.787	36506.89
679.135	36339.67
679.484	36329.72
679.832	36460.34
680.181	36178.31
680.529	36379.89
680.877	36260.12
681.225	36280.23
681.573	36330.17
681.922	36203.17
682.27	36169.27
682.618	36128.37
682.966	36011.31
683.314	36058.09
683.661	35857.42
684.009	35808.38
684.357	35776.06
684.705	35545.79
685.053	35574.94
685.4	35531.1
685.748	35447.71
686.095	35602.28
686.443	35370.65
686.79	35292.69
687.138	35354.83
687.485	35430.09
687.832	35126.82
688.18	35259.24
688.527	35030.1
688.874	35045.24
689.221	34862.87
689.568	34704.68
689.915	34785.81
690.262	34768.18
690.609	34594.18
690.956	34584.91
691.303	34474.4
691.65	34331.81
691.997	34418.13
692.344	34216.78
692.69	34219.5
693.037	34290.23
693.383	33977.47
693.73	34117.35
694.077	33836.45
694.423	33944.47
694.769	33622.9
695.116	33774.76
695.462	33651.15
695.808	33570.02
696.155	33636.23
696.501	33323.25
696.847	33381.78
697.193	33095.23
697.539	33223.59
697.885	32996.48
698.231	32951.28
698.577	32985.18
698.923	32961
699.269	32597.84
699.614	32605.3
699.96	32485.53
700.306	32629.93
700.651	32398.75
700.997	32163.05
701.342	32229.72
701.688	32212.09
702.033	32092.32
702.379	32056.61
702.724	32029.27
703.069	31952.21
703.415	31666.57
703.76	31633.35
704.105	31751.31
704.45	31583.18
704.795	31468.61
705.14	31428.61
705.485	31440.36
705.83	31254.6
706.175	31260.03
706.52	31197.65
706.865	31142.74
707.209	31115.4
707.554	31009.86
707.899	31035.17
708.243	30715.18
708.588	30882.18
708.932	30668.85
709.277	30691.68
709.621	30696.88
709.966	30274.06
710.31	30460.5
710.654	30186.83
710.998	30380.27
711.342	30248.3
711.687	30154.52
712.031	30040.62
712.375	30088.08
712.719	29984.8
713.063	29930.12
713.407	30081.3
713.75	29839.72
714.094	29935.09
714.438	29727.41
714.782	29681.08
715.125	29533.07
715.469	29645.83
715.812	29534.87
716.156	29274.09
716.499	29320.19
716.843	29497.13
717.186	29273.86
717.53	29296.69
717.873	29307.99
718.216	29263.69
718.559	29122
718.902	28865.96
719.246	29099.63
719.589	28892.63
719.932	28856.02
720.275	28836.13
720.617	28839.3
720.96	28711.17
721.303	28726.08
721.646	28769.47
721.989	28597.72
722.331	28669.13
722.674	28590.27
723.016	28618.74
723.359	28405.86
723.701	28481.57
724.044	28273.89
724.386	28141.46
724.729	28404.51
725.071	28198.19
725.413	28199.77
725.755	28171.29
726.097	28148.24
726.439	27914.35
726.782	28005.65
727.124	28098.53
727.465	27894.01
727.807	27839.32
728.149	27847.01
728.491	27738.31
728.833	27804.3
729.175	27722.04
729.516	27613.79
729.858	27624.64
730.199	27550.74
730.541	27600.46
730.882	27632.1
731.224	27725.2
731.565	27431.65
731.906	27460.13
732.248	27470.29
732.589	27424.65
732.93	27326.8
733.271	27341.71
733.612	27329.28
733.953	27397.98
734.294	27283.18
734.635	27121.6
734.976	27234.59
735.317	27123.41
735.658	27245.22
735.999	27012.91
736.339	27035.05
736.68	26988.95
737.021	26965.9
737.361	26844.32
737.702	26906.47
738.042	26871.89
738.383	26738.56
738.723	26852.68
739.063	26680.26
739.404	26835.28
739.744	26678.68
740.084	26715.06
740.424	26717.55
740.764	26538.34
741.104	26698.11
741.444	26495.86
741.784	26431.68
742.124	26477.78
742.464	26469.64
742.804	26535.18
743.143	26391.45
743.483	26438.46
743.823	26253.6
744.162	26193.72
744.502	26252.47
744.841	26253.38
745.181	26319.59
745.52	26137.67
745.86	26144.45
746.199	26093.38
746.538	26099.71
746.877	26092.93
747.216	26034.63
747.556	25906.27
747.895	26036.66
748.234	25934.97
748.573	25906.04
748.911	25846.38
749.25	25747.63
749.589	25677.35
749.928	25717.8
750.267	25703.79
750.605	25666.27
750.944	25542.44
751.283	25561.42
751.621	25572.94
751.96	25474.41
752.298	25461.76
752.636	25499.72
752.975	25341.76
753.313	25188.09
753.651	25411.14
753.989	25235.1
754.327	25146.06
754.666	25086.4
755.004	25121.66
755.342	25185.61
755.679	25029.23
756.017	24918.95
756.355	25057.02
756.693	24938.84
757.031	24976.57
757.368	24800.08
757.706	24778.61
758.044	24673.53
758.381	24724.83
758.719	24563.93
759.056	24560.99
759.394	24495.46
759.731	24372.07
760.068	24271.51
760.405	24265.86
760.743	24164.62
761.08	24130.5
761.417	24077.62
761.754	24012.98
762.091	23972.53
762.428	23831.29
762.765	23707.23
763.102	23888.02
763.438	23751.97
763.775	23680.56
764.112	23596.72
764.449	23559.89
764.785	23493
765.122	23405.32
765.458	23285.09
765.795	23276.51
766.131	23148.83
766.467	23099.11
766.804	22889.17
767.14	22878.78
767.476	22890.98
767.812	22850.53
768.148	22764.66
768.485	22714.04
768.821	22563.76
769.157	22582.29
769.492	22487.83
769.828	22445.12
770.164	22299.81
770.5	22300.94
770.836	22171
771.171	22049.19
771.507	22091.45
771.842	21948.86
772.178	21939.37
772.513	21780.95
772.849	21769.88
773.184	21619.38
773.519	21743.44
773.855	21671.58
774.19	21495.08
774.525	21421.64
774.86	21383.22
775.195	21315.43
775.53	21246.28
775.865	21180.29
776.2	21028.88
776.535	20876.57
776.87	20815.55
777.205	20734.65
777.539	20746.63
777.874	20694.43
778.209	20656.46
778.543	20509.57
778.878	20407.43
779.212	20378.5
779.547	20356.13
779.881	20360.2
780.215	20236.81
780.55	20299.64
780.884	20078.62
781.218	20017.38
781.552	20042.92
781.886	19847.22
782.22	19765.86
782.554	19736.71
782.888	19629.82
783.222	19524.51
783.556	19467.12
783.889	19368.59
784.223	19278.65
784.557	19165.65
784.89	19263.05
785.224	19181.02
785.557	19025.09
785.891	19034.36
786.224	18994.81
786.558	18872.78
786.891	18789.84
787.224	18750.98
787.557	18632.11
787.891	18617.87
788.224	18601.6
788.557	18552.11
788.89	18468.72
789.223	18512.11
789.556	18370.42
789.888	18230.76
790.221	18146.92
790.554	18095.4
790.887	18127.72
791.219	18011.33
791.552	17940.38
791.884	17906.48
792.217	17819.02
792.549	17782.64
792.882	17596.88
793.214	17609.09
793.546	17650.21
793.879	17552.14
794.211	17437.34
794.543	17487.73
794.875	17424.46
795.207	17464.23
795.539	17273.05
795.871	17284.57
796.203	17003.9
796.535	17003
796.867	17076.22
797.198	17068.31
797.53	16966.84
797.862	16836.9
798.193	16895.43
798.525	16835.77
798.856	16755.77
799.188	16658.38
799.519	16622.67
799.85	16514.42
800.182	16550.13
800.513	16456.35
800.844	16432.62
801.175	16462.45
801.506	16322.79
801.837	16271.49
802.168	16312.17
802.499	16230.82
802.83	16156.47
803.161	16133.19
803.491	16074.44
803.822	16035.57
804.153	15908.34
804.483	15835.8
804.814	15746.54
805.145	15849.36
805.475	15701.11
805.805	15736.59
806.136	15673.54
806.466	15644.62
806.796	15547.44
807.126	15490.72
807.457	15410.05
807.787	15562.59
808.117	15355.13
808.447	15305.42
808.777	15403.27
809.107	15334.12
809.436	15230.16
809.766	15199.43
810.096	15238.3
810.426	15113.33
810.755	15125.99
811.085	15057.06
811.414	15101.35
811.744	14960.57
812.073	14883.96
812.403	15040.34
812.732	14763.96
813.061	14841.7
813.39	14677.64
813.719	14650.52
814.049	14776.84
814.378	14653.91
814.707	14635.15
815.036	14562.61
815.365	14515.83
815.693	14469.05
816.022	14481.26
816.351	14408.94
816.68	14315.39
817.008	14331.88
817.337	14246.46
817.665	14200.59
817.994	14248.5
818.322	14223.41
818.651	14100.25
818.979	14078.78
819.307	14201.72
819.636	14077.43
819.964	13985.68
820.292	13985.9
820.62	14013.93
820.948	14011.89
821.276	14069.52
821.604	13989.07
821.932	14021.83
822.259	13999.69
822.587	13983.64
822.915	14040.59
823.243	13944.55
823.57	13881.05
823.898	13970.76
824.225	13909.07
824.553	13973.25
824.88	13908.84
825.207	14005.79
825.535	13918.79
825.862	13930.54
826.189	13912.23
826.516	13920.14
826.843	13971.89
827.17	13982.06
827.497	13976.41
827.824	13968.28
828.151	13968.05
828.478	13904.78
828.805	13883.99
829.131	13843.76
829.458	13872.01
829.785	13733.93
830.111	13807.83
830.438	13893.02
830.764	13832.46
831.09	13867.94
831.417	13723.31
831.743	13862.74
832.069	13853.25
832.395	13824.78
832.722	13828.62
833.048	13827.94
833.374	13864.1
833.7	13755.63
834.026	13807.83
834.351	13797.89
834.677	13795.63
835.003	13816.64
835.329	13750.2
835.654	13700.26
835.98	13707.94
836.306	13631.34
836.631	13599.47
836.956	13719.02
837.282	13698.91
837.607	13587.27
837.932	13535.07
838.258	13551.34
838.583	13509.08
838.908	13473.15
839.233	13527.61
839.558	13382.08
839.883	13366.26
840.208	13351.12
840.533	13405.81
840.858	13410.55
841.182	13316.54
841.507	13318.8
841.832	13267.73
842.156	13291.68
842.481	13273.15
842.805	13235.41
843.13	13155.64
843.454	13189.31
843.778	13211.01
844.103	13134.85
844.427	13190.9
844.751	13089.88
845.075	13052.82
845.399	13006.49
845.723	12949.32
846.047	12900.51
846.371	12771.47
846.695	12783.9
847.019	12678.37
847.343	12668.42
847.666	12569.44
847.99	12632.49
848.313	12538.71
848.637	12413.52
848.96	12485.6
849.284	12402.44
849.607	12331.94
849.931	12241.32
850.254	12181.43
850.577	12207.42
850.9	12072.51
851.223	12037.71
851.546	11999.51
851.869	11962.23
852.192	11957.93
852.515	11909.8
852.838	11879.97
853.161	11851.95
853.483	11750.26
853.806	11692.86
854.129	11689.92
854.451	11631.39
854.774	11606.76
855.096	11576.93
855.419	11521.56
855.741	11550.04
856.063	11430.26
856.385	11448.57
856.708	11400.66
857.03	11375.8
857.352	11310.04
857.674	11326.99
857.996	11244.73
858.318	11227.33
858.64	11164.96
858.961	11116.6
859.283	11167.45
859.605	11051.74
859.926	11130.61
860.248	11073.44
860.57	11012.65
860.891	11044.74
861.212	11005.64
861.534	10940.79
861.855	10962.25
862.176	10983.72
862.498	10900.56
862.819	10957.28
863.14	10883.16
863.461	10816.27
863.782	10737.18
864.103	10753.9
864.424	10809.94
864.745	10821.47
865.065	10736.05
865.386	10737.85
865.707	10662.15
866.027	10761.13
866.348	10648.14
866.668	10644.07
866.989	10549.38
867.309	10499.22
867.63	10590.74
867.95	10594.58
868.27	10573.34
868.59	10585.54
868.91	10470.97
869.23	10438.88
869.55	10378.99
869.87	10380.8
870.19	10377.41
870.51	10375.15
870.83	10440.91
871.15	10435.04
871.469	10367.24
871.789	10423.51
872.109	10315.94
872.428	10212.44
872.748	10364.76
873.067	10281.14
873.386	10236.85
873.706	10245.66
874.025	10146
874.344	10183.07
874.663	10119.56
874.982	10213.57
875.301	10218.54
875.62	10079.57
875.939	10080.47
876.258	10076.85
876.577	10088.83
876.896	10110.3
877.214	10027.82
877.533	10075.5
877.852	10070.3
878.17	9992.34
878.489	9945.33
878.807	9954.37
879.125	9938.55
879.444	9972.45
879.762	9949.17
880.08	9946.91
880.398	9800.48
880.716	9911.89
881.034	9831.21
881.352	9794.6
881.67	9827.59
881.988	9851.77
882.306	9774.49
882.624	9774.04
882.941	9764.55
883.259	9708.05
883.577	9658.79
883.894	9635.06
884.212	9609.97
884.529	9591.44
884.846	9570.65
885.164	9579.69
885.481	9532.46
885.798	9509.18
886.115	9466.93
886.432	9458.79
886.75	9428.74
887.067	9512.8
887.383	9450.43
887.7	9419.7
888.017	9421.28
888.334	9346.25
888.651	9289.53
888.967	9285.01
889.284	9318.91
889.6	9250.21
889.917	9235.97
890.233	9169.98
890.55	9092.7
890.866	9159.82
891.182	9130.66
891.498	9046.6
891.815	9036.43
892.131	9055.64
892.447	8990.78
892.763	8951.23
893.079	8975.87
893.395	8990.55
893.71	8901.07
894.026	8956.43
894.342	8920.73
894.657	8734.74
894.973	8827.17
895.289	8733.61
895.604	8742.43
895.92	8743.1
896.235	8650.45
896.55	8694.97
896.865	8683.9
897.181	8637.34
897.496	8557.8
897.811	8536.1
898.126	8515.09
898.441	8500.17
898.756	8431.47
899.071	8404.81
899.386	8443
899.7	8331.81
900.015	8335.43
900.33	8249.11
900.644	8230.35
900.959	8285.94
901.273	8245.04
901.588	8237.58
901.902	8187.86
902.216	8176.11
902.531	8128.66
902.845	8089.79
903.159	8101.09
903.473	8100.63
903.787	8009.34
904.101	7927.53
904.415	8019.96
904.729	7965.95
905.042	7897.93
905.356	7881.21
905.67	7849.12
905.984	7833.97
906.297	7724.83
906.611	7682.79
906.924	7693.64
907.237	7695.67
907.551	7610.48
907.864	7588.78
908.177	7655.9
908.491	7608.9
908.804	7563.7
909.117	7512.85
909.43	7483.7
909.743	7458.84
910.056	7392.86
910.368	7341.33
910.681	7415.45
910.994	7358.96
911.307	7286.42
911.619	7207.55
911.932	7155.8
912.244	7207.1
912.557	7191.05
912.869	7165.29
913.181	7099.53
913.494	7071.06
913.806	7042.36
914.118	6993.54
914.43	6973.88
914.742	6960.78
915.054	6903.38
915.366	6896.82
915.678	6881.46
915.99	6843.04
916.302	6802.14
916.613	6763.72
916.925	6777.96
917.236	6757.84
917.548	6672.88
917.859	6706.77
918.171	6655.47
918.482	6602.82
918.794	6584.52
919.105	6557.85
919.416	6523.05
919.727	6540.45
920.038	6442.82
920.349	6413.22
920.66	6461.81
920.971	6401.92
921.282	6452.77
921.593	6344.52
921.903	6274.02
922.214	6293.9
922.525	6248.71
922.835	6237.86
923.146	6190.4
923.456	6200.8
923.767	6155.83
924.077	6195.15
924.387	6107.01
924.697	6092.78
925.008	6035.38
925.318	6060.01
925.628	5987.02
925.938	6017.98
926.248	5926.45
926.558	5939.11
926.867	5893.91
927.177	5904.99
927.487	5905.44
927.796	5750.19
928.106	5807.59
928.416	5726.23
928.725	5798.77
929.034	5695.5
929.344	5774.37
929.653	5716.52
929.962	5656.86
930.271	5685.33
930.581	5606.46
930.89	5580.7
931.199	5599.23
931.508	5599.23
931.817	5543.64
932.125	5501.38
932.434	5489.18
932.743	5445.56
933.051	5411.67
933.36	5394.26
933.669	5334.83
933.977	5356.98
934.286	5349.75
934.594	5325.11
934.902	5298.67
935.21	5241.73
935.519	5264.78
935.827	5260.48
936.135	5185.68
936.443	5138.45
936.751	5115.18
937.059	5123.99
937.367	5115.63
937.674	5079.47
937.982	5083.09
938.29	5067.49
938.597	5095.52
938.905	4996.31
939.213	4978.68
939.52	4946.37
939.827	4947.5
940.135	4901.62
940.442	4875.86
940.749	4892.13
941.056	4904.56
941.363	4877.89
941.67	4856.43
941.977	4823.88
942.284	4773.04
942.591	4731.01
942.898	4728.97
943.205	4755.41
943.511	4712.02
943.818	4660.95
944.125	4700.72
944.431	4620.05
944.738	4642.42
945.044	4628.86
945.35	4563.78
945.657	4533.72
945.963	4531.69
946.269	4484.01
946.575	4519.26
946.881	4492.37
947.187	4447.4
947.493	4453.05
947.799	4441.3
948.105	4419.6
948.41	4371.02
948.716	4376.66
949.022	4354.29
949.327	4386.61
949.633	4340.28
949.938	4286.5
950.244	4303.67
950.549	4266.84
950.854	4240.85
951.16	4207.18
951.465	4130.57
951.77	4170.34
952.075	4171.92
952.38	4148.87
952.685	4189.78
952.99	4085.6
953.294	4078.59
953.599	4047.86
953.904	4075.88
954.209	4024.13
954.513	4021.19
954.818	4033.62
955.122	3964.92
955.426	3961.99
955.731	3982.1
956.035	3916.11
956.339	3944.59
956.643	3879.73
956.948	3896.68
957.252	3881.76
957.556	3853.06
957.86	3810.35
958.163	3839.73
958.467	3820.97
958.771	3817.36
959.075	3811.71
959.378	3769.45
959.682	3772.16
959.985	3712.28
960.289	3707.98
960.592	3684.25
960.896	3669.79
961.199	3639.73
961.502	3626.85
961.805	3630.7
962.108	3624.37
962.411	3605.84
962.714	3599.06
963.017	3555.44
963.32	3554.99
963.623	3522.22
963.926	3534.43
964.228	3529.91
964.531	3476.58
964.833	3462.11
965.136	3444.03
965.438	3470.47
965.741	3466.63
966.043	3392.06
966.345	3400.65
966.648	3363.58
966.95	3388.89
967.252	3350.7
967.554	3335.56
967.856	3331.95
968.158	3293.08
968.46	3303.7
968.761	3276.35
969.063	3300.99
969.365	3248.78
969.666	3206.07
969.968	3192.97
970.269	3234.32
970.571	3213.31
970.872	3203.81
971.174	3183.25
971.475	3190.03
971.776	3098.28
972.077	3121.1
972.378	3157.04
972.679	3119.97
972.98	3150.48
973.281	3057.15
973.582	3035.91
973.883	3035.68
974.183	3018.28
974.484	3014.21
974.785	3025.74
975.085	2992.75
975.386	2991.62
975.686	2999.53
975.986	2977.38
976.287	2963.82
976.587	2895.35
976.887	2912.07
977.187	2922.47
977.487	2913.43
977.787	2861.45
978.087	2860.77
978.387	2843.6
978.687	2847.67
978.987	2810.38
979.286	2801.34
979.586	2781.9
979.885	2762.02
980.185	2779.19
980.484	2778.29
980.784	2746.65
981.083	2757.95
981.382	2770.15
981.682	2752.3
981.981	2734.45
982.28	2702.36
982.579	2663.49
982.878	2710.72
983.177	2659.65
983.475	2638.86
983.774	2643.83
984.073	2618.29
984.372	2590.27
984.67	2616.71
984.969	2622.13
985.267	2588.69
985.566	2581.91
985.864	2560.67
986.162	2514.11
986.461	2540.1
986.759	2494.45
987.057	2517.96
987.355	2505.75
987.653	2462.82
987.951	2462.82
988.249	2465.3
988.547	2444.74
988.844	2451.07
989.142	2417.39
989.44	2437.73
989.737	2399.32
990.035	2389.37
990.332	2368.36
990.63	2378.98
990.927	2357.73
991.224	2354.34
991.521	2352.31
991.819	2340.56
992.116	2315.48
992.413	2311.41
992.71	2270.73
993.006	2297.62
993.303	2273.22
993.6	2269.6
993.897	2256.27
994.193	2246.33
994.49	2213.78
994.787	2237.51
995.083	2192.54
995.379	2221.02
995.676	2198.87
995.972	2174.69
996.268	2159.32
996.565	2167.68
996.861	2172.88
997.157	2140.11
997.453	2148.7
997.749	2123.84
998.044	2110.74
998.34	2101.24
998.636	2115.26
998.932	2060.79
999.227	2070.28
999.523	2074.35
999.818	2059.44
1000.114	2053.11
1000.409	2034.13
1000.704	2004.3
1001	1989.38
1001.295	1982.15
1001.59	1965.2
1001.885	1968.82
1002.18	1990.29
1002.475	1928.82
1002.77	1964.07
1003.065	1902.38
1003.359	1906.45
1003.654	1897.18
1003.949	1905.09
1004.243	1885.43
1004.538	1873
1004.832	1853.12
1005.127	1877.97
1005.421	1858.31
1005.715	1861.93
1006.009	1813.12
1006.304	1800.69
1006.598	1793.46
1006.892	1761.82
1007.186	1791.2
1007.48	1755.94
1007.773	1774.47
1008.067	1721.82
1008.361	1734.47
1008.655	1720.69
1008.948	1724.08
1009.242	1737.64
1009.535	1711.88
1009.829	1717.3
1010.122	1684.53
1010.415	1666.91
1010.708	1652.22
1011.001	1658.54
1011.295	1658.32
1011.588	1645.44
1011.881	1625.55
1012.173	1622.39
1012.466	1634.14
1012.759	1618.77
1013.052	1601.14
1013.344	1614.25
1013.637	1585.55
1013.93	1557.98
1014.222	1551.65
1014.514	1546.46
1014.807	1545.55
1015.099	1530.41
1015.391	1510.07
1015.683	1521.37
1015.976	1514.37
1016.268	1492.9
1016.56	1466.46
1016.851	1467.36
1017.143	1485.22
1017.435	1471.88
1017.727	1470.75
1018.018	1440.92
1018.31	1450.41
1018.602	1429.85
1018.893	1435.05
1019.185	1414.71
1019.476	1406.12
1019.767	1413.8
1020.058	1398.21
1020.35	1387.36
1020.641	1375.16
1020.932	1332.68
1021.223	1365.22
1021.514	1335.16
1021.804	1335.39
1022.095	1310.53
1022.386	1323.64
1022.677	1280.02
1022.967	1306.91
1023.258	1269.63
1023.548	1278.67
1023.839	1267.82
1024.129	1267.14
1024.419	1242.96
1024.709	1241.83
1025	1262.62
1025.29	1219.91
1025.58	1218.56
1025.87	1206.13
1026.16	1171.1
1026.449	1212.45
1026.739	1203.87
1027.029	1179.01
1027.319	1185.11
1027.608	1199.57
1027.898	1159.12
1028.187	1167.94
1028.477	1183.75
1028.766	1161.83
1029.055	1122.06
1029.344	1142.63
1029.634	1122.96
1029.923	1106.92
1030.212	1116.19
1030.501	1115.28
1030.79	1095.17
1031.078	1085
1031.367	1088.84
1031.656	1067.6
1031.945	1086.81
1032.233	1053.14
1032.522	1038.67
1032.81	1016.75
1033.099	1035.96
1033.387	1016.3
1033.675	1017.66
1033.963	1003.19
1034.251	1014.72
1034.54	1000.71
1034.828	988.05
1035.116	1001.16
1035.403	996.87
1035.691	950.54
1035.979	969.52
1036.267	983.31
1036.554	970.2
1036.842	932.01
1037.129	972.23
1037.417	926.13
1037.704	946.25
1037.992	918.9
1038.279	925.23
1038.566	912.57
1038.853	912.57
1039.14	912.57
