Data from red_cardboard_box_FLMS001491_00099.txt Node
Date: Wed Feb 08 11:33:26 GMT 2017
User: dcchb
Spectrometer: FLMS00149
Trigger mode: 0
Integration Time (sec): 2.000000E-2
Scans to average: 10
Electric dark correction enabled: true
Nonlinearity correction enabled: false
Boxcar width: 0
XAxis mode: Wavelengths
Number of Pixels in Spectrum: 2048
>>>>>Begin Spectral Data<<<<<
341.393	-2.23
341.776	-2.23
342.16	-2.23
342.543	-43.81
342.927	-61.67
343.31	-78.84
343.693	-85.17
344.077	-55.56
344.46	-62.34
344.843	-47.2
345.226	-26.86
345.61	-35.68
345.993	-5.17
346.376	-21.89
346.759	4.77
347.142	42.06
347.525	27.6
347.908	65.79
348.291	79.12
348.674	95.62
349.057	103.75
349.44	146.69
349.823	148.27
350.206	171.55
350.588	170.65
350.971	201.6
351.354	240.7
351.737	232.79
352.119	247.93
352.502	260.13
352.884	284.09
353.267	280.25
353.65	300.81
354.032	300.13
354.414	313.69
354.797	304.2
355.179	334.71
355.562	311.66
355.944	325.67
356.326	349.4
356.709	332.22
357.091	366.35
357.473	342.62
357.855	359.11
358.238	336.52
358.62	371.09
359.002	341.71
359.384	349.4
359.766	330.87
360.148	355.5
360.53	360.02
360.912	340.36
361.294	351.43
361.676	352.34
362.057	340.81
362.439	346.46
362.821	338.1
363.203	333.8
363.584	358.21
363.966	340.58
364.348	332.45
364.729	324.31
365.111	343.3
365.493	326.35
365.874	324.99
366.256	301.26
366.637	323.64
367.019	299.23
367.4	324.77
367.781	311.66
368.163	316.4
368.544	296.29
368.925	333.8
369.306	313.24
369.688	325.9
370.069	336.74
370.45	320.02
370.831	321.83
371.212	292.68
371.593	329.29
371.974	301.49
372.355	300.36
372.736	302.85
373.117	300.59
373.498	312.34
373.879	337.87
374.26	319.34
374.641	339.91
375.021	323.18
375.402	321.83
375.783	325.9
376.163	320.7
376.544	327.25
376.925	336.29
377.305	336.74
377.686	324.54
378.066	320.25
378.447	324.31
378.827	343.07
379.208	327.7
379.588	332.45
379.968	327.03
380.349	332.22
380.729	321.38
381.109	342.84
381.489	353.47
381.87	333.8
382.25	341.94
382.63	350.53
383.01	338.55
383.39	349.17
383.77	360.92
384.15	323.18
384.53	356.4
384.91	369.74
385.29	345.33
385.67	335.16
386.049	357.08
386.429	354.6
386.809	368.61
387.189	372.9
387.568	368.61
387.948	365.67
388.328	357.31
388.707	355.27
389.087	347.82
389.466	376.06
389.846	367.02
390.225	357.76
390.605	353.01
390.984	379
391.363	343.75
391.743	353.01
392.122	362.05
392.501	376.06
392.881	364.76
393.26	392.56
393.639	375.16
394.018	390.98
394.397	376.97
394.776	373.13
395.155	367.93
395.534	389.17
395.913	374.71
396.292	401.15
396.671	378.55
397.05	389.85
397.429	384.42
397.808	371.32
398.186	374.26
398.565	367.48
398.944	397.76
399.323	392.11
399.701	380.58
400.08	384.2
400.458	397.08
400.837	390.75
401.215	387.36
401.594	385.33
401.972	388.27
402.351	392.33
402.729	397.53
403.107	382.17
403.486	389.17
403.864	428.49
404.242	410.64
404.62	413.8
404.999	403.86
405.377	416.97
405.755	415.84
406.133	412.67
406.511	403.41
406.889	418.32
407.267	430.07
407.645	416.97
408.023	440.69
408.401	424.42
408.779	442.05
409.156	419.23
409.534	433.92
409.912	451.54
410.29	435.05
410.667	410.41
411.045	420.36
411.422	456.29
411.8	439.34
412.178	444.54
412.555	447.47
412.933	446.8
413.31	463.52
413.687	455.61
414.065	462.61
414.442	454.93
414.819	476.4
415.197	485.67
415.574	466.68
415.951	470.52
416.328	489.73
416.705	488.83
417.082	467.13
417.46	472.11
417.837	489.05
418.214	500.81
418.591	485.89
418.967	520.69
419.344	487.25
419.721	487.7
420.098	524.31
420.475	490.18
420.852	486.57
421.228	525.89
421.605	519.79
421.982	514.37
422.358	534.7
422.735	531.99
423.111	534.25
423.488	530.18
423.864	543.29
424.241	542.39
424.617	526.57
424.994	501.71
425.37	542.16
425.746	541.93
426.123	561.14
426.499	534.93
426.875	538.55
427.251	540.13
427.627	543.29
428.003	560.47
428.379	567.7
428.756	567.02
429.132	553.01
429.507	593.23
429.883	599.11
430.259	578.77
430.635	581.03
431.011	580.8
431.387	593.01
431.763	596.62
432.138	597.07
432.514	607.92
432.89	628.26
433.265	595.72
433.641	615.38
434.016	643.18
434.392	641.14
434.767	644.53
435.143	643.4
435.518	626.23
435.894	630.29
436.269	650.18
436.644	652.21
437.02	667.81
437.395	635.27
437.77	646.11
438.145	673.46
438.52	667.13
438.895	690.18
439.271	688.15
439.646	687.24
440.021	704.87
440.395	704.64
440.77	704.19
441.145	690.18
441.52	712.78
441.895	707.58
442.27	722.27
442.645	725.21
443.019	722.5
443.394	712.1
443.769	722.27
444.143	724.75
444.518	705.09
444.892	719.78
445.267	728.6
445.641	726.79
446.016	736.96
446.39	733.79
446.764	730.18
447.139	755.04
447.513	749.61
447.887	759.1
448.262	760.46
448.636	739.22
449.01	772.21
449.384	767.69
449.758	773.79
450.132	783.96
450.506	780.57
450.88	783.51
451.254	774.7
451.628	785.32
452.002	794.36
452.376	805.88
452.75	806.56
453.123	813.79
453.497	817.86
453.871	832.1
454.244	837.52
454.618	831.87
454.992	857.63
455.365	837.52
455.739	857.86
456.112	870.51
456.486	873.23
456.859	887.24
457.232	868.71
457.606	883.17
457.979	919.1
458.352	906.22
458.725	925.88
459.099	913.68
459.472	924.07
459.845	922.26
460.218	927.91
460.591	966.78
460.964	960.91
461.337	951.87
461.71	990.51
462.083	984.64
462.456	973.79
462.829	949.61
463.201	1012.66
463.574	996.61
463.947	1038.42
464.32	1006.78
464.692	1026.89
465.065	1025.99
465.438	1057.63
465.81	1054.46
466.183	1044.29
466.555	1071.64
466.928	1070.06
467.3	1049.04
467.672	1095.37
468.045	1131.75
468.417	1133.33
468.789	1103.95
469.161	1092.2
469.534	1152.99
469.906	1166.33
470.278	1160
470.65	1206.1
471.022	1189.83
471.394	1220.79
471.766	1214.69
472.138	1204.74
472.51	1286.77
472.882	1293.1
473.253	1261.69
473.625	1284.29
473.997	1329.26
474.369	1305.98
474.74	1317.96
475.112	1338.98
475.484	1360.67
475.855	1393.66
476.227	1388.69
476.598	1417.17
476.97	1419.65
477.341	1472.31
477.713	1490.84
478.084	1477.05
478.455	1490.16
478.827	1512.08
479.198	1551.63
479.569	1569.93
479.94	1583.26
480.311	1591.85
480.682	1618.06
481.053	1657.61
481.424	1691.28
481.795	1700.1
482.166	1740.55
482.537	1711.62
482.908	1771.51
483.279	1767.89
483.65	1815.57
484.021	1863.26
484.391	1856.25
484.762	1877.49
485.133	1882.24
485.503	1884.72
485.874	1963.37
486.244	1961.56
486.615	1975.8
486.985	1984.16
487.356	2030.26
487.726	2037.26
488.097	2068.45
488.467	2101.22
488.837	2130.37
489.207	2145.28
489.578	2146.41
489.948	2238.84
490.318	2228.44
490.688	2247.65
491.058	2267.09
491.428	2282.23
491.798	2315
492.168	2396.35
492.538	2382.56
492.908	2393.19
493.278	2412.62
493.648	2442
494.017	2443.81
494.387	2468.89
494.757	2492.39
495.126	2543.24
495.496	2493.97
495.866	2536.01
496.235	2583.69
496.605	2569.45
496.974	2606.51
497.344	2639.96
497.713	2637.25
498.082	2668.88
498.452	2685.61
498.821	2712.73
499.19	2688.09
499.559	2766.51
499.928	2750.69
500.298	2748.43
500.667	2831.59
501.036	2794.98
501.405	2845.15
501.774	2822.33
502.143	2827.98
502.512	2923.57
502.88	2924.92
503.249	2940.52
503.618	2948.43
503.987	2984.13
504.356	2982.77
504.724	2989.33
505.093	3027.75
505.462	3018.48
505.83	3041.76
506.199	3067.97
506.567	3091.92
506.936	3100.51
507.304	3134.64
507.672	3117.23
508.041	3162.88
508.409	3205.59
508.777	3217.57
509.145	3244.24
509.514	3270.45
509.882	3242.65
510.25	3321.07
510.618	3353.39
510.986	3340.96
511.354	3373.05
511.722	3413.72
512.09	3405.59
512.458	3412.59
512.826	3454.17
513.193	3486.26
513.561	3496.43
513.929	3514.06
514.297	3537.56
514.664	3550.9
515.032	3613.49
515.4	3642.64
515.767	3662.76
516.135	3670.44
516.502	3685.81
516.869	3739.59
517.237	3799.7
517.604	3762.42
517.972	3793.15
518.339	3838.57
518.706	3839.7
519.073	3886.25
519.44	3889.19
519.808	3916.08
520.175	3951.56
520.542	4006.48
520.909	3992.47
521.276	4022.75
521.643	4036.76
522.009	4111.78
522.376	4129.41
522.743	4193.14
523.11	4212.35
523.477	4260.03
523.843	4273.59
524.21	4295.06
524.577	4330.99
524.943	4372.79
525.31	4376.41
525.676	4424.09
526.043	4446.24
526.409	4457.76
526.776	4518.78
527.142	4504.77
527.508	4568.5
527.874	4605.56
528.241	4621.6
528.607	4634.71
528.973	4684.65
529.339	4718.32
529.705	4759.68
530.071	4783.63
530.437	4843.74
530.803	4829.73
531.169	4915.38
531.535	4875.83
531.901	4905.66
532.267	4907.92
532.632	4989.73
532.998	4978.2
533.364	5026.34
533.73	5092.78
534.095	5093
534.461	5064.75
534.826	5164.86
535.192	5213.68
535.557	5238.31
535.923	5237.4
536.288	5269.72
536.653	5272.88
537.019	5335.48
537.384	5312.88
537.749	5347.01
538.114	5360.34
538.479	5376.84
538.845	5427.23
539.21	5432.43
539.575	5424.07
539.94	5487.34
540.305	5489.38
540.67	5507.68
541.034	5553.55
541.399	5578.64
541.764	5596.72
542.129	5657.73
542.494	5646.43
542.858	5681.91
543.223	5767.11
543.587	5709.26
543.952	5721.23
544.316	5784.28
544.681	5791.74
545.045	5788.35
545.41	5858.63
545.774	5887.33
546.138	5898.63
546.503	5932.3
546.867	5938.63
547.231	5991.96
547.595	6063.82
547.959	6093.43
548.324	6102.01
548.688	6092.52
549.052	6119.42
549.416	6175.46
549.779	6187.89
550.143	6184.5
550.507	6257.94
550.871	6347.66
551.235	6321.22
551.599	6406.19
551.962	6415.68
552.326	6447.77
552.689	6445.73
553.053	6489.12
553.417	6490.48
553.78	6635.56
554.143	6617.71
554.507	6654.32
554.87	6753.97
555.234	6800.08
555.597	6729.34
555.96	6795.56
556.323	6903.12
556.686	6884.14
557.05	6962.33
557.413	7008.43
557.776	7054.76
558.139	7059.28
558.502	7114.64
558.865	7150.35
559.228	7187.86
559.59	7261.31
559.953	7351.02
560.316	7381.53
560.679	7417.46
561.041	7463.56
561.404	7629.43
561.767	7691.13
562.129	7676.44
562.492	7776.32
562.854	7816.77
563.217	7813.83
563.579	7829.88
563.941	7979.03
564.304	8040.95
564.666	8098.12
565.028	8220.38
565.39	8212.24
565.753	8378.34
566.115	8339.92
566.477	8461.73
566.839	8517.09
567.201	8612.01
567.563	8646.81
567.925	8741.04
568.287	8829.85
568.648	8929.28
569.01	9020.36
569.372	9103.29
569.734	9072.56
570.095	9244.98
570.457	9346.22
570.819	9370.63
571.18	9435.71
571.542	9531.76
571.903	9641.81
572.265	9771.75
572.626	9774.01
572.987	9846.1
573.349	9962.7
573.71	10067.11
574.071	10133.32
574.432	10344.16
574.794	10411.96
575.155	10504.16
575.516	10451.05
575.877	10669.35
576.238	10748.22
576.599	10900.98
576.96	10973.75
577.32	11093.52
577.681	11202.45
578.042	11356.57
578.403	11398.82
578.763	11564.7
579.124	11620.06
579.485	11842.2
579.845	11957.68
580.206	12069.54
580.566	12203.55
580.927	12385.24
581.287	12545.46
581.648	12697.77
582.008	12965.34
582.368	13124.65
582.728	13276.06
583.089	13410.07
583.449	13534.81
583.809	13735.94
584.169	13991.07
584.529	14178.86
584.889	14462.25
585.249	14505.86
585.609	14726.87
585.969	15059.97
586.329	15267.2
586.688	15419.51
587.048	15722.55
587.408	15891.14
587.768	16144.01
588.127	16388.98
588.487	16672.81
588.846	17160.71
589.206	17243.42
589.565	17482.28
589.925	17899.44
590.284	18164.3
590.643	18466.66
591.003	18867.78
591.362	19242.69
591.721	19449.23
592.08	19816.23
592.44	20209.67
592.799	20604.23
593.158	20781.85
593.517	21262.07
593.876	21584.77
594.235	21859.57
594.593	22250.06
594.952	22778.19
595.311	23125.52
595.67	23472.41
596.029	24013.18
596.387	24472.38
596.746	24885.02
597.104	25088.41
597.463	25501.28
597.822	25878.44
598.18	26254.03
598.538	26609.5
598.897	27117.28
599.255	27341.23
599.613	28105.96
599.972	28400.86
600.33	28923.34
600.688	29225.25
601.046	29605.35
601.404	30307.25
601.762	30541.37
602.12	31109.49
602.478	31461.35
602.836	32011.16
603.194	32063.82
603.552	32668.77
603.91	32967.97
604.268	33522.76
604.625	33760.27
604.983	34208.39
605.341	34498.78
605.698	35030.97
606.056	35528.13
606.413	35851.74
606.771	36211.51
607.128	36616.69
607.485	36728.55
607.843	37133.06
608.2	37684.24
608.557	38049.42
608.914	38168.06
609.272	38652.12
609.629	39029.51
609.986	39339.11
610.343	39450.97
610.7	40033.33
611.057	40207.56
611.414	40476.48
611.771	40854.1
612.127	41148.78
612.484	41406.4
612.841	41770.46
613.198	41769.55
613.554	42117.11
613.911	42402.98
614.267	42585.35
614.624	42965.68
614.98	43174.26
615.337	43405.44
615.693	43607.47
616.05	43681.59
616.406	44217.4
616.762	44152.09
617.118	44339.88
617.475	44502.59
617.831	44764.05
618.187	45123.59
618.543	45218.73
618.899	45665.49
619.255	45696.45
619.611	45783.23
619.967	46056.44
620.323	46259.38
620.678	46235.42
621.034	46293.27
621.39	46465.93
621.746	46516.55
622.101	47091.22
622.457	46738.46
622.812	46923.31
623.168	47144.78
623.523	47207.37
623.879	47398.78
624.234	47221.16
624.589	47536.86
624.945	47501.38
625.3	47710.86
625.655	47676.06
626.01	47865.44
626.365	47927.58
626.72	47961.48
627.075	48106.11
627.43	48176.39
627.785	48105.88
628.14	48273.79
628.495	48450.05
628.85	48434.46
629.205	48270.85
629.559	48634.68
629.914	48535.93
630.269	48637.39
630.623	48539.32
630.978	48447.34
631.332	48786.32
631.687	48953.32
632.041	48790.16
632.396	48845.75
632.75	48776.15
633.104	48840.55
633.459	48799.65
633.813	48670.61
634.167	48925.97
634.521	48867.67
634.875	48998.74
635.229	48902.92
635.583	48778.63
635.937	48858.4
636.291	48804.39
636.645	48886.88
636.999	48746.09
637.352	48974.33
637.706	48752.87
638.06	48948.35
638.413	48824.06
638.767	48853.88
639.121	48964.39
639.474	48753.1
639.828	48862.7
640.181	48907.44
640.534	49029.7
640.888	48803.94
641.241	48737.73
641.594	48892.98
641.947	48954.22
642.301	48794.45
642.654	48832.64
643.007	48873.32
643.36	48943.37
643.713	48846.88
644.066	48901.34
644.419	48727.56
644.771	48455.48
645.124	48053.45
645.477	48147.69
645.83	47914.02
646.182	47817.75
646.535	47689.4
646.888	47875.15
647.24	47668.83
647.593	47878.77
647.945	47879
648.298	47620.02
648.65	47687.36
649.002	47624.31
649.355	47697.08
649.707	47579.57
650.059	47817.75
650.411	48184.3
650.763	48300.68
651.115	48641.69
651.467	48576.6
651.819	48703.38
652.171	48560.79
652.523	48409.15
652.875	48541.58
653.227	48348.14
653.578	48655.47
653.93	48550.84
654.282	48396.95
654.633	48356.72
654.985	48450.51
655.337	48434.91
655.688	48448.25
656.039	48578.64
656.391	48237.63
656.742	48405.76
657.094	48300
657.445	48478.98
657.796	48254.58
658.147	48351.75
658.498	48328.93
658.849	48349.04
659.2	48078.76
659.551	48250.51
659.902	48215.71
660.253	48394.46
660.604	48401.92
660.955	48153.11
661.306	48328.7
661.656	48168.48
662.007	48300.68
662.358	48247.8
662.708	48270.4
663.059	48248.25
663.409	48027.47
663.76	48368.25
664.11	48275.6
664.461	48334.58
664.811	48289.15
665.161	48423.61
665.511	48218.65
665.862	48297.74
666.212	48311.07
666.562	48398.76
666.912	48357.17
667.262	48155.82
667.612	48231.08
667.962	48196.05
668.312	48159.21
668.662	48432.88
669.011	48270.62
669.361	48267.01
669.711	48186.11
670.06	48232.88
670.41	48109.27
670.76	47977.07
671.109	48063.62
671.459	48120.12
671.808	48126.9
672.157	48121.93
672.507	47850.97
672.856	47999.9
673.205	48042.83
673.554	47939.56
673.904	47921.03
674.253	48183.39
674.602	47851.65
674.951	47580.47
675.3	47331.67
675.649	47867.92
675.998	47735.04
676.346	47883.74
676.695	48067.01
677.044	47725.1
677.393	47931.42
677.741	47884.64
678.09	47756.51
678.438	47675.84
678.787	47628.38
679.135	47763.74
679.484	47489.63
679.832	47544.99
680.181	47334.6
680.529	47561.26
680.877	47461.83
681.225	47314.94
681.573	47630.64
681.922	47153.59
682.27	47091.9
682.618	47330.54
682.966	47116.3
683.314	47083.54
683.661	47131.9
684.009	46833.37
684.357	46756.54
684.705	46761.28
685.053	46837.89
685.4	46777.78
685.748	46644.9
686.095	46514.74
686.443	46452.59
686.79	46397
687.138	46580.95
687.485	46452.37
687.832	46277.91
688.18	46260.28
688.527	46076.56
688.874	46118.82
689.221	46065.48
689.568	45849.67
689.915	45942.55
690.262	45877.24
690.609	45848.54
690.956	45529
691.303	45489.68
691.65	45397.7
691.997	45446.74
692.344	45085.4
692.69	45158.16
693.037	45242.68
693.383	44884.95
693.73	45041.56
694.077	44730.83
694.423	44868.68
694.769	44630.04
695.116	44571.74
695.462	44434.79
695.808	44338.07
696.155	44330.84
696.501	44170.17
696.847	44199.54
697.193	43829.38
697.539	43867.8
697.885	43607.7
698.231	43774.02
698.577	43573.12
698.923	43498.77
699.269	43242.06
699.614	43125.22
699.96	43061.72
700.306	43127.48
700.651	42912.12
700.997	42841.16
701.342	42744.22
701.688	42612.47
702.033	42608.17
702.379	42543.77
702.724	42320.72
703.069	42377.22
703.415	41871.47
703.76	42042.76
704.105	42001.41
704.45	41904.24
704.795	41687.75
705.14	41722.32
705.485	41544.47
705.83	41418.83
706.175	41553.74
706.52	41445.72
706.865	41279.85
707.209	41266.74
707.554	41146.52
707.899	41199.62
708.243	40927.54
708.588	40947.2
708.932	40716.25
709.277	40618.62
709.621	40515.8
709.966	40236.03
710.31	40388.34
710.654	39941.58
710.998	40195.81
711.342	40313.09
711.687	40173.21
712.031	39916.04
712.375	39911.07
712.719	39871.3
713.063	40004.4
713.407	39729.61
713.75	39569.61
714.094	39706.33
714.438	39475.37
714.782	39525.77
715.125	39344.08
715.469	39361.48
715.812	39161.26
716.156	39014.14
716.499	38964.2
716.843	39056.85
717.186	38853.02
717.53	39045.56
717.873	38939.8
718.216	38690.31
718.559	38645.34
718.902	38405.12
719.246	38571.9
719.589	38436.08
719.932	38407.38
720.275	38248.51
720.617	38279.02
720.96	38104.56
721.303	38096.88
721.646	38188.18
721.989	37818.92
722.331	38123.77
722.674	37893.5
723.016	37998.13
723.359	37878.13
723.701	37868.86
724.044	37653.28
724.386	37423.68
724.729	37654.41
725.071	37411.47
725.413	37470.68
725.755	37459.83
726.097	37319.05
726.439	37253.29
726.782	37084.7
727.124	37331.93
727.465	37013.29
727.807	37035.21
728.149	36998.6
728.491	37002.9
728.833	37038.38
729.175	36831.15
729.516	36828.89
729.858	36726.97
730.199	36856.46
730.541	36687.65
730.882	36553.42
731.224	36694.88
731.565	36479.52
731.906	36401.11
732.248	36507.32
732.589	36351.61
732.93	36263.93
733.271	36292.18
733.612	36195.01
733.953	36252.18
734.294	36021.68
734.635	36014.22
734.976	36204.27
735.317	35888.58
735.658	35873.66
735.999	36028.91
736.339	35866.66
736.68	35994.34
737.021	35954.79
737.361	35742.37
737.702	35789.82
738.042	35580.34
738.383	35531.3
738.723	35626.89
739.063	35574.91
739.404	35626.66
739.744	35424.63
740.084	35284.98
740.424	35389.15
740.764	35299.44
741.104	35341.7
741.444	35186.9
741.784	35089.5
742.124	35270.06
742.464	35011.09
742.804	35073.68
743.143	35027.81
743.483	35049.95
743.823	34847.25
744.162	34691.09
744.502	34914.82
744.841	34783.29
745.181	34935.38
745.52	34580.14
745.86	34689.29
746.199	34581.04
746.538	34561.83
746.877	34666.24
747.216	34675.95
747.556	34609.97
747.895	34545.79
748.234	34333.59
748.573	34225.79
748.911	34180.15
749.25	34209.98
749.589	34092.01
749.928	34136.98
750.267	34016.31
750.605	33982.41
750.944	33997.33
751.283	33807.5
751.621	33860.38
751.96	33654.74
752.298	33685.7
752.636	33644.12
752.975	33554.17
753.313	33396.66
753.651	33567.96
753.989	33319.15
754.327	33299.49
754.666	33082.55
755.004	33123.45
755.342	33132.94
755.679	33243.22
756.017	32899.95
756.355	32974.53
756.693	32830.58
757.031	32864.7
757.368	32758.71
757.706	32691.82
758.044	32680.98
758.381	32555.1
758.719	32395.56
759.056	32489.12
759.394	32306.52
759.731	32207.32
760.068	32049.58
760.405	31881
760.743	31963.71
761.08	32103.82
761.417	31802.13
761.754	31682.81
762.091	31731.17
762.428	31445.08
762.765	31340.9
763.102	31537.5
763.438	31288.47
763.775	31193.11
764.112	31139.1
764.449	31051.87
764.785	30895.71
765.122	30729.62
765.458	30725.32
765.795	30647.13
766.131	30665.66
766.467	30488.94
766.804	30229.74
767.14	30251.21
767.476	30283.75
767.812	30036.53
768.148	29999.69
768.485	29960.37
768.821	29751.34
769.157	29780.26
769.492	29666.37
769.828	29668.85
770.164	29283.55
770.5	29328.3
770.836	29390.22
771.171	29106.61
771.507	29027.29
771.842	28855.09
772.178	28879.72
772.513	28772.15
772.849	28808.54
773.184	28496.91
773.519	28564.93
773.855	28538.49
774.19	28296.91
774.525	28148.44
774.86	28140.76
775.195	28209.23
775.53	27949.35
775.865	27830.93
776.2	27668.91
776.535	27553.88
776.87	27576.48
777.205	27448.12
777.539	27360.21
777.874	27304.17
778.209	27177.84
778.543	27070.28
778.878	26919.55
779.212	26955.7
779.547	26864.41
779.881	26807.68
780.215	26575.6
780.55	26586
780.884	26447.92
781.218	26427.13
781.552	26322.73
781.886	26198.44
782.22	26027.37
782.554	26123.64
782.888	25804.77
783.222	25764.55
783.556	25526.36
783.889	25603.87
784.223	25396.87
784.557	25364.56
784.89	25398.46
785.224	25121.85
785.557	25023.55
785.891	25003.44
786.224	24911.92
786.558	24830.34
786.891	24846.15
787.224	24560.96
787.557	24605.03
787.891	24559.83
788.224	24392.16
788.557	24557.8
788.89	24396.45
789.223	24350.12
789.556	24188.09
789.888	24212.5
790.221	24059.06
790.554	23839.18
790.887	23929.57
791.219	23779.97
791.552	23724.83
791.884	23491.84
792.217	23550.37
792.549	23323.93
792.882	23233.54
793.214	23203.94
793.546	23130.95
793.879	23027.9
794.211	22988.35
794.543	23013.43
794.875	22853.89
795.207	22894.12
795.539	22784.29
795.871	22795.14
796.203	22502.71
796.535	22463.17
796.867	22484.86
797.198	22385.43
797.53	22300.01
797.862	22276.05
798.193	22249.84
798.525	22073.8
798.856	21995.38
799.188	21931.43
799.519	21979.11
799.85	21759.46
800.182	21883.52
800.513	21769.17
800.844	21620.25
801.175	21656.86
801.506	21641.95
801.837	21586.81
802.168	21345
802.499	21332.12
802.83	21254.61
803.161	21198.11
803.491	21145.23
803.822	21111.56
804.153	20992.24
804.483	20892.36
804.814	20804.45
805.145	20845.58
805.475	20778.69
805.805	20721.97
806.136	20737.56
806.466	20625.7
806.796	20580.96
807.126	20378.25
807.457	20383.22
807.787	20389.32
808.117	20243.11
808.447	20219.84
808.777	20340.51
809.107	20119.27
809.436	20208.31
809.766	20071.59
810.096	19913.63
810.426	19877.92
810.755	19916.57
811.085	19838.38
811.414	19830.69
811.744	19591.15
812.073	19557.25
812.403	19644.94
812.732	19561.32
813.061	19520.19
813.39	19389.35
813.719	19346.64
814.049	19411.95
814.378	19236.13
814.707	19226.87
815.036	19290.37
815.365	19061.67
815.693	19066.42
816.022	19008.79
816.351	18917.5
816.68	18844.05
817.008	18847.44
817.337	18794.56
817.665	18672.53
817.994	18764.73
818.322	18695.81
818.651	18653.78
818.979	18499.43
819.307	18616.94
819.636	18568.58
819.964	18445.19
820.292	18494.91
820.62	18420.11
820.948	18360.22
821.276	18488.81
821.604	18423.05
821.932	18441.13
822.259	18455.14
822.587	18384.63
822.915	18404.52
823.243	18422.59
823.57	18311.41
823.898	18334.01
824.225	18409.04
824.553	18282.49
824.88	18364.52
825.207	18339.43
825.535	18191.87
825.862	18369.49
826.189	18332.2
826.516	18426.89
826.843	18322.94
827.17	18284.29
827.497	18421.24
827.824	18392.09
828.151	18293.33
828.478	18310.28
828.805	18322.94
829.131	18160.91
829.458	18239.77
829.785	18259.89
830.111	18284.29
830.438	18216.95
830.764	18209.72
831.09	18329.04
831.417	18226.89
831.743	18296.04
832.069	18256.5
832.395	18108.03
832.722	18204.52
833.048	18133.34
833.374	18134.24
833.7	18057.86
834.026	18095.37
834.351	18143.28
834.677	18181.92
835.003	18146.9
835.329	18002.72
835.654	18047.69
835.98	18056.95
836.306	17932.66
836.631	17854.47
836.956	17914.36
837.282	17872.1
837.607	17861.03
837.932	17832.33
838.258	17826.45
838.583	17821.93
838.908	17742.84
839.233	17800.46
839.558	17705.78
839.883	17652.67
840.208	17546.01
840.533	17562.5
840.858	17646.34
841.182	17572
841.507	17611.77
841.832	17474.15
842.156	17417.88
842.481	17377.65
842.805	17348.27
843.13	17321.61
843.454	17289.07
843.778	17151.89
844.103	17236.86
844.427	17086.58
844.751	17200.71
845.075	17031.22
845.399	17030.09
845.723	16958.45
846.047	16943.31
846.371	16857.66
846.695	16878.68
847.019	16633.49
847.343	16578.58
847.666	16517.56
847.99	16443.89
848.313	16461.29
848.637	16245.93
848.96	16280.73
849.284	16333.16
849.607	16170
849.931	16176.55
850.254	16008.19
850.577	15950.8
850.9	15835.32
851.223	15831.25
851.546	15689.56
851.869	15619.05
852.192	15765.94
852.515	15574.31
852.838	15441.43
853.161	15491.37
853.483	15497.25
853.806	15370.25
854.129	15320.98
854.451	15317.82
854.774	15253.41
855.096	15218.84
855.419	15048.9
855.741	15117.37
856.063	15023.36
856.385	15015.9
856.708	15000.76
857.03	14979.75
857.352	14936.58
857.674	14823.59
857.996	14697.49
858.318	14661.11
858.64	14649.13
858.961	14652.07
859.283	14537.73
859.605	14555.13
859.926	14655.91
860.248	14478.52
860.57	14510.61
860.891	14364.17
861.212	14334.57
861.534	14289.37
861.855	14292.76
862.176	14420.89
862.498	14269.94
862.819	14193.1
863.14	14181.12
863.461	14217.96
863.782	14118.53
864.103	14115.59
864.424	14088.02
864.745	14148.81
865.065	14039.66
865.386	14031.52
865.707	14001.02
866.027	13916.27
866.348	13957.63
866.668	13868.59
866.989	13895.93
867.309	13787.24
867.63	13882.83
867.95	13858.87
868.27	13727.35
868.59	13762.15
868.91	13776.39
869.23	13634.92
869.55	13638.09
869.87	13707.01
870.19	13641.48
870.51	13592.89
870.83	13701.36
871.15	13562.61
871.469	13595.38
871.789	13488.49
872.109	13508.37
872.428	13371.88
872.748	13518.32
873.067	13503.4
873.386	13415.49
873.706	13427.92
874.025	13368.26
874.344	13300.02
874.663	13352.67
874.982	13309.06
875.301	13353.12
875.62	13314.03
875.939	13230.19
876.258	13266.8
876.577	13202.62
876.896	13183.64
877.214	13245.56
877.533	13179.79
877.852	13121.27
878.17	13154.71
878.489	13072.45
878.807	13079.46
879.125	13027.48
879.444	12997.43
879.762	12972.34
880.08	12989.07
880.398	13053.02
880.716	12956.98
881.034	12880.59
881.352	12918.78
881.67	12880.82
881.988	12922.17
882.306	12907.03
882.624	12827.94
882.941	12770.99
883.259	12728.73
883.577	12639.02
883.894	12660.03
884.212	12594.95
884.529	12639.02
884.846	12628.4
885.164	12526.7
885.481	12513.82
885.798	12505.24
886.115	12405.35
886.432	12421.4
886.75	12298.46
887.067	12377.56
887.383	12319.7
887.7	12392.02
888.017	12262.3
888.334	12248.29
888.651	12158.58
888.967	12139.37
889.284	12107.28
889.6	12020.5
889.917	11976.44
890.233	12090.33
890.55	11888.53
890.866	11943.44
891.182	11982.09
891.498	11808.98
891.815	11810.34
892.131	11741.64
892.447	11812.15
892.763	11728.76
893.079	11716.1
893.395	11746.84
893.71	11694.41
894.026	11577.35
894.342	11590.68
894.657	11479.5
894.973	11485.83
895.289	11485.38
895.604	11452.61
895.92	11298.71
896.235	11410.8
896.55	11364.02
896.865	11282.67
897.181	11256
897.496	11228.21
897.811	11122
898.126	11150.24
898.441	11176.68
898.756	11092.84
899.071	10998.61
899.386	10943.02
899.7	10837.03
900.015	10825.73
900.33	10839.29
900.644	10698.5
900.959	10832.74
901.273	10752.97
901.588	10708.67
901.902	10640.88
902.216	10675.45
902.531	10585.74
902.845	10509.58
903.159	10529.47
903.473	10449.02
903.787	10440.21
904.101	10338.97
904.415	10395.91
904.729	10345.29
905.042	10252.87
905.356	10283.15
905.67	10251.74
905.984	10229.14
906.297	10137.16
906.611	10055.36
906.924	10049.26
907.237	10081.8
907.551	9992.76
907.864	9936.72
908.177	9869.15
908.491	9907.79
908.804	9812.43
909.117	9769.04
909.43	9735.37
909.743	9730.17
910.056	9700.56
910.368	9573.79
910.681	9557.52
910.994	9551.64
911.307	9504.19
911.619	9454.69
911.932	9491.98
912.244	9315.72
912.557	9370.63
912.869	9281.82
913.181	9336.73
913.494	9235.72
913.806	9182.16
914.118	9143.52
914.43	9111.88
914.742	9102.61
915.054	9038.66
915.366	8950.3
915.678	8988.27
915.99	8924.77
916.302	8864.65
916.613	8849.06
916.925	8828.95
917.236	8816.75
917.548	8776.75
917.859	8783.3
918.171	8679.12
918.482	8670.31
918.794	8625.79
919.105	8565.23
919.416	8520.48
919.727	8505.57
920.038	8463.31
920.349	8402.75
920.66	8393.71
920.971	8379.24
921.282	8326.59
921.593	8229.42
921.903	8199.13
922.214	8166.82
922.525	8157.55
922.835	8136.76
923.146	8079.14
923.456	8100.61
923.767	8035.98
924.077	8027.39
924.387	7965.02
924.697	7863.32
925.008	7865.81
925.318	7908.75
925.628	7873.49
925.938	7834.4
926.248	7740.16
926.558	7686.15
926.867	7633.95
927.177	7624.46
927.487	7600.51
927.796	7551.02
928.106	7518.7
928.416	7469.89
928.725	7482.54
929.034	7426.95
929.344	7396.44
929.653	7434.41
929.962	7327.75
930.271	7264.02
930.581	7320.51
930.89	7210.01
931.199	7178.14
931.508	7207.07
931.817	7107.41
932.125	7093.4
932.434	7111.03
932.743	6987.64
933.051	7006.85
933.36	6951.94
933.669	6951.03
933.977	6931.37
934.286	6909
934.594	6904.48
934.902	6836.46
935.21	6730.7
935.519	6776.57
935.827	6774.09
936.135	6699.29
936.443	6639.63
936.751	6680.76
937.059	6678.72
937.367	6601.89
937.674	6662.23
937.982	6586.52
938.29	6539.97
938.597	6529.12
938.905	6386.08
939.213	6473.76
939.52	6379.52
939.827	6349.92
940.135	6309.47
940.442	6311.73
940.749	6343.36
941.056	6294.55
941.363	6254.78
941.67	6226.76
941.977	6192.18
942.284	6156.7
942.591	6135.01
942.898	6076.03
943.205	6101.56
943.511	6030.38
943.818	6045.29
944.125	6005.97
944.431	5989.02
944.738	5935.24
945.044	5911.29
945.35	5905.64
945.657	5822.93
945.963	5803.04
946.269	5871.96
946.575	5809.59
946.881	5783.6
947.187	5751.74
947.493	5684.62
947.799	5740.44
948.105	5664.51
948.41	5644.63
948.716	5624.51
949.022	5602.14
949.327	5608.47
949.633	5555.59
949.938	5514.46
950.244	5548.13
950.549	5449.83
950.854	5438.3
951.16	5429.26
951.465	5365.99
951.77	5366.89
952.075	5356.5
952.38	5292.32
952.685	5318.08
952.99	5281.92
953.294	5270.17
953.599	5205.32
953.904	5185.88
954.209	5159.89
954.513	5159.44
954.818	5156.95
955.122	5128.71
955.426	5090.29
955.731	5050.29
956.035	5015.94
956.339	4999.44
956.643	5034.47
956.948	4955.15
957.252	4943.18
957.556	4947.47
957.86	4888.49
958.163	4917.64
958.467	4856.4
958.771	4834.7
959.075	4848.71
959.378	4775.5
959.682	4808.94
959.985	4736.17
960.289	4754.93
960.592	4695.72
960.896	4734.82
961.199	4645.1
961.502	4649.85
961.805	4563.07
962.108	4609.62
962.411	4582.96
962.714	4533.47
963.017	4605.56
963.32	4563.52
963.623	4538.89
963.926	4492.79
964.228	4472
964.531	4453.92
964.833	4416.41
965.136	4443.53
965.438	4406.69
965.741	4414.15
966.043	4361.95
966.345	4325.79
966.648	4331.21
966.95	4269.52
967.252	4287.6
967.554	4243.98
967.856	4233.59
968.158	4231.1
968.46	4187.04
968.761	4179.13
969.063	4176.64
969.365	4139.35
969.666	4159.01
969.968	4108.39
970.269	4107.94
970.571	4116.76
970.872	4065.23
971.174	3992.24
971.475	3990.88
971.776	3991.79
972.077	3986.59
972.378	3986.82
972.679	3949.98
972.98	3976.42
973.281	3937.33
973.582	3874.05
973.883	3885.8
974.183	3869.76
974.484	3861.85
974.785	3814.62
975.085	3792.47
975.386	3786.82
975.686	3800.38
975.986	3775.52
976.287	3705.92
976.587	3702.53
976.887	3694.17
977.187	3694.62
977.487	3643.55
977.787	3636.09
978.087	3601.06
978.387	3660.27
978.687	3649.88
978.987	3622.53
979.286	3603.32
979.586	3559.93
979.885	3506.15
980.185	3522.65
980.484	3524.68
980.784	3511.57
981.083	3481.52
981.382	3432.48
981.682	3476.1
981.981	3429.54
982.28	3402.65
982.579	3423.44
982.878	3458.47
983.177	3367.4
983.475	3384.8
983.774	3361.3
984.073	3304.12
984.372	3303.67
984.67	3308.87
984.969	3252.37
985.267	3291.47
985.566	3274.29
985.864	3244.69
986.162	3199.94
986.461	3231.36
986.759	3187.52
987.057	3187.74
987.355	3172.37
987.653	3143.45
987.951	3093.73
988.249	3156.78
988.547	3106.84
988.844	3099.16
989.142	3075.88
989.44	3026.39
989.737	3042.21
990.035	3055.99
990.332	3021.42
990.63	3017.35
990.927	2981.87
991.224	2969.89
991.521	2967.41
991.819	2947.75
992.116	2972.83
992.413	2920.63
992.71	2905.49
993.006	2870.91
993.303	2875.21
993.6	2871.82
993.897	2840.41
994.193	2825.94
994.49	2820.75
994.787	2778.49
995.083	2806.28
995.379	2797.69
995.676	2771.93
995.972	2749.79
996.268	2764.7
996.565	2707.75
996.861	2713.18
997.157	2722.67
997.453	2680.64
997.749	2652.16
998.044	2639.73
998.34	2641.99
998.636	2612.16
998.932	2627.98
999.227	2597.7
999.523	2584.59
999.818	2577.36
1000.114	2535.33
1000.409	2560.19
1000.704	2512.96
1001	2539.17
1001.295	2531.04
1001.59	2473.41
1001.885	2514.31
1002.18	2453.98
1002.475	2412.62
1002.77	2470.02
1003.065	2437.93
1003.359	2397.71
1003.654	2391.83
1003.949	2346.63
1004.243	2391.83
1004.538	2353.19
1004.832	2364.49
1005.127	2340.98
1005.421	2335.79
1005.715	2329.91
1006.009	2317.71
1006.304	2254.88
1006.598	2229.57
1006.892	2239.97
1007.186	2235.22
1007.48	2235.68
1007.773	2203.59
1008.067	2206.3
1008.361	2192.06
1008.655	2157.49
1008.948	2128.56
1009.242	2172.63
1009.535	2127.66
1009.829	2129.69
1010.122	2088.11
1010.415	2090.37
1010.708	2073.19
1011.001	2088.33
1011.295	2038.17
1011.588	2016.92
1011.881	2042.23
1012.173	1985.29
1012.466	2007.89
1012.759	2003.59
1013.052	1976.93
1013.344	2001.33
1013.637	1945.51
1013.93	1939.19
1014.222	1947.77
1014.514	1957.04
1014.807	1930.6
1015.099	1892.86
1015.391	1890.6
1015.683	1862.13
1015.976	1906.87
1016.268	1856.48
1016.56	1821.45
1016.851	1813.09
1017.143	1823.71
1017.435	1797.72
1017.727	1782.81
1018.018	1786.42
1018.31	1751.85
1018.602	1777.61
1018.893	1757.27
1019.185	1748.46
1019.476	1710.04
1019.767	1737.16
1020.058	1731.28
1020.35	1675.69
1020.641	1670.72
1020.932	1648.12
1021.223	1622.58
1021.514	1642.24
1021.804	1608.57
1022.095	1617.84
1022.386	1607.22
1022.677	1600.21
1022.967	1604.05
1023.258	1606.09
1023.548	1592.98
1023.839	1556.82
1024.129	1538.07
1024.419	1537.84
1024.709	1526.99
1025	1519.31
1025.29	1481.8
1025.58	1483.15
1025.87	1488.12
1026.16	1478.18
1026.449	1484.28
1026.739	1459.88
1027.029	1473.44
1027.319	1444.51
1027.608	1420.78
1027.898	1423.27
1028.187	1437.5
1028.477	1382.82
1028.766	1403.16
1029.055	1369.71
1029.344	1368.81
1029.634	1358.41
1029.923	1317.06
1030.212	1341.24
1030.501	1340.33
1030.79	1343.27
1031.078	1324.29
1031.367	1304.63
1031.656	1294.01
1031.945	1292.65
1032.233	1295.81
1032.522	1290.39
1032.81	1257.62
1033.099	1240
1033.387	1235.02
1033.675	1241.58
1033.963	1229.15
1034.251	1259.66
1034.54	1186.21
1034.828	1188.25
1035.116	1205.19
1035.403	1230.28
1035.691	1172.88
1035.979	1180.11
1036.267	1152.77
1036.554	1152.99
1036.842	1146.21
1037.129	1136.72
1037.417	1114.35
1037.704	1136.27
1037.992	1129.04
1038.279	1102.37
1038.566	1077.29
1038.853	1077.29
1039.14	1077.29
