Data from red_shiny_book_FLMS001491_00028.txt Node
Date: Wed Feb 08 15:24:38 GMT 2017
User: dcchb
Spectrometer: FLMS00149
Trigger mode: 0
Integration Time (sec): 2.000000E-2
Scans to average: 10
Electric dark correction enabled: true
Nonlinearity correction enabled: false
Boxcar width: 0
XAxis mode: Wavelengths
Number of Pixels in Spectrum: 2048
>>>>>Begin Spectral Data<<<<<
341.393	-20.8
341.776	-20.8
342.16	-20.8
342.543	-68.71
342.927	-68.49
343.31	-63.97
343.693	-87.02
344.077	-68.03
344.46	-59.22
344.843	-56.96
345.226	-45.66
345.61	-19.45
345.993	-19.67
346.376	-9.96
346.759	32.75
347.142	28.46
347.525	36.14
347.908	67.1
348.291	65.52
348.674	96.71
349.057	103.26
349.44	130.6
349.823	141.23
350.206	168.12
350.588	188.46
350.971	206.08
351.354	225.97
351.737	261.9
352.119	258.28
352.502	277.49
352.884	280.88
353.267	281.33
353.65	311.62
354.032	303.71
354.414	317.04
354.797	321.33
355.179	339.64
355.562	344.16
355.944	366.98
356.326	348.9
356.709	332.63
357.091	343.48
357.473	362.91
357.855	346.64
358.238	340.09
358.62	331.05
359.002	348.9
359.384	348.23
359.766	343.03
360.148	351.84
360.53	345.97
360.912	345.29
361.294	344.84
361.676	334.44
362.057	360.43
362.439	355.46
362.821	337.6
363.203	318.85
363.584	335.57
363.966	341.22
364.348	336.25
364.729	319.3
365.111	331.05
365.493	322.69
365.874	322.24
366.256	338.06
366.637	322.01
367.019	329.24
367.4	317.27
367.781	325.4
368.163	338.28
368.544	315.68
368.925	349.81
369.306	302.8
369.688	317.94
370.069	332.86
370.45	319.75
370.831	325.63
371.212	295.12
371.593	320.88
371.974	331.28
372.355	344.84
372.736	326.53
373.117	355.23
373.498	344.61
373.879	315.01
374.26	335.12
374.641	343.25
375.021	321.11
375.402	327.89
375.783	333.54
376.163	345.97
376.544	352.07
376.925	345.06
377.305	333.08
377.686	331.05
378.066	324.95
378.447	330.15
378.827	359.52
379.208	329.92
379.588	328.34
379.968	338.28
380.349	345.06
380.729	341.67
381.109	348.68
381.489	328.11
381.87	346.42
382.25	369.92
382.63	367.66
383.01	360.2
383.39	369.47
383.77	374.67
384.15	359.52
384.53	370.15
384.91	355.46
385.29	355.46
385.67	364.04
386.049	370.82
386.429	382.57
386.809	367.66
387.189	386.87
387.568	369.69
387.948	392.29
388.328	390.03
388.707	384.83
389.087	378.06
389.466	358.85
389.846	396.59
390.225	411.95
390.605	392.74
390.984	407.88
391.363	394.78
391.743	401.33
392.122	397.04
392.501	389.35
392.881	391.61
393.26	374.89
393.639	420.77
394.018	384.83
394.397	390.94
394.776	400.88
395.155	409.92
395.534	405.17
395.913	408.34
396.292	426.87
396.671	436.58
397.05	417.38
397.429	411.95
397.808	415.34
398.186	417.15
398.565	417.6
398.944	429.81
399.323	430.71
399.701	425.74
400.08	425.29
400.458	420.31
400.837	451.95
401.215	435.91
401.594	446.53
401.972	452.18
402.351	418.05
402.729	469.35
403.107	448.34
403.486	441.78
403.864	463.48
404.242	468
404.62	441.78
404.999	465.28
405.377	465.51
405.755	484.04
406.133	457.37
406.511	460.76
406.889	480.2
407.267	487.66
407.645	493.08
408.023	489.92
408.401	491.72
408.779	509.35
409.156	490.82
409.534	509.13
409.912	504.38
410.29	537.6
410.667	505.51
411.045	505.96
411.422	540.31
411.8	526.75
412.178	536.47
412.555	529.01
412.933	547.77
413.31	555.45
413.687	552.97
414.065	547.09
414.442	532.63
414.819	542.12
415.197	559.75
415.574	581.21
415.951	588.22
416.328	596.35
416.705	609.69
417.082	619.18
417.46	602.91
417.837	606.3
418.214	613.3
418.591	621.21
418.967	615.11
419.344	636.13
419.721	645.84
420.098	654.88
420.475	667.31
420.852	656.24
421.228	659.18
421.605	631.83
421.982	663.92
422.358	651.04
422.735	662.34
423.111	654.43
423.488	696.01
423.864	711.15
424.241	725.39
424.617	731.72
424.994	731.27
425.37	701.21
425.746	712.96
426.123	697.14
426.499	719.06
426.875	707.54
427.251	731.49
427.627	733.3
428.003	778.95
428.379	763.36
428.756	778.27
429.132	780.53
429.507	806.52
429.883	823.24
430.259	794.99
430.635	785.05
431.011	800.64
431.387	805.84
431.763	807.87
432.138	840.64
432.514	850.58
432.89	870.02
433.265	857.59
433.641	870.7
434.016	888.32
434.392	888.78
434.767	915.44
435.143	863.69
435.518	879.06
435.894	894.65
436.269	905.27
436.644	911.83
437.02	953.86
437.395	930.81
437.77	988.66
438.145	997.7
438.52	975.33
438.895	989.11
439.271	959.96
439.646	963.12
440.021	971.94
440.395	981.43
440.77	976.23
441.145	974.2
441.52	1019.85
441.895	1048.77
442.27	1061.43
442.645	1057.13
443.019	1054.87
443.394	1028.89
443.769	1032.95
444.143	1023.69
444.518	1037.7
444.892	1019.39
445.267	1054.42
445.641	1057.36
446.016	1070.69
446.39	1106.85
446.764	1134.19
447.139	1147.98
447.513	1140.97
447.887	1120.41
448.262	1134.87
448.636	1125.15
449.01	1106.85
449.384	1108.66
449.758	1116.79
450.132	1123.35
450.506	1120.41
450.88	1154.98
451.254	1198.37
451.628	1209.9
452.002	1192.95
452.376	1230.69
452.75	1253.51
453.123	1213.51
453.497	1217.13
453.871	1195.66
454.244	1201.54
454.618	1209.9
454.992	1212.16
455.365	1245.15
455.739	1300.52
456.112	1324.02
456.486	1309.33
456.859	1351.81
457.232	1355.88
457.606	1359.5
457.979	1345.26
458.352	1343
458.725	1315.66
459.099	1317.69
459.472	1361.76
459.845	1346.84
460.218	1381.64
460.591	1405.37
460.964	1437.91
461.337	1475.43
461.71	1486.05
462.083	1505.48
462.456	1511.58
462.829	1495.09
463.201	1476.33
463.574	1454.64
463.947	1435.2
464.32	1452.38
464.692	1497.8
465.065	1529.21
465.438	1562.2
465.81	1625.25
466.183	1673.39
466.555	1700.05
466.928	1723.33
467.3	1682.65
467.672	1708.64
468.045	1722.88
468.417	1686.5
468.789	1654.41
469.161	1680.62
469.534	1640.39
469.906	1698.25
470.278	1730.79
470.65	1799.26
471.022	1850.33
471.394	1911.57
471.766	1942.99
472.138	1974.85
472.51	1994.51
472.882	2048.52
473.253	2024.79
473.625	1948.86
473.997	1975.98
474.369	1958.35
474.74	1930.78
475.112	2006.26
475.484	2020.05
475.855	2098.91
476.227	2149.08
476.598	2251.45
476.97	2277.44
477.341	2363.54
477.713	2415.29
478.084	2386.82
478.455	2441.05
478.827	2400.15
479.198	2388.85
479.569	2355.63
479.94	2380.04
480.311	2401.96
480.682	2447.15
481.053	2523.99
481.424	2618.9
481.795	2706.36
482.166	2780.7
482.537	2857.76
482.908	2934.15
483.279	2971.21
483.65	2984.99
484.021	3022.73
484.391	3004.2
484.762	2932.34
485.133	2950.42
485.503	2899.12
485.874	2971.89
486.244	3004.2
486.615	3071.32
486.985	3201.94
487.356	3279.22
487.726	3410.07
488.097	3573
488.467	3555.6
488.837	3660.68
489.207	3700
489.578	3721.02
489.948	3653.9
490.318	3623.39
490.688	3540.46
491.058	3529.84
491.428	3578.42
491.798	3590.63
492.168	3730.06
492.538	3760.79
492.908	3917.4
493.278	4045.08
493.648	4090.95
494.017	4267.22
494.387	4337.5
494.757	4348.8
495.126	4386.31
495.496	4313.32
495.866	4268.57
496.235	4256.15
496.605	4206.2
496.974	4093.66
497.344	4167.11
497.713	4142.25
498.082	4183.38
498.452	4346.31
498.821	4443.48
499.19	4560.09
499.559	4693.87
499.928	4818.84
500.298	4881.21
500.667	4899.97
501.036	4889.35
501.405	4885.28
501.774	4743.59
502.143	4700.43
502.512	4600.54
502.88	4556.02
503.249	4513.09
503.618	4532.97
503.987	4630.15
504.356	4693.2
504.724	4803.02
505.093	4930.03
505.462	5074.65
505.83	5222.22
506.199	5236.23
506.567	5347.42
506.936	5290.47
507.304	5356.91
507.672	5222.45
508.041	5153.07
508.409	5090.25
508.777	5030.81
509.145	4892.96
509.514	4904.72
509.882	4916.47
510.25	4973.41
510.618	5098.16
510.986	5228.77
511.354	5419.28
511.722	5561.65
512.09	5630.57
512.458	5699.95
512.826	5752.83
513.193	5797.57
513.561	5702.89
513.929	5685.03
514.297	5611.36
514.664	5501.99
515.032	5440.75
515.4	5341.77
515.767	5356.91
516.135	5264.48
516.502	5232.39
516.869	5449.79
517.237	5594.19
517.604	5723
517.972	5924.35
518.339	6075.31
518.706	6143.55
519.073	6226.71
519.44	6361.17
519.808	6266.26
520.175	6186.94
520.542	6211.8
520.909	6021.97
521.276	5847.74
521.643	5788.08
522.009	5693.4
522.376	5653.62
522.743	5725.26
523.11	5802.09
523.477	5981.07
523.843	6083.44
524.21	6290.44
524.577	6471.23
524.943	6626.48
525.31	6813.14
525.676	6864.66
526.043	6998.22
526.409	6984.43
526.776	6937.88
527.142	6801.61
527.508	6738.57
527.874	6557.33
528.241	6508.29
528.607	6360.27
528.973	6391.91
529.339	6396.88
529.705	6564.11
530.071	6621.28
530.437	6739.02
530.803	6965.23
531.169	7190.98
531.535	7325.67
531.901	7547.13
532.267	7694.02
532.632	7844.53
532.998	7825.99
533.364	7838.2
533.73	7721.59
534.095	7630.75
534.461	7493.12
534.826	7253.13
535.192	7160.48
535.557	7134.71
535.923	7066.47
536.288	7060.59
536.653	7202.06
537.019	7288.38
537.384	7469.39
537.749	7783.28
538.114	7963.39
538.479	8199.54
538.845	8348.01
539.21	8432.08
539.575	8548.01
539.94	8496.26
540.305	8507.78
540.67	8417.39
541.034	8237.51
541.399	8118.64
541.764	7913.45
542.129	7863.28
542.494	7765.88
542.858	7634.81
543.223	7651.08
543.587	7751.65
543.952	7886.33
544.316	7997.06
544.681	8217.17
545.045	8504.17
545.41	8701.45
545.774	8849.47
546.138	9062.12
546.503	9138.95
546.867	9158.39
547.231	9238.61
547.595	9127.43
547.959	8979.64
548.324	8812.18
548.688	8667.33
549.052	8551.85
549.416	8330.16
549.779	8251.52
550.143	8129.94
550.507	8164.06
550.871	8271.18
551.235	8284.29
551.599	8515.24
551.962	8623.71
552.326	8804.95
552.689	9094.44
553.053	9234.09
553.417	9439.06
553.78	9635.89
554.143	9611.71
554.507	9740.29
554.87	9631.6
555.234	9572.39
555.597	9313.87
555.96	9174.66
556.323	9000.2
556.686	8803.37
557.05	8696.93
557.413	8638.18
557.776	8606.77
558.139	8654.45
558.502	8701.9
558.865	8806.31
559.228	9017.38
559.59	9240.87
559.953	9347.99
560.316	9742.55
560.679	9951.59
561.041	10167.63
561.404	10195.42
561.767	10291.69
562.129	10227.29
562.492	10238.13
562.854	10090.79
563.217	9893.51
563.579	9719.28
563.941	9592.05
564.304	9371.04
564.666	9243.81
565.028	9159.52
565.39	9094.44
565.753	9201.55
566.115	9222.34
566.477	9359.74
566.839	9533.52
567.201	9818.94
567.563	10046.95
567.925	10317.23
568.287	10540.95
568.648	10702.3
569.01	10882.19
569.372	11006.7
569.734	10915.18
570.095	10965.57
570.457	10887.61
570.819	10762.87
571.18	10572.14
571.542	10388.87
571.903	10283.33
572.265	10123.56
572.626	9914.3
572.987	9794.53
573.349	9815.32
573.71	9875.66
574.071	10009.67
574.432	10180.96
574.794	10483.55
575.155	10731.46
575.516	11043.54
575.877	11338.44
576.238	11573.24
576.599	11876.28
576.96	12062.95
577.32	12277.86
577.681	12317.85
578.042	12338.87
578.403	12326.22
578.763	12309.27
579.124	12174.81
579.485	12118.76
579.845	12011.87
580.206	11847.13
580.566	11854.59
580.927	11860.69
581.287	11967.13
581.648	12149.04
582.008	12430.85
582.368	12786.54
582.728	13096.59
583.089	13508.33
583.449	14011.59
583.809	14562.99
584.169	15118.01
584.529	15455.62
584.889	16233.68
585.249	16479.55
585.609	16851.52
585.969	17460.54
586.329	17603.59
586.688	17913.64
587.048	18150.02
587.408	18391.37
587.768	18593.85
588.127	18801.75
588.487	19020.28
588.846	19375.07
589.206	19527.83
589.565	19916.98
589.925	20301.6
590.284	20737.97
590.643	21405.3
591.003	22183.36
591.362	22886.39
591.721	23519.59
592.08	24141.95
592.44	24928.14
592.799	25714.79
593.158	26350.25
593.517	26952.27
593.876	27750.44
594.235	28325.57
594.593	28740.93
594.952	29158.77
595.311	29497.52
595.67	29859.99
596.029	30263.14
596.387	30563.48
596.746	30925.05
597.104	31086.4
597.463	31412.49
597.822	31894.29
598.18	32235.75
598.538	32603.87
598.897	33335.83
599.255	33643.62
599.613	34676.14
599.972	35076.35
600.33	35831.59
600.688	36388.63
601.046	37168.27
601.404	37965.32
601.762	38476.26
602.12	39169.8
602.478	39793.06
602.836	40268.76
603.194	40468.98
603.552	40892.47
603.91	40917.55
604.268	41468.05
604.625	41531.32
604.983	41932.67
605.341	41844.54
605.698	42293.79
606.056	42257.86
606.413	42448.59
606.771	42737.17
607.128	43028.01
607.485	43142.81
607.843	43295.12
608.2	43931.94
608.557	44474.3
608.914	44774.63
609.272	45360.15
609.629	45897.99
609.986	46506.11
610.343	46648.7
610.7	47376.37
611.057	47614.78
611.414	47893.64
611.771	48199.17
612.127	48495.21
612.484	48621.76
612.841	48882.77
613.198	48772.04
613.554	48782.88
613.911	48989.21
614.267	48772.26
614.624	48861.53
614.98	48932.48
615.337	49065.36
615.693	48945.37
616.05	48945.14
616.406	49294.96
616.762	49244.11
617.118	49309.88
617.475	49501.96
617.831	49831.9
618.187	50117.09
618.543	50373.35
618.899	50804.98
619.255	50904.18
619.611	51122.94
619.967	51315.7
620.323	51602.24
620.678	51682.47
621.034	51608.8
621.39	51719.08
621.746	51790.49
622.101	52067.54
622.457	51821.45
622.812	51879.53
623.168	51936.93
623.523	51807.66
623.879	51789.81
624.234	51533.55
624.589	51571.96
624.945	51550.27
625.3	51560.21
625.655	51450.16
626.01	51557.5
626.365	51547.11
626.72	51659.19
627.075	51599.31
627.43	51760.21
627.785	51825.97
628.14	52090.14
628.495	52162.68
628.85	52308.44
629.205	52391.6
629.559	52664.82
629.914	52566.29
630.269	52803.8
630.623	52790.01
630.978	52761.08
631.332	52950.68
631.687	52917.24
632.041	52718.83
632.396	52647.42
632.75	52455.56
633.104	52493.52
633.459	52121.33
633.813	52052.4
634.167	51991.84
634.521	51867.77
634.875	51792.3
635.229	51822.58
635.583	51428.24
635.937	51641.11
636.291	51561.34
636.645	51710.49
636.999	51627.55
637.352	51818.74
637.706	51773.31
638.06	52116.58
638.413	51990.48
638.767	52098.5
639.121	52307.31
639.474	52251.04
639.828	52332.4
640.181	52465.05
640.534	52549.79
640.888	52460.75
641.241	52345.28
641.594	52271.61
641.947	52333.98
642.301	52107.09
642.654	52070.26
643.007	51950.03
643.36	51731.73
643.713	51531.51
644.066	51536.71
644.419	51319.54
644.771	50908.93
645.124	50522.73
645.477	50463.74
645.83	50174.94
646.182	50094.49
646.535	49936.53
646.888	50085.45
647.24	49997.54
647.593	50224.88
647.945	50193.92
648.298	50277.99
648.65	50306.01
649.002	50365.67
649.355	50657.86
649.707	50733.34
650.059	50960.45
650.411	51462.81
650.763	51446.54
651.115	51778.74
651.467	51540.33
651.819	51479.54
652.171	51470.72
652.523	51230.5
652.875	51243.16
653.227	50946.22
653.578	51132.2
653.93	50876.16
654.282	50661.93
654.633	50370.19
654.985	50355.5
655.337	50174.94
655.688	50199.34
656.039	50294.48
656.391	50054.49
656.742	50075.51
657.094	50079.35
657.445	50312.11
657.796	50374.71
658.147	50327.25
658.498	50389.17
658.849	50717.52
659.2	50572.89
659.551	50681.59
659.902	50910.06
660.253	50922.26
660.604	50980.79
660.955	50973.79
661.306	51060.56
661.656	50999.77
662.007	51064.41
662.358	51063.95
662.708	50961.36
663.059	50859.44
663.409	50535.61
663.76	50680.69
664.11	50532.22
664.461	50377.42
664.811	50280.25
665.161	50139.68
665.511	49826.92
665.862	49814.04
666.212	49901.27
666.562	49815.85
666.912	49684.78
667.262	49502.87
667.612	49608.62
667.962	49635.74
668.312	49559.36
668.662	49979.24
669.011	49903.31
669.361	50010.42
669.711	50092.91
670.06	50238.89
670.41	50249.06
670.76	50390.3
671.109	50543.29
671.459	50513.91
671.808	50593.46
672.157	50688.37
672.507	50398.66
672.856	50383.52
673.205	50474.14
673.554	50605.43
673.904	50358.21
674.253	50368.15
674.602	50163.64
674.951	49514.84
675.3	49151.01
675.649	49687.04
675.998	49535.86
676.346	49407.05
676.695	49404.79
677.044	49097
677.393	49059.71
677.741	48948.53
678.09	48895.42
678.438	48928.87
678.787	48901.07
679.135	48819.04
679.484	48739.72
679.832	49070.33
680.181	48754.86
680.529	49050.67
680.877	48999.83
681.225	49147.39
681.573	49580.15
681.922	49327.28
682.27	49419.93
682.618	49442.75
682.966	49375.86
683.314	49521.62
683.661	49601.62
684.009	49278.46
684.357	49275.75
684.705	49192.82
685.053	49206.15
685.4	49013.16
685.748	48690.68
686.095	48650.23
686.443	48349.45
686.79	48159.62
687.138	48178.38
687.485	47948.78
687.832	47723.02
688.18	47569.81
688.527	47282.81
688.874	47112.19
689.221	47037.62
689.568	46874.46
689.915	46839.88
690.262	46827.23
690.609	46831.97
690.956	46743.16
691.303	46786.33
691.65	46761.02
691.997	46832.2
692.344	46666.56
692.69	46787.91
693.037	46826.78
693.383	46806.89
693.73	47056.83
694.077	46803.05
694.423	46853.44
694.769	46903.61
695.116	46878.98
695.462	46956.49
695.808	46748.81
696.155	46718.08
696.501	46389.05
696.847	46216.4
697.193	45753.59
697.539	45866.58
697.885	45558.79
698.231	45190.66
698.577	45221.4
698.923	45007.39
699.269	44544.35
699.614	44381.64
699.96	44251.48
700.306	43977.36
700.651	43743.47
700.997	43490.14
701.342	43591.61
701.688	43500.09
702.033	43346.64
702.379	43392.29
702.724	43410.82
703.069	43365.17
703.415	43019.65
703.76	43310.94
704.105	43365.85
704.45	43314.1
704.795	43229.13
705.14	43288.79
705.485	43416.25
705.83	43281.79
706.175	43449.01
706.52	43343.48
706.865	43324.5
707.209	43288.34
707.554	43234.78
707.899	43321.11
708.243	42936.71
708.588	42802.25
708.932	42675.7
709.277	42537.4
709.621	42351.64
709.966	42106
710.31	42019.9
710.654	41622.39
710.998	41693.13
711.342	41362.97
711.687	41236.19
712.031	40880.49
712.375	40589.2
712.719	40672.14
713.063	40439.6
713.407	40503.1
713.75	40259.49
714.094	40295.88
714.438	40044.81
714.782	40161.42
715.125	40076.45
715.469	40253.62
715.812	40101.08
716.156	39996.22
716.499	40112.83
716.843	40252.26
717.186	40034.64
717.53	40332.26
717.873	40499.71
718.216	40295.2
718.559	40320.06
718.902	40325.48
719.246	40381.52
719.589	40287.29
719.932	40312.15
720.275	40245.71
720.617	40228.76
720.96	40046.16
721.303	40065.37
721.646	39917.58
721.989	39637.81
722.331	39608.89
722.674	39285.05
723.016	39295.22
723.359	39138.17
723.701	39009.36
724.044	38724.62
724.386	38264.52
724.729	38418.86
725.071	38191.75
725.413	38074.69
725.755	37883.51
726.097	37717.41
726.439	37550.86
726.782	37509.51
727.124	37596.96
727.465	37472.67
727.807	37568.49
728.149	37469.51
728.491	37436.06
728.833	37565.1
729.175	37498.89
729.516	37603.74
729.858	37612.1
730.199	37884.41
730.541	37710.18
730.882	37792.66
731.224	37943.39
731.565	37883.06
731.906	37937.07
732.248	38102.26
732.589	37944.75
732.93	37748.15
733.271	37779.56
733.612	37858.2
733.953	37723.74
734.294	37459.57
734.635	37385.44
734.976	37518.55
735.317	37221.83
735.658	37181.83
735.999	36910.2
736.339	36853.48
736.68	36713.14
737.021	36465.92
737.361	36288.75
737.702	36324.45
738.042	36084.69
738.383	35914.75
738.723	35873.17
739.063	35614.64
739.404	35727.63
739.744	35628.65
740.084	35477.25
740.424	35555.66
740.764	35360.86
741.104	35582.55
741.444	35357.25
741.784	35424.14
742.124	35551.59
742.464	35613.96
742.804	35655.09
743.143	35634.08
743.483	35711.14
743.823	35572.84
744.162	35734.64
744.502	35874.3
744.841	35697.35
745.181	35970.57
745.52	35873.17
745.86	35930.57
746.199	35787.75
746.538	35757.69
746.877	35938.02
747.216	35876.56
747.556	35625.72
747.895	35519.73
748.234	35431.14
748.573	35342.79
748.911	35303.46
749.25	35053.53
749.589	34757.26
749.928	34686.53
750.267	34670.71
750.605	34539.42
750.944	34261.68
751.283	34060.11
751.621	34084.74
751.96	33686.78
752.298	33618.76
752.636	33707.12
752.975	33375.15
753.313	33277.75
753.651	33370.18
753.989	33123.41
754.327	33037.54
754.666	32995.95
755.004	33223.52
755.342	33126.12
755.679	33074.14
756.017	32881.83
756.355	33019.91
756.693	33004.54
757.031	33151.88
757.368	33035.95
757.706	32959.12
758.044	33038.67
758.381	33174.71
758.719	33089.74
759.056	33191.43
759.394	33166.12
759.731	32988.27
760.068	32898.33
760.405	32767.71
760.743	32687.71
761.08	32736.98
761.417	32519.81
761.754	32482.97
762.091	32490.43
762.428	32266.48
762.765	32005.92
763.102	32118.92
763.438	31752.82
763.775	31588.31
764.112	31535.88
764.449	31388.77
764.785	31150.58
765.122	31042.56
765.458	30724.38
765.795	30603.02
766.131	30574.1
766.467	30289.81
766.804	30141.57
767.14	29941.12
767.476	29932.53
767.812	29864.29
768.148	29779.09
768.485	29597.85
768.821	29363.51
769.157	29439.21
769.492	29406.9
769.828	29424.52
770.164	29202.61
770.5	29190.63
770.836	29246.9
771.171	29175.72
771.507	29159.9
771.842	28987.47
772.178	29131.2
772.513	29128.03
772.849	29054.59
773.184	28975.72
773.519	28923.75
773.855	28852.79
774.19	28834.03
774.525	28561.27
774.86	28746.57
775.195	28753.35
775.53	28623.19
775.865	28342.52
776.2	28192.69
776.535	27987.95
776.87	27967.39
777.205	27754.28
777.539	27549.32
777.874	27629.77
778.209	27269.78
778.543	27209.89
778.878	27003.57
779.212	26858.94
779.547	26698.27
779.881	26597.03
780.215	26520.64
780.55	26532.17
780.884	26099.19
781.218	25922.24
781.552	25870.27
781.886	25672.08
782.22	25644.51
782.554	25537.17
782.888	25249.49
783.222	25281.58
783.556	25156.16
783.889	25181.47
784.223	24870.29
784.557	24937.18
784.89	25045.88
785.224	24998.2
785.557	24903.74
785.891	24840.91
786.224	24869.16
786.558	24865.32
786.891	24619
787.224	24537.87
787.557	24690.64
787.891	24615.61
788.224	24682.95
788.557	24634.37
788.89	24688.38
789.223	24711.2
789.556	24512.56
789.888	24559.34
790.221	24373.13
790.554	24266.47
790.887	24195.96
791.219	24155.96
791.552	24010.2
791.884	23831.45
792.217	23875.06
792.549	23674.84
792.882	23488.63
793.214	23290.45
793.546	23300.39
793.879	23096.78
794.211	22883
794.543	22897.01
794.875	22754.42
795.207	22791.48
795.539	22484.37
795.871	22487.76
796.203	22165.73
796.535	22102.23
796.867	22094.09
797.198	21854.55
797.53	21800.54
797.862	21687.78
798.193	21697.04
798.525	21607.33
798.856	21584.96
799.188	21385.41
799.519	21369.14
799.85	21127.57
800.182	21286.88
800.513	21233.55
800.844	21134.57
801.175	21283.95
801.506	21336.15
801.837	21224.51
802.168	21274.23
802.499	21045.99
802.83	21131.18
803.161	21079.66
803.491	21220.44
803.822	21172.99
804.153	21226.09
804.483	21048.7
804.814	21082.6
805.145	21087.79
805.475	21022.03
805.805	20949.72
806.136	20936.61
806.466	20947.01
806.796	20868.14
807.126	20634.92
807.457	20685.54
807.787	20567.58
808.117	20492.78
808.447	20342.28
808.777	20376.4
809.107	20257.53
809.436	20235.61
809.766	20163.52
810.096	20048.05
810.426	19798.11
810.755	19896.86
811.085	19669.75
811.414	19623.88
811.744	19355.41
812.073	19378.01
812.403	19220.27
812.732	19165.58
813.061	19065.25
813.39	18972.82
813.719	18897.57
814.049	18891.01
814.378	18859.83
814.707	18728.31
815.036	18783.67
815.365	18696.67
815.693	18547.97
816.022	18541.42
816.351	18488.77
816.68	18389.56
817.008	18608.76
817.337	18483.79
817.665	18426.17
817.994	18452.38
818.322	18561.31
818.651	18493.74
818.979	18357.02
819.307	18478.82
819.636	18471.36
819.964	18459.16
820.292	18606.95
820.62	18595.43
820.948	18465.94
821.276	18509.56
821.604	18397.69
821.932	18622.55
822.259	18586.39
822.587	18569.44
822.915	18587.07
823.243	18715.43
823.57	18531.93
823.898	18599.04
824.225	18460.52
824.553	18529.67
824.88	18581.19
825.207	18469.1
825.535	18393.85
825.862	18439.5
826.189	18317.7
826.516	18294.42
826.843	18326.96
827.17	18193.86
827.497	18209.45
827.824	18126.29
828.151	18207.87
828.478	18031.83
828.805	18021.43
829.131	17960.42
829.458	17752.29
829.785	17725.62
830.111	17765.62
830.438	17838.39
830.764	17823.7
831.09	17765.17
831.417	17643.36
831.743	17745.51
832.069	17740.31
832.395	17713.42
832.722	17846.97
833.048	17684.27
833.374	17778.05
833.7	17623.93
834.026	17710.71
834.351	17727.88
834.677	17725.17
835.003	17820.08
835.329	17856.69
835.654	17856.24
835.98	17760.42
836.306	17818.95
836.631	17798.16
836.956	17913.87
837.282	17841.32
837.607	17813.08
837.932	17791.61
838.258	17848.56
838.583	17870.02
838.908	17872.96
839.233	17844.94
839.558	17877.03
839.883	17658.96
840.208	17761.78
840.533	17650.6
840.858	17715.9
841.182	17707.32
841.507	17609.47
841.832	17498.28
842.156	17439.53
842.481	17478.85
842.805	17300.77
843.13	17277.27
843.454	17267.1
843.778	17146.88
844.103	17009.93
844.427	16970.16
844.751	16948.69
845.075	16856.27
845.399	16761.13
845.723	16656.27
846.047	16635.03
846.371	16406.33
846.695	16449.95
847.019	16423.28
847.343	16293.79
847.666	16135.61
847.99	16058.77
848.313	16044.08
848.637	15838.21
848.96	15775.62
849.284	15805.45
849.607	15663.75
849.931	15570.65
850.254	15565.23
850.577	15423.54
850.9	15482.74
851.223	15490.43
851.546	15404.78
851.869	15287.04
852.192	15371.79
852.515	15294.72
852.838	15311.22
853.161	15303.76
853.483	15251.56
853.806	15116.2
854.129	15283.43
854.451	15126.37
854.774	15109.42
855.096	15031.68
855.419	15084.11
855.741	15064.45
856.063	14986.48
856.385	14967.28
856.708	15002.08
857.03	14886.15
857.352	14843.21
857.674	14849.09
857.996	14889.31
858.318	14822.42
858.64	14741.07
858.961	14736.32
859.283	14657.45
859.605	14551.69
859.926	14520.51
860.248	14483.45
860.57	14413.39
860.891	14413.84
861.212	14305.6
861.534	14206.17
861.855	14107.19
862.176	14067.86
862.498	14087.07
862.819	14035.55
863.14	13949.45
863.461	13847.98
863.782	13785.84
864.103	13794.43
864.424	13736.8
864.745	13709.68
865.065	13580.19
865.386	13583.36
865.707	13507.88
866.027	13457.49
866.348	13492.51
866.668	13487.09
866.989	13337.71
867.309	13346.98
867.63	13380.88
867.95	13329.8
868.27	13273.99
868.59	13324.61
868.91	13206.19
869.23	13256.59
869.55	13203.48
869.87	13363.93
870.19	13318.96
870.51	13373.19
870.83	13425.4
871.15	13259.75
871.469	13287.77
871.789	13343.59
872.109	13303.59
872.428	13241.9
872.748	13400.99
873.067	13273.54
873.386	13437.37
873.706	13357.37
874.025	13341.56
874.344	13326.64
874.663	13322.12
874.982	13364.83
875.301	13385.17
875.62	13260.88
875.939	13290.71
876.258	13235.57
876.577	13225.85
876.896	13172.07
877.214	13104.27
877.533	13122.58
877.852	13084.39
878.17	13098.85
878.489	13159.41
878.807	13177.94
879.125	13043.71
879.444	13064.28
879.762	12962.36
880.08	12938.18
880.398	12827.9
880.716	12807.56
881.034	12701.35
881.352	12741.35
881.67	12659.09
881.988	12607.79
882.306	12585.64
882.624	12513.33
882.941	12389.72
883.259	12311.98
883.577	12381.36
883.894	12236.73
884.212	12270.62
884.529	12227.69
884.846	12075.15
885.164	12116.28
885.481	12082.61
885.798	12074.7
886.115	11920.12
886.432	11894.59
886.75	11988.82
887.067	11869.28
887.383	11877.19
887.7	11939.33
888.017	11845.1
888.334	11843.06
888.651	11850.3
888.967	11759.68
889.284	11707.93
889.6	11808.71
889.917	11726.46
890.233	11708.38
890.55	11673.8
890.866	11773.01
891.182	11664.54
891.498	11639
891.815	11641.04
892.131	11674.48
892.447	11663.86
892.763	11614.14
893.079	11643.52
893.395	11643.52
893.71	11637.65
894.026	11515.84
894.342	11532.56
894.657	11439.01
894.973	11421.83
895.289	11507.25
895.604	11519.68
895.92	11402.17
896.235	11330.76
896.55	11370.99
896.865	11322.4
897.181	11249.86
897.496	11232.01
897.811	11166.25
898.126	11085.8
898.441	11096.19
898.756	11046.93
899.071	11001.28
899.386	10999.47
899.7	10869.08
900.015	10786.37
900.33	10734.17
900.644	10689.42
900.959	10627.73
901.273	10593.83
901.588	10557.22
901.902	10479.26
902.216	10390.22
902.531	10383.22
902.845	10278.36
903.159	10211.02
903.473	10157.91
903.787	10082.66
904.101	10075.65
904.415	10049.67
904.729	9999.04
905.042	9933.74
905.356	9854.87
905.67	9879.05
905.984	9879.05
906.297	9809.9
906.611	9708.43
906.924	9662.33
907.237	9649.9
907.551	9637.02
907.864	9564.48
908.177	9594.08
908.491	9551.15
908.804	9424.14
909.117	9425.05
909.43	9492.62
909.743	9438.16
910.056	9388.89
910.368	9373.52
910.681	9418.95
910.994	9312.96
911.307	9327.42
911.619	9309.57
911.932	9317.26
912.244	9261.21
912.557	9235.22
912.869	9179.41
913.181	9208.11
913.494	9145.73
913.806	9082.46
914.118	9071.39
914.43	9006.75
914.742	9034.55
915.054	8965.85
915.366	8913.65
915.678	8926.08
915.99	8936.25
916.302	8820.77
916.613	8807.89
916.925	8821
917.236	8789.13
917.548	8746.65
917.859	8753.2
918.171	8632.08
918.482	8580.1
918.794	8643.15
919.105	8540.55
919.416	8455.13
919.727	8433.21
920.038	8447
920.349	8261.01
920.66	8317.28
920.971	8285.19
921.282	8194.8
921.593	8159.77
921.903	8089.49
922.214	8035.48
922.525	8048.59
922.835	7945.31
923.146	7836.84
923.456	7822.83
923.767	7836.16
924.077	7791.42
924.387	7730.18
924.697	7717.75
925.008	7624.87
925.318	7596.4
925.628	7600.01
925.938	7546.23
926.248	7457.19
926.558	7404.31
926.867	7376.97
927.177	7363.63
927.487	7364.09
927.796	7223.3
928.106	7226.69
928.416	7242.51
928.725	7178.55
929.034	7150.76
929.344	7185.79
929.653	7166.35
929.962	7074.38
930.271	7122.74
930.581	7063.98
930.89	7100.59
931.199	6990.99
931.508	7092.23
931.817	7086.58
932.125	6982.85
932.434	7021.95
932.743	6925.91
933.051	6955.28
933.36	6960.25
933.669	6896.3
933.977	6918.67
934.286	6906.92
934.594	6846.81
934.902	6797.55
935.21	6775.4
935.519	6809.75
935.827	6756.42
936.135	6778.79
936.443	6648.4
936.751	6598.23
937.059	6664.9
937.367	6603.88
937.674	6633.94
937.982	6583.54
938.29	6489.53
938.597	6500.15
938.905	6501.51
939.213	6444.79
939.52	6376.99
939.827	6433.72
940.135	6336.32
940.442	6315.07
940.749	6327.05
941.056	6285.02
941.363	6174.06
941.67	6176.09
941.977	6099.71
942.284	6049.09
942.591	6093.84
942.898	6073.72
943.205	6050.9
943.511	5981.3
943.818	5967.29
944.125	5901.98
944.431	5898.14
944.738	5876.89
945.044	5823.11
945.35	5829.44
945.657	5739.72
945.963	5706.95
946.269	5652.49
946.575	5672.61
946.881	5625.6
947.187	5602.55
947.493	5548.31
947.799	5507.41
948.105	5472.38
948.41	5461.99
948.716	5440.75
949.022	5378.6
949.327	5381.54
949.633	5290.02
949.938	5289.79
950.244	5366.62
950.549	5275.1
950.854	5248.89
951.16	5228.32
951.465	5262.67
951.77	5195.1
952.075	5232.84
952.38	5155.78
952.685	5248.21
952.99	5146.74
953.294	5180.64
953.599	5184.48
953.904	5104.71
954.209	5117.59
954.513	5114.65
954.818	5113.52
955.122	5072.85
955.426	5018.38
955.731	5048.21
956.035	5059.74
956.339	5045.5
956.643	4993.07
956.948	4970.7
957.252	4967.54
957.556	4976.8
957.86	4956.69
958.163	4897.26
958.467	4897.48
958.771	4874.89
959.075	4868.33
959.378	4819.97
959.682	4829.92
959.985	4782.23
960.289	4784.04
960.592	4757.37
960.896	4713.76
961.199	4693.42
961.502	4684.83
961.805	4648.9
962.108	4598.28
962.411	4615.23
962.714	4648
963.017	4627.66
963.32	4565.74
963.623	4550.37
963.926	4542.92
964.228	4503.82
964.531	4486.65
964.833	4473.31
965.136	4413.2
965.438	4396.71
965.741	4334.34
966.043	4347.67
966.345	4385.63
966.648	4328.69
966.95	4284.84
967.252	4246.43
967.554	4189.03
967.856	4191.29
968.158	4167.79
968.46	4157.39
968.761	4099.99
969.063	4103.38
969.365	4047.34
969.666	4024.74
969.968	3966.21
970.269	4030.16
970.571	3970.73
970.872	3923.5
971.174	3890.51
971.475	3925.31
971.776	3919.66
972.077	3850.73
972.378	3831.98
972.679	3847.57
972.98	3833.78
973.281	3799.89
973.582	3806.44
973.883	3776.61
974.183	3787.46
974.484	3740
974.785	3784.75
975.085	3749.04
975.386	3719.21
975.686	3734.35
975.986	3663.84
976.287	3654.35
976.587	3675.14
976.887	3636.05
977.187	3611.42
977.487	3624.07
977.787	3626.56
978.087	3623.17
978.387	3622.26
978.687	3606.22
978.987	3545.88
979.286	3535.49
979.586	3563.96
979.885	3534.81
980.185	3558.31
980.484	3509.72
980.784	3516.96
981.083	3483.74
981.382	3482.38
981.682	3465.21
981.981	3462.95
982.28	3432.44
982.579	3468.14
982.878	3408.48
983.177	3380.69
983.475	3398.54
983.774	3392.44
984.073	3365.77
984.372	3338.66
984.67	3326.9
984.969	3332.33
985.267	3338.66
985.566	3311.54
985.864	3262.27
986.162	3276.06
986.461	3239.9
986.759	3222.73
987.057	3176.4
987.355	3144.08
987.653	3204.42
987.951	3136.85
988.249	3126.91
988.547	3129.4
988.844	3070.41
989.142	3070.41
989.44	3052.79
989.737	3041.49
990.035	2990.19
990.332	2966.01
990.63	2956.29
990.927	2947.93
991.224	2940.93
991.521	2917.42
991.819	2961.26
992.116	2943.64
992.413	2849.18
992.71	2848.5
993.006	2824.54
993.303	2846.69
993.6	2820.02
993.897	2785.45
994.193	2789.74
994.49	2795.17
994.787	2746.13
995.083	2737.54
995.379	2702.29
995.676	2721.72
995.972	2686.69
996.268	2721.72
996.565	2665.45
996.861	2602.86
997.157	2663.19
997.453	2582.29
997.749	2604.89
998.044	2616.87
998.34	2645.11
998.636	2593.82
998.932	2545.46
999.227	2562.4
999.523	2548.85
999.818	2528.51
1000.114	2541.39
1000.409	2491.45
1000.704	2526.93
1001	2498.9
1001.295	2475.85
1001.59	2458.9
1001.885	2483.31
1002.18	2463.65
1002.475	2466.59
1002.77	2459.13
1003.065	2419.13
1003.359	2406.93
1003.654	2418.23
1003.949	2386.36
1004.243	2343.2
1004.538	2334.61
1004.832	2365.57
1005.127	2341.39
1005.421	2338.46
1005.715	2293.26
1006.009	2312.02
1006.304	2324.67
1006.598	2264.11
1006.892	2277.89
1007.186	2246.48
1007.48	2273.37
1007.773	2211.68
1008.067	2203.09
1008.361	2182.3
1008.655	2196.99
1008.948	2168.97
1009.242	2197.67
1009.535	2173.71
1009.829	2150.89
1010.122	2138.46
1010.415	2119.93
1010.708	2100.72
1011.001	2104.34
1011.295	2069.99
1011.588	2074.96
1011.881	2040.38
1012.173	2068.63
1012.466	2030.21
1012.759	2015.53
1013.052	2011.01
1013.344	1971.69
1013.637	1983.21
1013.93	1973.49
1014.222	1954.06
1014.514	1963.32
1014.807	1893.04
1015.099	1900.73
1015.391	1896.21
1015.683	1885.13
1015.976	1884
1016.268	1844.91
1016.56	1834.51
1016.851	1860.28
1017.143	1793.39
1017.435	1822.08
1017.727	1797.68
1018.018	1763.1
1018.31	1754.29
1018.602	1770.33
1018.893	1739.15
1019.185	1717.91
1019.476	1689.66
1019.767	1720.39
1020.058	1701.41
1020.35	1645.14
1020.641	1673.61
1020.932	1617.12
1021.223	1641.52
1021.514	1612.15
1021.804	1573.5
1022.095	1583.9
1022.386	1587.29
1022.677	1588.42
1022.967	1579.15
1023.258	1592.94
1023.548	1538.02
1023.839	1573.05
1024.129	1540.96
1024.419	1547.97
1024.709	1548.87
1025	1474.52
1025.29	1482.88
1025.58	1482.66
1025.87	1486.27
1026.16	1481.3
1026.449	1447.41
1026.739	1474.52
1027.029	1431.13
1027.319	1439.27
1027.608	1430.46
1027.898	1445.82
1028.187	1418.03
1028.477	1391.81
1028.766	1402.89
1029.055	1389.33
1029.344	1371.48
1029.634	1401.76
1029.923	1350.23
1030.212	1369.22
1030.501	1382.55
1030.79	1352.27
1031.078	1336.67
1031.367	1329.67
1031.656	1311.59
1031.945	1322.66
1032.233	1303.91
1032.522	1280.18
1032.81	1278.6
1033.099	1281.76
1033.387	1257.35
1033.675	1263.23
1033.963	1257.58
1034.251	1245.38
1034.54	1229.33
1034.828	1225.94
1035.116	1214.87
1035.403	1202.44
1035.691	1187.75
1035.979	1177.58
1036.267	1202.44
1036.554	1165.15
1036.842	1184.36
1037.129	1123.35
1037.417	1166.96
1037.704	1150.24
1037.992	1138.49
1038.279	1120.86
1038.566	1099.62
1038.853	1099.62
1039.14	1099.62
