Data from red_cardboard_box_FLMS001491_00056.txt Node
Date: Wed Feb 08 11:32:46 GMT 2017
User: dcchb
Spectrometer: FLMS00149
Trigger mode: 0
Integration Time (sec): 2.000000E-2
Scans to average: 10
Electric dark correction enabled: true
Nonlinearity correction enabled: false
Boxcar width: 0
XAxis mode: Wavelengths
Number of Pixels in Spectrum: 2048
>>>>>Begin Spectral Data<<<<<
341.393	5.1
341.776	5.1
342.16	5.1
342.543	-76.26
342.927	-79.87
343.31	-49.59
343.693	-86.42
344.077	-64.5
344.46	-55.24
344.843	-81
345.226	-44.62
345.61	-11.17
345.993	-25.86
346.376	-1.23
346.759	9.39
347.142	25.44
347.525	38.77
347.908	69.5
348.291	82.38
348.674	83.29
349.057	110.86
349.44	128.71
349.823	127.81
350.206	166
350.588	194.25
350.971	221.14
351.354	214.36
351.737	235.6
352.119	250.74
352.502	263.17
352.884	262.95
353.267	295.71
353.65	305.2
354.032	317.63
354.414	328.25
354.797	308.82
355.179	338.88
355.562	322.6
355.944	337.07
356.326	325.09
356.709	348.14
357.091	350.63
357.473	354.24
357.855	358.76
358.238	336.62
358.62	354.47
359.002	349.5
359.384	362.38
359.766	353.56
360.148	335.26
360.53	340.68
360.912	325.54
361.294	333.45
361.676	360.57
362.057	340.46
362.439	356.28
362.821	332.32
363.203	330.51
363.584	335.49
363.966	333.9
364.348	332.1
364.729	324.41
365.111	324.41
365.493	325.54
365.874	311.31
366.256	342.94
366.637	344.52
367.019	329.84
367.4	330.74
367.781	314.7
368.163	328.71
368.544	336.62
368.925	314.7
369.306	335.94
369.688	314.24
370.069	319.67
370.45	315.6
370.831	309.95
371.212	318.08
371.593	296.16
371.974	328.25
372.355	320.8
372.736	313.57
373.117	328.93
373.498	316.05
373.879	321.25
374.26	312.89
374.641	321.47
375.021	330.51
375.402	309.27
375.783	302.94
376.163	333.68
376.544	321.25
376.925	329.61
377.305	359.44
377.686	353.56
378.066	310.4
378.447	342.27
378.827	331.42
379.208	337.07
379.588	333.45
379.968	334.58
380.349	359.21
380.729	343.17
381.109	337.07
381.489	362.38
381.87	342.04
382.25	320.57
382.63	332.55
383.01	351.3
383.39	319.89
383.77	369.83
384.15	331.87
384.53	341.36
384.91	352.89
385.29	358.99
385.67	313.79
386.049	348.82
386.429	342.94
386.809	348.59
387.189	349.95
387.568	361.25
387.948	351.53
388.328	349.95
388.707	363.51
389.087	351.08
389.466	358.76
389.846	366.67
390.225	354.69
390.605	362.83
390.984	383.39
391.363	360.57
391.743	375.94
392.122	348.37
392.501	374.35
392.881	389.04
393.26	367.8
393.639	352.21
394.018	377.52
394.397	369.83
394.776	356.5
395.155	373
395.534	371.87
395.913	358.31
396.292	375.03
396.671	373.9
397.05	363.06
397.429	396.5
397.808	403.96
398.186	384.75
398.565	387.91
398.944	367.12
399.323	387.91
399.701	376.61
400.08	382.49
400.458	396.27
400.837	377.74
401.215	396.5
401.594	399.21
401.972	404.64
402.351	373.22
402.729	402.6
403.107	367.35
403.486	399.66
403.864	406.22
404.242	393.79
404.62	394.02
404.999	414.35
405.377	398.53
405.755	401.25
406.133	406.22
406.511	414.13
406.889	409.16
407.267	391.3
407.645	415.94
408.023	417.29
408.401	413.22
408.779	414.35
409.156	417.97
409.534	418.65
409.912	437.86
410.29	441.92
410.667	434.69
411.045	438.31
411.422	434.24
411.8	440.57
412.178	444.41
412.555	456.39
412.933	441.47
413.31	466.1
413.687	440.12
414.065	452.09
414.442	445.77
414.819	428.36
415.197	447.8
415.574	447.57
415.951	449.83
416.328	444.41
416.705	468.59
417.082	450.96
417.46	483.5
417.837	463.39
418.214	477.4
418.591	469.27
418.967	466.78
419.344	449.38
419.721	479.21
420.098	479.66
420.475	490.28
420.852	490.96
421.228	494.58
421.605	486.89
421.982	496.39
422.358	488.02
422.735	495.48
423.111	487.35
423.488	507.01
423.864	504.97
424.241	508.81
424.617	527.34
424.994	498.87
425.37	509.72
425.746	491.64
426.123	520.57
426.499	498.87
426.875	544.97
427.251	526.44
427.627	537.06
428.003	533.45
428.379	527.34
428.756	525.99
429.132	547.46
429.507	553.78
429.883	551.3
430.259	559.66
430.635	543.62
431.011	564.63
431.387	585.42
431.763	560.56
432.138	552.43
432.514	580.68
432.89	575.93
433.265	580.68
433.641	570.06
434.016	556.5
434.392	590.39
434.767	605.31
435.143	586.78
435.518	585.87
435.894	605.99
436.269	572.09
436.644	592.65
437.02	598.3
437.395	612.09
437.77	628.59
438.145	627.91
438.52	638.75
438.895	629.49
439.271	625.87
439.646	623.39
440.021	634.91
440.395	640.11
440.77	637.17
441.145	633.78
441.52	651.64
441.895	645.31
442.27	630.17
442.645	638.08
443.019	673.1
443.394	642.37
443.769	637.85
444.143	659.32
444.518	662.93
444.892	677.17
445.267	666.78
445.641	672.88
446.016	687.79
446.39	683.27
446.764	668.58
447.139	688.92
447.513	712.2
447.887	688.02
448.262	678.98
448.636	688.7
449.01	719.43
449.384	732.54
449.758	687.79
450.132	717.4
450.506	723.27
450.88	731.41
451.254	701.8
451.628	742.25
452.002	723.5
452.376	727.11
452.75	738.86
453.123	753.55
453.497	747.9
453.871	751.75
454.244	749.71
454.618	772.76
454.992	764.63
455.365	764.63
455.739	766.66
456.112	756.27
456.486	773.89
456.859	788.35
457.232	795.36
457.606	777.73
457.979	805.08
458.352	799.43
458.725	822.03
459.099	802.14
459.472	823.38
459.845	826.32
460.218	837.85
460.591	843.95
460.964	839.2
461.337	847.79
461.71	845.75
462.083	877.62
462.456	888.01
462.829	873.78
463.201	880.78
463.574	893.66
463.947	887.56
464.32	886.21
464.692	903.38
465.065	942.93
465.438	909.71
465.81	943.15
466.183	958.75
466.555	944.28
466.928	972.76
467.3	944.06
467.672	984.96
468.045	972.08
468.417	998.97
468.789	991.51
469.161	1013.21
469.534	1031.96
469.906	1031.51
470.278	1023.38
470.65	1075.81
471.022	1044.62
471.394	1054.56
471.766	1067.9
472.138	1082.36
472.51	1100.66
472.882	1118.97
473.253	1114.45
473.625	1098.86
473.997	1141.79
474.369	1121.45
474.74	1157.38
475.112	1161.9
475.484	1184.05
475.855	1208.68
476.227	1222.02
476.598	1236.93
476.97	1235.57
477.341	1284.61
477.713	1272.86
478.084	1250.49
478.455	1272.18
478.827	1311.73
479.198	1350.6
479.569	1329.81
479.94	1364.39
480.311	1363.93
480.682	1387.21
481.053	1423.37
481.424	1437.38
481.795	1447.77
482.166	1454.78
482.537	1507.21
482.908	1529.35
483.279	1535.23
483.65	1550.59
484.021	1567.77
484.391	1591.5
484.762	1618.16
485.133	1596.7
485.503	1652.74
485.874	1682.57
486.244	1657.94
486.615	1668.11
486.985	1698.61
487.356	1707.88
487.726	1758.95
488.097	1782.91
488.467	1808.67
488.837	1805.73
489.207	1865.16
489.578	1890.02
489.948	1892.51
490.318	1899.06
490.688	1898.16
491.058	1918.95
491.428	1953.07
491.798	1956.23
492.168	1983.8
492.538	2005.27
492.908	2039.62
493.278	2043.01
493.648	2063.58
494.017	2073.07
494.387	2096.57
494.757	2117.59
495.126	2141.77
495.496	2149
495.866	2123.46
496.235	2183.8
496.605	2214.31
496.974	2191.48
497.344	2226.51
497.713	2259.95
498.082	2239.16
498.452	2281.65
498.821	2321.87
499.19	2309.44
499.559	2358.71
499.928	2361.42
500.298	2368.2
500.667	2358.71
501.036	2370.01
501.405	2393.28
501.774	2408.65
502.143	2437.13
502.512	2426.05
502.88	2462.21
503.249	2455.66
503.618	2462.89
503.987	2476.9
504.356	2514.86
504.724	2529.1
505.093	2548.53
505.462	2511.93
505.83	2577.23
506.199	2605.48
506.567	2642.77
506.936	2645.03
507.304	2652.03
507.672	2681.41
508.041	2678.7
508.409	2691.58
508.777	2724.58
509.145	2752.15
509.514	2733.84
509.882	2759.6
510.25	2784.91
510.618	2782.2
510.986	2807.96
511.354	2824.91
511.722	2851.35
512.09	2859.49
512.458	2876.44
512.826	2876.21
513.193	2918.69
513.561	2920.95
513.929	2956.21
514.297	2993.49
514.664	3011.8
515.032	3008.41
515.4	3061.74
515.767	3082.76
516.135	3072.81
516.502	3094.51
516.869	3154.17
517.237	3127.5
517.604	3176.77
517.972	3176.31
518.339	3220.61
518.706	3210.89
519.073	3230.32
519.44	3265.8
519.808	3290.44
520.175	3287.27
520.542	3370.89
520.909	3365.46
521.276	3365.01
521.643	3410.88
522.009	3459.02
522.376	3450.21
522.743	3474.84
523.11	3499.47
523.477	3553.93
523.843	3623.53
524.21	3613.82
524.577	3626.02
524.943	3663.31
525.31	3723.87
525.676	3746.92
526.043	3729.29
526.409	3803.42
526.776	3771.1
527.142	3821.27
527.508	3840.48
527.874	3856.75
528.241	3897.88
528.607	3892.23
528.973	3917.31
529.339	3946.24
529.705	3990.3
530.071	4043.86
530.437	4062.17
530.803	4092.9
531.169	4102.39
531.535	4108.72
531.901	4146.46
532.267	4137.87
532.632	4157.53
532.998	4208.83
533.364	4224.87
533.73	4243.41
534.095	4287.02
534.461	4254.48
534.826	4285.89
535.192	4367.7
535.557	4381.03
535.923	4387.13
536.288	4397.07
536.653	4427.36
537.019	4436.17
537.384	4428.49
537.749	4441.59
538.114	4521.59
538.479	4495.15
538.845	4522.49
539.21	4553.45
539.575	4539.22
539.94	4615.37
540.305	4676.84
540.67	4628.25
541.034	4633.68
541.399	4680.46
541.764	4726.33
542.129	4735.37
542.494	4759.1
542.858	4768.36
543.223	4802.94
543.587	4788.7
543.952	4794.58
544.316	4877.74
544.681	4825.99
545.045	4905.99
545.41	4939.43
545.774	4971.97
546.138	4988.92
546.503	4983.72
546.867	5012.42
547.231	5050.62
547.595	5100.78
547.959	5117.96
548.324	5151.18
548.688	5120.9
549.052	5133.78
549.416	5182.36
549.779	5212.19
550.143	5252.87
550.507	5303.94
550.871	5298.07
551.235	5300.55
551.599	5355.24
551.962	5367.67
552.326	5420.78
552.689	5505.75
553.053	5458.74
553.417	5484.5
553.78	5618.96
554.143	5575.35
554.507	5626.65
554.87	5652.63
555.234	5669.36
555.597	5710.71
555.96	5729.47
556.323	5775.57
556.686	5845.17
557.05	5861.22
557.413	5887.43
557.776	5919.07
558.139	5973.53
558.502	6062.79
558.865	6065.05
559.228	6096.92
559.59	6112.28
559.953	6168.1
560.316	6286.97
560.679	6287.42
561.041	6330.13
561.404	6365.16
561.767	6452.16
562.129	6451.48
562.492	6556.56
562.854	6596.79
563.217	6611.48
563.579	6669.78
563.941	6756.56
564.304	6803.56
564.666	6881.08
565.028	6996.78
565.39	7002.2
565.753	7067.74
566.115	7088.98
566.477	7214.85
566.839	7247.39
567.201	7302.99
567.563	7310.9
567.925	7420.95
568.287	7430.67
568.648	7483.09
569.01	7654.39
569.372	7698
569.734	7783.2
570.095	7884.44
570.457	7953.14
570.819	8044.66
571.18	8055.06
571.542	8143.87
571.903	8186.8
572.265	8258.44
572.626	8353.58
572.987	8417.31
573.349	8523.52
573.71	8586.12
574.071	8697.75
574.432	8720.12
574.794	8850.29
575.155	8977.74
575.516	9051.41
575.877	9083.73
576.238	9195.14
576.599	9290.73
576.96	9411.18
577.32	9499.31
577.681	9626.09
578.042	9674.45
578.403	9830.6
578.763	9970.71
579.124	10077.38
579.485	10181.55
579.845	10267.65
580.206	10388.55
580.566	10522.79
580.927	10675.55
581.287	10843.91
581.648	10931.14
582.008	11154.86
582.368	11239.61
582.728	11423.78
583.089	11599.6
583.449	11660.84
583.809	11950.77
584.169	12082.52
584.529	12226.47
584.889	12499.46
585.249	12581.94
585.609	12776.74
585.969	13073.91
586.329	13222.38
586.688	13450.85
587.048	13655.59
587.408	13864.85
587.768	14127.67
588.127	14342.12
588.487	14497.37
588.846	14958.6
589.206	15029.11
589.565	15379.38
589.925	15729.21
590.284	15961.52
590.643	16144.34
591.003	16466.13
591.362	16794.71
591.721	17069.96
592.08	17434.02
592.44	17836.72
592.799	18108.13
593.158	18452.07
593.517	18768.67
593.876	19176.57
594.235	19538.14
594.593	19851.58
594.952	20160.5
595.311	20529.53
595.67	20935.4
596.029	21365.89
596.387	21782.83
596.746	22185.98
597.104	22441.57
597.463	22809.24
597.822	23376.69
598.18	23533.97
598.538	23944.13
598.897	24487.39
599.255	24758.12
599.613	25539.79
599.972	25614.59
600.33	26193.11
600.688	26408.02
601.046	26855.69
601.404	27477.37
601.762	27731.83
602.12	28321.19
602.478	28665.59
602.836	29024
603.194	29298.57
603.552	29736.29
603.91	30214.02
604.268	30635.71
604.625	30848.13
604.983	31340.77
605.341	31585.29
605.698	32157.25
606.056	32545.71
606.413	32900.5
606.771	33376.65
607.128	33767.15
607.485	33899.12
607.843	34320.13
608.2	34744.98
608.557	35161.69
608.914	35393.55
609.272	35798.73
609.629	36225.16
609.986	36537.7
610.343	36736.79
610.7	37265.59
611.057	37438.46
611.414	37606.82
611.771	37989.18
612.127	38317.09
612.484	38619.68
612.841	39030.51
613.198	39049.04
613.554	39219.21
613.911	39703.04
614.267	39976.03
614.624	40114.33
614.98	40478.38
615.337	40765.38
615.693	40862.1
616.05	41061.42
616.406	41609.2
616.762	41515.87
617.118	41823.89
617.475	41961.06
617.831	42318.34
618.187	42415.96
618.543	42598.33
618.899	42939.56
619.255	43024.08
619.611	43235.6
619.967	43321.93
620.323	43593.56
620.678	43597.62
621.034	43682.37
621.39	43760.56
621.746	43867.9
622.101	44619.52
622.457	44257.72
622.812	44438.96
623.168	44625.17
623.523	44650.93
623.879	45011.37
624.234	44727.99
624.589	44998.04
624.945	45205.72
625.3	45327.07
625.655	45426.05
626.01	45453.85
626.365	45629.66
626.72	45563
627.075	45759.6
627.43	45731.81
627.785	45730.9
628.14	45851.12
628.495	45971.8
628.85	46143.32
629.205	45969.31
629.559	46376.76
629.914	46095.86
630.269	46254.73
630.623	46182.64
630.978	46230.1
631.332	46395.74
631.687	46509.86
632.041	46551.9
632.396	46696.3
632.75	46462.63
633.104	46655.4
633.459	46494.72
633.813	46536.3
634.167	46552.35
634.521	46517.77
634.875	46612.01
635.229	46670.54
635.583	46516.19
635.937	46535.63
636.291	46514.16
636.645	46671.22
636.999	46512.58
637.352	46796.18
637.706	46600.03
638.06	46647.71
638.413	46635.06
638.767	46558.45
639.121	46618.11
639.474	46520.49
639.828	46617.21
640.181	46691.78
640.534	46705.57
640.888	46537.21
641.241	46535.85
641.594	46668.28
641.947	46681.84
642.301	46693.59
642.654	46605.68
643.007	46703.31
643.36	46624.21
643.713	46707.15
644.066	46779.91
644.419	46541.73
644.771	46328.85
645.124	46003.89
645.477	45892.48
645.83	45669.43
646.182	45489.78
646.535	45461.53
646.888	45657.01
647.24	45429.67
647.593	45783.78
647.945	45544.24
648.298	45397.58
648.65	45477.35
649.002	45320.97
649.355	45568.42
649.707	45500.4
650.059	45599.83
650.411	46165.01
650.763	46219.7
651.115	46615.62
651.467	46435.29
651.819	46561.84
652.171	46388.74
652.523	46460.37
652.875	46482.97
653.227	46252.24
653.578	46559.81
653.93	46510.32
654.282	46361.62
654.633	46260.38
654.985	46432.8
655.337	46397.1
655.688	46307.38
656.039	46583.76
656.391	46169.31
656.742	46277.78
657.094	46256.54
657.445	46486.59
657.796	46360.49
658.147	46287.72
658.498	46124.34
658.849	46368.85
659.2	46185.13
659.551	46156.65
659.902	46218.12
660.253	46230.1
660.604	46225.58
660.955	46074.85
661.306	46297.21
661.656	46225.58
662.007	46168.4
662.358	46278.46
662.708	46270.77
663.059	46186.71
663.409	45833.05
663.76	46260.15
664.11	46275.07
664.461	46380.6
664.811	46242.98
665.161	46272.36
665.511	46202.3
665.862	46249.31
666.212	46349.87
666.562	46259.02
666.912	46101.97
667.262	46254.5
667.612	46182.64
667.962	46169.08
668.312	46146.48
668.662	46316.2
669.011	46221.51
669.361	46147.16
669.711	46064.45
670.06	46100.38
670.41	46068.07
670.76	46049.76
671.109	46151.46
671.459	46053.38
671.808	46024.45
672.157	46134.73
672.507	45839.37
672.856	45800.05
673.205	45869.88
673.554	45943.78
673.904	45896.1
674.253	46140.16
674.602	45917.56
674.951	45344.02
675.3	45235.55
675.649	45795.31
675.998	45782.43
676.346	45880.28
676.695	45943.33
677.044	45614.97
677.393	45843.44
677.741	45791.92
678.09	45711.92
678.438	45616.78
678.787	45623.79
679.135	45652.94
679.484	45367.07
679.832	45527.52
680.181	45424.24
680.529	45406.62
680.877	45283.46
681.225	45236.9
681.573	45532.26
681.922	45231.93
682.27	45046.17
682.618	45114.2
682.966	45049.56
683.314	45192.39
683.661	45067.87
684.009	44808.21
684.357	44808.67
684.705	44626.07
685.053	44766.63
685.4	44656.13
685.748	44610.71
686.095	44574.55
686.443	44370.49
686.79	44339.07
687.138	44439.41
687.485	44323.48
687.832	44213.65
688.18	44428.56
688.527	44072.19
688.874	44136.59
689.221	43927.56
689.568	43818.18
689.915	43655.48
690.262	43717.4
690.609	43737.51
690.956	43477.18
691.303	43489.38
691.65	43241.48
691.997	43212.55
692.344	43184.75
692.69	43000.13
693.037	43087.13
693.383	42742.96
693.73	42884.88
694.077	42576.63
694.423	42681.04
694.769	42535.96
695.116	42444.21
695.462	42338.22
695.808	42314.49
696.155	42268.85
696.501	42003.32
696.847	42027.27
697.193	41661.4
697.539	41929.65
697.885	41684
698.231	41493.95
698.577	41662.53
698.923	41473.61
699.269	41435.2
699.614	40952.5
699.96	41139.38
700.306	41039.95
700.651	40928.54
700.997	40741.88
701.342	40694.2
701.688	40546.63
702.033	40578.04
702.379	40507.54
702.724	40306.41
703.069	40438.61
703.415	39986.42
703.76	39990.94
704.105	40147.77
704.45	40073.88
704.795	39685.86
705.14	39564.74
705.485	39701.46
705.83	39536.94
706.175	39626.66
706.52	39446.55
706.865	39361.35
707.209	39321.13
707.554	39136.95
707.899	39080.91
708.243	38898.99
708.588	38957.52
708.932	38615.16
709.277	38753.91
709.621	38590.98
709.966	38381.04
710.31	38397.54
710.654	38187.37
710.998	38132.46
711.342	38343.07
711.687	38062.18
712.031	38072.12
712.375	37896.53
712.719	37837.78
713.063	37868.51
713.407	37988.05
713.75	37759.59
714.094	37781.73
714.438	37601.62
714.782	37732.47
715.125	37390.33
715.469	37446.15
715.812	37326.15
716.156	37128.64
716.499	37203.89
716.843	37247.51
717.186	36958.25
717.53	37171.13
717.873	37160.96
718.216	37050.9
718.559	36819.05
718.902	36559.84
719.246	36760.29
719.589	36492.05
719.932	36471.48
720.275	36537.7
720.617	36437.81
720.96	36434.2
721.303	36361.66
721.646	36513.07
721.989	36122.12
722.331	36254.54
722.674	36242.34
723.016	36205.73
723.359	36074.21
723.701	36033.98
724.044	35906.08
724.386	35666.53
724.729	35774.55
725.071	35678.96
725.413	35849.81
725.755	35667.44
726.097	35555.35
726.439	35371.85
726.782	35279.2
727.124	35495.01
727.465	35314.68
727.807	35255.47
728.149	35234
728.491	35238.3
728.833	35311.06
729.175	35061.13
729.516	34961.24
729.858	35054.57
730.199	35022.48
730.541	35059.54
730.882	34872.43
731.224	35042.37
731.565	34649.61
731.906	34727.35
732.248	34785.65
732.589	34568.03
732.93	34535.94
733.271	34477.86
733.612	34427.92
733.953	34606.45
734.294	34509.5
734.635	34419.79
734.976	34490.75
735.317	34341.15
735.658	34353.8
735.999	34188.15
736.339	34010.98
736.68	34280.58
737.021	34274.48
737.361	34026.58
737.702	34241.26
738.042	33934.83
738.383	33982.06
738.723	33933.25
739.063	33953.58
739.404	33845.56
739.744	33832.91
740.084	33679.92
740.424	33766.7
740.764	33602.86
741.104	33806.24
741.444	33483.54
741.784	33267.05
742.124	33423.43
742.464	33566.7
742.804	33467.04
743.143	33267.05
743.483	33306.6
743.823	33216.65
744.162	33164.9
744.502	33149.99
744.841	33062.99
745.181	33189.76
745.52	32948.19
745.86	33085.13
746.199	32858.7
746.538	32877.23
746.877	33060.05
747.216	32942.09
747.556	32900.73
747.895	32801.75
748.234	32707.06
748.573	32747.06
748.911	32550.01
749.25	32642.88
749.589	32485.15
749.928	32459.39
750.267	32512.04
750.605	32340.97
750.944	32353.85
751.283	32274.53
751.621	32281.31
751.96	32125.16
752.298	32223.01
752.636	32353.63
752.975	31998.61
753.313	31834.32
753.651	32021.66
753.989	31843.81
754.327	31708.9
754.666	31651.5
755.004	31818.95
755.342	31736.92
755.679	31597.49
756.017	31500.32
756.355	31543.25
756.693	31494.89
757.031	31458.51
757.368	31268.23
757.706	31246.09
758.044	31161.34
758.381	31124.96
758.719	31049.03
759.056	31021.23
759.394	30913.21
759.731	30749.15
760.068	30547.12
760.405	30747.79
760.743	30581.02
761.08	30572.2
761.417	30405.43
761.754	30308.71
762.091	30223.97
762.428	30143.97
762.765	29962.73
763.102	30116.17
763.438	29925.22
763.775	29803.86
764.112	29722.28
764.449	29701.27
764.785	29643.87
765.122	29477.54
765.458	29361.84
765.795	29348.06
766.131	29143.32
766.467	29210.21
766.804	29042.3
767.14	28912.14
767.476	28920.95
767.812	28768.18
768.148	28810.22
768.485	28607.06
768.821	28414.52
769.157	28407.29
769.492	28452.49
769.828	28430.79
770.164	28088.65
770.5	28027.19
770.836	27998.94
771.171	27828.32
771.507	27934.99
771.842	27529.57
772.178	27572.74
772.513	27581.55
772.849	27414.1
773.184	27427.43
773.519	27428.33
773.855	27252.52
774.19	27032.86
774.525	26991.73
774.86	26945.41
775.195	26884.17
775.53	26758.97
775.865	26742.7
776.2	26441.69
776.535	26398.3
776.87	26396.27
777.205	26231.75
777.539	26192.43
777.874	26168.48
778.209	25916.96
778.543	25871.09
778.878	25749.05
779.212	25682.39
779.547	25577.08
779.881	25748.15
780.215	25322.17
780.55	25532.79
780.884	25263.19
781.218	25288.28
781.552	25192.23
781.886	25021.39
782.22	24905.01
782.554	24836.08
782.888	24581.63
783.222	24587.28
783.556	24526.49
783.889	24404.91
784.223	24273.61
784.557	24208.53
784.89	24175.99
785.224	24095.76
785.557	23968.54
785.891	23952.49
786.224	23843.12
786.558	23916.79
786.891	23720.41
787.224	23627.08
787.557	23483.35
787.891	23454.88
788.224	23439.96
788.557	23338.72
788.89	23356.58
789.223	23275.9
789.556	23144.38
789.888	23096.92
790.221	22895.34
790.554	22789.58
790.887	22834.78
791.219	22673.88
791.552	22572.64
791.884	22608.57
792.217	22532.64
792.549	22362.25
792.882	22280.22
793.214	22176.95
793.546	22235.02
793.879	22079.77
794.211	21897.63
794.543	22056.95
794.875	21805.2
795.207	21959.1
795.539	21865.31
795.871	21862.15
796.203	21649.05
796.535	21623.97
796.867	21508.71
797.198	21403.18
797.53	21417.42
797.862	21365.89
798.193	21345.1
798.525	21135.39
798.856	21132.68
799.188	20923.19
799.519	20932.23
799.85	20719.81
800.182	20862.63
800.513	20831.67
800.844	20572.92
801.175	20758.23
801.506	20620.6
801.837	20406.37
802.168	20504.67
802.499	20455.63
802.83	20294.73
803.161	20269.42
803.491	20293.83
803.822	20174.96
804.153	20083.67
804.483	19958.47
804.814	19943.56
805.145	19902.88
805.475	19779.72
805.805	19772.71
806.136	19752.38
806.466	19739.95
806.796	19677.58
807.126	19556
807.457	19454.53
807.787	19432.16
808.117	19408.88
808.447	19381.31
808.777	19371.37
809.107	19316.91
809.436	19197.36
809.766	19181.54
810.096	19165.72
810.426	19043.92
810.755	18984.03
811.085	19084.37
811.414	18914.88
811.744	18757.6
812.073	18713.76
812.403	18773.87
812.732	18735.68
813.061	18719.18
813.39	18580.88
813.719	18471.96
814.049	18623.14
814.378	18480.32
814.707	18410.72
815.036	18483.26
815.365	18276.93
815.693	18097.73
816.022	18190.16
816.351	18191.06
816.68	17930.05
817.008	18125.3
817.337	17992.2
817.665	17884.18
817.994	17970.73
818.322	17906.55
818.651	17812.77
818.979	17742.03
819.307	17867.23
819.636	17850.05
819.964	17653.67
820.292	17827
820.62	17676.5
820.948	17595.37
821.276	17705.65
821.604	17603.96
821.932	17663.62
822.259	17556.5
822.587	17550.4
822.915	17589.04
823.243	17622.04
823.57	17520.12
823.898	17553.11
824.225	17509.95
824.553	17485.77
824.88	17487.35
825.207	17662.04
825.535	17451.65
825.862	17575.26
826.189	17407.13
826.516	17567.12
826.843	17561.93
827.17	17518.54
827.497	17546.78
827.824	17551.3
828.151	17534.58
828.478	17445.77
828.805	17627.46
829.131	17463.62
829.458	17474.02
829.785	17345.89
830.111	17367.35
830.438	17472.21
830.764	17513.34
831.09	17514.92
831.417	17308.6
831.743	17467.69
832.069	17463.85
832.395	17365.32
832.722	17477.86
833.048	17324.19
833.374	17361.48
833.7	17308.37
834.026	17395.6
834.351	17392.89
834.677	17353.8
835.003	17335.94
835.329	17286.68
835.654	17221.6
835.98	17136.63
836.306	17245.78
836.631	17100.92
836.956	17133.24
837.282	17174.36
837.607	17080.36
837.932	17040.36
838.258	17043.52
838.583	16997.65
838.908	16935.28
839.233	16931.66
839.558	16912.45
839.883	16967.14
840.208	16804.21
840.533	16836.52
840.858	16876.97
841.182	16757.65
841.507	16772.79
841.832	16799.91
842.156	16683.08
842.481	16694.83
842.805	16569.86
843.13	16577.77
843.454	16577.54
843.778	16425.46
844.103	16566.7
844.427	16487.38
844.751	16457.32
845.075	16368.74
845.399	16393.59
845.723	16206.71
846.047	16218.23
846.371	16126.93
846.695	16099.82
847.019	15909.99
847.343	15930.56
847.666	15834.74
847.99	15819.15
848.313	15766.04
848.637	15689.21
848.96	15627.51
849.284	15566.72
849.607	15425.94
849.931	15447.4
850.254	15306.84
850.577	15311.14
850.9	15156.11
851.223	15124.02
851.546	15052.61
851.869	14971.26
852.192	15018.49
852.515	14893.97
852.838	14960.41
853.161	14900.07
853.483	14851.26
853.806	14739.85
854.129	14711.15
854.451	14675.67
854.774	14603.36
855.096	14528.56
855.419	14619.4
855.741	14483.81
856.063	14317.49
856.385	14415.57
856.708	14277.94
857.03	14351.16
857.352	14352.74
857.674	14284.05
857.996	14204.27
858.318	14100.32
858.64	14057.61
858.961	13930.61
859.283	13959.76
859.605	13930.61
859.926	13895.35
860.248	13978.06
860.57	13826.88
860.891	13766.09
861.212	13771.06
861.534	13780.33
861.855	13777.84
862.176	13756.15
862.498	13721.57
862.819	13654.68
863.14	13634.12
863.461	13537.4
863.782	13462.15
864.103	13599.54
864.424	13513.9
864.745	13446.33
865.065	13451.52
865.386	13404.75
865.707	13446.55
866.027	13366.33
866.348	13329.04
866.668	13283.39
866.989	13317.29
867.309	13162.49
867.63	13291.76
867.95	13195.71
868.27	13141.48
868.59	13202.04
868.91	13222.38
869.23	13077.75
869.55	13010.41
869.87	13056.73
870.19	13093.12
870.51	13050.41
870.83	13042.5
871.15	12929.28
871.469	13018.54
871.789	13056.51
872.109	12992.55
872.428	12957.75
872.748	12938.32
873.067	12900.8
873.386	12897.64
873.706	12899.67
874.025	12810.86
874.344	12837.08
874.663	12814.48
874.982	12822.84
875.301	12735.39
875.62	12717.31
875.939	12675.95
876.258	12661.94
876.577	12657.87
876.896	12709.17
877.214	12671.88
877.533	12569.06
877.852	12632.34
878.17	12605.67
878.489	12508.5
878.807	12566.12
879.125	12543.98
879.444	12489.97
879.762	12489.97
880.08	12453.13
880.398	12400.71
880.716	12405.9
881.034	12412.46
881.352	12363.19
881.67	12364.32
881.988	12326.81
882.306	12272.8
882.624	12298.11
882.941	12250.2
883.259	12179.47
883.577	12205.23
883.894	12109.87
884.212	12027.38
884.529	12104.89
884.846	12000.72
885.164	12120.26
885.481	11952.81
885.798	11894.28
886.115	11826.93
886.432	11913.03
886.75	11782.64
887.067	11900.38
887.383	11839.14
887.7	11839.82
888.017	11726.37
888.334	11739.93
888.651	11640.5
888.967	11644.34
889.284	11595.75
889.6	11578.81
889.917	11466.27
890.233	11499.71
890.55	11393.95
890.866	11465.36
891.182	11395.31
891.498	11310.11
891.815	11289.1
892.131	11243
892.447	11257.91
892.763	11177.46
893.079	11147.86
893.395	11190.79
893.71	11116.67
894.026	11152.6
894.342	11106.05
894.657	10984.02
894.973	10956.22
895.289	11072.6
895.604	11000.52
895.92	10902.21
896.235	10844.14
896.55	10850.24
896.865	10774.53
897.181	10768.88
897.496	10794.87
897.811	10683.24
898.126	10690.92
898.441	10609.34
898.756	10642.56
899.071	10564.37
899.386	10582.67
899.7	10479.4
900.015	10455.67
900.33	10321.44
900.644	10329.12
900.959	10368.44
901.273	10263.59
901.588	10247.77
901.902	10217.49
902.216	10184.72
902.531	10194.44
902.845	10084.61
903.159	10043.93
903.473	10016.81
903.787	9989.24
904.101	9970.26
904.415	10008.68
904.729	9886.42
905.042	9895.69
905.356	9850.94
905.67	9850.72
905.984	9803.71
906.297	9721.45
906.611	9647.33
906.924	9666.54
907.237	9599.42
907.551	9589.71
907.864	9543.38
908.177	9504.06
908.491	9512.65
908.804	9426.32
909.117	9380.9
909.43	9303.84
909.743	9315.59
910.056	9234.91
910.368	9227.91
910.681	9104.07
910.994	9135.25
911.307	9216.61
911.619	9031.53
911.932	9046.22
912.244	8971.64
912.557	8963.06
912.869	8901.81
913.181	8866.56
913.494	8892.55
913.806	8792.44
914.118	8767.81
914.43	8702.5
914.742	8731.87
915.054	8670.63
915.366	8651.43
915.678	8594.7
915.99	8561.94
916.302	8550.41
916.613	8502.05
916.925	8442.84
917.236	8406.69
917.548	8335.28
917.859	8342.73
918.171	8305.9
918.482	8251.89
918.794	8165.79
919.105	8192.91
919.416	8187.26
919.727	8100.93
920.038	8115.39
920.349	8122.4
920.66	8011.67
920.971	8070.65
921.282	8027.26
921.593	7970.54
921.903	7901.84
922.214	7839.92
922.525	7834.27
922.835	7804.44
923.146	7726.25
923.456	7709.75
923.767	7626.37
924.077	7735.97
924.387	7628.4
924.697	7657.55
925.008	7571
925.318	7562.19
925.628	7552.7
925.938	7554.73
926.248	7428.18
926.558	7444.23
926.867	7391.8
927.177	7346.6
927.487	7307.28
927.796	7201.75
928.106	7273.83
928.416	7211.24
928.725	7154.06
929.034	7148.19
929.344	7206.04
929.653	7067.74
929.962	7083.1
930.271	7048.3
930.581	7039.49
930.89	6965.59
931.199	6936.89
931.508	6907.97
931.817	6902.09
932.125	6858.03
932.434	6858.7
932.743	6742.55
933.051	6707.52
933.36	6766.05
933.669	6651.93
933.977	6627.98
934.286	6614.64
934.594	6615.32
934.902	6575.32
935.21	6524.48
935.519	6501.88
935.827	6503.01
936.135	6468.43
936.443	6371.03
936.751	6344.37
937.059	6367.42
937.367	6312.5
937.674	6369.68
937.982	6289.91
938.29	6288.78
938.597	6216.69
938.905	6197.7
939.213	6193.41
939.52	6156.35
939.827	6184.37
940.135	6102.11
940.442	6091.94
940.749	6083.58
941.056	6114.77
941.363	6009.01
941.67	5968.11
941.977	5944.6
942.284	5881.1
942.591	5877.03
942.898	5857.6
943.205	5838.39
943.511	5857.15
943.818	5811.73
944.125	5754.33
944.431	5759.52
944.738	5759.3
945.044	5700.99
945.35	5644.05
945.657	5604.5
945.963	5638.4
946.269	5594.78
946.575	5608.34
946.881	5564.27
947.187	5560.88
947.493	5546.65
947.799	5487.89
948.105	5467.33
948.41	5465.07
948.716	5380.1
949.022	5399.76
949.327	5361.12
949.633	5385.07
949.938	5327.22
950.244	5297.61
950.549	5265.3
950.854	5243.38
951.16	5195.92
951.465	5242.48
951.77	5220.78
952.075	5121.57
952.38	5136.94
952.685	5160.9
952.99	5094.68
953.294	5080.45
953.599	5013.33
953.904	4986.21
954.209	4974.23
954.513	4969.94
954.818	4949.6
955.122	4898.76
955.426	4910.51
955.731	4865.31
956.035	4843.84
956.339	4800.9
956.643	4825.54
956.948	4764.97
957.252	4758.42
957.556	4792.54
957.86	4736.27
958.163	4753.67
958.467	4693.34
958.771	4677.29
959.075	4621.7
959.378	4623.96
959.682	4614.02
959.985	4616.95
960.289	4523.62
960.592	4588.93
960.896	4531.08
961.199	4489.95
961.502	4466.45
961.805	4443.85
962.108	4365.89
962.411	4458.09
962.714	4376.74
963.017	4422.84
963.32	4437.07
963.623	4359.56
963.926	4335.83
964.228	4350.75
964.531	4302.61
964.833	4316.62
965.136	4225.33
965.438	4256.06
965.741	4214.25
966.043	4209.96
966.345	4157.76
966.648	4130.87
966.95	4118.89
967.252	4143.97
967.554	4099.45
967.856	4072.11
968.158	4044.31
968.46	4050.19
968.761	4047.7
969.063	4045.9
969.365	3991.21
969.666	3988.27
969.968	3941.94
970.269	3978.33
970.571	3946.46
970.872	3929.06
971.174	3884.77
971.475	3883.64
971.776	3848.39
972.077	3838.22
972.378	3810.87
972.679	3799.35
972.98	3799.12
973.281	3794.15
973.582	3757.09
973.883	3762.06
974.183	3713.7
974.484	3706.92
974.785	3651.78
975.085	3670.09
975.386	3685.45
975.686	3683.87
975.986	3644.1
976.287	3627.83
976.587	3559.36
976.887	3565.91
977.187	3558.68
977.487	3544.21
977.787	3541.28
978.087	3518.23
978.387	3485.46
978.687	3490.66
978.987	3482.07
979.286	3494.5
979.586	3457.89
979.885	3436.87
980.185	3381.06
980.484	3368.63
980.784	3360.94
981.083	3355.07
981.382	3354.16
981.682	3343.99
981.981	3320.94
982.28	3304.45
982.579	3314.62
982.878	3316.88
983.177	3279.36
983.475	3247.95
983.774	3221.74
984.073	3179.93
984.372	3196.65
984.67	3222.42
984.969	3166.6
985.267	3142.64
985.566	3131.8
985.864	3105.58
986.162	3088.18
986.461	3068.97
986.759	3044.57
987.057	3082.31
987.355	3062.19
987.653	3048.86
987.951	3035.08
988.249	2977.9
988.547	3017.22
988.844	3020.61
989.142	2970.44
989.44	2927.51
989.737	2917.79
990.035	2925.93
990.332	2930.9
990.63	2880.05
990.927	2859.49
991.224	2870.33
991.521	2853.61
991.819	2857.68
992.116	2812.93
992.413	2857.91
992.71	2813.84
993.006	2773.84
993.303	2765.25
993.6	2784.23
993.897	2778.36
994.193	2732.48
994.49	2713.5
994.787	2716.21
995.083	2695.65
995.379	2703.78
995.676	2658.36
995.972	2672.37
996.268	2655.65
996.565	2648.42
996.861	2591.47
997.157	2624.01
997.453	2599.38
997.749	2621.08
998.044	2550.79
998.34	2541.08
998.636	2525.71
998.932	2501.53
999.227	2488.65
999.523	2487.07
999.818	2480.97
1000.114	2486.16
1000.409	2500.85
1000.704	2463.11
1001	2426.96
1001.295	2427.86
1001.59	2445.03
1001.885	2415.66
1002.18	2407.3
1002.475	2391.7
1002.77	2329.33
1003.065	2313.29
1003.359	2335.43
1003.654	2292.5
1003.949	2318.48
1004.243	2305.38
1004.538	2268.09
1004.832	2258.15
1005.127	2242.33
1005.421	2266.73
1005.715	2233.74
1006.009	2222.67
1006.304	2219.5
1006.598	2143.12
1006.892	2196.91
1007.186	2170.69
1007.48	2160.97
1007.773	2100.64
1008.067	2119.85
1008.361	2137.92
1008.655	2068.55
1008.948	2095.44
1009.242	2101.77
1009.535	2092.73
1009.829	2037.36
1010.122	2022.9
1010.415	2011.15
1010.708	2019.28
1011.001	1994.65
1011.295	1994.42
1011.588	1998.94
1011.881	1982.45
1012.173	1960.75
1012.466	1964.6
1012.759	1923.47
1013.052	1928.89
1013.344	1923.69
1013.637	1921.43
1013.93	1890.02
1014.222	1869.46
1014.514	1824.03
1014.807	1874.43
1015.099	1817.93
1015.391	1795.79
1015.683	1840.08
1015.976	1797.37
1016.268	1825.84
1016.56	1785.62
1016.851	1783.36
1017.143	1771.38
1017.435	1752.62
1017.727	1722.12
1018.018	1755.11
1018.31	1726.64
1018.602	1718.27
1018.893	1644.83
1019.185	1701.55
1019.476	1678.95
1019.767	1670.82
1020.058	1640.99
1020.35	1665.17
1020.641	1633.98
1020.932	1636.02
1021.223	1592.63
1021.514	1610.03
1021.804	1568.67
1022.095	1573.42
1022.386	1565.06
1022.677	1544.27
1022.967	1567.77
1023.258	1531.84
1023.548	1526.64
1023.839	1512.4
1024.129	1508.56
1024.419	1478.05
1024.709	1465.63
1025	1456.13
1025.29	1479.41
1025.58	1468.34
1025.87	1444.61
1026.16	1420.43
1026.449	1429.24
1026.739	1404.61
1027.029	1432.18
1027.319	1421.56
1027.608	1383.82
1027.898	1399.86
1028.187	1373.2
1028.477	1368.9
1028.766	1369.81
1029.055	1354.67
1029.344	1335.01
1029.634	1322.8
1029.923	1310.38
1030.212	1301.56
1030.501	1294.33
1030.79	1286.19
1031.078	1265.4
1031.367	1272.41
1031.656	1250.26
1031.945	1265.18
1032.233	1258.17
1032.522	1261.34
1032.81	1217.04
1033.099	1206.65
1033.387	1226.31
1033.675	1196.93
1033.963	1210.04
1034.251	1190.38
1034.54	1202.36
1034.828	1181.11
1035.116	1159.64
1035.403	1167.55
1035.691	1134.11
1035.979	1137.72
1036.267	1120.1
1036.554	1137.72
1036.842	1093.88
1037.129	1110.38
1037.417	1087.1
1037.704	1119.42
1037.992	1094.56
1038.279	1100.89
1038.566	1088.23
1038.853	1088.23
1039.14	1088.23
