Data from red_shiny_book_FLMS001491_00054.txt Node
Date: Wed Feb 08 15:25:02 GMT 2017
User: dcchb
Spectrometer: FLMS00149
Trigger mode: 0
Integration Time (sec): 2.000000E-2
Scans to average: 10
Electric dark correction enabled: true
Nonlinearity correction enabled: false
Boxcar width: 0
XAxis mode: Wavelengths
Number of Pixels in Spectrum: 2048
>>>>>Begin Spectral Data<<<<<
341.393	15.31
341.776	15.31
342.16	15.31
342.543	-56.55
342.927	-51.13
343.31	-72.6
343.693	-65.37
344.077	-62.65
344.46	-47.51
344.843	-46.38
345.226	-38.7
345.61	-33.95
345.993	-21.98
346.376	0.4
346.759	2.43
347.142	25.48
347.525	28.42
347.908	65.25
348.291	73.16
348.674	103.44
349.057	90.56
349.44	132.6
349.823	145.25
350.206	179.6
350.588	205.59
350.971	208.98
351.354	215.53
351.737	248.3
352.119	264.8
352.502	276.55
352.884	262.08
353.267	285.81
353.65	306.15
354.032	320.61
354.414	321.52
354.797	333.95
355.179	339.82
355.562	341.86
355.944	346.38
356.326	326.04
356.709	351.12
357.091	357.22
357.473	357.22
357.855	366.94
358.238	350.67
358.62	337.34
359.002	348.41
359.384	353.15
359.766	352.93
360.148	348.86
360.53	344.34
360.912	355.87
361.294	349.76
361.676	341.63
362.057	356.54
362.439	347.05
362.821	341.4
363.203	347.05
363.584	328.97
363.966	344.57
364.348	345.7
364.729	357.45
365.111	323.1
365.493	333.27
365.874	336.43
366.256	354.51
366.637	338.92
367.019	327.84
367.4	329.65
367.781	328.52
368.163	353.83
368.544	333.27
368.925	322.19
369.306	334.4
369.688	307.51
370.069	337.34
370.45	340.27
370.831	339.6
371.212	350.22
371.593	341.86
371.974	343.21
372.355	351.35
372.736	339.14
373.117	342.31
373.498	339.37
373.879	353.83
374.26	330.33
374.641	318.13
375.021	320.84
375.402	336.43
375.783	351.8
376.163	372.14
376.544	358.35
376.925	334.62
377.305	349.54
377.686	375.3
378.066	347.28
378.447	352.48
378.827	356.32
379.208	350.44
379.588	363.32
379.968	357
380.349	362.65
380.729	354.74
381.109	365.36
381.489	391.12
381.87	347.96
382.25	361.06
382.63	367.84
383.01	373.94
383.39	364.91
383.77	381.4
384.15	364.23
384.53	375.53
384.91	372.82
385.29	376.2
385.67	373.94
386.049	397.22
386.429	397
386.809	406.26
387.189	384.34
387.568	374.85
387.948	382.08
388.328	384.11
388.707	413.72
389.087	396.09
389.466	411.68
389.846	397.45
390.225	407.84
390.605	408.97
390.984	421.63
391.363	391.35
391.743	410.78
392.122	405.13
392.501	422.53
392.881	437.45
393.26	418.24
393.639	422.08
394.018	429.31
394.397	420.95
394.776	403.32
395.155	414.4
395.534	463.66
395.913	448.07
396.292	436.99
396.671	449.2
397.05	440.84
397.429	430.89
397.808	447.16
398.186	438.58
398.565	439.03
398.944	452.59
399.323	447.84
399.701	437.45
400.08	461.63
400.458	463.21
400.837	445.81
401.215	466.15
401.594	460.27
401.972	460.72
402.351	452.14
402.729	462.08
403.107	490.78
403.486	472.02
403.864	463.21
404.242	513.6
404.62	488.29
404.999	499.59
405.377	492.36
405.755	504.34
406.133	499.82
406.511	491.46
406.889	499.14
407.267	510.89
407.645	508.4
408.023	516.99
408.401	534.39
408.779	556.54
409.156	521.51
409.534	516.77
409.912	545.47
410.29	535.3
410.667	553.83
411.045	547.05
411.422	554.96
411.8	567.39
412.178	583.88
412.555	578.46
412.933	590.89
413.31	587.5
413.687	610.77
414.065	579.36
414.442	596.54
414.819	602.64
415.197	619.59
415.574	617.78
415.951	646.71
416.328	643.54
416.705	666.82
417.082	638.12
417.46	648.74
417.837	624.79
418.214	657.55
418.591	635.41
418.967	670.89
419.344	694.16
419.721	672.02
420.098	689.87
420.475	680.6
420.852	699.36
421.228	702.98
421.605	717.44
421.982	680.6
422.358	688.74
422.735	729.64
423.111	705.24
423.488	726.93
423.864	739.59
424.241	760.15
424.617	744.1
424.994	745.69
425.37	767.15
425.746	747.95
426.123	754.05
426.499	749.53
426.875	742.52
427.251	762.64
427.627	774.39
428.003	790.21
428.379	836.31
428.756	838.57
429.132	848.28
429.507	830.43
429.883	840.6
430.259	852.8
430.635	824.33
431.011	829.07
431.387	856.87
431.763	857.32
432.138	862.07
432.514	897.55
432.89	897.77
433.265	920.15
433.641	919.69
434.016	939.58
434.392	919.24
434.767	918.56
435.143	905.46
435.518	921.28
435.894	941.16
436.269	931.9
436.644	956.53
437.02	971.44
437.395	994.27
437.77	1008.05
438.145	1025
438.52	1029.75
438.895	1029.07
439.271	982.06
439.646	1004.44
440.021	991.78
440.395	1016.19
440.77	997.66
441.145	1029.07
441.52	1098.67
441.895	1097.54
442.27	1090.99
442.645	1114.26
443.019	1096.86
443.394	1110.87
443.769	1120.82
444.143	1093.47
444.518	1072.91
444.892	1077.2
445.267	1068.16
445.641	1083.08
446.016	1132.34
446.39	1133.02
446.764	1175.51
447.139	1183.64
447.513	1190.19
447.887	1176.64
448.262	1160.14
448.636	1134.83
449.01	1159.01
449.384	1115.85
449.758	1151.55
450.132	1144.55
450.506	1182.06
450.88	1195.39
451.254	1205.79
451.628	1237.65
452.002	1265.45
452.376	1268.61
452.75	1274.26
453.123	1230.65
453.497	1270.19
453.871	1227.93
454.244	1228.16
454.618	1232.91
454.992	1240.14
455.365	1268.16
455.739	1310.64
456.112	1325.56
456.486	1359.23
456.859	1415.5
457.232	1419.34
457.606	1382.28
457.979	1356.97
458.352	1380.02
458.725	1378.44
459.099	1339.8
459.472	1340.02
459.845	1372.34
460.218	1377.31
460.591	1399.91
460.964	1422.96
461.337	1476.74
461.71	1527.13
462.083	1543.41
462.456	1567.81
462.829	1527.13
463.201	1546.8
463.574	1528.49
463.947	1514.25
464.32	1479
464.692	1472
465.065	1488.94
465.438	1512.67
465.81	1605.55
466.183	1599.9
466.555	1678.77
466.928	1723.74
467.3	1728.03
467.672	1735.49
468.045	1754.47
468.417	1723.51
468.789	1676.74
469.161	1663.4
469.534	1649.39
469.906	1671.31
470.278	1681.71
470.65	1752.67
471.022	1786.34
471.394	1878.76
471.766	1931.42
472.138	1963.28
472.51	2024.52
472.882	2046.67
473.253	2030.85
473.625	2048.7
473.997	2036.5
474.369	2005.31
474.74	1980.91
475.112	1987.69
475.484	1961.47
475.855	2062.71
476.227	2066.56
476.598	2197.63
476.97	2177.74
477.341	2323.95
477.713	2374.8
478.084	2403.72
478.455	2440.56
478.827	2458.18
479.198	2484.85
479.569	2419.99
479.94	2431.07
480.311	2390.84
480.682	2407.11
481.053	2430.39
481.424	2516.04
481.795	2561.23
482.166	2631.29
482.537	2701.34
482.908	2842.58
483.279	2885.52
483.65	2969.58
484.021	3010.26
484.391	3052.52
484.762	3009.13
485.133	2954.89
485.503	2925.06
485.874	2922.13
486.244	2931.62
486.615	2971.39
486.985	3006.42
487.356	3088.68
487.726	3215.68
488.097	3317.6
488.467	3416.12
488.837	3555.1
489.207	3671.26
489.578	3668.77
489.948	3671.03
490.318	3693.86
490.688	3619.51
491.058	3629.68
491.428	3551.49
491.798	3511.72
492.168	3596.01
492.538	3542.9
492.908	3642.79
493.278	3765.72
493.648	3838.26
494.017	3988.54
494.387	4093.4
494.757	4200.51
495.126	4270.11
495.496	4315.31
495.866	4311.69
496.235	4278.25
496.605	4247.52
496.974	4195.77
497.344	4149.89
497.713	4042.1
498.082	4037.8
498.452	4095.43
498.821	4122.55
499.19	4176.1
499.559	4328.64
499.928	4449.54
500.298	4580.16
500.667	4668.97
501.036	4752.59
501.405	4808.4
501.774	4735.19
502.143	4790.55
502.512	4734.96
502.88	4631.69
503.249	4512.59
503.618	4447.51
503.987	4457.91
504.356	4428.98
504.724	4433.5
505.093	4514.18
505.462	4592.14
505.83	4718.46
506.199	4936.31
506.567	5016.76
506.936	5125.46
507.304	5227.15
507.672	5222.18
508.041	5236.42
508.409	5175.17
508.777	5068.51
509.145	5011.34
509.514	4872.81
509.882	4827.84
510.25	4755.75
510.618	4751.46
510.986	4781.06
511.354	4881.85
511.722	5024.22
512.09	5094.05
512.458	5194.16
512.826	5348.73
513.193	5478.67
513.561	5572
513.929	5603.86
514.297	5682.28
514.664	5569.06
515.032	5497.65
515.4	5434.83
515.767	5297.43
516.135	5210.65
516.502	5037.78
516.869	5082.97
517.237	5060.38
517.604	5038.68
517.972	5231.44
518.339	5404.1
518.706	5480.48
519.073	5664.88
519.44	5827.81
519.808	5955.95
520.175	6021.93
520.542	6058.32
520.909	6084.98
521.276	5914.14
521.643	5876.17
522.009	5802.28
522.376	5744.43
522.743	5582.17
523.11	5524.54
523.477	5439.35
523.843	5532.23
524.21	5604.99
524.577	5665.78
524.943	5822.62
525.31	6061.71
525.676	6208.37
526.043	6465.76
526.409	6568.36
526.776	6718.41
527.142	6798.18
527.508	6729.71
527.874	6759.31
528.241	6667.56
528.607	6505.31
528.973	6377.63
529.339	6283.62
529.705	6233.23
530.071	6147.58
530.437	6125.88
530.803	6184.64
531.169	6267.35
531.535	6377.85
531.901	6504.63
532.267	6823.49
532.632	7004.28
532.998	7185.29
533.364	7395
533.73	7504.38
534.095	7591.38
534.461	7569.69
534.826	7550.03
535.192	7432.52
535.557	7334.21
535.923	7124.28
536.288	7022.36
536.653	6901.46
537.019	6836.83
537.384	6755.02
537.749	6845.19
538.114	6925.64
538.479	7086.99
538.845	7253.09
539.21	7453.98
539.575	7723.13
539.94	7890.58
540.305	8061.65
540.67	8225.49
541.034	8281.99
541.399	8378.93
541.764	8339.61
542.129	8225.26
542.494	8136.68
542.858	7986.4
543.223	7782.34
543.587	7650.14
543.952	7485.62
544.316	7451.5
544.681	7413.99
545.045	7504.15
545.41	7616.01
545.774	7775.56
546.138	7952.28
546.503	8172.38
546.867	8350.46
547.231	8630
547.595	8757.68
547.959	8938.92
548.324	8961.97
548.688	9003.1
549.052	8948.18
549.416	8903.89
549.779	8729.66
550.143	8555.2
550.507	8411.25
550.871	8245.6
551.235	8088.09
551.599	7964.93
551.962	7864.82
552.326	7946.18
552.689	7985.27
553.053	8065.04
553.417	8305.94
553.78	8575.76
554.143	8752.71
554.507	8996.09
554.87	9218.46
555.234	9320.38
555.597	9388.4
555.96	9532.12
556.323	9507.94
556.686	9436.31
557.05	9320.83
557.413	9141.85
557.776	8972.59
558.139	8823.21
558.502	8587.97
558.865	8441.98
559.228	8427.74
559.59	8353.62
559.953	8423.68
560.316	8548.19
560.679	8659.83
561.041	8878.58
561.404	9101.85
561.767	9302.3
562.129	9548.62
562.492	9744.55
562.854	9984.54
563.217	10098.89
563.579	10144.99
563.941	10238.09
564.304	10127.81
564.666	10032
565.028	9934.15
565.39	9710.2
565.753	9580.93
566.115	9429.53
566.477	9210.55
566.839	9041.29
567.201	8997.45
567.563	9008.07
567.925	9078.57
568.287	9221.85
568.648	9391.79
569.01	9659.8
569.372	9866.12
569.734	10027.7
570.095	10381.14
570.457	10605.09
570.819	10736.38
571.18	10950.62
571.542	11059.31
571.903	10991.97
572.265	10969.82
572.626	10863.61
572.987	10717.4
573.349	10551.76
573.71	10428.82
574.071	10254.59
574.432	10046.23
574.794	10017.53
575.155	10018.89
575.516	9926.24
575.877	10033.13
576.238	10186.79
576.599	10482.61
576.96	10632.21
577.32	11006.66
577.681	11353.54
578.042	11732.74
578.403	11991.27
578.763	12293.63
579.124	12698.14
579.485	12850.91
579.845	13045.48
580.206	13120.5
580.566	13194.85
580.927	13246.15
581.287	13226.04
581.648	13143.78
582.008	13181.74
582.368	13186.94
582.728	13216.55
583.089	13258.35
583.449	13484.79
583.809	13746.02
584.169	14028.95
584.529	14428.26
584.889	14957.29
585.249	15454.23
585.609	16024.61
585.969	16758.15
586.329	17309.77
586.688	18047.6
587.048	18693.46
587.408	19342.03
587.768	19808.24
588.127	20327.54
588.487	20763.92
588.846	21247.52
589.206	21376.56
589.565	21735.64
589.925	22124.11
590.284	22323.88
590.643	22571.33
591.003	22911.88
591.362	23333.79
591.721	23523.39
592.08	24037.96
592.44	24707.09
592.799	25171.49
593.158	25730.79
593.517	26457.78
593.876	27364.65
594.235	28024.07
594.593	28869.47
594.952	29681.2
595.311	30327.73
595.67	31202.29
596.029	31963.85
596.387	32633.44
596.746	33167.43
597.104	33669.34
597.463	34179.16
597.822	34650.33
598.18	34745.92
598.538	34944.79
598.897	35564.43
599.255	35552.91
599.613	36318.99
599.972	36264.75
600.33	36710.39
600.688	37005.98
601.046	37552.4
601.404	38119.62
601.762	38595.54
602.12	39292.24
602.478	39832.34
602.836	40523.62
603.194	40921.13
603.552	41577.16
603.91	42023.25
604.268	42904.13
604.625	43222.54
604.983	43883.08
605.341	44075.85
605.698	44760.12
606.056	45187.68
606.413	45368.47
606.771	45720.32
607.128	45955.8
607.485	45881.22
607.843	45877.61
608.2	46199.18
608.557	46423.81
608.914	46389.91
609.272	46573.86
609.629	46808.43
609.986	47061.76
610.343	47241.19
610.7	47618.8
611.057	47860.15
611.414	48111.67
611.771	48533.13
612.127	48933.8
612.484	49269.16
612.841	49754.34
613.198	49859.42
613.554	50251.96
613.911	50663.47
614.267	50844.48
614.624	50980.3
614.98	51162.44
615.337	51499.15
615.693	51490.34
616.05	51383.9
616.406	51704.8
616.762	51492.37
617.118	51435.65
617.475	51507.06
617.831	51458.48
618.187	51493.73
618.543	51405.37
618.899	51548.87
619.255	51537.8
619.611	51531.92
619.967	51795.19
620.323	51893.95
620.678	51968.07
621.034	51981.18
621.39	52180.72
621.746	52413.93
622.101	52854.15
622.457	52789.06
622.812	53002.62
623.168	53220.24
623.523	53368.94
623.879	53523.73
624.234	53408.48
624.589	53599.89
624.945	53550.17
625.3	53667.68
625.655	53482.15
626.01	53596.27
626.365	53523.28
626.72	53358.31
627.075	53274.93
627.43	53263.4
627.785	53029.28
628.14	53070.86
628.495	53001.26
628.85	52871.77
629.205	52833.36
629.559	53059.34
629.914	52940.02
630.269	53105.21
630.623	53103.63
630.978	53074.03
631.332	53417.52
631.687	53523.73
632.041	53533.45
632.396	53714.01
632.75	53706.55
633.104	53901.35
633.459	53900.45
633.813	53996.94
634.167	53991.74
634.521	53898.41
634.875	53941.35
635.229	53866.78
635.583	53695.48
635.937	53584.07
636.291	53458.65
636.645	53414.13
636.999	53211.65
637.352	53143.86
637.706	52900.47
638.06	52890.76
638.413	52760.36
638.767	52631.78
639.121	52713.81
639.474	52482.63
639.828	52510.2
640.181	52655.51
640.534	52577.54
640.888	52747.71
641.241	52723.53
641.594	52874.94
641.947	53097.53
642.301	53059.79
642.654	53214.59
643.007	53215.27
643.36	53375.94
643.713	53391.08
644.066	53522.83
644.419	53377.98
644.771	53190.64
645.124	52943.64
645.477	52723.08
645.83	52433.14
646.182	52291.45
646.535	52141.4
646.888	52025.69
647.24	51718.36
647.593	51726.27
647.945	51700.96
648.298	51415.77
648.65	51193.63
649.002	51121.76
649.355	51247.18
649.707	51023.91
650.059	51183
650.411	51632.48
650.763	51686.72
651.115	52135.07
651.467	52109.31
651.819	52217.33
652.171	52159.93
652.523	52248.51
652.875	52314.5
653.227	52254.16
653.578	52564.66
653.93	52666.36
654.282	52552.01
654.633	52482.18
654.985	52564.21
655.337	52612.8
655.688	52518.34
656.039	52579.8
656.391	52259.36
656.742	52162.19
657.094	52100.49
657.445	52119.25
657.796	51859.37
658.147	51710.67
658.498	51654.63
658.849	51540.28
659.2	51474.52
659.551	51295.54
659.902	51324.92
660.253	51247.64
660.604	51323.57
660.955	51232.04
661.306	51438.59
661.656	51439.95
662.007	51458.7
662.358	51638.36
662.708	51754.74
663.059	51790.67
663.409	51711.8
663.76	52102.98
664.11	52161.06
664.461	52279.02
664.811	52272.02
665.161	52352.69
665.511	52224.33
665.862	52134.62
666.212	52311.56
666.562	52201.28
666.912	51917.67
667.262	51911.35
667.612	51951.57
667.962	51739.83
668.312	51486.73
668.662	51694.86
669.011	51267.3
669.361	51142.1
669.711	51084.7
670.06	50972.39
670.41	50752.06
670.76	50708.21
671.109	50769.68
671.459	50759.74
671.808	50688.33
672.157	50764.94
672.507	50679.51
672.856	50768.1
673.205	51015.33
673.554	51100.75
673.904	51085.83
674.253	51343
674.602	51296.45
674.951	51063.91
675.3	50881.32
675.649	51600.39
675.998	51662.31
676.346	51574.41
676.695	51782.99
677.044	51474.75
677.393	51538.7
677.741	51444.01
678.09	51355.66
678.438	51266.62
678.787	51115.89
679.135	51082.67
679.484	50696.69
679.832	50608.78
680.181	50401.78
680.529	50363.82
680.877	50221.67
681.225	50034.56
681.573	50205.4
681.922	49857.84
682.27	49658.98
682.618	49772.19
682.966	49751.4
683.314	49732.87
683.661	49671.63
684.009	49603.16
684.357	49593.44
684.705	49691.97
685.053	49773.78
685.4	49803.15
685.748	49824.17
686.095	49894.45
686.443	49781.91
686.79	49969.48
687.138	50164.27
687.485	50268.23
687.832	50188.91
688.18	50178.51
688.527	49971.96
688.874	49973.32
689.221	49785.75
689.568	49622.82
689.915	49472.77
690.262	49315.71
690.609	49212.66
690.956	48993.46
691.303	48849.73
691.65	48515.5
691.997	48484.54
692.344	47939.7
692.69	47874.39
693.037	47795.07
693.383	47337.46
693.73	47438.92
694.077	47255.88
694.423	47112.38
694.769	46998.71
695.116	47047.97
695.462	47037.8
695.808	46988.09
696.155	47114.64
696.501	46873.51
696.847	47050.68
697.193	46817.7
697.539	47092.04
697.885	46981.53
698.231	46971.82
698.577	47078.48
698.923	47037.58
699.269	47039.16
699.614	46831.48
699.96	46986.28
700.306	46940.18
700.651	46656.8
700.997	46616.57
701.342	46500.42
701.688	46420.64
702.033	46131.39
702.379	46155.34
702.724	45634.68
703.069	45742.24
703.415	45240.34
703.76	45131.41
704.105	44947.46
704.45	44744.98
704.795	44452.33
705.14	44254.6
705.485	44065.45
705.83	43793.82
706.175	43893.7
706.52	43598.12
706.865	43549.31
707.209	43532.36
707.554	43483.09
707.899	43523.09
708.243	43457.78
708.588	43426.82
708.932	43195.87
709.277	43426.15
709.621	43570.78
709.966	43438.35
710.31	43635.63
710.654	43298.01
710.998	43615.52
711.342	43750.66
711.687	43627.72
712.031	43495.07
712.375	43430.67
712.719	43520.83
713.063	43287.39
713.407	43418.24
713.75	43182.99
714.094	43133.95
714.438	42932.83
714.782	42768.54
715.125	42532.16
715.469	42485.38
715.812	42222.34
716.156	41879.52
716.499	41900.99
716.843	41729.69
717.186	41201.57
717.53	41326.77
717.873	41369.25
718.216	41060.11
718.559	40757.06
718.902	40666.9
719.246	40609.95
719.589	40464.42
719.932	40437.98
720.275	40414.25
720.617	40507.8
720.96	40463.06
721.303	40498.31
721.646	40621.7
721.989	40495.38
722.331	40772.88
722.674	40599.55
723.016	40671.64
723.359	40781.24
723.701	40806.33
724.044	40757.97
724.386	40741.25
724.729	40729.49
725.071	40740.57
725.413	40716.16
725.755	40691.98
726.097	40570.18
726.439	40361.59
726.782	40240.47
727.124	40311.2
727.465	40042.73
727.807	39979.23
728.149	39826.92
728.491	39724.55
728.833	39669.63
729.175	39231.68
729.516	39154.62
729.858	38889.32
730.199	38924.34
730.541	38598.02
730.882	38512.38
731.224	38458.14
731.565	38108.09
731.906	38256.56
732.248	38218.37
732.589	38060.41
732.93	37970.47
733.271	38006.4
733.612	37998.72
733.953	38088.43
734.294	38029.9
734.635	37982.9
734.976	38166.17
735.317	37942.22
735.658	38166.62
735.999	38244.59
736.339	38226.96
736.68	38391.02
737.021	38528.87
737.361	38364.58
737.702	38656.33
738.042	38513.73
738.383	38516.67
738.723	38506.05
739.063	38439.38
739.404	38398.71
739.744	38243.46
740.084	38302.21
740.424	38264.47
740.764	38097.7
741.104	38241.65
741.444	37708.56
741.784	37578.84
742.124	37495.23
742.464	37255.24
742.804	37243.94
743.143	37001.46
743.483	36822.93
743.823	36508.14
744.162	36392.21
744.502	36445.31
744.841	36125.55
745.181	36349.5
745.52	36193.79
745.86	36008.04
746.199	35984.53
746.538	35970.07
746.877	36058.43
747.216	35965.78
747.556	36005.78
747.895	36059.33
748.234	35870.64
748.573	35988.38
748.911	35945.44
749.25	36144.3
749.589	35974.59
749.928	36124.42
750.267	36331.87
750.605	36299.55
750.944	36225.88
751.283	36219.78
751.621	36289.38
751.96	35983.63
752.298	36099.33
752.636	36197.41
752.975	36013.01
753.313	35946.34
753.651	35983.18
753.989	35666.12
754.327	35578.67
754.666	35345.45
755.004	35398.56
755.342	35340.26
755.679	35116.76
756.017	34775.98
756.355	34754.06
756.693	34572.59
757.031	34480.39
757.368	34155.2
757.706	34133.06
758.044	33867.75
758.381	33724.71
758.719	33532.85
759.056	33576.01
759.394	33407.2
759.731	33081.11
760.068	33125.4
760.405	32837.72
760.743	32901.68
761.08	32891.96
761.417	32811.74
761.754	32761.57
762.091	32733.77
762.428	32745.07
762.765	32605.19
763.102	32785.3
763.438	32724.05
763.775	32623.04
764.112	32711.17
764.449	32817.84
764.785	32773.55
765.122	32642.7
765.458	32600.22
765.795	32592.98
766.131	32716.6
766.467	32565.87
766.804	32439.77
767.14	32443.38
767.476	32439.09
767.812	32325.2
768.148	32318.42
768.485	32000.01
768.821	31811.99
769.157	31729.5
769.492	31558.66
769.828	31523.18
770.164	31189.41
770.5	31092.69
770.836	30820.38
771.171	30595.75
771.507	30481.63
771.842	30191.69
772.178	30033.73
772.513	29844.13
772.849	29715.77
773.184	29548.55
773.519	29464.93
773.855	29315.56
774.19	29010.48
774.525	29034.21
774.86	28999.86
775.195	28941.56
775.53	28724.16
775.865	28657.27
776.2	28427.67
776.535	28310.84
776.87	28342.25
777.205	28308.58
777.539	28242.59
777.874	28311.29
778.209	28130.96
778.543	28085.08
778.878	28004.86
779.212	28158.53
779.547	27995.59
779.881	28261.8
780.215	27984.52
780.55	28057.51
780.884	27985.42
781.218	27954.91
781.552	27983.84
781.886	27867.46
782.22	27743.39
782.554	27716.28
782.888	27423.63
783.222	27296.63
783.556	27221.6
783.889	27047.37
784.223	26856.86
784.557	26826.81
784.89	26893.47
785.224	26566.93
785.557	26415.29
785.891	26251.46
786.224	26059.6
786.558	26035.64
786.891	25734.63
787.224	25679.27
787.557	25412.83
787.891	25366.28
788.224	25272.95
788.557	25078.61
788.89	24879.52
789.223	24964.94
789.556	24773.76
789.888	24563.14
790.221	24563.59
790.554	24450.83
790.887	24344.61
791.219	24391.17
791.552	24296.93
791.884	24244.28
792.217	24142.59
792.549	24101.91
792.882	24039.09
793.214	23879.09
793.546	24101.91
793.879	23928.13
794.211	23915.25
794.543	23976.26
794.875	23719.77
795.207	23976.94
795.539	23908.69
795.871	23977.17
796.203	23719.77
796.535	23762.03
796.867	23769.26
797.198	23668.7
797.53	23623.05
797.862	23457.86
798.193	23465.54
798.525	23387.35
798.856	23402.72
799.188	23158.43
799.519	22999.79
799.85	22976.06
800.182	22945.55
800.513	22915.27
800.844	22675.28
801.175	22695.84
801.506	22699.23
801.837	22458.79
802.168	22237.32
802.499	22131.79
802.83	21980.83
803.161	21845.24
803.491	21798.47
803.822	21693.38
804.153	21520.96
804.483	21424.69
804.814	21303.79
805.145	21261.53
805.475	21304.69
805.805	21086.39
806.136	20981.76
806.466	20923.24
806.796	20940.41
807.126	20821.32
807.457	20852.5
807.787	20843.46
808.117	20736.12
808.447	20756.01
808.777	20771.6
809.107	20645.95
809.436	20740.64
809.766	20792.62
810.096	20822.45
810.426	20812.05
810.755	20729.34
811.085	20667.2
811.414	20754.2
811.744	20608.44
812.073	20579.97
812.403	20759.85
812.732	20520.99
813.061	20689.79
813.39	20505.85
813.719	20499.07
814.049	20692.96
814.378	20481.89
814.707	20483.47
815.036	20435.11
815.365	20231.73
815.693	20154.44
816.022	20084.16
816.351	20034.22
816.68	19861.34
817.008	19868.35
817.337	19559.66
817.665	19549.03
817.994	19611.41
818.322	19479.66
818.651	19327.12
818.979	19242.83
819.307	19213.68
819.636	19076.05
819.964	19017.75
820.292	18983.63
820.62	18887.36
820.948	18879.45
821.276	18835.83
821.604	18755.83
821.932	18806.68
822.259	18754.25
822.587	18722.62
822.915	18608.95
823.243	18701.37
823.57	18664.99
823.898	18785.44
824.225	18665.22
824.553	18754.03
824.88	18629.28
825.207	18704.54
825.535	18829.96
825.862	18856.62
826.189	18789.51
826.516	18944.08
826.843	18972.1
827.17	19057.3
827.497	19071.31
827.824	19091.42
828.151	19234.01
828.478	19150.4
828.805	19204.64
829.131	19227.23
829.458	19183.17
829.785	19192.21
830.111	19221.58
830.438	19357.85
830.764	19311.07
831.09	19392.43
831.417	19233.11
831.743	19276.95
832.069	19293.45
832.395	19144.07
832.722	19232.21
833.048	19111.53
833.374	19167.12
833.7	19008.71
834.026	19008.71
834.351	19027.24
834.677	18987.47
835.003	18881.93
835.329	18768.94
835.654	18693.46
835.98	18600.58
836.306	18517.65
836.631	18404.43
836.956	18379.57
837.282	18299.12
837.607	18173.48
837.932	18133.03
838.258	18221.16
838.583	18079.24
838.908	17946.14
839.233	18030.43
839.558	17923.31
839.883	17863.65
840.208	17839.47
840.533	17790.44
840.858	17851.23
841.182	17864.33
841.507	17769.42
841.832	17744.34
842.156	17749.08
842.481	17722.87
842.805	17743.21
843.13	17643.32
843.454	17840.15
843.778	17786.59
844.103	17756.99
844.427	17754.05
844.751	17816.65
845.075	17764.45
845.399	17742.3
845.723	17744.11
846.047	17719.25
846.371	17717.22
846.695	17664.79
847.019	17573.27
847.343	17498.24
847.666	17456.43
847.99	17458.92
848.313	17443.78
848.637	17247.85
848.96	17278.13
849.284	17277.46
849.607	17079.49
849.931	17064.35
850.254	16922.21
850.577	16846.51
850.9	16711.14
851.223	16615.1
851.546	16526.97
851.869	16435.22
852.192	16475.44
852.515	16259.18
852.838	16184.38
853.161	16070.26
853.483	15938.96
853.806	15901.45
854.129	15823.03
854.451	15686.31
854.774	15628.23
855.096	15551.85
855.419	15498.75
855.741	15388.92
856.063	15198.41
856.385	15244.97
856.708	15172.43
857.03	15092.65
857.352	15037.97
857.674	14994.8
857.996	15029.6
858.318	14922.49
858.64	14821.02
858.961	14843.4
859.283	14824.19
859.605	14733.12
859.926	14827.8
860.248	14715.94
860.57	14786.45
860.891	14792.55
861.212	14629.39
861.534	14624.42
861.855	14638.2
862.176	14707.58
862.498	14732.44
862.819	14677.07
863.14	14658.77
863.461	14741.25
863.782	14710.74
864.103	14765.88
864.424	14712.1
864.745	14703.06
865.065	14706.9
865.386	14593.46
865.707	14660.8
866.027	14719.33
866.348	14601.59
866.668	14610.18
866.989	14643.17
867.309	14472.78
867.63	14572.44
867.95	14562.05
868.27	14447.47
868.59	14450.64
868.91	14420.36
869.23	14361.37
869.55	14313.47
869.87	14339.23
870.19	14327.48
870.51	14320.92
870.83	14254.03
871.15	14155.28
871.469	14118.89
871.789	14113.7
872.109	14093.58
872.428	13901.05
872.748	13912.8
873.067	13816.53
873.386	13875.96
873.706	13707.38
874.025	13595.52
874.344	13610.21
874.663	13618.12
874.982	13465.8
875.301	13489.98
875.62	13459.93
875.939	13414.28
876.258	13369.08
876.577	13300.84
876.896	13304.9
877.214	13208.86
877.533	13245.24
877.852	13193.27
878.17	13239.14
878.489	13184.91
878.807	13311.23
879.125	13245.24
879.444	13263.55
879.762	13139.49
880.08	13258.58
880.398	13173.38
880.716	13206.83
881.034	13216.55
881.352	13212.48
881.67	13229.43
881.988	13204.34
882.306	13169.54
882.624	13209.31
882.941	13200.73
883.259	13111.92
883.577	13137
883.894	13127.06
884.212	13141.29
884.529	13181.74
884.846	13064.68
885.164	13107.62
885.481	13044.57
885.798	13051.13
886.115	13075.31
886.432	13079.6
886.75	12981.52
887.067	13027.4
887.383	13004.35
887.7	13087.73
888.017	12891.13
888.334	12806.39
888.651	12831.47
888.967	12833.28
889.284	12786.27
889.6	12689.78
889.917	12458.15
890.233	12485.04
890.55	12410.69
890.866	12436
891.182	12354.65
891.498	12254.76
891.815	12194.2
892.131	12105.84
892.447	12092.28
892.763	12026.07
893.079	12007.76
893.395	11892.96
893.71	11832.17
894.026	11814.1
894.342	11747.43
894.657	11664.04
894.973	11699.07
895.289	11576.81
895.604	11586.76
895.92	11381.57
896.235	11397.16
896.55	11428.34
896.865	11416.37
897.181	11368.23
897.496	11402.13
897.811	11281.68
898.126	11261.57
898.441	11245.98
898.756	11267.67
899.071	11143.15
899.386	11111.06
899.7	11034.91
900.015	11166.88
900.33	10988.81
900.644	11014.12
900.959	11043.27
901.273	11027.22
901.588	10987
901.902	11008.47
902.216	10942.93
902.531	10903.84
902.845	10965.08
903.159	10843.5
903.473	10846.66
903.787	10783.16
904.101	10721.7
904.415	10798.08
904.729	10723.96
905.042	10712.66
905.356	10692.09
905.67	10732.99
905.984	10673.34
906.297	10668.14
906.611	10569.84
906.924	10582.72
907.237	10522.15
907.551	10524.64
907.864	10421.82
908.177	10451.87
908.491	10302.27
908.804	10304.08
909.117	10258.66
909.43	10236.74
909.743	10125.55
910.056	10104.76
910.368	9998.32
910.681	9961.72
910.994	9958.1
911.307	9928.72
911.619	9754.94
911.932	9769.86
912.244	9700.03
912.557	9624.32
912.869	9578.22
913.181	9476.08
913.494	9500.03
913.806	9370.54
914.118	9393.37
914.43	9218.91
914.742	9256.88
915.054	9146.37
915.366	9161.96
915.678	9082.19
915.99	9013.94
916.302	8939.14
916.613	8942.31
916.925	8915.42
917.236	8843.1
917.548	8817.34
917.859	8746.83
918.171	8722.65
918.482	8754.97
918.794	8665.93
919.105	8669.32
919.416	8622.77
919.727	8608.76
920.038	8568.31
920.349	8566.72
920.66	8493.28
920.971	8502.54
921.282	8496.22
921.593	8516.33
921.903	8432.72
922.214	8427.52
922.525	8300.29
922.835	8414.41
923.146	8370.12
923.456	8236.11
923.767	8247.64
924.077	8286.73
924.387	8224.36
924.697	8200.63
925.008	8228.43
925.318	8192.5
925.628	8197.02
925.938	8199.28
926.248	8063.91
926.558	8053.07
926.867	8081.54
927.177	8008.55
927.487	8021.88
927.796	7921.54
928.106	7964.25
928.416	7891.04
928.725	7849.23
929.034	7785.28
929.344	7797.93
929.653	7781.43
929.962	7654.21
930.271	7685.84
930.581	7704.37
930.89	7581.67
931.199	7512.74
931.508	7529.01
931.817	7438.17
932.125	7455.57
932.434	7398.39
932.743	7358.39
933.051	7293.31
933.36	7304.16
933.669	7185.29
933.977	7184.84
934.286	7138.06
934.594	7081.57
934.902	6989.36
935.21	6966.99
935.519	6949.14
935.827	6913.89
936.135	6824.4
936.443	6809.48
936.751	6710.5
937.059	6752.53
937.367	6614.91
937.674	6680.45
937.982	6630.05
938.29	6543.73
938.597	6608.58
938.905	6484.74
939.213	6465.08
939.52	6435.48
939.827	6494.46
940.135	6432.32
940.442	6396.84
940.749	6320.91
941.056	6362.26
941.363	6289.95
941.67	6308.03
941.977	6281.81
942.284	6251.3
942.591	6199.33
942.898	6234.81
943.205	6253.56
943.511	6178.09
943.818	6221.02
944.125	6147.58
944.431	6167.01
944.738	6156.39
945.044	6142.61
945.35	6094.47
945.657	6094.7
945.963	6105.32
946.269	6061.03
946.575	6066.68
946.881	5973.12
947.187	6049.95
947.493	5977.87
947.799	6012.21
948.105	5922.5
948.41	5953.23
948.716	5896.06
949.022	5846.12
949.327	5829.85
949.633	5832.33
949.938	5804.76
950.244	5793.01
950.549	5769.28
950.854	5699.23
951.16	5703.75
951.465	5701.26
951.77	5687.7
952.075	5601.6
952.38	5604.77
952.685	5594.82
952.99	5533.13
953.294	5474.83
953.599	5497.65
953.904	5414.04
954.209	5433.47
954.513	5397.32
954.818	5338.79
955.122	5298.34
955.426	5331.55
955.731	5319.35
956.035	5205.46
956.339	5212.24
956.643	5163.65
956.948	5127.94
957.252	5151.9
957.556	5090.88
957.86	5069.19
958.163	5045.69
958.467	5005.01
958.771	4977.67
959.075	4934.95
959.378	4890.66
959.682	4861.74
959.985	4887.05
960.289	4805.92
960.592	4786.71
960.896	4784.45
961.199	4715.53
961.502	4726.15
961.805	4693.83
962.108	4654.28
962.411	4607.51
962.714	4641.63
963.017	4633.72
963.32	4628.52
963.623	4584.23
963.926	4658.8
964.228	4638.69
964.531	4547.85
964.833	4541.52
965.136	4510.79
965.438	4485.7
965.741	4484.12
966.043	4461.52
966.345	4460.39
966.648	4444.35
966.95	4452.71
967.252	4393.27
967.554	4393.27
967.856	4431.24
968.158	4378.36
968.46	4357.8
968.761	4338.36
969.063	4298.59
969.365	4327.97
969.666	4302.66
969.968	4300.4
970.269	4240.51
970.571	4245.71
970.872	4217.23
971.174	4224.47
971.475	4216.78
971.776	4231.47
972.077	4210.45
972.378	4158.7
972.679	4165.03
972.98	4133.39
973.281	4113.06
973.582	4117.35
973.883	4135.88
974.183	4053.4
974.484	4078.48
974.785	4051.14
975.085	3992.61
975.386	4051.81
975.686	3974.08
975.986	3967.97
976.287	3929.11
976.587	3867.19
976.887	3873.29
977.187	3894.3
977.487	3855.89
977.787	3775.21
978.087	3799.39
978.387	3806.85
978.687	3768.21
978.987	3735.89
979.286	3683.24
979.586	3690.24
979.885	3631.71
980.185	3647.76
980.484	3629.68
980.784	3609.11
981.083	3551.71
981.382	3571.38
981.682	3523.92
981.981	3506.07
982.28	3457.48
982.579	3476.46
982.878	3474.65
983.177	3417.25
983.475	3450.25
983.774	3399.4
984.073	3403.92
984.372	3357.37
984.67	3398.5
984.969	3392.4
985.267	3283.47
985.566	3301.55
985.864	3291.61
986.162	3270.82
986.461	3235.11
986.759	3219.75
987.057	3212.29
987.355	3217.26
987.653	3151.95
987.951	3174.32
988.249	3146.53
988.547	3151.27
988.844	3177.49
989.142	3124.16
989.44	3121.22
989.737	3117.83
990.035	3112.4
990.332	3112.18
990.63	3095.46
990.927	3066.98
991.224	3050.48
991.521	3023.59
991.819	3065.17
992.116	3049.81
992.413	3019.75
992.71	3019.75
993.006	3010.26
993.303	3000.77
993.6	2995.57
993.897	2972.97
994.193	2974.55
994.49	2949.24
994.787	2939.98
995.083	2924.61
995.379	2937.95
995.676	2877.16
995.972	2853.2
996.268	2864.27
996.565	2890.94
996.861	2826.76
997.157	2838.29
997.453	2813.88
997.749	2807.1
998.044	2809.59
998.34	2791.96
998.636	2774.11
998.932	2778.63
999.227	2717.16
999.523	2727.1
999.818	2727.33
1000.114	2692.3
1000.409	2669.7
1000.704	2682.58
1001	2632.19
1001.295	2622.02
1001.59	2628.12
1001.885	2608.01
1002.18	2570.95
1002.475	2590.38
1002.77	2561.46
1003.065	2515.58
1003.359	2510.16
1003.654	2482.59
1003.949	2507.45
1004.243	2444.17
1004.538	2424.29
1004.832	2460.44
1005.127	2429.48
1005.421	2441.01
1005.715	2365.08
1006.009	2389.26
1006.304	2328.47
1006.598	2334.12
1006.892	2334.57
1007.186	2288.92
1007.48	2302.03
1007.773	2281.47
1008.067	2245.76
1008.361	2215.48
1008.655	2217.51
1008.948	2204.18
1009.242	2220.22
1009.535	2155.82
1009.829	2174.35
1010.122	2128.25
1010.415	2141.58
1010.708	2141.58
1011.001	2145.2
1011.295	2114.46
1011.588	2053.67
1011.881	2038.53
1012.173	2056.61
1012.466	2022.72
1012.759	2043.05
1013.052	2035.6
1013.344	2013.22
1013.637	2012.55
1013.93	2010.96
1014.222	1978.65
1014.514	1991.3
1014.807	1969.16
1015.099	1961.47
1015.391	1955.37
1015.683	1923.06
1015.976	1914.02
1016.268	1894.36
1016.56	1893.68
1016.851	1902.72
1017.143	1904.98
1017.435	1888.71
1017.727	1855.94
1018.018	1855.26
1018.31	1831.53
1018.602	1838.77
1018.893	1838.99
1019.185	1815.71
1019.476	1806.45
1019.767	1806.22
1020.058	1790.63
1020.35	1772.55
1020.641	1806.9
1020.932	1725.77
1021.223	1737.75
1021.514	1734.81
1021.804	1741.37
1022.095	1666.57
1022.386	1722.16
1022.677	1680.58
1022.967	1675.61
1023.258	1696.4
1023.548	1650.97
1023.839	1662.95
1024.129	1635.61
1024.419	1613.69
1024.709	1608.04
1025	1581.14
1025.29	1568.04
1025.58	1569.85
1025.87	1570.52
1026.16	1558.32
1026.449	1542.95
1026.739	1545.44
1027.029	1566
1027.319	1509.51
1027.608	1496.63
1027.898	1497.31
1028.187	1475.61
1028.477	1464.31
1028.766	1474.03
1029.055	1458.89
1029.344	1441.94
1029.634	1414.82
1029.923	1424.99
1030.212	1386.35
1030.501	1382.51
1030.79	1376.63
1031.078	1364.88
1031.367	1349.06
1031.656	1364.65
1031.945	1354.48
1032.233	1321.94
1032.522	1314.71
1032.81	1254.15
1033.099	1278.1
1033.387	1260.25
1033.675	1258.44
1033.963	1260.25
1034.251	1259.35
1034.54	1254.37
1034.828	1218.44
1035.116	1236.52
1035.403	1225.45
1035.691	1209.86
1035.979	1203.75
1036.267	1185.22
1036.554	1206.92
1036.842	1185.9
1037.129	1170.76
1037.417	1174.6
1037.704	1148.61
1037.992	1136.64
1038.279	1128.73
1038.566	1116.07
1038.853	1116.07
1039.14	1116.07
