Data from red_cardboard_box_FLMS001491_00020.txt Node
Date: Wed Feb 08 11:31:37 GMT 2017
User: dcchb
Spectrometer: FLMS00149
Trigger mode: 0
Integration Time (sec): 2.000000E-2
Scans to average: 10
Electric dark correction enabled: true
Nonlinearity correction enabled: false
Boxcar width: 0
XAxis mode: Wavelengths
Number of Pixels in Spectrum: 2048
>>>>>Begin Spectral Data<<<<<
341.393	2.27
341.776	2.27
342.16	2.27
342.543	-47.44
342.927	-77.05
343.31	-61.45
343.693	-67.33
344.077	-58.74
344.46	-62.81
344.843	-59.42
345.226	-60.1
345.61	-26.43
345.993	-30.04
346.376	16.96
346.759	-0.89
347.142	21.48
347.525	49.5
347.908	51.31
348.291	68.94
348.674	92.44
349.057	126.56
349.44	121.59
349.823	149.16
350.206	144.19
350.588	196.85
350.971	205.43
351.354	231.19
351.737	244.75
352.119	243.85
352.502	277.52
352.884	274.58
353.267	299.22
353.65	302.61
354.032	316.84
354.414	318.42
354.797	311.42
355.179	337.18
355.562	324.3
355.944	336.5
356.326	347.58
356.709	334.69
357.091	337.41
357.473	349.38
357.855	340.34
358.238	353
358.62	336.95
359.002	336.28
359.384	344.86
359.766	348.93
360.148	328.82
360.53	337.41
360.912	334.02
361.294	334.69
361.676	317.75
362.057	311.42
362.439	324.53
362.821	338.54
363.203	324.07
363.584	339.67
363.966	326.56
364.348	304.64
364.729	314.36
365.111	312.1
365.493	321.59
365.874	308.93
366.256	327.24
366.637	299.67
367.019	295.6
367.4	315.71
367.781	325.66
368.163	310.97
368.544	316.84
368.925	307.8
369.306	285.43
369.688	304.41
370.069	309.16
370.45	301.25
370.831	293.79
371.212	325.66
371.593	310.29
371.974	307.35
372.355	312.77
372.736	314.81
373.117	322.49
373.498	310.74
373.879	314.13
374.26	292.21
374.641	299.67
375.021	311.87
375.402	334.47
375.783	326.79
376.163	318.65
376.544	312.1
376.925	310.97
377.305	339.44
377.686	303.73
378.066	321.81
378.447	321.14
378.827	322.49
379.208	304.19
379.588	327.24
379.968	311.19
380.349	321.14
380.729	324.07
381.109	328.82
381.489	328.59
381.87	329.95
382.25	327.69
382.63	324.75
383.01	316.84
383.39	344.19
383.77	352.1
384.15	322.04
384.53	338.31
384.91	307.35
385.29	333.79
385.67	331.53
386.049	335.37
386.429	346.9
386.809	341.25
387.189	326.79
387.568	342.38
387.948	328.59
388.328	346.9
388.707	347.58
389.087	341.47
389.466	348.71
389.846	332.66
390.225	350.97
390.605	348.93
390.984	352.1
391.363	350.97
391.743	345.32
392.122	348.48
392.501	355.71
392.881	336.95
393.26	359.1
393.639	350.51
394.018	360.46
394.397	355.03
394.776	363.17
395.155	374.24
395.534	354.13
395.913	345.99
396.292	356.84
396.671	385.09
397.05	367.91
397.429	353.9
397.808	351.42
398.186	375.82
398.565	369.95
398.944	371.98
399.323	360.46
399.701	364.07
400.08	376.28
400.458	366.78
400.837	345.32
401.215	376.5
401.594	358.42
401.972	361.13
402.351	355.03
402.729	364.07
403.107	373.56
403.486	371.08
403.864	364.07
404.242	370.85
404.62	369.72
404.999	379.67
405.377	394.13
405.755	377.41
406.133	374.24
406.511	388.7
406.889	395.48
407.267	376.95
407.645	389.83
408.023	381.25
408.401	401.36
408.779	381.25
409.156	406.33
409.534	395.94
409.912	403.62
410.29	404.75
410.667	398.2
411.045	414.47
411.422	423.51
411.8	390.96
412.178	403.39
412.555	419.21
412.933	421.47
413.31	392.32
413.687	423.96
414.065	418.76
414.442	413.34
414.819	417.86
415.197	423.73
415.574	413.34
415.951	413.11
416.328	418.08
416.705	432.32
417.082	439.1
417.46	411.75
417.837	444.07
418.214	435.71
418.591	459.21
418.967	423.73
419.344	436.84
419.721	428.03
420.098	430.51
420.475	427.57
420.852	418.99
421.228	431.19
421.605	433.9
421.982	445.2
422.358	430.06
422.735	447.91
423.111	451.08
423.488	454.01
423.864	453.56
424.241	456.5
424.617	421.7
424.994	458.99
425.37	458.31
425.746	450.4
426.123	458.08
426.499	448.36
426.875	456.27
427.251	480.23
427.627	457.4
428.003	472.09
428.379	478.87
428.756	471.41
429.132	473
429.507	486.78
429.883	467.57
430.259	504.63
430.635	491.75
431.011	488.81
431.387	486.1
431.763	490.17
432.138	486.78
432.514	507.35
432.89	503.5
433.265	486.56
433.641	515.93
434.016	524.29
434.392	526.78
434.767	553.9
435.143	526.78
435.518	538.53
435.894	528.14
436.269	543.5
436.644	527.68
437.02	538.98
437.395	528.14
437.77	555.03
438.145	566.78
438.52	533.56
438.895	560.23
439.271	553.9
439.646	562.94
440.021	560
440.395	556.38
440.77	584.18
441.145	560
441.52	551.86
441.895	555.25
442.27	580.11
442.645	566.1
443.019	565.65
443.394	585.31
443.769	588.25
444.143	578.3
444.518	587.34
444.892	596.83
445.267	578.76
445.641	570.17
446.016	588.47
446.39	587.57
446.764	609.04
447.139	604.74
447.513	602.48
447.887	591.41
448.262	598.42
448.636	606.1
449.01	612.2
449.384	618.53
449.758	619.88
450.132	593.67
450.506	598.42
450.88	617.4
451.254	621.24
451.628	635.93
452.002	612.2
452.376	629.83
452.75	623.73
453.123	641.58
453.497	646.1
453.871	642.94
454.244	654.01
454.618	644.06
454.992	643.84
455.365	663.27
455.739	662.82
456.112	670.96
456.486	657.85
456.859	688.13
457.232	674.57
457.606	672.09
457.979	678.41
458.352	707.11
458.725	696.04
459.099	681.13
459.472	693.56
459.845	717.51
460.218	707.79
460.591	734.23
460.964	726.55
461.337	737.85
461.71	756.38
462.083	735.81
462.456	710.96
462.829	727.23
463.201	747.34
463.574	727.68
463.947	754.34
464.32	769.49
464.692	782.14
465.065	778.52
465.438	773.1
465.81	777.39
466.183	805.42
466.555	788.02
466.928	791.63
467.3	799.77
467.672	808.81
468.045	830.27
468.417	840.44
468.789	833.66
469.161	815.13
469.534	858.3
469.906	849.48
470.278	842.93
470.65	877.28
471.022	858.75
471.394	879.54
471.766	903.72
472.138	907.33
472.51	921.35
472.882	915.7
473.253	920.22
473.625	931.29
473.997	927
474.369	943.72
474.74	973.32
475.112	973.1
475.484	981.23
475.855	985.98
476.227	979.42
476.598	999.99
476.97	1021.23
477.341	1016.48
477.713	1027.33
478.084	1029.37
478.455	1068.91
478.827	1059.2
479.198	1100.1
479.569	1107.56
479.94	1127.22
480.311	1115.92
480.682	1158.85
481.053	1161.11
481.424	1163.83
481.795	1185.29
482.166	1177.16
482.537	1205.18
482.908	1238.63
483.279	1232.3
483.65	1282.01
484.021	1294.67
484.391	1291.05
484.762	1293.99
485.133	1303.26
485.503	1305.97
485.874	1329.7
486.244	1358.4
486.615	1377.83
486.985	1376.7
487.356	1392.07
487.726	1429.58
488.097	1464.83
488.467	1422.58
488.837	1471.16
489.207	1488.56
489.578	1471.84
489.948	1497.38
490.318	1521.78
490.688	1538.05
491.058	1516.13
491.428	1545.96
491.798	1581.67
492.168	1606.07
492.538	1631.38
492.908	1625.73
493.278	1607.43
493.648	1633.19
494.017	1645.39
494.387	1656.24
494.757	1685.17
495.126	1684.26
495.496	1695.79
495.866	1722.91
496.235	1750.25
496.605	1726.07
496.974	1744.38
497.344	1777.59
497.713	1770.14
498.082	1796.8
498.452	1802.45
498.821	1809.68
499.19	1826.41
499.559	1828.21
499.928	1855.78
500.298	1851.94
500.667	1870.02
501.036	1874.32
501.405	1877.25
501.774	1893.52
502.143	1884.71
502.512	1932.39
502.88	1940.53
503.249	1940.08
503.618	1941.66
503.987	1965.61
504.356	1985.27
504.724	2000.19
505.093	1977.82
505.462	2027.08
505.83	2068.21
506.199	2056.68
506.567	2091.94
506.936	2058.72
507.304	2098.04
507.672	2091.48
508.041	2125.83
508.409	2134.2
508.777	2112.05
509.145	2160.64
509.514	2216.68
509.882	2166.06
510.25	2166.51
510.618	2206.28
510.986	2201.31
511.354	2238.6
511.722	2248.09
512.09	2244.93
512.458	2287.64
512.826	2302.33
513.193	2344.59
513.561	2329.44
513.929	2312.27
514.297	2343
514.664	2348.88
515.032	2382.1
515.4	2427.52
515.767	2407.86
516.135	2421.19
516.502	2429.1
516.869	2459.16
517.237	2463.9
517.604	2458.25
517.972	2465.94
518.339	2533.05
518.706	2512.72
519.073	2561.53
519.44	2544.58
519.808	2587.06
520.175	2576.22
520.542	2615.99
520.909	2607.18
521.276	2638.14
521.643	2691.47
522.009	2670
522.376	2710.9
522.743	2704.8
523.11	2725.37
523.477	2749.55
523.843	2759.72
524.21	2779.6
524.577	2797.23
524.943	2826.61
525.31	2860.5
525.676	2868.19
526.043	2915.42
526.409	2883.78
526.776	2946.83
527.142	2932.82
527.508	2965.36
527.874	2982.08
528.241	3011.01
528.607	3032.02
528.973	3045.81
529.339	3039.26
529.705	3066.37
530.071	3126.03
530.437	3120.16
530.803	3173.26
531.169	3152.02
531.535	3166.94
531.901	3163.32
532.267	3194.73
532.632	3195.86
532.998	3242.64
533.364	3255.75
533.73	3329.87
534.095	3332.36
534.461	3321.51
534.826	3339.36
535.192	3326.93
535.557	3347.72
535.923	3377.78
536.288	3380.94
536.653	3454.84
537.019	3398.12
537.384	3458.91
537.749	3468.62
538.114	3432.69
538.479	3493.93
538.845	3514.95
539.21	3526.7
539.575	3497.78
539.94	3535.51
540.305	3567.38
540.67	3578.45
541.034	3605.34
541.399	3627.72
541.764	3616.19
542.129	3622.52
542.494	3653.7
542.858	3634.04
543.223	3690.99
543.587	3722.63
543.952	3702.74
544.316	3750.42
544.681	3741.16
545.045	3749.75
545.41	3810.99
545.774	3813.25
546.138	3829.07
546.503	3878.33
546.867	3852.12
547.231	3903.87
547.595	3909.06
547.959	3898.67
548.324	3946.35
548.688	3931.21
549.052	3942.06
549.416	3986.35
549.779	4041.04
550.143	4016.41
550.507	4038.78
550.871	4113.35
551.235	4103.41
551.599	4123.3
551.962	4139.79
552.326	4196.51
552.689	4225.21
553.053	4222.5
553.417	4215.27
553.78	4323.06
554.143	4307.25
554.507	4329.17
554.87	4353.12
555.234	4396.73
555.597	4378.43
555.96	4408.71
556.323	4463.4
556.686	4490.52
557.05	4502.72
557.413	4526.9
557.776	4572.32
558.139	4634.92
558.502	4611.19
558.865	4664.07
559.228	4706.78
559.59	4787.01
559.953	4783.62
560.316	4894.57
560.679	4862.71
561.041	4860.23
561.404	4928.7
561.767	4972.99
562.129	4919.21
562.492	4986.32
562.854	4995.59
563.217	5047.34
563.579	5160.78
563.941	5111.97
564.304	5201.69
564.666	5246.66
565.028	5317.61
565.39	5350.38
565.753	5397.61
566.115	5457.95
566.477	5476.03
566.839	5466.76
567.201	5582.47
567.563	5646.65
567.925	5681.22
568.287	5702.46
568.648	5758.05
569.01	5800.99
569.372	5838.96
569.734	5857.26
570.095	5921.67
570.457	6041.44
570.819	6019.06
571.18	6105.16
571.542	6186.29
571.903	6201.88
572.265	6237.14
572.626	6288.44
572.987	6325.05
573.349	6387.87
573.71	6470.58
574.071	6571.14
574.432	6623.34
574.794	6696.11
575.155	6737.01
575.516	6804.81
575.877	6878.03
576.238	6880.74
576.599	7048.42
576.96	7047.29
577.32	7195.53
577.681	7192.59
578.042	7333.38
578.403	7400.27
578.763	7476.2
579.124	7571.57
579.485	7612.92
579.845	7750.77
580.206	7845.91
580.566	7982.86
580.927	8033.25
581.287	8157.54
581.648	8233.24
582.008	8375.39
582.368	8505.33
582.728	8643.18
583.089	8758.88
583.449	8778.09
583.809	8961.59
584.169	9133.56
584.529	9233.44
584.889	9430.27
585.249	9536.49
585.609	9644.73
585.969	9773.09
586.329	9921.79
586.688	10192.29
587.048	10248.11
587.408	10464.37
587.768	10617.14
588.127	10892.61
588.487	11004.02
588.846	11331.47
589.206	11464.57
589.565	11624.79
589.925	11932.58
590.284	12110.43
590.643	12324.44
591.003	12626.57
591.362	12869.73
591.721	13068.6
592.08	13211.19
592.44	13557.17
592.799	13781.12
593.158	14020.89
593.517	14399.86
593.876	14606.18
594.235	14893.63
594.593	15170.24
594.952	15511.7
595.311	15749.2
595.67	16084.79
596.029	16357.78
596.387	16763.19
596.746	17063.07
597.104	17358.2
597.463	17567.01
597.822	17874.57
598.18	18248.35
598.538	18623.03
598.897	19067.54
599.255	19035.22
599.613	19702.09
599.972	19910.45
600.33	20312.93
600.688	20497.55
601.046	20941.84
601.404	21317.87
601.762	21589.95
602.12	21927.35
602.478	22256.15
602.836	22589.7
603.194	22839.87
603.552	23185.39
603.91	23461.32
604.268	23947.86
604.625	24091.13
604.983	24541.74
605.341	24639.37
605.698	25038
606.056	25497.65
606.413	25724.99
606.771	26160.23
607.128	26405.42
607.485	26557.06
607.843	26862.36
608.2	27232.97
608.557	27658.72
608.914	27779.85
609.272	27991.59
609.629	28269.78
609.986	28711.58
610.343	28766.49
610.7	29192.24
611.057	29469.75
611.414	29707.48
611.771	29853.69
612.127	30196.73
612.484	30334.36
612.841	30650.51
613.198	30788.58
613.554	30998.75
613.911	31314.22
614.267	31405.06
614.624	31715.11
614.98	31913.3
615.337	32250.24
615.693	32224.25
616.05	32276
616.406	32865.59
616.762	32837.79
617.118	32960.5
617.475	33085.02
617.831	33266.48
618.187	33614.5
618.543	33654.04
618.899	33936.3
619.255	34003.87
619.611	34146.01
619.967	34377.87
620.323	34675.94
620.678	34492.89
621.034	34527.02
621.39	34751.87
621.746	34839.32
622.101	35441.12
622.457	35186.21
622.812	35263.27
623.168	35548.23
623.523	35615.8
623.879	35802.01
624.234	35655.12
624.589	35795.68
624.945	35896.47
625.3	36112.51
625.655	36098.95
626.01	36199.97
626.365	36210.36
626.72	36322.45
627.075	36456.46
627.43	36377.36
627.785	36499.17
628.14	36661.88
628.495	36751.14
628.85	36657.36
629.205	36703
629.559	36940.06
629.914	36840.18
630.269	37000.85
630.623	36915.43
630.978	36910.46
631.332	37030.9
631.687	37176.66
632.041	37039.94
632.396	37213.27
632.75	37095.76
633.104	37248.98
633.459	37146.83
633.813	37079.72
634.167	37205.36
634.521	37287.62
634.875	37277.23
635.229	37222.54
635.583	37111.58
635.937	37147.06
636.291	37281.07
636.645	37223.67
636.999	37246.72
637.352	37253.5
637.706	37019.61
638.06	37409.43
638.413	37136.21
638.767	37097.34
639.121	37304.34
639.474	37120.17
639.828	37248.75
640.181	37369.88
640.534	37457.33
640.888	37200.39
641.241	37087.17
641.594	37038.59
641.947	37368.07
642.301	37220.28
642.654	37353.38
643.007	37309.99
643.36	37337.79
643.713	37286.04
644.066	37377.11
644.419	37078.14
644.771	36950
645.124	36589.11
645.477	36631.82
645.83	36335.1
646.182	36343.47
646.535	36163.36
646.888	36559.96
647.24	36335.33
647.593	36454.42
647.945	36316.12
648.298	36194.99
648.65	36199.51
649.002	36135.56
649.355	36358.38
649.707	36248.78
650.059	36358.83
650.411	36826.16
650.763	36892.6
651.115	37192.93
651.467	37221.86
651.819	37143.9
652.171	37178.7
652.523	37107.29
652.875	37246.49
653.227	36776
653.578	37165.59
653.93	37149.77
654.282	37008.31
654.633	36914.75
654.985	36943
655.337	37070.45
655.688	37026.39
656.039	37199.94
656.391	36805.15
656.742	36954.07
657.094	37020.06
657.445	36967.4
657.796	37004.46
658.147	36856.22
658.498	36851.47
658.849	36971.7
659.2	36860.51
659.551	36816
659.902	36911.59
660.253	36903.45
660.604	37068.19
660.955	36761.76
661.306	36946.16
661.656	37017.57
662.007	36884.24
662.358	36954.3
662.708	36968.08
663.059	36949.55
663.409	36756.34
663.76	37072.03
664.11	37028.87
664.461	37030.23
664.811	36926.73
665.161	37009.89
665.511	36787.75
665.862	36991.58
666.212	36950.45
666.562	37013.28
666.912	36918.37
667.262	36917.91
667.612	36991.36
667.962	36864.36
668.312	36822.77
668.662	37101.86
669.011	36945.48
669.361	36901.42
669.711	36965.6
670.06	36877.91
670.41	36741.19
670.76	36806.73
671.109	36948.87
671.459	36872.49
671.808	36723.57
672.157	36846.73
672.507	36636.79
672.856	36719.27
673.205	36734.87
673.554	36705.04
673.904	36598.37
674.253	36766.73
674.602	36786.62
674.951	36148.44
675.3	35996.81
675.649	36681.08
675.998	36652.61
676.346	36527.42
676.695	36670.24
677.044	36558.83
677.393	36526.96
677.741	36599.28
678.09	36549.11
678.438	36271.15
678.787	36438.6
679.135	36456
679.484	36203.13
679.832	36331.04
680.181	36052.4
680.529	36161.78
680.877	36247.2
681.225	36103.25
681.573	36267.54
681.922	36004.04
682.27	35968.79
682.618	35944.38
682.966	35976.92
683.314	35957.94
683.661	35795.23
684.009	35708.23
684.357	35751.62
684.705	35546.65
685.053	35545.97
685.4	35592.52
685.748	35388.91
686.095	35473.21
686.443	35291.29
686.79	35336.26
687.138	35430.95
687.485	35355.24
687.832	35138.75
688.18	35222.14
688.527	34951.86
688.874	34945.99
689.221	35004.52
689.568	34832.77
689.915	34717.29
690.262	34756.39
690.609	34596.84
690.956	34524.08
691.303	34533.12
691.65	34442.05
691.997	34363.86
692.344	34132.22
692.69	34224.88
693.037	34075.28
693.383	33935.62
693.73	34076.63
694.077	33808.39
694.423	33783.53
694.769	33659.24
695.116	33712.57
695.462	33625.57
695.808	33450.66
696.155	33554.39
696.501	33332.92
696.847	33398.91
697.193	33099.71
697.539	33265.81
697.885	32940.84
698.231	32889.32
698.577	32975.42
698.923	32863.56
699.269	32610.23
699.614	32490.46
699.96	32485.71
700.306	32446.17
700.651	32419.5
700.997	32177.02
701.342	32079.85
701.688	32196.68
702.033	32053.86
702.379	32024.03
702.724	31896.35
703.069	32038.04
703.415	31596.02
703.76	31661.33
704.105	31566.19
704.45	31586.08
704.795	31460.66
705.14	31373.65
705.485	31425.18
705.83	31298.63
706.175	31249.81
706.52	31123.49
706.865	31067.67
707.209	31100.89
707.554	30932.31
707.899	31039.88
708.243	30798.53
708.588	30686.44
708.932	30588.14
709.277	30592.43
709.621	30633.78
709.966	30420.46
710.31	30381.59
710.654	30084.87
710.998	30228.15
711.342	30248.94
711.687	30107.92
712.031	30029.73
712.375	29922.17
712.719	29961.94
713.063	29800.59
713.407	30071.09
713.75	29828.61
714.094	29737.09
714.438	29743.19
714.782	29694.15
715.125	29543.42
715.469	29616.41
715.812	29570.99
716.156	29265.46
716.499	29318.57
716.843	29334.16
717.186	29243.09
717.53	29323.76
717.873	29251.67
718.216	29135.52
718.559	29018.01
718.902	28871.57
719.246	28990.66
719.589	28852.81
719.932	28828.41
720.275	28862.76
720.617	28804.45
720.96	28688.53
721.303	28644.46
721.646	28741.41
721.989	28506.38
722.331	28602.65
722.674	28606.72
723.016	28588.19
723.359	28563.33
723.701	28500.73
724.044	28267.97
724.386	28266.62
724.729	28444.46
725.071	28255.09
725.413	28291.25
725.755	28200.63
726.097	28086.51
726.439	27996.79
726.782	27955.44
727.124	28015.1
727.465	27856.46
727.807	27817.81
728.149	27792.96
728.491	27809.45
728.833	27682.68
729.175	27757.48
729.516	27781.66
729.858	27654.43
730.199	27628.44
730.541	27558.39
730.882	27583.24
731.224	27648.1
731.565	27372.85
731.906	27437.48
732.248	27458.73
732.589	27306.87
732.93	27302.8
733.271	27264.83
733.612	27327.43
733.953	27299.64
734.294	27100.32
734.635	27112.75
734.976	27284.27
735.317	27034.33
735.658	26986.42
735.999	27036.37
736.339	26937.38
736.68	27056.03
737.021	27030.72
737.361	26884.28
737.702	27015.35
738.042	26737.16
738.383	26710.27
738.723	26760.89
739.063	26694
739.404	26766.77
739.744	26710.5
740.084	26631.86
740.424	26741.23
740.764	26594.34
741.104	26653.32
741.444	26463.73
741.784	26385.99
742.124	26426.66
742.464	26456.95
742.804	26390.05
743.143	26345.54
743.483	26308.02
743.823	26133.56
744.162	26131.08
744.502	26215.37
744.841	26165.2
745.181	26289.27
745.52	26122.27
745.86	26071.87
746.199	26134.69
746.538	26075.71
746.877	26113.9
747.216	26150.74
747.556	25861.03
747.895	25926.11
748.234	25882.5
748.573	25787.36
748.911	25886.11
749.25	25769.05
749.589	25722.28
749.928	25667.36
750.267	25718.43
750.605	25585.78
750.944	25615.16
751.283	25559.57
751.621	25616.06
751.96	25394.83
752.298	25376.75
752.636	25481.6
752.975	25286.35
753.313	25346.69
753.651	25331.55
753.989	25266.47
754.327	25192.8
754.666	25080.03
755.004	25089.75
755.342	25083.65
755.679	24902.41
756.017	24940.6
756.355	24995.52
756.693	24900.83
757.031	24929.75
757.368	24732.25
757.706	24736.31
758.044	24669.87
758.381	24583.77
758.719	24558.01
759.056	24571.35
759.394	24539.48
759.731	24290.45
760.068	24353.72
760.405	24246.83
760.743	24142.2
761.08	24165.93
761.417	24086.39
761.754	23999.84
762.091	23904.92
762.428	23911.93
762.765	23675.78
763.102	23855.88
763.438	23735.21
763.775	23577.02
764.112	23673.97
764.449	23623.57
764.785	23368.44
765.122	23292.28
765.458	23294.99
765.795	23304.26
766.131	23282.11
766.467	23083.47
766.804	23023.36
767.14	22875.12
767.476	22979.3
767.812	22735.24
768.148	22846.19
768.485	22637.16
768.821	22553.32
769.157	22497.73
769.492	22434.23
769.828	22379.31
770.164	22218.86
770.5	22202.82
770.836	22273.55
771.171	22117.85
771.507	22047.8
771.842	21924.64
772.178	21881.02
772.513	21832.21
772.849	21800.8
773.184	21615.49
773.519	21633.8
773.855	21613.23
774.19	21601.71
774.525	21325.56
774.86	21340.02
775.195	21284.43
775.53	21308.15
775.865	21089.86
776.2	21076.07
776.535	20876.53
776.87	20898.22
777.205	20683.09
777.539	20705.68
777.874	20769.41
778.209	20510.89
778.543	20516.08
778.878	20386.14
779.212	20390.21
779.547	20240.61
779.881	20270.44
780.215	20097.34
780.55	20210.1
780.884	20067.96
781.218	20030.45
781.552	20015.76
781.886	19846.05
782.22	19816.44
782.554	19684.24
782.888	19516.34
783.222	19478.37
783.556	19437.92
783.889	19389.56
784.223	19305.04
784.557	19158.83
784.89	19233.63
785.224	19211.94
785.557	19077.25
785.891	19007.42
786.224	18916.8
786.558	18947.99
786.891	18780.99
787.224	18711.61
787.557	18636.59
787.891	18664.38
788.224	18569.24
788.557	18538.96
788.89	18540.77
789.223	18447.21
789.556	18282.02
789.888	18268.91
790.221	18291.96
790.554	18044.96
790.887	18091.97
791.219	18053.32
791.552	17901.01
791.884	17918.64
792.217	17788.7
792.549	17785.08
792.882	17598.65
793.214	17516.39
793.546	17527.46
793.879	17470.06
794.211	17341.71
794.543	17491.76
794.875	17359.78
795.207	17408.14
795.539	17320.46
795.871	17240.46
796.203	17061.71
796.535	17053.35
796.867	17021.49
797.198	16989.4
797.53	17037.76
797.862	16827.14
798.193	16875.5
798.525	16713.92
798.856	16703.76
799.188	16670.31
799.519	16560.93
799.85	16391.45
800.182	16506.02
800.513	16518.45
800.844	16294.95
801.175	16465.57
801.506	16396.87
801.837	16298.57
802.168	16287.72
802.499	16225.8
802.83	16114.17
803.161	16082.08
803.491	16131.57
803.822	16035.98
804.153	15908.3
804.483	15853.83
804.814	15784.46
805.145	15766.15
805.475	15746.72
805.805	15690.45
806.136	15667.17
806.466	15604.35
806.796	15608.19
807.126	15524.35
807.457	15443.68
807.787	15418.14
808.117	15421.53
808.447	15283.68
808.777	15301.08
809.107	15248.2
809.436	15272.83
809.766	15252.04
810.096	15178.6
810.426	15104.02
810.755	15188.32
811.085	15036.68
811.414	14990.35
811.744	14921.66
812.073	14867.42
812.403	14846.63
812.732	14873.52
813.061	14787.2
813.39	14713.07
813.719	14655.22
814.049	14725.28
814.378	14643.02
814.707	14612.96
815.036	14518.5
815.365	14509.01
815.693	14419.75
816.022	14473.98
816.351	14374.33
816.68	14285.97
817.008	14303.37
817.337	14233.09
817.665	14138.4
817.994	14204.16
818.322	14220.88
818.651	14158.74
818.979	14080.32
819.307	14196.25
819.636	14021.11
819.964	13930.5
820.292	14073.32
820.62	14011.4
820.948	13963.71
821.276	14064.5
821.604	13988.12
821.932	14037.61
822.259	14001.45
822.587	14016.82
822.915	13923.72
823.243	14022.7
823.57	13880.55
823.898	13960.55
824.225	13841.46
824.553	13850.5
824.88	13913.77
825.207	13939.53
825.535	13861.57
825.862	13918.07
826.189	13908.12
826.516	13920.55
826.843	13956.71
827.17	13977.95
827.497	13883.26
827.824	13958.52
828.151	13988.35
828.478	13924.17
828.805	13950.83
829.131	13864.51
829.458	13820.67
829.785	13788.13
830.111	13866.09
830.438	13847.11
830.764	13808.01
831.09	13886.2
831.417	13871.97
831.743	13792.65
832.069	13856.82
832.395	13772.08
832.722	13863.6
833.048	13746.55
833.374	13839.2
833.7	13641.69
834.026	13757.84
834.351	13852.31
834.677	13718.98
835.003	13875.58
835.329	13734.57
835.654	13720.33
835.98	13714.23
836.306	13699.77
836.631	13649.15
836.956	13635.59
837.282	13609.6
837.607	13506.1
837.932	13548.36
838.258	13618.64
838.583	13515.36
838.908	13465.2
839.233	13511.3
839.558	13509.94
839.883	13402.83
840.208	13360.34
840.533	13316.27
840.858	13433.11
841.182	13291.19
841.507	13278.54
841.832	13262.26
842.156	13212.32
842.481	13239.44
842.805	13221.14
843.13	13174.13
843.454	13151.53
843.778	13093
844.103	13019.56
844.427	13034.7
844.751	13146.34
845.075	12971.65
845.399	12927.36
845.723	12867.92
846.047	12920.58
846.371	12716.06
846.695	12728.94
847.019	12610.98
847.343	12604.65
847.666	12582.73
847.99	12537.76
848.313	12577.99
848.637	12401.04
848.96	12473.13
849.284	12363.08
849.607	12309.29
849.931	12262.97
850.254	12225.23
850.577	12167.38
850.9	12025.46
851.223	11984.56
851.546	11998.34
851.869	12007.16
852.192	11996.31
852.515	11902.07
852.838	11804.22
853.161	11810.55
853.483	11734.39
853.806	11697.79
854.129	11706.15
854.451	11662.98
854.774	11659.37
855.096	11565.59
855.419	11551.57
855.741	11513.16
856.063	11457.11
856.385	11395.42
856.708	11433.16
857.03	11356.33
857.352	11377.57
857.674	11388.42
857.996	11304.58
858.318	11236.78
858.64	11193.17
858.961	11192.04
859.283	11046.28
859.605	11084.69
859.926	11110.91
860.248	11055.32
860.57	10959.05
860.891	11064.58
861.212	10929.67
861.534	10888.54
861.855	10901.2
862.176	10944.13
862.498	10934.42
862.819	10904.59
863.14	10895.77
863.461	10776.23
863.782	10733.52
864.103	10798.15
864.424	10738.26
864.745	10753.4
865.065	10752.73
865.386	10690.35
865.707	10714.99
866.027	10695.55
866.348	10642.9
866.668	10620.53
866.989	10561.54
867.309	10447.42
867.63	10524.26
867.95	10532.17
868.27	10479.96
868.59	10590.24
868.91	10512.28
869.23	10479.06
869.55	10330.59
869.87	10402
870.19	10361.55
870.51	10445.62
870.83	10418.72
871.15	10342.12
871.469	10357.93
871.789	10356.13
872.109	10326.07
872.428	10219.18
872.748	10278.84
873.067	10209.92
873.386	10223.25
873.706	10204.72
874.025	10181.44
874.344	10150.26
874.663	10184.83
874.982	10188.45
875.301	10189.8
875.62	10036.13
875.939	10082.69
876.258	10098.51
876.577	10033.2
876.896	10082.23
877.214	10057.38
877.533	10055.79
877.852	9994.1
878.17	9986.42
878.489	10037.04
878.807	9992.52
879.125	10010.6
879.444	9988.68
879.762	9907.32
880.08	9865.74
880.398	9868.91
880.716	9840.89
881.034	9802.02
881.352	9849.25
881.67	9747.78
881.988	9858.74
882.306	9766.99
882.624	9755.92
882.941	9773.99
883.259	9661
883.577	9680.66
883.894	9626.2
884.212	9575.58
884.529	9623.49
884.846	9615.81
885.164	9564.73
885.481	9485.87
885.798	9527.45
886.115	9479.99
886.432	9491.52
886.75	9467.34
887.067	9399.99
887.383	9437.28
887.7	9276.83
888.017	9312.99
888.334	9382.82
888.651	9329.26
888.967	9310.5
889.284	9220.34
889.6	9209.49
889.917	9216.49
890.233	9229.6
890.55	9167.23
890.866	9191.86
891.182	9052.66
891.498	9080
891.815	9038.19
892.131	8968.14
892.447	9011.3
892.763	9003.17
893.079	8950.74
893.395	9011.3
893.71	8798.2
894.026	8884.07
894.342	8896.73
894.657	8817.86
894.973	8761.82
895.289	8746
895.604	8758.43
895.92	8760.01
896.235	8711.65
896.55	8663.52
896.865	8598.88
897.181	8631.65
897.496	8578.77
897.811	8539
898.126	8527.25
898.441	8457.87
898.756	8442.96
899.071	8466.91
899.386	8386.46
899.7	8355.95
900.015	8304.43
900.33	8298.78
900.644	8257.42
900.959	8295.39
901.273	8249.29
901.588	8198.22
901.902	8145.34
902.216	8149.4
902.531	8115.51
902.845	8105.34
903.159	8011.78
903.473	8023.53
903.787	7985.79
904.101	7927.72
904.415	7947.83
904.729	7939.69
905.042	7902.41
905.356	7889.07
905.67	7851.56
905.984	7826.25
906.297	7776.76
906.611	7728.17
906.924	7731.34
907.237	7628.51
907.551	7596.88
907.864	7596.88
908.177	7602.98
908.491	7556.2
908.804	7494.73
909.117	7529.99
909.43	7431.01
909.743	7417.67
910.056	7398.69
910.368	7392.81
910.681	7343.1
910.994	7336.09
911.307	7287.51
911.619	7222.2
911.932	7200.05
912.244	7208.64
912.557	7128.19
912.869	7118.92
913.181	7122.09
913.494	7113.27
913.806	7060.39
914.118	7060.39
914.43	6943.56
914.742	6915.09
915.054	6897.91
915.366	6911.24
915.678	6889.55
915.99	6833.28
916.302	6826.28
916.613	6822.89
916.925	6749.67
917.236	6743.34
917.548	6714.19
917.859	6649.78
918.171	6609.33
918.482	6575.21
918.794	6593.06
919.105	6599.16
919.416	6557.81
919.727	6494.31
920.038	6491.14
920.349	6444.36
920.66	6403.01
920.971	6459.96
921.282	6415.66
921.593	6321.66
921.903	6287.76
922.214	6262.9
922.525	6278.72
922.835	6268.1
923.146	6187.2
923.456	6177.48
923.767	6165.5
924.077	6092.51
924.387	6137.71
924.697	6070.59
925.008	6051.83
925.318	6055.45
925.628	5989.91
925.938	6019.74
926.248	5947.88
926.558	5959.63
926.867	5925.96
927.177	5926.41
927.487	5848.22
927.796	5790.82
928.106	5788.34
928.416	5749.69
928.725	5753.31
929.034	5764.61
929.344	5787.21
929.653	5735.46
929.962	5684.84
930.271	5603.71
930.581	5650.26
930.89	5542.92
931.199	5514.67
931.508	5539.98
931.817	5510.15
932.125	5531.85
932.434	5481.9
932.743	5470.38
933.051	5425.18
933.36	5331.63
933.669	5346.77
933.977	5333.21
934.286	5339.08
934.594	5294.56
934.902	5242.36
935.21	5256.15
935.519	5277.84
935.827	5263.6
936.135	5203.27
936.443	5137.51
936.751	5161.91
937.059	5133.66
937.367	5069.71
937.674	5105.64
937.982	5086.66
938.29	5053.21
938.597	5083.27
938.905	4948.81
939.213	4972.99
939.52	4922.6
939.827	4949.26
940.135	4907
940.442	4882.6
940.749	4859.55
941.056	4864.52
941.363	4848.7
941.67	4803.73
941.977	4816.61
942.284	4764.86
942.591	4772.54
942.898	4725.09
943.205	4645.77
943.511	4688.93
943.818	4648.25
944.125	4641.93
944.431	4691.87
944.738	4586.79
945.044	4600.57
945.35	4556.73
945.657	4522.61
945.963	4528.71
946.269	4473.57
946.575	4509.5
946.881	4495.04
947.187	4482.61
947.493	4469.05
947.799	4387.47
948.105	4411.88
948.41	4366.45
948.716	4349.96
949.022	4340.24
949.327	4325.55
949.633	4286.91
949.938	4297.75
950.244	4302.05
950.549	4218.89
950.854	4243.52
951.16	4197.42
951.465	4215.27
951.77	4147.25
952.075	4154.71
952.38	4178.66
952.685	4137.98
952.99	4074.71
953.294	4076.52
953.599	4106.57
953.904	4075.16
954.209	3994.94
954.513	4017.76
954.818	4015.28
955.122	3969.85
955.426	4000.59
955.731	3960.14
956.035	3944.32
956.339	3936.18
956.643	3865
956.948	3870.42
957.252	3876.52
957.556	3859.12
957.86	3826.81
958.163	3828.39
958.467	3794.94
958.771	3787.03
959.075	3816.18
959.378	3768.05
959.682	3743.87
959.985	3719.01
960.289	3694.83
960.592	3674.27
960.896	3646.47
961.199	3627.94
961.502	3646.47
961.805	3618.9
962.108	3571.67
962.411	3613.7
962.714	3597.66
963.017	3582.29
963.32	3570.99
963.623	3542.07
963.926	3517.89
964.228	3489.87
964.531	3486.93
964.833	3482.41
965.136	3443.31
965.438	3429.75
965.741	3433.37
966.043	3433.6
966.345	3404.22
966.648	3363.77
966.95	3369.64
967.252	3306.82
967.554	3313.83
967.856	3383.2
968.158	3287.16
968.46	3290.55
968.761	3324.67
969.063	3257.78
969.365	3268.4
969.666	3241.96
969.968	3220.27
970.269	3183.43
970.571	3217.1
970.872	3190.89
971.174	3172.59
971.475	3152.93
971.776	3139.59
972.077	3105.47
972.378	3091.46
972.679	3095.98
972.98	3104.11
973.281	3106.15
973.582	3045.36
973.883	3005.58
974.183	2993.83
974.484	3032.48
974.785	2991.57
975.085	3016.88
975.386	3013.72
975.686	2993.61
975.986	2968.75
976.287	2970.56
976.587	2924.91
976.887	2862.99
977.187	2891.92
977.487	2866.61
977.787	2880.16
978.087	2861.18
978.387	2829.77
978.687	2859.6
978.987	2845.82
979.286	2786.83
979.586	2803.33
979.885	2762.43
980.185	2769.88
980.484	2748.64
980.784	2777.79
981.083	2734.41
981.382	2701.19
981.682	2739.6
981.981	2740.73
982.28	2700.06
982.579	2662.54
982.878	2689.21
983.177	2634.3
983.475	2655.54
983.774	2583.68
984.073	2599.04
984.372	2637.46
984.67	2614.41
984.969	2608.76
985.267	2566.27
985.566	2573.28
985.864	2515.88
986.162	2525.15
986.461	2522.89
986.759	2516.56
987.057	2487.41
987.355	2468.42
987.653	2437.92
987.951	2501.87
988.249	2428.88
988.547	2454.41
988.844	2404.02
989.142	2427.07
989.44	2428.65
989.737	2432.94
990.035	2401.76
990.332	2381.42
990.63	2370.8
990.927	2388.88
991.224	2366.28
991.521	2340.74
991.819	2338.48
992.116	2317.47
992.413	2327.18
992.71	2287.64
993.006	2312.72
993.303	2320.86
993.6	2257.13
993.897	2262.1
994.193	2231.14
994.49	2232.5
994.787	2230.01
995.083	2210.13
995.379	2219.62
995.676	2184.59
995.972	2161.54
996.268	2143.91
996.565	2166.96
996.861	2151.37
997.157	2162.67
997.453	2145.49
997.749	2112.5
998.044	2095.78
998.34	2090.35
998.636	2099.62
998.932	2091.94
999.227	2060.98
999.523	2043.8
999.818	1999.28
1000.114	2028.89
1000.409	1995.67
1000.704	2013.52
1001	1998.61
1001.295	1994.31
1001.59	2009
1001.885	1978.72
1002.18	1972.84
1002.475	1941.21
1002.77	1953.86
1003.065	1908.89
1003.359	1899.63
1003.654	1919.06
1003.949	1896.91
1004.243	1913.41
1004.538	1884.48
1004.832	1903.47
1005.127	1845.84
1005.421	1853.98
1005.715	1838.38
1006.009	1788.89
1006.304	1803.58
1006.598	1807.2
1006.892	1813.3
1007.186	1765.84
1007.48	1766.52
1007.773	1758.84
1008.067	1773.3
1008.361	1756.58
1008.655	1763.58
1008.948	1742.57
1009.242	1737.14
1009.535	1732.4
1009.829	1718.16
1010.122	1704.6
1010.415	1690.82
1010.708	1680.87
1011.001	1651.5
1011.295	1663.25
1011.588	1604.04
1011.881	1680.42
1012.173	1654.89
1012.466	1610.14
1012.759	1619.86
1013.052	1582.12
1013.344	1598.84
1013.637	1618.05
1013.93	1555.45
1014.222	1526.3
1014.514	1553.87
1014.807	1551.84
1015.099	1524.95
1015.391	1507.09
1015.683	1510.71
1015.976	1503.03
1016.268	1503.93
1016.56	1483.14
1016.851	1489.01
1017.143	1465.29
1017.435	1477.94
1017.727	1454.21
1018.018	1465.51
1018.31	1412.18
1018.602	1412.41
1018.893	1415.12
1019.185	1439.75
1019.476	1407.66
1019.767	1377.83
1020.058	1360.2
1020.35	1327.21
1020.641	1354.55
1020.932	1364.72
1021.223	1335.8
1021.514	1333.09
1021.804	1335.57
1022.095	1328.57
1022.386	1329.7
1022.677	1331.28
1022.967	1304.16
1023.258	1276.14
1023.548	1283.6
1023.839	1255.57
1024.129	1289.25
1024.419	1245.63
1024.709	1235.24
1025	1223.94
1025.29	1190.94
1025.58	1226.42
1025.87	1211.28
1026.16	1194.11
1026.449	1216.48
1026.739	1180.77
1027.029	1174.22
1027.319	1198.85
1027.608	1173.99
1027.898	1157.95
1028.187	1145.75
1028.477	1160.89
1028.766	1140.78
1029.055	1125.86
1029.344	1092.64
1029.634	1111.4
1029.923	1107.78
1030.212	1113.66
1030.501	1091.28
1030.79	1103.49
1031.078	1094.9
1031.367	1084.73
1031.656	1073.21
1031.945	1062.59
1032.233	1046.99
1032.522	1035.69
1032.81	1030.27
1033.099	1038.18
1033.387	1036.6
1033.675	1043.38
1033.963	1017.61
1034.251	1003.6
1034.54	997.95
1034.828	980.55
1035.116	996.82
1035.403	999.08
1035.691	948.92
1035.979	996.37
1036.267	971.97
1036.554	968.58
1036.842	978.52
1037.129	941.91
1037.417	965.41
1037.704	923.83
1037.992	909.14
1038.279	936.03
1038.566	926.54
1038.853	926.54
1039.14	926.54
