Data from red_shiny_book_FLMS001491_00036.txt Node
Date: Wed Feb 08 15:24:46 GMT 2017
User: dcchb
Spectrometer: FLMS00149
Trigger mode: 0
Integration Time (sec): 2.000000E-2
Scans to average: 10
Electric dark correction enabled: true
Nonlinearity correction enabled: false
Boxcar width: 0
XAxis mode: Wavelengths
Number of Pixels in Spectrum: 2048
>>>>>Begin Spectral Data<<<<<
341.393	-8.86
341.776	-8.86
342.16	-8.86
342.543	-45.92
342.927	-84.33
343.31	-71.23
343.693	-55.63
344.077	-34.62
344.46	-47.5
344.843	-56.76
345.226	-38.01
345.61	-10.89
345.993	-28.52
346.376	-10.21
346.759	17.81
347.142	30.47
347.525	14.87
347.908	35.89
348.291	73.85
348.674	87.86
349.057	92.61
349.44	131.03
349.823	138.26
350.206	175.32
350.588	215.09
350.971	215.32
351.354	221.87
351.737	236.34
352.119	270.23
352.502	270.91
352.884	271.14
353.267	278.82
353.65	284.7
354.032	301.64
354.414	304.58
354.797	330.34
355.179	315.43
355.562	334.41
355.944	339.84
356.326	338.25
356.709	350.91
357.091	340.29
357.473	357.01
357.855	347.07
358.238	350.68
358.62	340.51
359.002	356.78
359.384	365.6
359.766	342.32
360.148	340.06
360.53	330.34
360.912	365.6
361.294	345.03
361.676	357.24
362.057	325.82
362.439	324.47
362.821	330.57
363.203	313.4
363.584	323.11
363.966	338.71
364.348	322.44
364.729	325.82
365.111	324.92
365.493	325.15
365.874	333.06
366.256	317.24
366.637	335.54
367.019	313.17
367.4	329.44
367.781	315.2
368.163	317.46
368.544	321.53
368.925	304.36
369.306	338.48
369.688	310.23
370.069	333.96
370.45	296.67
370.831	315.43
371.212	299.38
371.593	315.88
371.974	330.57
372.355	331.02
372.736	341.87
373.117	340.06
373.498	329.44
373.879	312.49
374.26	331.47
374.641	323.79
375.021	331.47
375.402	333.28
375.783	337.35
376.163	333.73
376.544	333.06
376.925	328.99
377.305	347.75
377.686	340.29
378.066	335.99
378.447	333.06
378.827	332.15
379.208	341.19
379.588	341.64
379.968	328.99
380.349	331.25
380.729	332.38
381.109	341.64
381.489	326.95
381.87	329.89
382.25	335.09
382.63	334.64
383.01	345.26
383.39	354.07
383.77	346.84
384.15	338.71
384.53	347.29
384.91	361.53
385.29	349.78
385.67	352.72
386.049	341.87
386.429	366.05
386.809	347.07
387.189	364.02
387.568	359.27
387.948	373.96
388.328	358.59
388.707	360.85
389.087	359.27
389.466	387.52
389.846	365.15
390.225	370.57
390.605	361.08
390.984	370.34
391.363	368.08
391.743	386.16
392.122	381.64
392.501	366.5
392.881	364.47
393.26	388.2
393.639	380.51
394.018	363.56
394.397	375.54
394.776	387.97
395.155	397.69
395.534	404.69
395.913	399.72
396.292	374.64
396.671	383.45
397.05	385.94
397.429	392.26
397.808	391.13
398.186	377.35
398.565	369.89
398.944	384.58
399.323	402.66
399.701	381.42
400.08	389.55
400.458	371.7
400.837	393.62
401.215	398.37
401.594	392.72
401.972	408.31
402.351	412.83
402.729	411.02
403.107	401.3
403.486	428.42
403.864	435.2
404.242	436.78
404.62	410.57
404.999	401.98
405.377	411.7
405.755	426.84
406.133	403.34
406.511	431.81
406.889	434.75
407.267	439.27
407.645	433.17
408.023	428.87
408.401	432.71
408.779	448.76
409.156	458.02
409.534	431.13
409.912	456.44
410.29	479.04
410.667	461.19
411.045	465.03
411.422	447.86
411.8	477.23
412.178	484.46
412.555	476.78
412.933	483.11
413.31	459.15
413.687	472.71
414.065	500.96
414.442	507.74
414.819	498.48
415.197	479.04
415.574	483.56
415.951	499.15
416.328	502.32
416.705	506.16
417.082	500.28
417.46	540.96
417.837	519.72
418.214	514.07
418.591	526.5
418.967	512.94
419.344	538.93
419.721	538.02
420.098	541.86
420.475	537.12
420.852	552.49
421.228	556.1
421.605	563.33
421.982	559.72
422.358	574.86
422.735	562.2
423.111	555.2
423.488	570.79
423.864	583.45
424.241	568.98
424.617	598.36
424.994	584.58
425.37	565.82
425.746	603.78
426.123	596.33
426.499	599.26
426.875	608.08
427.251	624.8
427.627	599.49
428.003	624.57
428.379	639.71
428.756	607.63
429.132	642.88
429.507	631.81
429.883	622.09
430.259	657.34
430.635	652.6
431.011	653.5
431.387	664.57
431.763	662.31
432.138	659.15
432.514	664.8
432.89	672.71
433.265	689.21
433.641	676.32
434.016	688.98
434.392	699.83
434.767	737.34
435.143	709.54
435.518	715.65
435.894	713.16
436.269	717.68
436.644	710.22
437.02	719.26
437.395	737.57
437.77	730.33
438.145	742.76
438.52	731.46
438.895	744.12
439.271	765.14
439.646	778.47
440.021	760.62
440.395	762.88
440.77	753.84
441.145	762.2
441.52	771.46
441.895	776.43
442.27	804.23
442.645	771.46
443.019	813.72
443.394	793.61
443.769	807.39
444.143	804.91
444.518	819.6
444.892	836.32
445.267	816.66
445.641	812.82
446.016	815.3
446.39	832.25
446.764	822.99
447.139	794.06
447.513	842.87
447.887	830.9
448.262	852.82
448.636	821.4
449.01	883.1
449.384	860.05
449.758	862.08
450.132	827.73
450.506	847.17
450.88	861.63
451.254	865.47
451.628	869.09
452.002	902.08
452.376	902.98
452.75	876.77
453.123	876.09
453.497	926.71
453.871	909.99
454.244	921.97
454.618	921.06
454.992	914.74
455.365	887.39
455.739	910.67
456.112	918.8
456.486	936.66
456.859	939.59
457.232	946.37
457.606	946.6
457.979	952.02
458.352	982.98
458.725	959.48
459.099	978.69
459.472	981.17
459.845	996.54
460.218	978.01
460.591	959.71
460.964	988.63
461.337	1009.65
461.71	1005.13
462.083	1015.07
462.456	1023.21
462.829	1011.91
463.201	1035.86
463.574	1035.86
463.947	1026.6
464.32	1050.55
464.692	1058.23
465.065	1065.92
465.438	1069.53
465.81	1064.11
466.183	1079.25
466.555	1093.49
466.928	1086.03
467.3	1106.6
467.672	1120.15
468.045	1126.93
468.417	1148.85
468.789	1164.67
469.161	1167.84
469.534	1171.23
469.906	1161.06
470.278	1165.58
470.65	1142.75
471.022	1174.84
471.394	1216.87
471.766	1192.02
472.138	1212.58
472.51	1256.42
472.882	1287.16
473.253	1290.55
473.625	1305.46
473.997	1299.58
474.369	1318.79
474.74	1334.39
475.112	1327.83
475.484	1342.75
475.855	1337.1
476.227	1346.81
476.598	1363.09
476.97	1384.78
477.341	1400.15
477.713	1441.28
478.084	1456.42
478.455	1488.51
478.827	1503.87
479.198	1528.05
479.569	1517.21
479.94	1606.47
480.311	1595.4
480.682	1582.29
481.053	1602.18
481.424	1592.23
481.795	1622.97
482.166	1628.84
482.537	1701.61
482.908	1723.98
483.279	1719.23
483.65	1772.79
484.021	1805.79
484.391	1841.49
484.762	1847.37
485.133	1867.03
485.503	1887.14
485.874	1891.66
486.244	1917.2
486.615	1931.66
486.985	1933.01
487.356	1933.92
487.726	1958.78
488.097	2038.1
488.467	2021.83
488.837	2062.95
489.207	2153.12
489.578	2163.29
489.948	2196.74
490.318	2226.11
490.688	2237.41
491.058	2249.39
491.428	2244.64
491.798	2291.87
492.168	2289.84
492.538	2332.55
492.908	2309.73
493.278	2307.69
493.648	2359.44
494.017	2377.52
494.387	2429.95
494.757	2427.46
495.126	2464.53
495.496	2513.56
495.866	2553.79
496.235	2574.81
496.605	2587.91
496.974	2582.49
497.344	2602.38
497.713	2614.35
498.082	2585.43
498.452	2585.65
498.821	2589.95
499.19	2629.04
499.559	2612.09
499.928	2631.3
500.298	2662.49
500.667	2732.54
501.036	2737.96
501.405	2747
501.774	2798.98
502.143	2834.46
502.512	2830.62
502.88	2826.55
503.249	2808.92
503.618	2805.08
503.987	2794.46
504.356	2779.32
504.724	2793.1
505.093	2779.55
505.462	2794.69
505.83	2786.78
506.199	2814.8
506.567	2855.25
506.936	2894.57
507.304	2939.09
507.672	2991.52
508.041	2979.77
508.409	3002.14
508.777	3006.43
509.145	2967.79
509.514	2952.87
509.882	2947
510.25	2946.77
510.618	2956.49
510.986	2959.65
511.354	2950.84
511.722	2967.56
512.09	2967.79
512.458	2994.23
512.826	3014.57
513.193	3057.73
513.561	3091.63
513.929	3113.77
514.297	3114.23
514.664	3142.7
515.032	3175.02
515.4	3109.71
515.767	3118.52
516.135	3090.5
516.502	3014.12
516.869	3062.25
517.237	3055.24
517.604	3035.13
517.972	3065.64
518.339	3062.02
518.706	3126.43
519.073	3126.88
519.44	3175.24
519.808	3200.78
520.175	3249.36
520.542	3248.01
520.909	3295.46
521.276	3282.36
521.643	3301.57
522.009	3268.12
522.376	3278.74
522.743	3242.13
523.11	3236.93
523.477	3196.03
523.843	3249.59
524.21	3184.28
524.577	3231.96
524.943	3271.74
525.31	3322.13
525.676	3389.25
526.043	3423.6
526.409	3477.15
526.776	3509.24
527.142	3520.77
527.508	3585.4
527.874	3616.13
528.241	3596.47
528.607	3557.6
528.973	3629.69
529.339	3555.34
529.705	3551.95
530.071	3556.47
530.437	3536.36
530.803	3538.85
531.169	3572.52
531.535	3639.41
531.901	3619.3
532.267	3675.79
532.632	3719.18
532.998	3813.42
533.364	3878.5
533.73	3920.08
534.095	3980.19
534.461	4031.26
534.826	4026.07
535.192	4031.26
535.557	4059.06
535.923	3967.76
536.288	3984.49
536.653	4010.25
537.019	3908.33
537.384	3967.99
537.749	3962.34
538.114	4001.43
538.479	4005.95
538.845	4048.89
539.21	4094.77
539.575	4113.52
539.94	4187.19
540.305	4261.09
540.67	4311.71
541.034	4343.35
541.399	4373.18
541.764	4397.58
542.129	4378.37
542.494	4450.24
542.858	4427.41
543.223	4362.55
543.587	4329.34
543.952	4309.22
544.316	4341.99
544.681	4282.56
545.045	4323.91
545.41	4361.88
545.774	4428.99
546.138	4432.61
546.503	4484.59
546.867	4504.25
547.231	4573.4
547.595	4681.19
547.959	4682.55
548.324	4713.28
548.688	4682.77
549.052	4709.89
549.416	4724.13
549.779	4696.56
550.143	4641.64
550.507	4660.63
550.871	4621.53
551.235	4562.78
551.599	4522.78
551.962	4517.8
552.326	4526.39
552.689	4530.01
553.053	4519.61
553.417	4583.11
553.78	4712.83
554.143	4712.6
554.507	4717.57
554.87	4821.53
555.234	4857.68
555.597	4920.73
555.96	4912.37
556.323	4944.46
556.686	4936.33
557.05	4927.74
557.413	4838.02
557.776	4859.94
558.139	4830.79
558.502	4764.13
558.865	4738.59
559.228	4757.8
559.59	4714.64
559.953	4779.04
560.316	4767.29
560.679	4810.9
561.041	4835.31
561.404	4940.84
561.767	4921.86
562.129	4958.7
562.492	5054.74
562.854	5054.29
563.217	5157.11
563.579	5166.38
563.941	5198.69
564.304	5172.48
564.666	5159.6
565.028	5174.74
565.39	5151.91
565.753	5017
566.115	5087.73
566.477	5030.33
566.839	5002.31
567.201	5007.28
567.563	5000.96
567.925	5038.02
568.287	5067.17
568.648	5122.76
569.01	5123.89
569.372	5251.57
569.734	5267.62
570.095	5338.35
570.457	5463.54
570.819	5500.6
571.18	5522.75
571.542	5596.42
571.903	5614.73
572.265	5624.89
572.626	5605.91
572.987	5595.06
573.349	5560.04
573.71	5574.05
574.071	5545.57
574.432	5567.04
574.794	5608.85
575.155	5593.71
575.516	5633.48
575.877	5620.83
576.238	5763.42
576.599	5848.39
576.96	5935.85
577.32	6037.09
577.681	6172.45
578.042	6350.98
578.403	6480.01
578.763	6619.9
579.124	6734.47
579.485	6955.93
579.845	7073.22
580.206	7110.51
580.566	7223.04
580.927	7354.79
581.287	7518.86
581.648	7621
582.008	7742.58
582.368	7926.53
582.728	8104.83
583.089	8255.11
583.449	8466.85
583.809	8690.8
584.169	9078.14
584.529	9291.01
584.889	9713.37
585.249	10067.94
585.609	10414.83
585.969	10840.8
586.329	11254.58
586.688	11690.27
587.048	12031.28
587.408	12427.43
587.768	12857.25
588.127	13292.49
588.487	13655.42
588.846	14177.44
589.206	14376.98
589.565	14713.7
589.925	15235.04
590.284	15590.28
590.643	15992.31
591.003	16442.69
591.362	16916.12
591.721	17300.29
592.08	17812.14
592.44	18241.74
592.799	18872.68
593.158	19326.68
593.517	19912.2
593.876	20514.22
594.235	20963.93
594.593	21571.14
594.952	22171.8
595.311	22743.09
595.67	23327.93
596.029	23841.59
596.387	24396.83
596.746	24894.9
597.104	25456.46
597.463	25696.46
597.822	26310
598.18	26664.57
598.538	27064.33
598.897	27683.07
599.255	27801.26
599.613	28644.4
599.972	28874.45
600.33	29373.87
600.688	29753.98
601.046	30325.71
601.404	30748.3
601.762	31075.07
602.12	31896.07
602.478	32199.79
602.836	32743.05
603.194	33037.28
603.552	33680.2
603.91	33884.72
604.268	34580.07
604.625	34905.48
604.983	35393.15
605.341	35625.24
605.698	36168.27
606.056	36524.42
606.413	36770.97
606.771	37228.58
607.128	37465.87
607.485	37570.72
607.843	37816.14
608.2	38290.93
608.557	38726.4
608.914	38681.2
609.272	39176.1
609.629	39421.52
609.986	39678.46
610.343	39929.3
610.7	40538.55
611.057	40696.97
611.414	41028.94
611.771	41268.25
612.127	41819.42
612.484	42003.6
612.841	42382.57
613.198	42486.52
613.554	42814.43
613.911	43263.23
614.267	43293.51
614.624	43417.35
614.98	43597.68
615.337	44006.03
615.693	43830.44
616.05	44039.48
616.406	44425.23
616.762	44324.44
617.118	44435.4
617.475	44350.66
617.831	44688.05
618.187	44827.71
618.543	44944.31
618.899	45146.34
619.255	45162.84
619.611	45282.38
619.967	45540.46
620.323	45777.29
620.678	45718.08
621.034	45813.22
621.39	46040.1
621.746	46132.53
622.101	46662.23
622.457	46568
622.812	46627.21
623.168	46906.75
623.523	47036.69
623.879	47177.93
624.234	46840.31
624.589	47181.32
624.945	47073.3
625.3	47227.42
625.655	47132.73
626.01	47132.96
626.365	47215.44
626.72	47254.08
627.075	47099.28
627.43	47159.62
627.785	47022.68
628.14	47140.41
628.495	47184.93
628.85	47161.66
629.205	47128.21
629.559	47490.46
629.914	47268.77
630.269	47422.21
630.623	47501.99
630.978	47452.95
631.332	47709.66
631.687	47684.58
632.041	47757.57
632.396	47857
632.75	47710.79
633.104	47950.79
633.459	47692.71
633.813	47811.81
634.167	47694.52
634.521	47736.56
634.875	47706.27
635.229	47623.56
635.583	47451.14
635.937	47386.51
636.291	47340.86
636.645	47305.83
636.999	47070.58
637.352	47192.16
637.706	47043.01
638.06	47105.61
638.413	47102.45
638.767	46925.28
639.121	47018.61
639.474	46968.89
639.828	46900.19
640.181	47095.44
640.534	47165.05
640.888	47145.38
641.241	46933.41
641.594	47010.25
641.947	47370.69
642.301	47306.06
642.654	47495.21
643.007	47325.04
643.36	47206.4
643.713	47261.54
644.066	47318.94
644.419	47012.51
644.771	46714.44
645.124	46225.86
645.477	46204.39
645.83	45886.21
646.182	45750.17
646.535	45569.38
646.888	45552.66
647.24	45318.99
647.593	45624.07
647.945	45367.13
648.298	45204.87
648.65	45039.68
649.002	45197.41
649.355	45181.59
649.707	45094.37
650.059	45311.76
650.411	45856.15
650.763	45979.54
651.115	46414.1
651.467	46347.89
651.819	46397.38
652.171	46217.73
652.523	46281.23
652.875	46309.7
653.227	46128.24
653.578	46357.61
653.93	46351.73
654.282	46037.84
654.633	45993.1
654.985	45989.48
655.337	46089.37
655.688	45996.04
656.039	46037.62
656.391	45618.42
656.742	45663.84
657.094	45741.13
657.445	45671.3
657.796	45502.26
658.147	45411.64
658.498	45421.14
658.849	45532.55
659.2	45450.29
659.551	45284.19
659.902	45560.34
660.253	45525.99
660.604	45612.54
660.955	45445.77
661.306	45565.54
661.656	45573.67
662.007	45642.37
662.358	45743.84
662.708	45690.96
663.059	45863.38
663.409	45470.4
663.76	45803.5
664.11	45817.28
664.461	45773.44
664.811	45828.13
665.161	45616.61
665.511	45573.9
665.862	45481.02
666.212	45612.32
666.562	45580
666.912	45438.76
667.262	45277.19
667.612	45232.21
667.962	45138.66
668.312	44917.19
668.662	45167.13
669.011	44921.26
669.361	44971.66
669.711	44644.43
670.06	44877.87
670.41	44773.02
670.76	44834.26
671.109	44897.99
671.459	44897.99
671.808	44854.6
672.157	45008.04
672.507	44775.73
672.856	45055.27
673.205	45082.61
673.554	45159.22
673.904	45102.5
674.253	45302.27
674.602	45157.64
674.951	44577.32
675.3	44453.03
675.649	45009.17
675.998	44992.67
676.346	44902.96
676.695	45007.81
677.044	44613.47
677.393	44761.72
677.741	44817.99
678.09	44455.29
678.438	44387.72
678.787	44425
679.135	44320.6
679.484	44087.61
679.832	44129.87
680.181	43880.39
680.529	43974.17
680.877	43820.05
681.225	43911.57
681.573	44072.47
681.922	43769.88
682.27	43602.43
682.618	43784.8
682.966	43807.39
683.314	43925.13
683.661	43816.88
684.009	43721.29
684.357	43719.26
684.705	43672.71
685.053	43749.77
685.4	43747.73
685.748	43419.61
686.095	43431.13
686.443	43462.32
686.79	43356.33
687.138	43380.74
687.485	43434.07
687.832	43288.54
688.18	43202.21
688.527	42966.96
688.874	42969.9
689.221	42590.02
689.568	42586.18
689.915	42413.98
690.262	42505.96
690.609	42111.62
690.956	42093.09
691.303	41833.66
691.65	41629.15
691.997	41624.17
692.344	41410.62
692.69	41434.57
693.037	41444.07
693.383	40990.74
693.73	41319.78
694.077	41102.61
694.423	41185.99
694.769	41121.14
695.116	41167.24
695.462	41036.84
695.808	40886.79
696.155	41094.02
696.501	40893.57
696.847	40859
697.193	40498.78
697.539	40796.85
697.885	40586.24
698.231	40400.48
698.577	40440.25
698.923	40465.79
699.269	39997.1
699.614	39921.62
699.96	39860.38
700.306	39784.67
700.651	39527.05
700.997	39430.56
701.342	39161.64
701.688	39278.02
702.033	39054.98
702.379	38816.11
702.724	38809.11
703.069	38848.88
703.415	38279.63
703.76	38287.54
704.105	38250.48
704.45	38178.39
704.795	37942.69
705.14	38010.03
705.485	37989.92
705.83	37768.46
706.175	37939.98
706.52	37750.83
706.865	37720.1
707.209	37710.15
707.554	37609.82
707.899	37739.76
708.243	37591.96
708.588	37611.85
708.932	37397.84
709.277	37477.16
709.621	37474
709.966	37275.36
710.31	37447.56
710.654	37018.87
710.998	37067.68
711.342	37105.2
711.687	36980
712.031	36673.12
712.375	36465.67
712.719	36783.85
713.063	36392.45
713.407	36561.26
713.75	36228.38
714.094	36184.09
714.438	35969.86
714.782	36021.61
715.125	35733.93
715.469	35773.48
715.812	35535.29
716.156	35426.82
716.499	35394.28
716.843	35395.86
717.186	35187.96
717.53	35380.5
717.873	35416.88
718.216	35352.02
718.559	35164.68
718.902	34982.54
719.246	35182.99
719.589	34919.94
719.932	34759.04
720.275	34930.79
720.617	34874.29
720.96	34900.73
721.303	34955.65
721.646	35007.17
721.989	34879.94
722.331	34865.48
722.674	34879.27
723.016	34914.29
723.359	34804.24
723.701	34649.44
724.044	34428.66
724.386	34351.6
724.729	34484.02
725.071	34277.47
725.413	34147.31
725.755	34160.19
726.097	33967.43
726.439	33691.5
726.782	33761.1
727.124	33812.85
727.465	33729.69
727.807	33484.5
728.149	33432.07
728.491	33326.99
728.833	33324.96
729.175	33172.19
729.516	33057.39
729.858	33089.26
730.199	33074.57
730.541	33033.44
730.882	32941.92
731.224	33105.08
731.565	32961.35
731.906	32870.51
732.248	33046.09
732.589	32929.71
732.93	32784.41
733.271	32830.73
733.612	32864.86
733.953	32834.8
734.294	32842.71
734.635	32843.16
734.976	32812.65
735.317	32768.14
735.658	32809.04
735.999	32793.45
736.339	32724.29
736.68	32704.41
737.021	32572.66
737.361	32508.03
737.702	32528.59
738.042	32388.94
738.383	32292.67
738.723	32365.21
739.063	32257.64
739.404	32114.59
739.744	32076.85
740.084	31936.52
740.424	31818.78
740.764	31638.9
741.104	31786.24
741.444	31610.88
741.784	31442.75
742.124	31494.5
742.464	31320.04
742.804	31347.61
743.143	31370.43
743.483	31303.54
743.823	31118.46
744.162	31105.58
744.502	31305.35
744.841	31057.22
745.181	31202.08
745.52	31089.31
745.86	31181.06
746.199	30964.12
746.538	31030.55
746.877	31129.76
747.216	31171.34
747.556	31046.82
747.895	31115.07
748.234	31037.56
748.573	30970.89
748.911	31055.19
749.25	31069.65
749.589	30948.3
749.928	30965.02
750.267	30874.17
750.605	30773.84
750.944	30634.63
751.283	30449.55
751.621	30619.49
751.96	30454.98
752.298	30278.48
752.636	30240.07
752.975	30070.81
753.313	29940.64
753.651	30010.02
753.989	29654.09
754.327	29694.54
754.666	29481.22
755.004	29557.82
755.342	29475.34
755.679	29392.86
756.017	29171.85
756.355	29298.62
756.693	28971.63
757.031	29143.37
757.368	28933.43
757.706	29023.83
758.044	28773.66
758.381	28853.66
758.719	28681.69
759.056	28701.58
759.394	28668.58
759.731	28523.05
760.068	28585.87
760.405	28495.25
760.743	28495.48
761.08	28565.31
761.417	28455.93
761.754	28283.06
762.091	28254.81
762.428	28231.31
762.765	28226.79
763.102	28259.55
763.438	28041.03
763.775	27889.17
764.112	28007.13
764.449	28081.25
764.785	27843.52
765.122	27619.57
765.458	27556.07
765.795	27356.53
766.131	27474.72
766.467	27243.08
766.804	27088.96
767.14	26961.73
767.476	26945.01
767.812	26703.89
768.148	26725.81
768.485	26656.88
768.821	26441.97
769.157	26261.19
769.492	26260.28
769.828	26170.79
770.164	25952.27
770.5	25885.83
770.836	25777.13
771.171	25609
771.507	25588.44
771.842	25347.31
772.178	25400.65
772.513	25454.66
772.849	25275.9
773.184	25047.89
773.519	25194.78
773.855	25156.81
774.19	25065.29
774.525	25073.42
774.86	24985.06
775.195	24872.3
775.53	24939.64
775.865	24707.1
776.2	24608.12
776.535	24536.94
776.87	24572.42
777.205	24430.28
777.539	24386.66
777.874	24384.85
778.209	24184.41
778.543	24190.96
778.878	24009.5
779.212	24045.2
779.547	23869.39
779.881	23935.83
780.215	23743.74
780.55	23813.57
780.884	23575.16
781.218	23475.5
781.552	23488.61
781.886	23348.5
782.22	23113.25
782.554	22997.55
782.888	22751.22
783.222	22695.18
783.556	22564.79
783.889	22533.83
784.223	22339.03
784.557	22176.55
784.89	22301.74
785.224	22169.54
785.557	22081.41
785.891	21939.95
786.224	21824.47
786.558	21847.29
786.891	21548.77
787.224	21550.8
787.557	21584.25
787.891	21494.53
788.224	21504.25
788.557	21419.06
788.89	21419.28
789.223	21433.07
789.556	21315.1
789.888	21214.77
790.221	21189.46
790.554	21026.52
790.887	21213.86
791.219	21057.71
791.552	20948.79
791.884	20939.29
792.217	20932.74
792.549	20789.69
792.882	20665.63
793.214	20668.34
793.546	20754.67
793.879	20549.25
794.211	20422.02
794.543	20465.41
794.875	20336.82
795.207	20457.5
795.539	20271.74
795.871	20145.42
796.203	20067.68
796.535	19970.51
796.867	19868.14
797.198	19869.27
797.53	19834.69
797.862	19595.37
798.193	19680.12
798.525	19513.12
798.856	19437.86
799.188	19281.71
799.519	19206.68
799.85	19087.14
800.182	19062.06
800.513	19073.13
800.844	18833.81
801.175	18863.19
801.506	18939.8
801.837	18749.07
802.168	18704.78
802.499	18607.38
802.83	18474.05
803.161	18470.88
803.491	18409.42
803.822	18479.47
804.153	18366.93
804.483	18295.3
804.814	18310.89
805.145	18317.22
805.475	18323.54
805.805	18137.33
806.136	18196.09
806.466	18204.68
806.796	18194.96
807.126	18098.24
807.457	18144.79
807.787	18095.75
808.117	17973.72
808.447	17984.8
808.777	18122.19
809.107	17941.63
809.436	17878.36
809.766	17847.17
810.096	17777.57
810.426	17761.75
810.755	17705.03
811.085	17667.52
811.414	17605.6
811.744	17406.96
812.073	17372.83
812.403	17420.74
812.732	17182.78
813.061	17243.12
813.39	17070.92
813.719	16983.69
814.049	17082.9
814.378	16995.67
814.707	16910.25
815.036	16812.62
815.365	16801.32
815.693	16621.67
816.022	16618.28
816.351	16549.8
816.68	16442.01
817.008	16478.62
817.337	16335.12
817.665	16305.29
817.994	16367.44
818.322	16259.42
818.651	16202.92
818.979	16183.49
819.307	16234.78
819.636	16232.53
819.964	16048.12
820.292	16095.58
820.62	16126.77
820.948	16106.65
821.276	16229.14
821.604	16109.36
821.932	16128.35
822.259	16148.01
822.587	16123.15
822.915	16149.59
823.243	16329.7
823.57	16203.37
823.898	16257.61
824.225	16169.7
824.553	16192.3
824.88	16192.07
825.207	16233.43
825.535	16208.35
825.862	16262.58
826.189	16193.2
826.516	16213.77
826.843	16305.52
827.17	16323.14
827.497	16218.06
827.824	16308.91
828.151	16211.06
828.478	16216.93
828.805	16318.62
829.131	16093.77
829.458	16092.19
829.785	16013.1
830.111	16085.64
830.438	16160.66
830.764	16041.57
831.09	16023.27
831.417	15938.3
831.743	16011.29
832.069	15983.49
832.395	15963.15
832.722	15844.96
833.048	15818.07
833.374	15804.97
833.7	15745.31
834.026	15791.41
834.351	15866.66
834.677	15754.57
835.003	15775.81
835.329	15761.13
835.654	15698.98
835.98	15591.41
836.306	15698.08
836.631	15566.33
836.956	15576.72
837.282	15607
837.607	15534.01
837.932	15533.33
838.258	15588.93
838.583	15546.89
838.908	15489.95
839.233	15537.85
839.558	15522.04
839.883	15521.13
840.208	15453.79
840.533	15484.07
840.858	15575.59
841.182	15450.62
841.507	15468.93
841.832	15514.58
842.156	15411.53
842.481	15504.18
842.805	15406.33
843.13	15334.02
843.454	15329.27
843.778	15319.78
844.103	15321.14
844.427	15224.42
844.751	15155.72
845.075	15192.55
845.399	15181.71
845.723	15047.7
846.047	15052.9
846.371	14861.71
846.695	14893.8
847.019	14768.16
847.343	14680.48
847.666	14595.51
847.99	14555.96
848.313	14487.03
848.637	14369.75
848.96	14305.8
849.284	14260.37
849.607	14139.47
849.931	14076.88
850.254	13953.49
850.577	13840.27
850.9	13794.85
851.223	13765.02
851.546	13735.42
851.869	13568.19
852.192	13633.05
852.515	13511.47
852.838	13505.37
853.161	13507.17
853.483	13376.56
853.806	13391.7
854.129	13393.73
854.451	13280.29
854.774	13193.96
855.096	13221.3
855.419	13161.42
855.741	13147.18
856.063	13134.53
856.385	13050.46
856.708	13106.96
857.03	13033.29
857.352	13090.91
857.674	13013.17
857.996	12983.8
858.318	12932.72
858.64	12960.29
858.961	12879.62
859.283	12892.05
859.605	12800.98
859.926	12847.3
860.248	12840.3
860.57	12800.53
860.891	12819.06
861.212	12717.14
861.534	12765.95
861.855	12678.04
862.176	12627.42
862.498	12534.54
862.819	12654.09
863.14	12569.8
863.461	12522.11
863.782	12524.15
864.103	12491.61
864.424	12455.68
864.745	12482.34
865.065	12366.64
865.386	12259.3
865.707	12305.85
866.027	12248.68
866.348	12210.03
866.668	12186.76
866.989	12119.41
867.309	12065.63
867.63	12058.62
867.95	12015.01
868.27	11951.73
868.59	11955.8
868.91	11975.46
869.23	11863.6
869.55	11819.08
869.87	11889.59
870.19	11814.34
870.51	11808.91
870.83	11822.92
871.15	11802.36
871.469	11717.39
871.789	11749.25
872.109	11750.16
872.428	11740.67
872.748	11825.18
873.067	11707.9
873.386	11680.78
873.706	11640.33
874.025	11469.71
874.344	11649.37
874.663	11604.17
874.982	11646.88
875.301	11635.13
875.62	11569.37
875.939	11609.6
876.258	11595.81
876.577	11594.68
876.896	11582.25
877.214	11625.19
877.533	11626.32
877.852	11590.16
878.17	11543.16
878.489	11608.24
878.807	11547.9
879.125	11517.85
879.444	11544.51
879.762	11401.47
880.08	11470.39
880.398	11415.25
880.716	11417.28
881.034	11406.44
881.352	11369.6
881.67	11359.88
881.988	11377.51
882.306	11299.1
882.624	11254.58
882.941	11190.62
883.259	11156.95
883.577	11182.26
883.894	11166.67
884.212	11124.86
884.529	10987.01
884.846	11002.15
885.164	10972.32
885.481	10900.24
885.798	10977.75
886.115	10838.32
886.432	10830.18
886.75	10764.19
887.067	10795.38
887.383	10653.91
887.7	10736.62
888.017	10651.43
888.334	10734.36
888.651	10684.2
888.967	10574.82
889.284	10505.22
889.6	10493.47
889.917	10392.45
890.233	10385.67
890.55	10397.65
890.866	10391.32
891.182	10343.87
891.498	10343.87
891.815	10220.48
892.131	10285.79
892.447	10270.2
892.763	10181.61
893.079	10212.57
893.395	10195.62
893.71	10161.05
894.026	10116.98
894.342	10065.46
894.657	10070.43
894.973	10050.77
895.289	10041.05
895.604	10075.85
895.92	10086.47
896.235	9965.12
896.55	10047.83
896.865	9954.95
897.181	9920.6
897.496	9893.71
897.811	9901.62
898.126	9821.62
898.441	9850.32
898.756	9821.85
899.071	9765.58
899.386	9753.15
899.7	9688.97
900.015	9628.86
900.33	9581.85
900.644	9573.04
900.959	9550.89
901.273	9564.23
901.588	9486.26
901.902	9422.99
902.216	9392.93
902.531	9352.71
902.845	9337.34
903.159	9249.66
903.473	9213.5
903.787	9146.61
904.101	9100.28
904.415	9118.14
904.729	9055.76
905.042	8945.94
905.356	8990.23
905.67	8923.56
905.984	8968.99
906.297	8865.49
906.611	8773.74
906.924	8811.48
907.237	8769.67
907.551	8731.93
907.864	8604.93
908.177	8645.83
908.491	8600.18
908.804	8538.26
909.117	8519.73
909.43	8492.39
909.743	8380.3
910.056	8390.92
910.368	8302.34
910.681	8320.42
910.994	8226.18
911.307	8237.71
911.619	8154.09
911.932	8208.1
912.244	8141.89
912.557	8142.12
912.869	8054.21
913.181	8053.76
913.494	8082.01
913.806	8020.09
914.118	7984.61
914.43	7879.07
914.742	7928.56
915.054	7897.83
915.366	7820.32
915.678	7867.77
915.99	7765.4
916.302	7714.56
916.613	7733.54
916.925	7738.74
917.236	7696.48
917.548	7729.47
917.859	7713.65
918.171	7597.27
918.482	7643.37
918.794	7557.95
919.105	7606.31
919.416	7518.86
919.727	7536.03
920.038	7517.73
920.349	7438.63
920.66	7456.94
920.971	7388.46
921.282	7380.78
921.593	7304.62
921.903	7303.49
922.214	7289.03
922.525	7197.96
922.835	7185.08
923.146	7143.5
923.456	7056.72
923.767	7048.59
924.077	7034.12
924.387	7040
924.697	6949.83
925.008	6963.39
925.318	6925.43
925.628	6885.2
925.938	6801.36
926.248	6806.56
926.558	6747.35
926.867	6721.36
927.177	6704.41
927.487	6652.21
927.796	6627.81
928.106	6615.6
928.416	6519.33
928.725	6501.26
929.034	6480.01
929.344	6467.36
929.653	6410.41
929.962	6357.53
930.271	6388.94
930.581	6310.07
930.89	6296.52
931.199	6235.5
931.508	6234.82
931.817	6234.37
932.125	6209.51
932.434	6238.21
932.743	6163.86
933.051	6108.95
933.36	6056.52
933.669	6078.67
933.977	6072.79
934.286	6063.08
934.594	6030.76
934.902	5938.33
935.21	5962.96
935.519	5897.43
935.827	5935.85
936.135	5880.71
936.443	5905.57
936.751	5855.4
937.059	5849.3
937.367	5841.84
937.674	5801.61
937.982	5803.19
938.29	5760.26
938.597	5742.18
938.905	5685.68
939.213	5694.72
939.52	5690.43
939.827	5706.93
940.135	5676.87
940.442	5650.43
940.749	5625.8
941.056	5543.31
941.363	5547.16
941.67	5528.85
941.977	5450.66
942.284	5473.03
942.591	5451.57
942.898	5433.26
943.205	5481.62
943.511	5405.24
943.818	5365.69
944.125	5405.69
944.431	5311.23
944.738	5288.18
945.044	5277.11
945.35	5254.51
945.657	5181.06
945.963	5215.41
946.269	5170.44
946.575	5152.59
946.881	5097.22
947.187	5124.34
947.493	5068.3
947.799	5086.38
948.105	5022.2
948.41	5034.85
948.716	4968.19
949.022	4928.42
949.327	4918.47
949.633	4867.17
949.938	4867.4
950.244	4845.48
950.549	4814.75
950.854	4750.34
951.16	4784.24
951.465	4701.3
951.77	4695.88
952.075	4698.59
952.38	4642.32
952.685	4695.43
952.99	4594.41
953.294	4566.39
953.599	4571.59
953.904	4535.21
954.209	4519.16
954.513	4528.88
954.818	4487.3
955.122	4510.35
955.426	4488.43
955.731	4444.13
956.035	4409.33
956.339	4456.34
956.643	4403.68
956.948	4402.55
957.252	4411.37
957.556	4363.91
957.86	4314.87
958.163	4318.71
958.467	4317.13
958.771	4288.66
959.075	4276.91
959.378	4234.65
959.682	4289.56
959.985	4223.35
960.289	4190.36
960.592	4192.62
960.896	4205.5
961.199	4166.18
961.502	4116.23
961.805	4166.63
962.108	4086.18
962.411	4097.93
962.714	4109.68
963.017	4099.06
963.32	4093.86
963.623	4062.9
963.926	4043.69
964.228	4034.43
964.531	3989.23
964.833	4027.65
965.136	3945.16
965.438	3949.01
965.741	3970.47
966.043	3924.83
966.345	3886.64
966.648	3892.28
966.95	3894.77
967.252	3846.18
967.554	3829.01
967.856	3825.85
968.158	3803.93
968.46	3782.23
968.761	3751.5
969.063	3743.59
969.365	3724.38
969.666	3688
969.968	3681.89
970.269	3685.74
970.571	3647.32
970.872	3621.56
971.174	3571.16
971.475	3574.1
971.776	3530.26
972.077	3514.67
972.378	3497.27
972.679	3521.9
972.98	3505.18
973.281	3476.7
973.582	3440.32
973.883	3474.67
974.183	3380.89
974.484	3380.66
974.785	3383.37
975.085	3390.6
975.386	3395.12
975.686	3327.33
975.986	3321.23
976.287	3279.87
976.587	3237.39
976.887	3276.26
977.187	3243.94
977.487	3289.81
977.787	3250.49
978.087	3216.82
978.387	3202.81
978.687	3200.1
978.987	3180.21
979.286	3168.24
979.586	3167.11
979.885	3157.84
980.185	3131.17
980.484	3155.13
980.784	3082.59
981.083	3134.11
981.382	3087.11
981.682	3066.09
981.981	3049.59
982.28	3037.84
982.579	3050.27
982.878	3042.82
983.177	3006.66
983.475	3002.82
983.774	2964.85
984.073	2986.32
984.372	2979.99
984.67	2951.52
984.969	2958.98
985.267	2944.06
985.566	2895.93
985.864	2887.57
986.162	2885.53
986.461	2892.99
986.759	2862.03
987.057	2860
987.355	2839.21
987.653	2849.6
987.951	2864.97
988.249	2789.04
988.547	2808.25
988.844	2803.73
989.142	2807.79
989.44	2749.49
989.737	2769.83
990.035	2741.35
990.332	2709.49
990.63	2717.85
990.927	2713.11
991.224	2674.24
991.521	2658.42
991.819	2663.39
992.116	2633.79
992.413	2640.11
992.71	2662.03
993.006	2589.72
993.303	2596.95
993.6	2610.51
993.897	2578.65
994.193	2528.25
994.49	2537.97
994.787	2538.42
995.083	2495.71
995.379	2518.31
995.676	2441.02
995.972	2464.75
996.268	2457.07
996.565	2469.72
996.861	2422.94
997.157	2406.9
997.453	2399.89
997.749	2406.9
998.044	2348.82
998.34	2362.61
998.636	2344.75
998.932	2365.55
999.227	2335.49
999.523	2324.87
999.818	2305.89
1000.114	2243.29
1000.409	2244.42
1000.704	2237.41
1001	2281.03
1001.295	2222.95
1001.59	2199.9
1001.885	2209.17
1002.18	2214.59
1002.475	2187.92
1002.77	2161.71
1003.065	2146.34
1003.359	2146.34
1003.654	2155.61
1003.949	2140.01
1004.243	2157.19
1004.538	2098.43
1004.832	2107.47
1005.127	2083.07
1005.421	2076.06
1005.715	2053.01
1006.009	2076.06
1006.304	2034.93
1006.598	2015.05
1006.892	2013.69
1007.186	2033.8
1007.48	1999
1007.773	2017.53
1008.067	1969.85
1008.361	1966.23
1008.655	1957.42
1008.948	1948.38
1009.242	1947.25
1009.535	1934.6
1009.829	1887.14
1010.122	1885.56
1010.415	1893.92
1010.708	1888.5
1011.001	1892.79
1011.295	1877.2
1011.588	1844.65
1011.881	1852.11
1012.173	1853.02
1012.466	1850.3
1012.759	1827.93
1013.052	1805.33
1013.344	1792.23
1013.637	1805.11
1013.93	1822.73
1014.222	1763.98
1014.514	1766.69
1014.807	1760.36
1015.099	1748.39
1015.391	1721.95
1015.683	1701.83
1015.976	1732.34
1016.268	1711.55
1016.56	1693.47
1016.851	1706.81
1017.143	1663.42
1017.435	1675.17
1017.727	1659.8
1018.018	1643.98
1018.31	1633.59
1018.602	1586.81
1018.893	1617.09
1019.185	1610.31
1019.476	1546.58
1019.767	1567.37
1020.058	1539.8
1020.35	1547.04
1020.641	1518.11
1020.932	1509.3
1021.223	1514.27
1021.514	1483.31
1021.804	1487.15
1022.095	1479.69
1022.386	1461.16
1022.677	1460.48
1022.967	1450.31
1023.258	1426.81
1023.548	1409.64
1023.839	1421.84
1024.129	1395.4
1024.419	1421.62
1024.709	1395.4
1025	1368.96
1025.29	1369.41
1025.58	1373.93
1025.87	1357.89
1026.16	1379.13
1026.449	1346.59
1026.739	1336.19
1027.029	1308.17
1027.319	1284.9
1027.608	1279.47
1027.898	1286.93
1028.187	1301.39
1028.477	1269.53
1028.766	1259.36
1029.055	1240.83
1029.344	1259.81
1029.634	1264.78
1029.923	1241.05
1030.212	1227.72
1030.501	1235.18
1030.79	1189.53
1031.078	1202.19
1031.367	1207.61
1031.656	1175.52
1031.945	1184.56
1032.233	1175.52
1032.522	1162.86
1032.81	1162.86
1033.099	1140.49
1033.387	1156.76
1033.675	1132.58
1033.963	1136.2
1034.251	1123.77
1034.54	1095.97
1034.828	1089.42
1035.116	1138.23
1035.403	1100.27
1035.691	1077.9
1035.979	1097.1
1036.267	1068.86
1036.554	1066.82
1036.842	1053.49
1037.129	1077.22
1037.417	1034.51
1037.704	1036.09
1037.992	1037.9
1038.279	1033.38
1038.566	1036.54
1038.853	1036.54
1039.14	1036.54
