Data from red_cardboard_box_FLMS001491_00081.txt Node
Date: Wed Feb 08 11:33:15 GMT 2017
User: dcchb
Spectrometer: FLMS00149
Trigger mode: 0
Integration Time (sec): 2.000000E-2
Scans to average: 10
Electric dark correction enabled: true
Nonlinearity correction enabled: false
Boxcar width: 0
XAxis mode: Wavelengths
Number of Pixels in Spectrum: 2048
>>>>>Begin Spectral Data<<<<<
341.393	-17.43
341.776	-17.43
342.16	-17.43
342.543	-50.2
342.927	-46.81
343.31	-79.8
343.693	-66.92
344.077	-76.41
344.46	-47.03
344.843	-40.71
345.226	-36.64
345.61	-22.4
345.993	-1.84
346.376	-4.77
346.759	9.24
347.142	14.43
347.525	27.99
347.908	59.18
348.291	79.52
348.674	93.75
349.057	92.4
349.44	130.14
349.823	159.97
350.206	175.11
350.588	191.38
350.971	202.9
351.354	231.38
351.737	224.15
352.119	257.82
352.502	283.35
352.884	285.16
353.267	297.14
353.65	298.04
354.032	296.46
354.414	306.18
354.797	310.47
355.179	326.06
355.562	313.86
355.944	320.87
356.326	338.49
356.709	345.05
357.091	341.21
357.473	338.95
357.855	328.78
358.238	354.76
358.62	330.58
359.002	336.23
359.384	362.22
359.766	361.54
360.148	328.55
360.53	339.4
360.912	352.28
361.294	357.25
361.676	359.96
362.057	348.44
362.439	329.23
362.821	331.04
363.203	332.62
363.584	331.26
363.966	326.97
364.348	343.69
364.729	327.65
365.111	322
365.493	333.3
365.874	312.96
366.256	327.42
366.637	316.12
367.019	325.39
367.4	328.55
367.781	324.93
368.163	322.68
368.544	315.67
368.925	315.44
369.306	358.38
369.688	308.66
370.069	310.02
370.45	329.45
370.831	328.32
371.212	325.16
371.593	314.77
371.974	333.97
372.355	308.89
372.736	325.84
373.117	324.71
373.498	315.67
373.879	321.55
374.26	331.26
374.641	326.52
375.021	326.52
375.402	326.74
375.783	319.96
376.163	334.43
376.544	325.61
376.925	335.33
377.305	331.04
377.686	318.83
378.066	329
378.447	330.58
378.827	347.76
379.208	334.88
379.588	344.82
379.968	322.68
380.349	319.51
380.729	331.94
381.109	331.26
381.489	315.44
381.87	348.21
382.25	336.69
382.63	331.26
383.01	361.32
383.39	332.39
383.77	346.4
384.15	338.04
384.53	347.99
384.91	346.18
385.29	349.12
385.67	336.23
386.049	344.14
386.429	331.04
386.809	354.54
387.189	369.45
387.568	342.79
387.948	348.44
388.328	376.46
388.707	332.84
389.087	355.22
389.466	359.06
389.846	380.3
390.225	359.06
390.605	378.49
390.984	369
391.363	368.55
391.743	356.57
392.122	370.58
392.501	345.27
392.881	346.18
393.26	358.83
393.639	360.64
394.018	366.29
394.397	377.36
394.776	375.78
395.155	357.93
395.534	374.88
395.913	373.07
396.292	379.62
396.671	376.91
397.05	374.88
397.429	373.97
397.808	391.37
398.186	376.69
398.565	385.5
398.944	384.82
399.323	377.59
399.701	381.66
400.08	393.63
400.458	398.15
400.837	366.97
401.215	392.5
401.594	394.31
401.972	398.38
402.351	384.14
402.729	393.41
403.107	409.9
403.486	403.58
403.864	395.89
404.242	409.68
404.62	404.71
404.999	392.28
405.377	404.71
405.755	400.41
406.133	408.77
406.511	408.77
406.889	414.42
407.267	406.74
407.645	397.02
408.023	424.82
408.401	417.14
408.779	413.52
409.156	410.36
409.534	437.47
409.912	413.97
410.29	423.92
410.667	427.53
411.045	426.85
411.422	427.98
411.8	427.76
412.178	447.42
412.555	450.58
412.933	437.02
413.31	461.65
413.687	465.72
414.065	444.25
414.442	483.12
414.819	451.71
415.197	431.37
415.574	475.89
415.951	472.5
416.328	449.9
416.705	463.91
417.082	471.37
417.46	445.38
417.837	475.67
418.214	478.83
418.591	496.46
418.967	479.28
419.344	476.34
419.721	492.84
420.098	501.2
420.475	472.73
420.852	490.58
421.228	484.03
421.605	502.56
421.982	491.26
422.358	479.73
422.735	494.42
423.111	490.13
423.488	501.65
423.864	504.14
424.241	524.48
424.617	499.17
424.994	495.33
425.37	509.34
425.746	508.66
426.123	520.86
426.499	524.25
426.875	522.22
427.251	517.25
427.627	507.53
428.003	519.05
428.379	538.26
428.756	532.16
429.132	554.31
429.507	546.17
429.883	557.47
430.259	558.15
430.635	540.52
431.011	552.05
431.387	554.08
431.763	582.56
432.138	590.69
432.514	566.06
432.89	573.97
433.265	553.63
433.641	559.96
434.016	582.78
434.392	556.34
434.767	597.24
435.143	601.31
435.518	586.85
435.894	592.27
436.269	598.6
436.644	604.25
437.02	622.33
437.395	624.81
437.77	627.3
438.145	604.02
438.52	620.97
438.895	639.95
439.271	607.19
439.646	645.15
440.021	633.85
440.395	651.71
440.77	624.59
441.145	669.11
441.52	641.08
441.895	653.06
442.27	660.75
442.645	672.27
443.019	677.02
443.394	659.62
443.769	671.14
444.143	660.07
444.518	683.12
444.892	682.89
445.267	689.22
445.641	674.53
446.016	690.35
446.39	681.99
446.764	672.5
447.139	656
447.513	691.7
447.887	698.26
448.262	718.14
448.636	688.77
449.01	717.69
449.384	691.7
449.758	706.39
450.132	706.62
450.506	710.01
450.88	726.05
451.254	707.52
451.628	715.89
452.002	727.18
452.376	734.42
452.75	729.67
453.123	742.78
453.497	755.66
453.871	751.82
454.244	749.78
454.618	762.66
454.992	789.56
455.365	759.95
455.739	782.78
456.112	811.48
456.486	774.19
456.859	805.37
457.232	790.23
457.606	815.32
457.979	793.85
458.352	822.1
458.725	818.48
459.099	826.16
459.472	831.81
459.845	827.29
460.218	815.32
460.591	853.73
460.964	868.65
461.337	846.96
461.71	874.75
462.083	863.45
462.456	885.37
462.829	877.24
463.201	880.4
463.574	887.63
463.947	885.82
464.32	919.72
464.692	905.26
465.065	910.46
465.438	933.05
465.81	963.34
466.183	949.55
466.555	955.88
466.928	956.56
467.3	954.07
467.672	972.15
468.045	1003.79
468.417	993.17
468.789	999.27
469.161	993.39
469.534	994.97
469.906	1023.22
470.278	1038.14
470.65	1047.4
471.022	1018.25
471.394	1081.53
471.766	1097.57
472.138	1085.37
472.51	1105.71
472.882	1134.63
473.253	1118.59
473.625	1130.79
473.997	1155.2
474.369	1128.08
474.74	1169.21
475.112	1159.49
475.484	1191.13
475.855	1215.98
476.227	1201.75
476.598	1253.72
476.97	1234.06
477.341	1258.02
477.713	1272.93
478.084	1269.77
478.455	1318.13
478.827	1327.62
479.198	1375.98
479.569	1357.9
479.94	1370.56
480.311	1386.15
480.682	1405.13
481.053	1420.73
481.424	1448.97
481.795	1455.3
482.166	1487.39
482.537	1522.42
482.908	1527.84
483.279	1528.52
483.65	1547.05
484.021	1589.53
484.391	1599.93
484.762	1593.15
485.133	1655.75
485.503	1620.72
485.874	1672.24
486.244	1709.98
486.615	1704.56
486.985	1711.79
487.356	1744.78
487.726	1749.3
488.097	1762.86
488.467	1809.19
488.837	1806.48
489.207	1848.74
489.578	1890.77
489.948	1855.97
490.318	1901.84
490.688	1881.96
491.058	1911.33
491.428	1957.66
491.798	1973.25
492.168	1969.19
492.538	2018.22
492.908	2045.79
493.278	2050.99
493.648	2086.47
494.017	2076.08
494.387	2089.63
494.757	2119.24
495.126	2140.93
495.496	2179.12
495.866	2189.07
496.235	2175.96
496.605	2212.79
496.974	2223.19
497.344	2218.9
497.713	2261.16
498.082	2253.47
498.452	2262.51
498.821	2301.83
499.19	2281.49
499.559	2355.16
499.928	2321.04
500.298	2353.13
500.667	2382.96
501.036	2363.75
501.405	2408.72
501.774	2403.3
502.143	2407.37
502.512	2502.5
502.88	2454.14
503.249	2488.04
503.618	2460.25
503.987	2502.05
504.356	2493.92
504.724	2530.53
505.093	2554.93
505.462	2573.24
505.83	2588.6
506.199	2592.22
506.567	2630.86
506.936	2622.05
507.304	2644.2
507.672	2699.79
508.041	2667.47
508.409	2715.83
508.777	2723.97
509.145	2731.65
509.514	2735.49
509.882	2763.51
510.25	2771.42
510.618	2815.72
510.986	2816.17
511.354	2888.48
511.722	2834.25
512.09	2902.72
512.458	2895.94
512.826	2916.05
513.193	2946.11
513.561	2939.1
513.929	2970.29
514.297	3017.75
514.664	3055.71
515.032	2978.65
515.4	3104.75
515.767	3048.48
516.135	3095.48
516.502	3105.43
516.869	3167.8
517.237	3136.84
517.604	3140.68
517.972	3189.04
518.339	3206.44
518.706	3238.3
519.073	3241.47
519.44	3230.85
519.808	3272.88
520.175	3316.95
520.542	3311.52
520.909	3364.18
521.276	3365.08
521.643	3427.68
522.009	3450.95
522.376	3455.7
522.743	3511.07
523.11	3529.37
523.477	3541.57
523.843	3557.17
524.21	3619.31
524.577	3662.25
524.943	3674.68
525.31	3677.62
525.676	3700.44
526.043	3735.24
526.409	3794
526.776	3855.46
527.142	3820.66
527.508	3809.36
527.874	3892.75
528.241	3904.28
528.607	3920.32
528.973	3946.76
529.339	3994.44
529.705	3973.88
530.071	4022.24
530.437	4034.22
530.803	4091.62
531.169	4078.51
531.535	4129.81
531.901	4109.47
532.267	4159.64
532.632	4203.03
532.998	4212.97
533.364	4232.85
533.73	4265.17
534.095	4252.74
534.461	4309.46
534.826	4324.15
535.192	4335.45
535.557	4422.23
535.923	4383.13
536.288	4454.77
536.653	4463.13
537.019	4455
537.384	4467.2
537.749	4501.1
538.114	4527.08
538.479	4509.01
538.845	4561.66
539.21	4557.59
539.575	4622.68
539.94	4612.28
540.305	4658.38
540.67	4589.91
541.034	4698.83
541.399	4694.31
541.764	4717.59
542.129	4773.41
542.494	4741.54
542.858	4829.22
543.223	4831.71
543.587	4824.7
543.952	4838.71
544.316	4876.91
544.681	4911.48
545.045	4999.84
545.41	4956.68
545.774	4921.2
546.138	4957.13
546.503	4960.75
546.867	5019.27
547.231	5045.71
547.595	5083.23
547.959	5072.61
548.324	5148.99
548.688	5157.8
549.052	5143.79
549.416	5228.76
549.779	5226.5
550.143	5279.15
550.507	5270.79
550.871	5304.92
551.235	5360.06
551.599	5402.09
551.962	5369.1
552.326	5426.5
552.689	5433.73
553.053	5442.99
553.417	5504.01
553.78	5584.01
554.143	5546.94
554.507	5573.84
554.87	5671.91
555.234	5721.18
555.597	5707.62
555.96	5731.57
556.323	5812.7
556.686	5811.57
557.05	5858.8
557.413	5863.32
557.776	5923.66
558.139	5995.29
558.502	5973.37
558.865	6022.86
559.228	6129.3
559.59	6186.02
559.953	6206.59
560.316	6325.91
560.679	6324.55
561.041	6369.52
561.404	6435.51
561.767	6460.37
562.129	6444.77
562.492	6529.52
562.854	6571.1
563.217	6615.84
563.579	6662.17
563.941	6720.92
564.304	6818.78
564.666	6877.76
565.028	6948.49
565.39	7004.76
565.753	7044.08
566.115	7083.85
566.477	7187.13
566.839	7225.54
567.201	7306.9
567.563	7304.64
567.925	7415.37
568.287	7507.8
568.648	7543.73
569.01	7610.17
569.372	7743.5
569.734	7729.49
570.095	7857.84
570.457	8024.85
570.819	8009.93
571.18	8036.37
571.542	8172.86
571.903	8173.77
572.265	8314.56
572.626	8377.83
572.987	8462.12
573.349	8487.43
573.71	8660.76
574.071	8718.39
574.432	8829.12
574.794	8894.65
575.155	9023.46
575.516	8981.66
575.877	9079.73
576.238	9228.66
576.599	9356.34
576.96	9446.73
577.32	9529.21
577.681	9674.97
578.042	9730.11
578.403	9926.04
578.763	10019.6
579.124	10127.84
579.485	10289.42
579.845	10352.69
580.206	10460.26
580.566	10563.31
580.927	10678.34
581.287	10889.63
581.648	11016.41
582.008	11144.31
582.368	11382.95
582.728	11502.49
583.089	11605.77
583.449	11766.89
583.809	12034.01
584.169	12141.35
584.529	12293.21
584.889	12582.92
585.249	12651.62
585.609	12873.08
585.969	13136.58
586.329	13228.32
586.688	13551.71
587.048	13744.47
587.408	13912.6
587.768	14146.72
588.127	14408.18
588.487	14602.3
588.846	14952.35
589.206	15136.97
589.565	15399.34
589.925	15724.53
590.284	15963.39
590.643	16234.12
591.003	16480.22
591.362	16893.09
591.721	17201.1
592.08	17482.68
592.44	17835.89
592.799	18101.19
593.158	18317.46
593.517	18747.28
593.876	19086.7
594.235	19339.8
594.593	19673.13
594.952	20140.23
595.311	20423.16
595.67	20776.37
596.029	21163.71
596.387	21622.23
596.746	22023.8
597.104	22243.91
597.463	22515.54
597.822	23025.36
598.18	23283.43
598.538	23698.11
598.897	24241.82
599.255	24329.95
599.613	25061.46
599.972	25209.93
600.33	25666.87
600.688	25862.79
601.046	26320.41
601.404	26732.83
601.762	27079.03
602.12	27613.03
602.478	27921.05
602.836	28273.35
603.194	28585.21
603.552	29066.55
603.91	29346.09
604.268	29712.86
604.625	30005.28
604.983	30501.99
605.341	30607.98
605.698	31178.14
606.056	31495.41
606.413	31651.12
606.771	32257.2
607.128	32344.43
607.485	32560.47
607.843	33005.88
608.2	33451.97
608.557	33745.3
608.914	33940.1
609.272	34255.79
609.629	34753.18
609.986	34992.72
610.343	35103.91
610.7	35573.27
611.057	35860.05
611.414	36042.41
611.771	36214.16
612.127	36603.08
612.484	36806.46
612.841	37153.8
613.198	37286.67
613.554	37379.1
613.911	37818.41
614.267	38031.74
614.624	38140.44
614.98	38410.71
615.337	38721.89
615.693	38809.35
616.05	38998.27
616.406	39284.36
616.762	39423.34
617.118	39570.46
617.475	39752.37
617.831	40033.04
618.187	40049.54
618.543	40425.58
618.899	40785.11
619.255	40893.81
619.611	40887.71
619.967	41181.49
620.323	41406.79
620.678	41371.77
621.034	41226.91
621.39	41465.77
621.746	41572.21
622.101	42114.57
622.457	41937.4
622.812	42111.41
623.168	42221.91
623.523	42283.83
623.879	42585.74
624.234	42416.94
624.589	42544.84
624.945	42625.97
625.3	42814.21
625.655	42841.11
626.01	42879.52
626.365	43021.67
626.72	43119.06
627.075	43154.77
627.43	43321.32
627.785	43181.44
628.14	43336.01
628.495	43353.18
628.85	43518.83
629.205	43432.05
629.559	43793.17
629.914	43471.15
630.269	43663
630.623	43520.86
630.978	43599.28
631.332	43879.95
631.687	44036.33
632.041	43776
632.396	43918.36
632.75	43724.25
633.104	43911.36
633.459	43761.08
633.813	43889.21
634.167	43913.62
634.521	43815.09
634.875	43966.95
635.229	43899.61
635.583	43858.48
635.937	43947.52
636.291	43940.51
636.645	43902.55
636.999	43802.21
637.352	44012.83
637.706	43737.58
638.06	43942.55
638.413	43946.84
638.767	43874.07
639.121	43972.37
639.474	43778.71
639.828	43912.26
640.181	43890.57
640.534	44071.13
640.888	43903.45
641.241	43786.62
641.594	43785.71
641.947	43924.47
642.301	43992.94
642.654	44037.46
643.007	44027.51
643.36	43903.68
643.713	43836.79
644.066	44083.33
644.419	43821.64
644.771	43500.3
645.124	43128.1
645.477	43070.7
645.83	42866.19
646.182	42738.96
646.535	42790.49
646.888	42825.29
647.24	42751.16
647.593	42818.73
647.945	42720.43
648.298	42657.16
648.65	42659.19
649.002	42486.31
649.355	42679.08
649.707	42491.96
650.059	42868
650.411	43342.79
650.763	43306.63
651.115	43872.72
651.467	43767.63
651.819	43631.82
652.171	43539.62
652.523	43445.16
652.875	43456
653.227	43268.89
653.578	43746.39
653.93	43593.18
654.282	43406.06
654.633	43359.74
654.985	43438.6
655.337	43559.5
655.688	43415.1
656.039	43673.17
656.391	43255.11
656.742	43456.68
657.094	43335.33
657.445	43461.65
657.796	43446.51
658.147	43272.51
658.498	43405.84
658.849	43395.67
659.2	43427.3
659.551	43171.27
659.902	43359.96
660.253	43350.7
660.604	43451.71
660.955	43291.26
661.306	43451.48
661.656	43260.76
662.007	43343.01
662.358	43361.09
662.708	43364.48
663.059	43361.54
663.409	42985.51
663.76	43385.27
664.11	43456.46
664.461	43417.81
664.811	43362
665.161	43258.27
665.511	43276.57
665.862	43221.21
666.212	43451.94
666.562	43435.21
666.912	43319.06
667.262	43303.92
667.612	43210.81
667.962	43301.88
668.312	43178.95
668.662	43369.9
669.011	43100.53
669.361	43362.9
669.711	43215.56
670.06	43251.94
670.41	43057.82
670.76	43166.97
671.109	43138.95
671.459	43104.15
671.808	43093.3
672.157	43064.6
672.507	42886.98
672.856	42943.02
673.205	43034.32
673.554	43087.65
673.904	42981.89
674.253	43306.63
674.602	43052.85
674.951	42508.68
675.3	42239.77
675.649	43006.98
675.998	42952.06
676.346	42878.17
676.695	43002.23
677.044	42790.03
677.393	42821.9
677.741	42870.48
678.09	42673.43
678.438	42634.78
678.787	42767.89
679.135	42673.2
679.484	42449.25
679.832	42683.14
680.181	42393.43
680.529	42579.64
680.877	42420.33
681.225	42508.01
681.573	42593.88
681.922	42337.84
682.27	42302.36
682.618	42290.16
682.966	42248.35
683.314	42336.94
683.661	42203.38
684.009	41892.66
684.357	41807.69
684.705	41757.52
685.053	41877.29
685.4	41686.11
685.748	41610.86
686.095	41479.33
686.443	41424.19
686.79	41337.19
687.138	41440.69
687.485	41412.67
687.832	41221.26
688.18	41399.56
688.527	41165.89
688.874	41116.63
689.221	41029.85
689.568	40868.95
689.915	40817.66
690.262	40826.69
690.609	40601.62
690.956	40418.34
691.303	40537.89
691.65	40337.22
691.997	40472.81
692.344	40139.93
692.69	40122.08
693.037	40090.9
693.383	39920.73
693.73	40072.59
694.077	39797.8
694.423	39846.61
694.769	39655.88
695.116	39626.95
695.462	39409.11
695.808	39391.7
696.155	39476.67
696.501	39182.22
696.847	39241.65
697.193	39007.08
697.539	39036.23
697.885	38735.68
698.231	38573.42
698.577	38655.68
698.923	38498.17
699.269	38249.14
699.614	38201
699.96	38140.44
700.306	38259.98
700.651	37977.05
700.997	37956.71
701.342	37907.68
701.688	37807.79
702.033	37601.92
702.379	37720.34
702.724	37465.88
703.069	37554.01
703.415	37215.26
703.76	37372.1
704.105	37376.84
704.45	37241.25
704.795	37052.33
705.14	36955.61
705.485	36843.75
705.83	36648.95
706.175	36785.22
706.52	36688.27
706.865	36488.5
707.209	36461.61
707.554	36298.68
707.899	36479.69
708.243	36216.42
708.588	36179.81
708.932	35957.9
709.277	35852.14
709.621	36062.98
709.966	35627.06
710.31	35676.77
710.654	35528.3
710.998	35623.89
711.342	35537.57
711.687	35433.39
712.031	35413.73
712.375	35147.97
712.719	35253.51
713.063	35205.83
713.407	35307.97
713.75	35150.46
714.094	35084.02
714.438	34879.73
714.782	34904.59
715.125	34886.06
715.469	34928.32
715.812	34637.71
716.156	34451.27
716.499	34432.96
716.843	34584.15
717.186	34258.51
717.53	34482.45
717.873	34504.15
718.216	34336.47
718.559	34169.24
718.902	34044.95
719.246	34117.27
719.589	34049.47
719.932	33842.02
720.275	33875.47
720.617	33857.84
720.96	33804.51
721.303	33742.59
721.646	33806.09
721.989	33514.12
722.331	33798.18
722.674	33572.2
723.016	33655.58
723.359	33591.86
723.701	33493.55
724.044	33270.74
724.386	33173.79
724.729	33288.59
725.071	33270.96
725.413	33283.39
725.755	33152.55
726.097	33037.07
726.439	32874.81
726.782	32919.56
727.124	32971.08
727.465	32844.53
727.807	32755.95
728.149	32788.04
728.491	32687.25
728.833	32604.99
729.175	32643.63
729.516	32476.86
729.858	32495.16
730.199	32593.92
730.541	32426.01
730.882	32510.76
731.224	32545.78
731.565	32218.33
731.906	32334.71
732.248	32283.42
732.589	32205.68
732.93	32078.22
733.271	32086.59
733.612	32117.55
733.953	32004.78
734.294	31937.21
734.635	31861.96
734.976	31932.92
735.317	31850.21
735.658	31867.83
735.999	31780.15
736.339	31647.28
736.68	31841.39
737.021	31733.83
737.361	31619.25
737.702	31905.8
738.042	31633.04
738.383	31549.42
738.723	31569.31
739.063	31443.21
739.404	31479.82
739.744	31462.65
740.084	31306.04
740.424	31355.98
740.764	31248.42
741.104	31302.88
741.444	31184.24
741.784	31037.8
742.124	31155.76
742.464	31104.92
742.804	30956.9
743.143	30952.15
743.483	30932.72
743.823	30801.65
744.162	30829.44
744.502	30903.11
744.841	30786.28
745.181	30812.72
745.52	30678.71
745.86	30693.4
746.199	30584.03
746.538	30555.33
746.877	30746.06
747.216	30633.97
747.556	30438.49
747.895	30491.6
748.234	30397.14
748.573	30288.21
748.911	30214.54
749.25	30273.3
749.589	30102.23
749.928	30170.48
750.267	30223.13
750.605	30010.03
750.944	30078.95
751.283	30012.29
751.621	30051.61
751.96	29886.19
752.298	29845.74
752.636	29917.15
752.975	29779.08
753.313	29642.58
753.651	29766.65
753.989	29628.8
754.327	29615.92
754.666	29356.94
755.004	29504.73
755.342	29370.72
755.679	29396.49
756.017	29235.81
756.355	29411.4
756.693	29242.37
757.031	29253.44
757.368	28990.85
757.706	28980.23
758.044	28958.98
758.381	28910.4
758.719	28849.83
759.056	28827.46
759.394	28761.25
759.731	28566.45
760.068	28567.36
760.405	28465.89
760.743	28460.24
761.08	28557.64
761.417	28398.77
761.754	28352.9
762.091	28243.3
762.428	28082.85
762.765	27973.47
763.102	28118.55
763.438	27872.91
763.775	27706.14
764.112	27794.27
764.449	27695.74
764.785	27549.08
765.122	27390.66
765.458	27296.43
765.795	27292.59
766.131	27253.94
766.467	27049.43
766.804	27086.94
767.14	27009.66
767.476	26875.65
767.812	26747.29
768.148	26799.49
768.485	26585.94
768.821	26533.51
769.157	26467.98
769.492	26474.3
769.828	26446.51
770.164	26117.25
770.5	26194.76
770.836	26206.74
771.171	25974.43
771.507	25897.6
771.842	25714.78
772.178	25678.84
772.513	25656.47
772.849	25560.88
773.184	25460.09
773.519	25506.19
773.855	25365.18
774.19	25297.61
774.525	25102.14
774.86	25021.69
775.195	25065.98
775.53	25051.74
775.865	24861.46
776.2	24745.76
776.535	24545.77
776.87	24593.45
777.205	24491.53
777.539	24308.71
777.874	24378.54
778.209	24255.15
778.543	24149.17
778.878	23847.03
779.212	23910.3
779.547	23775.84
779.881	23927.48
780.215	23711.89
780.55	23850.87
780.884	23549.18
781.218	23561.16
781.552	23630.08
781.886	23390.77
782.22	23233.94
782.554	23138.35
782.888	22945.81
783.222	22810.22
783.556	22890.22
783.889	22715.31
784.223	22473.73
784.557	22571.58
784.89	22655.65
785.224	22516.44
785.557	22276.22
785.891	22294.75
786.224	22246.84
786.558	22212.5
786.891	22004.14
787.224	21957.13
787.557	22090.01
787.891	21975.21
788.224	21818.83
788.557	21882.33
788.89	21631.49
789.223	21685.28
789.556	21560.76
789.888	21615.9
790.221	21380.2
790.554	21205.29
790.887	21203.71
791.219	21190.15
791.552	21118.96
791.884	21029.25
792.217	20932.53
792.549	20940.44
792.882	20654.34
793.214	20760.56
793.546	20604.63
793.879	20575.93
794.211	20471.07
794.543	20456.61
794.875	20426.33
795.207	20434.91
795.539	20250.96
795.871	20331.64
796.203	20119.22
796.535	20062.27
796.867	20010.75
797.198	19924.87
797.53	19965.32
797.862	19748.15
798.193	19725.33
798.525	19696.18
798.856	19693.24
799.188	19465.9
799.519	19502.06
799.85	19431.1
800.182	19430.42
800.513	19392
800.844	19254.38
801.175	19283.98
801.506	19261.84
801.837	19089.19
802.168	19127.38
802.499	19023.43
802.83	18890.1
803.161	18902.07
803.491	18765.13
803.822	18863.66
804.153	18719.71
804.483	18656.88
804.814	18594.74
805.145	18467.06
805.475	18526.04
805.805	18502.54
806.136	18422.99
806.466	18316.55
806.796	18368.3
807.126	18223
807.457	18147.74
807.787	18181.64
808.117	18072.94
808.447	18056.67
808.777	18081.98
809.107	17915.88
809.436	17871.14
809.766	17901.87
810.096	17806.06
810.426	17788.43
810.755	17772.61
811.085	17727.87
811.414	17782.1
811.744	17524.03
812.073	17661.2
812.403	17540.08
812.732	17481.09
813.061	17438.84
813.39	17325.62
813.719	17201.33
814.049	17321.78
814.378	17309.8
814.707	17164.72
815.036	17101.22
815.365	17100.31
815.693	16963.14
816.022	16983.48
816.351	16969.92
816.68	16840.21
817.008	16880.88
817.337	16723.37
817.665	16720.21
817.994	16751.85
818.322	16741
818.651	16679.99
818.979	16562.47
819.307	16641.79
819.636	16561.8
819.964	16493.78
820.292	16490.61
820.62	16477.28
820.948	16458.07
821.276	16539.88
821.604	16465.75
821.932	16481.57
822.259	16514.11
822.587	16452.87
822.915	16373.55
823.243	16441.57
823.57	16352.54
823.898	16425.53
824.225	16394.79
824.553	16412.65
824.88	16424.4
825.207	16433.89
825.535	16312.09
825.862	16392.54
826.189	16367.23
826.516	16423.95
826.843	16337.62
827.17	16328.81
827.497	16369.71
827.824	16432.31
828.151	16347.79
828.478	16354.12
828.805	16396.83
829.131	16281.8
829.458	16309.37
829.785	16246.32
830.111	16296.72
830.438	16420.33
830.764	16318.86
831.09	16314.35
831.417	16276.61
831.743	16338.75
832.069	16237.28
832.395	16222.82
832.722	16275.25
833.048	16189.83
833.374	16235.93
833.7	16120.23
834.026	16221.92
834.351	16219.43
834.677	16298.53
835.003	16188.02
835.329	16148.02
835.654	16178.98
835.98	16104.86
836.306	16101.47
836.631	16065.76
836.956	15998.87
837.282	16057.63
837.607	15959.78
837.932	15962.04
838.258	15966.78
838.583	15979.44
838.908	15890.4
839.233	15847.69
839.558	15847.92
839.883	15803.85
840.208	15750.74
840.533	15757.07
840.858	15742.61
841.182	15753.46
841.507	15695.38
841.832	15585.55
842.156	15542.39
842.481	15483.18
842.805	15539.9
843.13	15466.91
843.454	15475.95
843.778	15430.98
844.103	15357.31
844.427	15388.27
844.751	15408.83
845.075	15293.58
845.399	15249.51
845.723	15140.82
846.047	15225.79
846.371	15027.37
846.695	15028.05
847.019	14900.37
847.343	14849.75
847.666	14821.95
847.99	14698.79
848.313	14768.62
848.637	14643.65
848.96	14588.06
849.284	14631.23
849.607	14461.51
849.931	14405.24
850.254	14351.91
850.577	14256.55
850.9	14189.66
851.223	14239.6
851.546	14058.59
851.869	14035.53
852.192	14105.14
852.515	13986.72
852.838	13971.36
853.161	13924.35
853.483	13808.42
853.806	13795.32
854.129	13722.77
854.451	13683.91
854.774	13683.45
855.096	13546.96
855.419	13535.44
855.741	13620.4
856.063	13448.88
856.385	13407.3
856.708	13318.72
857.03	13308.1
857.352	13421.77
857.674	13322.56
857.996	13260.41
858.318	13101.1
858.64	13204.82
858.961	13084.15
859.283	13028.33
859.605	13079.63
859.926	13085.5
860.248	13051.15
860.57	12939.74
860.891	12914.89
861.212	12882.12
861.534	12866.07
861.855	12834.44
862.176	12822.01
862.498	12822.23
862.819	12777.49
863.14	12735.23
863.461	12741.78
863.782	12645.51
864.103	12696.14
864.424	12612.3
864.745	12619.75
865.065	12645.51
865.386	12593.09
865.707	12529.81
866.027	12585.18
866.348	12442.36
866.668	12452.75
866.989	12401.68
867.309	12379.31
867.63	12362.13
867.95	12360.32
868.27	12356.48
868.59	12374.56
868.91	12320.33
869.23	12249.82
869.55	12222.7
869.87	12257.05
870.19	12180.22
870.51	12196.94
870.83	12248.46
871.15	12123.49
871.469	12133.44
871.789	12103.38
872.109	12170.73
872.428	12029.49
872.748	12045.08
873.067	11984.74
873.386	12045.3
873.706	12027.23
874.025	11926.66
874.344	11982.93
874.663	12036.72
874.982	11876.72
875.301	11866.33
875.62	11892.54
875.939	11873.56
876.258	11838.08
876.577	11748.14
876.896	11901.35
877.214	11812.77
877.533	11758.98
877.852	11798.31
878.17	11808.47
878.489	11739.32
878.807	11699.33
879.125	11717.63
879.444	11719.21
879.762	11627.01
880.08	11648.93
880.398	11626.11
880.716	11557.63
881.034	11568.48
881.352	11493.68
881.67	11516.28
881.988	11520.12
882.306	11502.72
882.624	11481.03
882.941	11377.98
883.259	11397.19
883.577	11319.9
883.894	11266.12
884.212	11270.86
884.529	11275.83
884.846	11232.9
885.164	11220.02
885.481	11187.02
885.798	11219.79
886.115	11095.5
886.432	11088.95
886.75	11090.98
887.067	11095.95
887.383	10989.29
887.7	11050.98
888.017	10976.63
888.334	10969.4
888.651	10939.8
888.967	10898.89
889.284	10871.78
889.6	10842.85
889.917	10852.12
890.233	10730.99
890.55	10721.95
890.866	10713.36
891.182	10630.65
891.498	10640.6
891.815	10627.04
892.131	10557.43
892.447	10514.5
892.763	10501.16
893.079	10494.61
893.395	10529.64
893.71	10481.73
894.026	10405.35
894.342	10399.7
894.657	10246.03
894.973	10294.62
895.289	10289.19
895.604	10352.92
895.92	10215.07
896.235	10127.84
896.55	10181.85
896.865	10141.17
897.181	10059.82
897.496	10064.34
897.811	9987.28
898.126	9950.67
898.441	9922.2
898.756	9897.34
899.071	9872.93
899.386	9912.25
899.7	9774.63
900.015	9721.07
900.33	9726.27
900.644	9643.33
900.959	9683.78
901.273	9648.08
901.588	9589.32
901.902	9555.2
902.216	9547.29
902.531	9536.44
902.845	9436.33
903.159	9433.17
903.473	9427.52
903.787	9379.61
904.101	9343
904.415	9290.35
904.729	9266.17
905.042	9275.66
905.356	9191.14
905.67	9215.32
905.984	9160.18
906.297	9120.86
906.611	9027.08
906.924	8980.3
907.237	9036.57
907.551	8998.61
907.864	8898.27
908.177	8917.93
908.491	8892.39
908.804	8843.13
909.117	8781.89
909.43	8715.9
909.743	8735.34
910.056	8702.57
910.368	8619.18
910.681	8582.34
910.994	8552.97
911.307	8547.54
911.619	8472.29
911.932	8430.26
912.244	8357.72
912.557	8386.64
912.869	8378.96
913.181	8345.97
913.494	8330.6
913.806	8270.71
914.118	8259.19
914.43	8183.03
914.742	8169.25
915.054	8084.73
915.366	8065.97
915.678	8092.19
915.99	7992.76
916.302	7966.77
916.613	7906.2
916.925	7957.73
917.236	7890.16
917.548	7859.65
917.859	7891.97
918.171	7757.06
918.482	7786.43
918.794	7724.06
919.105	7684.52
919.416	7562.71
919.727	7635.93
920.038	7567.91
920.349	7542.6
920.66	7537.85
920.971	7491.07
921.282	7474.58
921.593	7440.68
921.903	7364.07
922.214	7351.87
922.525	7288.37
922.835	7300.12
923.146	7179.9
923.456	7202.49
923.767	7258.99
924.077	7184.87
924.387	7164.3
924.697	7082.72
925.008	7103.51
925.318	7041.37
925.628	7033.01
925.938	6982.84
926.248	6962.73
926.558	6894.48
926.867	6863.29
927.177	6874.37
927.487	6812.22
927.796	6772.9
928.106	6762.73
928.416	6784.2
928.725	6739
929.034	6726.57
929.344	6758.89
929.653	6603.19
929.962	6591.44
930.271	6584.88
930.581	6539.23
930.89	6512.57
931.199	6509.18
931.508	6442.97
931.817	6429.41
932.125	6392.35
932.434	6344.44
932.743	6318.68
933.051	6290.65
933.36	6251.56
933.669	6229.86
933.977	6206.81
934.286	6236.42
934.594	6178.11
934.902	6176.31
935.21	6108.06
935.519	6185.35
935.827	6109.42
936.135	6065.57
936.443	5994.39
936.751	6026.71
937.059	5992.81
937.367	5942.41
937.674	5955.07
937.982	5896.31
938.29	5929.08
938.597	5839.14
938.905	5837.11
939.213	5801.18
939.52	5757.79
939.827	5739.26
940.135	5666.72
940.442	5681.63
940.749	5677.11
941.056	5631.46
941.363	5616.55
941.67	5629.2
941.977	5598.69
942.284	5518.24
942.591	5557.57
942.898	5422.88
943.205	5446.61
943.511	5412.03
943.818	5483.44
944.125	5448.19
944.431	5389.21
944.738	5361.19
945.044	5389.21
945.35	5314.63
945.657	5285.03
945.963	5279.15
946.269	5228.99
946.575	5215.2
946.881	5208.42
947.187	5217.01
947.493	5140.18
947.799	5140.4
948.105	5056.79
948.41	5015.66
948.716	5028.99
949.022	5058.37
949.327	5037.13
949.633	5052.72
949.938	5005.04
950.244	4928.43
950.549	4896.79
950.854	4826.06
951.16	4868.54
951.465	4852.73
951.77	4862.22
952.075	4832.16
952.38	4788.55
952.685	4816.57
952.99	4777.25
953.294	4766.85
953.599	4732.5
953.904	4701.32
954.209	4664.48
954.513	4647.99
954.818	4605.95
955.122	4673.75
955.426	4577.03
955.731	4574.31
956.035	4548.1
956.339	4550.36
956.643	4510.36
956.948	4516.01
957.252	4466.07
957.556	4477.37
957.86	4467.65
958.163	4454.54
958.467	4432.62
958.771	4400.76
959.075	4393.75
959.378	4353.08
959.682	4312.63
959.985	4326.41
960.289	4300.2
960.592	4295.23
960.896	4254.78
961.199	4208
961.502	4219.3
961.805	4190.6
962.108	4150.6
962.411	4181.78
962.714	4127.55
963.017	4137.04
963.32	4116.02
963.623	4101.78
963.926	4068.11
964.228	4062.92
964.531	4075.12
964.833	4031.5
965.136	3977.49
965.438	4019.08
965.741	3962.81
966.043	3980.21
966.345	3914.22
966.648	3874.9
966.95	3908.34
967.252	3897.72
967.554	3867.89
967.856	3862.7
968.158	3803.04
968.46	3797.61
968.761	3760.55
969.063	3811.62
969.365	3776.14
969.666	3745.18
969.968	3691.63
970.269	3743.83
970.571	3708.35
970.872	3656.82
971.174	3629.03
971.475	3595.13
971.776	3615.02
972.077	3571.18
972.378	3593.32
972.679	3596.49
972.98	3563.49
973.281	3539.31
973.582	3575.24
973.883	3512.2
974.183	3493.21
974.484	3499.31
974.785	3472.42
975.085	3451.63
975.386	3422.03
975.686	3466.77
975.986	3411.86
976.287	3419.32
976.587	3390.62
976.887	3395.59
977.187	3346.32
977.487	3361.01
977.787	3302.71
978.087	3290.73
978.387	3298.42
978.687	3309.04
978.987	3272.88
979.286	3262.03
979.586	3237.17
979.885	3202.6
980.185	3217.74
980.484	3165.54
980.784	3138.19
981.083	3164.41
981.382	3140
981.682	3151.75
981.981	3144.52
982.28	3119.44
982.579	3056.84
982.878	3066.78
983.177	3050.74
983.475	3066.33
983.774	3034.02
984.073	3029.95
984.372	3010.06
984.67	3019.78
984.969	3007.8
985.267	2989.05
985.566	2973
985.864	2965.77
986.162	2969.16
986.461	2940.91
986.759	2903.17
987.057	2875.38
987.355	2863.17
987.653	2859.78
987.951	2851.87
988.249	2831.31
988.547	2817.75
988.844	2816.17
989.142	2803.74
989.44	2775.27
989.737	2778.43
990.035	2790.63
990.332	2741.14
990.63	2747.24
990.927	2712.22
991.224	2706.79
991.521	2682.61
991.819	2693.69
992.116	2664.76
992.413	2639.22
992.71	2610.75
993.006	2652.78
993.303	2644.87
993.6	2640.81
993.897	2618.43
994.193	2555.61
994.49	2596.74
994.787	2558.55
995.083	2535.72
995.379	2519.91
995.676	2488.27
995.972	2482.39
996.268	2507.93
996.565	2485.1
996.861	2444.2
997.157	2473.81
997.453	2485.78
997.749	2460.7
998.044	2415.5
998.34	2404.2
998.636	2377.54
998.932	2377.99
999.227	2385.9
999.523	2375.95
999.818	2363.3
1000.114	2352
1000.409	2349.06
1000.704	2315.84
1001	2314.49
1001.295	2273.36
1001.59	2315.17
1001.885	2291.21
1002.18	2249.86
1002.475	2221.16
1002.77	2236.75
1003.065	2205.79
1003.359	2189.74
1003.654	2197.88
1003.949	2187.03
1004.243	2150.42
1004.538	2132.57
1004.832	2160.82
1005.127	2141.61
1005.421	2114.49
1005.715	2096.19
1006.009	2061.39
1006.304	2100.26
1006.598	2082.85
1006.892	2093.93
1007.186	2072.46
1007.48	2040.37
1007.773	1983.65
1008.067	2030.2
1008.361	2002.18
1008.655	1970.32
1008.948	1956.3
1009.242	1967.83
1009.535	1952.46
1009.829	1970.54
1010.122	1958.11
1010.415	1901.84
1010.708	1906.59
1011.001	1898.68
1011.295	1895.74
1011.588	1899.13
1011.881	1874.05
1012.173	1837.44
1012.466	1862.52
1012.759	1839.92
1013.052	1848.51
1013.344	1815.29
1013.637	1836.76
1013.93	1770.55
1014.222	1785.46
1014.514	1779.36
1014.807	1762.64
1015.099	1744.11
1015.391	1757.21
1015.683	1748.85
1015.976	1713.82
1016.268	1735.07
1016.56	1721.96
1016.851	1695.52
1017.143	1712.92
1017.435	1684
1017.727	1690.77
1018.018	1672.7
1018.31	1633.83
1018.602	1616.43
1018.893	1640.83
1019.185	1604.9
1019.476	1590.44
1019.767	1589.99
1020.058	1587.95
1020.35	1560.16
1020.641	1545.47
1020.932	1554.06
1021.223	1524.45
1021.514	1526.71
1021.804	1502.53
1022.095	1482.42
1022.386	1462.31
1022.677	1469.99
1022.967	1452.14
1023.258	1443.1
1023.548	1456.88
1023.839	1424.79
1024.129	1409.2
1024.419	1438.8
1024.709	1395.87
1025	1393.83
1025.29	1359.48
1025.58	1371.46
1025.87	1357.68
1026.16	1382.08
1026.449	1342.31
1026.739	1341.18
1027.029	1323.33
1027.319	1325.81
1027.608	1324
1027.898	1320.16
1028.187	1297.34
1028.477	1295.53
1028.766	1268.64
1029.055	1276.55
1029.344	1263.44
1029.634	1226.61
1029.923	1236.78
1030.212	1244.68
1030.501	1214.18
1030.79	1238.13
1031.078	1203.78
1031.367	1220.96
1031.656	1180.96
1031.945	1201.07
1032.233	1205.14
1032.522	1170.34
1032.81	1163.78
1033.099	1160.17
1033.387	1154.52
1033.675	1151.58
1033.963	1159.49
1034.251	1131.92
1034.54	1136.44
1034.828	1123.78
1035.116	1116.1
1035.403	1087.17
1035.691	1095.31
1035.979	1057.35
1036.267	1069.55
1036.554	1069.77
1036.842	1073.84
1037.129	1060.96
1037.417	1081.07
1037.704	1060.51
1037.992	1052.6
1038.279	1045.59
1038.566	1016.67
1038.853	1016.67
1039.14	1016.67
