Data from red_shiny_book_FLMS001491_00030.txt Node
Date: Wed Feb 08 15:24:39 GMT 2017
User: dcchb
Spectrometer: FLMS00149
Trigger mode: 0
Integration Time (sec): 2.000000E-2
Scans to average: 10
Electric dark correction enabled: true
Nonlinearity correction enabled: false
Boxcar width: 0
XAxis mode: Wavelengths
Number of Pixels in Spectrum: 2048
>>>>>Begin Spectral Data<<<<<
341.393	-20.44
341.776	-20.44
342.16	-20.44
342.543	-67.67
342.927	-74.22
343.31	-97.05
343.693	-57.72
344.077	-65.63
344.46	-73.09
344.843	-44.62
345.226	-39.87
345.61	-25.63
345.993	-6.88
346.376	-5.52
346.759	13.69
347.142	12.56
347.525	44.42
347.908	60.46
348.291	67.02
348.674	121.03
349.057	96.85
349.44	114.02
349.823	133.91
350.206	167.35
350.588	217.3
350.971	224.98
351.354	221.36
351.737	239.89
352.119	264.98
352.502	269.05
352.884	286.67
353.267	280.8
353.65	297.97
354.032	291.64
354.414	309.95
354.797	319.67
355.179	319.21
355.562	347.69
355.944	338.42
356.326	344.75
356.709	351.53
357.091	338.88
357.473	353.79
357.855	361.25
358.238	348.37
358.62	358.08
359.002	352.89
359.384	336.62
359.766	345.65
360.148	325.54
360.53	350.63
360.912	345.2
361.294	327.58
361.676	344.98
362.057	358.08
362.439	356.73
362.821	320.8
363.203	337.29
363.584	326.45
363.966	330.29
364.348	315.37
364.729	318.54
365.111	323.51
365.493	325.54
365.874	307.46
366.256	335.26
366.637	342.27
367.019	318.54
367.4	318.99
367.781	312.44
368.163	314.92
368.544	312.21
368.925	312.89
369.306	330.51
369.688	321.25
370.069	325.77
370.45	329.84
370.831	306.33
371.212	340.23
371.593	317.86
371.974	319.21
372.355	322.38
372.736	338.88
373.117	340.23
373.498	337.75
373.879	328.48
374.26	323.06
374.641	321.93
375.021	310.18
375.402	340.23
375.783	334.13
376.163	329.61
376.544	330.06
376.925	312.44
377.305	357.63
377.686	331.19
378.066	356.28
378.447	344.3
378.827	352.43
379.208	357.63
379.588	343.62
379.968	345.2
380.349	347.46
380.729	328.48
381.109	355.6
381.489	350.63
381.87	359.89
382.25	340.01
382.63	348.14
383.01	359.44
383.39	349.27
383.77	358.54
384.15	347.69
384.53	370.74
384.91	356.95
385.29	372.55
385.67	364.86
386.049	368.7
386.429	370.74
386.809	380
387.189	377.07
387.568	386.56
387.948	372.32
388.328	373.9
388.707	386.78
389.087	371.87
389.466	380.23
389.846	383.39
390.225	380.91
390.605	386.78
390.984	382.26
391.363	389.72
391.743	394.92
392.122	391.53
392.501	364.41
392.881	376.84
393.26	380.46
393.639	398.76
394.018	399.21
394.397	415.94
394.776	385.65
395.155	407.57
395.534	404.86
395.913	413.22
396.292	417.29
396.671	422.71
397.05	407.57
397.429	422.71
397.808	409.16
398.186	402.15
398.565	411.42
398.944	403.51
399.323	428.82
399.701	426.1
400.08	423.62
400.458	436.05
400.837	410.96
401.215	452.54
401.594	438.76
401.972	431.3
402.351	441.47
402.729	440.57
403.107	437.18
403.486	460.91
403.864	441.92
404.242	452.09
404.62	467.23
404.999	449.15
405.377	473.11
405.755	468.82
406.133	487.35
406.511	456.16
406.889	447.12
407.267	478.08
407.645	471.08
408.023	471.3
408.401	466.33
408.779	508.59
409.156	498.87
409.534	509.94
409.912	504.52
410.29	512.2
410.667	500.68
411.045	496.39
411.422	529.83
411.8	545.65
412.178	537.06
412.555	547.01
412.933	551.98
413.31	561.02
413.687	549.04
414.065	572.99
414.442	565.31
414.819	575.25
415.197	588.13
415.574	580.68
415.951	614.8
416.328	605.53
416.705	583.61
417.082	603.05
417.46	593.56
417.837	610.51
418.214	608.02
418.591	631.3
418.967	599.66
419.344	641.47
419.721	653.22
420.098	643.95
420.475	660
420.852	658.19
421.228	654.12
421.605	650.51
421.982	662.48
422.358	668.81
422.735	672.88
423.111	674.01
423.488	668.36
423.864	712.88
424.241	688.7
424.617	711.29
424.994	702.71
425.37	705.65
425.746	701.8
426.123	718.07
426.499	716.49
426.875	726.21
427.251	725.53
427.627	738.19
428.003	756.04
428.379	779.32
428.756	768.47
429.132	779.77
429.507	799.88
429.883	814.57
430.259	794
430.635	810.28
431.011	768.24
431.387	798.98
431.763	841.69
432.138	851.86
432.514	831.97
432.89	829.94
433.265	879.88
433.641	859.09
434.016	894.11
434.392	871.52
434.767	905.41
435.143	902.25
435.518	869.48
435.894	871.52
436.269	897.28
436.644	903.61
437.02	932.98
437.395	959.88
437.77	997.84
438.145	1001.23
438.52	975.24
438.895	980.89
439.271	983.38
439.646	990.38
440.021	982.02
440.395	957.84
440.77	989.48
441.145	1003.49
441.52	1020.21
441.895	1007.11
442.27	1062.25
442.645	1044.85
443.019	1057.95
443.394	1026.99
443.769	1038.07
444.143	1025.64
444.518	1060.44
444.892	1051.62
445.267	1032.87
445.641	1046.2
446.016	1076.93
446.39	1110.61
446.764	1132.75
447.139	1147.44
447.513	1148.35
447.887	1118.97
448.262	1131.62
448.636	1115.35
449.01	1135.92
449.384	1102.7
449.758	1090.27
450.132	1150.83
450.506	1158.06
450.88	1152.87
451.254	1165.07
451.628	1214.56
452.002	1214.56
452.376	1218.85
452.75	1257.5
453.123	1220.89
453.497	1206.42
453.871	1176.37
454.244	1198.29
454.618	1234.9
454.992	1246.42
455.365	1238.06
455.739	1308.34
456.112	1316.93
456.486	1346.53
456.859	1360.09
457.232	1364.84
457.606	1337.95
457.979	1336.36
458.352	1342.01
458.725	1302.92
459.099	1323.26
459.472	1313.76
459.845	1371.84
460.218	1388.79
460.591	1400.32
460.964	1447.32
461.337	1483.93
461.71	1499.97
462.083	1524.38
462.456	1509.24
462.829	1497.94
463.201	1489.35
463.574	1474.44
463.947	1462.46
464.32	1453.2
464.692	1473.53
465.065	1504.04
465.438	1534.1
465.81	1591.5
466.183	1626.53
466.555	1707.88
466.928	1704.72
467.3	1700.42
467.672	1711.95
468.045	1703.36
468.417	1697.71
468.789	1677.15
469.161	1635.79
469.534	1700.2
469.906	1701.55
470.278	1738.61
470.65	1735.67
471.022	1831.72
471.394	1899.06
471.766	1941.32
472.138	1958.27
472.51	2012.73
472.882	2030.81
473.253	2014.99
473.625	1983.8
473.997	1970.7
474.369	1958.49
474.74	1959.62
475.112	1966.86
475.484	2059.96
475.855	2085.95
476.227	2171.37
476.598	2232.38
476.97	2292.5
477.341	2363.68
477.713	2394.41
478.084	2384.7
478.455	2409.33
478.827	2407.52
479.198	2385.15
479.569	2393.74
479.94	2391.48
480.311	2372.04
480.682	2453.17
481.053	2541.53
481.424	2599.61
481.795	2696.55
482.166	2779.26
482.537	2855.65
482.908	2909.66
483.279	3021.29
483.65	3019.48
484.021	3017.22
484.391	2985.13
484.762	2953.95
485.133	2946.04
485.503	2918.24
485.874	2944.46
486.244	2971.35
486.615	3064.91
486.985	3198.24
487.356	3329.31
487.726	3380.6
488.097	3555.51
488.467	3592.35
488.837	3667.6
489.207	3688.62
489.578	3740.37
489.948	3700.14
490.318	3642.07
490.688	3585.8
491.058	3585.34
491.428	3580.37
491.798	3595.74
492.168	3720.71
492.538	3738.33
492.908	3926.8
493.278	4015.61
493.648	4131.09
494.017	4265.33
494.387	4342.16
494.757	4373.57
495.126	4344.19
495.496	4359.79
495.866	4237.08
496.235	4206.34
496.605	4178.1
496.974	4134.26
497.344	4076.18
497.713	4153.92
498.082	4181.71
498.452	4339.9
498.821	4461.03
499.19	4551.42
499.559	4684.98
499.928	4802.26
500.298	4849.49
500.667	4919.55
501.036	4891.07
501.405	4856.27
501.774	4777.4
502.143	4672.09
502.512	4605.43
502.88	4546.22
503.249	4513.23
503.618	4546
503.987	4607.46
504.356	4708.7
504.724	4808.14
505.093	4887
505.462	5063.95
505.83	5182.59
506.199	5294.9
506.567	5366.54
506.936	5329.03
507.304	5322.93
507.672	5263.04
508.041	5204.06
508.409	5073.21
508.777	4996.15
509.145	4921.81
509.514	4922.48
509.882	4898.3
510.25	4997.28
510.618	5087
510.986	5158.64
511.354	5373.77
511.722	5568.12
512.09	5671.16
512.458	5727.66
512.826	5762.24
513.193	5845.17
513.561	5733.76
513.929	5681.56
514.297	5623.26
514.664	5493.99
515.032	5416.03
515.4	5324.28
515.767	5279.54
516.135	5308.69
516.502	5252.19
516.869	5410.38
517.237	5540.55
517.604	5702.35
517.972	5950.93
518.339	6063.7
518.706	6142.34
519.073	6234.09
519.44	6268.44
519.808	6317.48
520.175	6145.05
520.542	6165.84
520.909	6029.12
521.276	5876.13
521.643	5774.21
522.009	5703.25
522.376	5699.41
522.743	5706.87
523.11	5801.33
523.477	5903.47
523.843	6091.49
524.21	6316.12
524.577	6505.04
524.943	6629.78
525.31	6811.25
525.676	6957.68
526.043	6990.23
526.409	7025.25
526.776	6977.8
527.142	6804.69
527.508	6752.04
527.874	6633.4
528.241	6496.23
528.607	6366.51
528.973	6395.89
529.339	6405.38
529.705	6487.41
530.071	6611.93
530.437	6772.83
530.803	6935.99
531.169	7179.6
531.535	7317.22
531.901	7534.39
532.267	7652.81
532.632	7789.75
532.998	7860.71
533.364	7839.69
533.73	7653.03
534.095	7641.73
534.461	7432.02
534.826	7270.67
535.192	7196.55
535.557	7114.29
535.923	7045.82
536.288	7101.18
536.653	7262.76
537.019	7317.67
537.384	7524.9
537.749	7727.61
538.114	7973.7
538.479	8153.13
538.845	8368.04
539.21	8432.45
539.575	8508.15
539.94	8594.7
540.305	8515.16
540.67	8364.88
541.034	8276.97
541.399	8124.43
541.764	7993.36
542.129	7849.64
542.494	7760.83
542.858	7704.33
543.223	7685.35
543.587	7723.77
543.952	7803.99
544.316	8130.99
544.681	8212.11
545.045	8457.98
545.41	8744.53
545.774	8877.41
546.138	9017.52
546.503	9156.95
546.867	9234.69
547.231	9246.44
547.595	9109.72
547.959	9043.73
548.324	8850.06
548.688	8703.18
549.052	8507.93
549.416	8309.29
549.779	8271.55
550.143	8177.77
550.507	8159.69
550.871	8204.43
551.235	8296.18
551.599	8494.82
551.962	8671.31
552.326	8829.27
552.689	9127.8
553.053	9284.85
553.417	9462.7
553.78	9678.97
554.143	9608.46
554.507	9775.46
554.87	9605.52
555.234	9596.48
555.597	9356.49
555.96	9129.6
556.323	8994.69
556.686	8780.69
557.05	8659.56
557.413	8583.18
557.776	8556.29
558.139	8594.03
558.502	8702.27
558.865	8852.55
559.228	9010.51
559.59	9207.79
559.953	9457.05
560.316	9745.63
560.679	9924.61
561.041	10103.59
561.404	10217.94
561.767	10274.43
562.129	10266.98
562.492	10255.68
562.854	10059.75
563.217	9879.42
563.579	9686.65
563.941	9420.9
564.304	9344.29
564.666	9253.67
565.028	9147.46
565.39	9095.26
565.753	9125.99
566.115	9258.64
566.477	9419.31
566.839	9583.83
567.201	9820.21
567.563	9989.24
567.925	10343.13
568.287	10540.19
568.648	10713.52
569.01	10855.21
569.372	11023.57
569.734	10992.83
570.095	10957.35
570.457	10841.2
570.819	10772.73
571.18	10579.51
571.542	10397.14
571.903	10211.16
572.265	10097.94
572.626	9946.53
572.987	9793.32
573.349	9810.49
573.71	9887.1
574.071	9996.7
574.432	10166.19
574.794	10483.47
575.155	10759.39
575.516	10926.39
575.877	11361.18
576.238	11600.73
576.599	11794.39
576.96	12009.75
577.32	12193.93
577.681	12381.72
578.042	12411.55
578.403	12279.35
578.763	12233.48
579.124	12194.16
579.485	12153.71
579.845	12048.85
580.206	11848.18
580.566	11813.6
580.927	11898.8
581.287	11977.67
581.648	12058.79
582.008	12384.89
582.368	12802.95
582.728	13164.3
583.089	13413.79
583.449	14017.39
583.809	14639.74
584.169	15083.8
584.529	15525.37
584.889	16183.2
585.249	16591.56
585.609	17040.81
585.969	17416.17
586.329	17685.99
586.688	17939.54
587.048	18250.49
587.408	18361.68
587.768	18546.76
588.127	18794.44
588.487	18966.63
588.846	19432.38
589.206	19593.51
589.565	19926.61
589.925	20472.13
590.284	20864.66
590.643	21440.02
591.003	22074.8
591.362	22849.7
591.721	23441.09
592.08	24194.29
592.44	24949.75
592.799	25756.74
593.158	26474.01
593.517	26951.73
593.876	27767.08
594.235	28344.92
594.593	28908.97
594.952	29308.28
595.311	29579.01
595.67	29971.54
596.029	30216.51
596.387	30625.99
596.746	30878.64
597.104	31046.54
597.463	31401.34
597.822	31953.86
598.18	32163.12
598.538	32557.24
598.897	33404.9
599.255	33643.99
599.613	34690.51
599.972	35036.27
600.33	35826.76
600.688	36339.28
601.046	37153.05
601.404	37938.34
601.762	38563.63
602.12	39232.77
602.478	39722.7
602.836	40503.02
603.194	40521.77
603.552	40977.58
603.91	41090.8
604.268	41562.65
604.625	41621.63
604.983	41919.25
605.341	41831.12
605.698	42185.23
606.056	42485.11
606.413	42550.19
606.771	42721.49
607.128	43057.3
607.485	43196.73
607.843	43458.19
608.2	44056.6
608.557	44519.18
608.914	44754.43
609.272	45417.69
609.629	45824.68
609.986	46540.6
610.343	46734.72
610.7	47465.55
611.057	47677.52
611.414	47897.4
611.771	48239.08
612.127	48454.45
612.484	48679.98
612.841	48785.29
613.198	48694.44
613.554	48835.45
613.911	48936.69
614.267	48812.85
614.624	48776.47
614.98	48886.53
615.337	49105.5
615.693	49085.39
616.05	48909.58
616.406	49216.01
616.762	49128.78
617.118	49350.92
617.475	49595.89
617.831	49793.62
618.187	50048.98
618.543	50247.17
618.899	50747.49
619.255	50883.99
619.611	51034.94
619.967	51335.73
620.323	51600.35
620.678	51641.48
621.034	51615.04
621.39	51817.07
621.746	51803.06
622.101	52164.18
622.457	51835.83
622.812	51870.85
623.168	51875.15
623.523	51795.6
623.879	51827.92
624.234	51544.76
624.589	51565.78
624.945	51522.61
625.3	51595.38
625.655	51489.39
626.01	51601.71
626.365	51553.12
626.72	51518.55
627.075	51613.01
627.43	51732.55
627.785	51862.04
628.14	52048.02
628.495	52253.67
628.85	52349.03
629.205	52446.88
629.559	52728.46
629.914	52588.57
630.269	52770.94
630.623	52803.71
630.978	52826.53
631.332	52928.9
631.687	52805.52
632.041	52763.03
632.396	52613.21
632.75	52465.41
633.104	52509.03
633.459	52184.97
633.813	52100.9
634.167	52003.96
634.521	51888.25
634.875	51912.89
635.229	51758.77
635.583	51578.88
635.937	51622.05
636.291	51657.07
636.645	51650.52
636.999	51627.47
637.352	51849.84
637.706	51794.02
638.06	52138.87
638.413	52045.09
638.767	52069.04
639.121	52320.79
639.474	52245.53
639.828	52285.98
640.181	52431.52
640.534	52524.62
640.888	52468.35
641.241	52280.11
641.594	52324.85
641.947	52353.33
642.301	52157.17
642.654	52121.69
643.007	51901.81
643.36	51825.43
643.713	51552.9
644.066	51542.27
644.419	51213.47
644.771	50903.65
645.124	50553.6
645.477	50443.77
645.83	50192.03
646.182	50033.16
646.535	49980.06
646.888	50111.58
647.24	49931.24
647.593	50322.42
647.945	50267.73
648.298	50308.63
648.65	50353.83
649.002	50482.87
649.355	50655.07
649.707	50741.62
650.059	50895.06
650.411	51358.1
650.763	51524.2
651.115	51819.33
651.467	51571.88
651.819	51581.82
652.171	51451.43
652.523	51302.51
652.875	51265.9
653.227	50894.16
653.578	51092.34
653.93	50897.09
654.282	50529.42
654.633	50445.81
654.985	50319.48
655.337	50312.25
655.688	50220.5
656.039	50296.21
656.391	49977.8
656.742	50004.24
657.094	50193.38
657.445	50315.64
657.796	50327.84
658.147	50254.4
658.498	50396.32
658.849	50688.06
659.2	50712.92
659.551	50620.49
659.902	50900.48
660.253	50882.86
660.604	51052.8
660.955	50968.28
661.306	51083.98
661.656	50975.51
662.007	51009.86
662.358	51016.86
662.708	50967.83
663.059	50825.23
663.409	50590.21
663.76	50672.02
664.11	50506.37
664.461	50391.8
664.811	50238.58
665.161	50178.47
665.511	49820.29
665.862	49745.26
666.212	49867.06
666.562	49642.21
666.912	49663.68
667.262	49511.14
667.612	49585.72
667.962	49689.22
668.312	49730.57
668.662	49837.01
669.011	49931.92
669.361	50095.08
669.711	50051.24
670.06	50268.41
670.41	50279.94
670.76	50249.43
671.109	50484.68
671.459	50641.73
671.808	50579.81
672.157	50754.95
672.507	50499.14
672.856	50384.57
673.205	50432.93
673.554	50538.23
673.904	50305.25
674.253	50503.66
674.602	50097.57
674.951	49592.72
675.3	49271.15
675.649	49656.45
675.998	49470.69
676.346	49383.69
676.695	49445.15
677.044	48955.45
677.393	49120.64
677.741	49076.58
678.09	49010.36
678.438	48791.84
678.787	48853.76
679.135	48857.37
679.484	48724.27
679.832	48938.05
680.181	48880.42
680.529	49085.39
680.877	49048.1
681.225	49124.03
681.573	49411.48
681.922	49335.1
682.27	49318.6
682.618	49505.49
682.966	49458.71
683.314	49498.49
683.661	49515.66
684.009	49357.02
684.357	49197.7
684.705	49135.56
685.053	49121.1
685.4	48964.49
685.748	48707.32
686.095	48650.83
686.443	48377.16
686.79	48058.3
687.138	48147.34
687.485	48002.71
687.832	47710.51
688.18	47616.95
688.527	47465.77
688.874	47123.86
689.221	47106.91
689.568	46949.4
689.915	46833.47
690.262	46826.92
690.609	46706.47
690.956	46577.89
691.303	46789.63
691.65	46744.66
691.997	46734.04
692.344	46666.47
692.69	46801.61
693.037	46887.03
693.383	46741.72
693.73	47003.86
694.077	46912.11
694.423	47060.13
694.769	46885.67
695.116	46973.13
695.462	46795.05
695.808	46664.89
696.155	46739.69
696.501	46337.44
696.847	46312.81
697.193	45878.47
697.539	45963.44
697.885	45553.96
698.231	45363.68
698.577	45242.1
698.923	44989.45
699.269	44639.63
699.614	44383.82
699.96	44189.47
700.306	44139.98
700.651	43850.95
700.997	43710.39
701.342	43609.15
701.688	43420.68
702.033	43377.29
702.379	43361.02
702.724	43233.34
703.069	43451.41
703.415	43150.86
703.76	43229.95
704.105	43277.41
704.45	43354.47
704.795	43138.65
705.14	43398.99
705.485	43315.15
705.83	43265.88
706.175	43267.69
706.52	43310.17
706.865	43315.15
707.209	43346.78
707.554	43088.26
707.899	43207.8
708.243	43159.22
708.588	42965.33
708.932	42580.02
709.277	42577.99
709.621	42318.11
709.966	42151.79
710.31	42084.67
710.654	41502.76
710.998	41442.65
711.342	41345.71
711.687	41159.27
712.031	40935.77
712.375	40579.4
712.719	40580.76
713.063	40460.08
713.407	40598.61
713.75	40238.84
714.094	40299.18
714.438	40148.22
714.782	40215.57
715.125	39999.53
715.469	40141.67
715.812	40068.68
716.156	39956.59
716.499	40176.25
716.843	40308.67
717.186	40072.75
717.53	40346.41
717.873	40642.45
718.216	40578.5
718.559	40489.46
718.902	40200.2
719.246	40247.66
719.589	40204.95
719.932	40146.19
720.275	40267.54
720.617	40023.26
720.96	40053.09
721.303	40048.11
721.646	39946.65
721.989	39597.96
722.331	39626.43
722.674	39297.62
723.016	39205.2
723.359	39019.67
723.701	38952.32
724.044	38576.06
724.386	38364.32
724.729	38424.43
725.071	38068.96
725.413	38097.43
725.755	38005.46
726.097	37737.67
726.439	37556.43
726.782	37547.16
727.124	37604.79
727.465	37495.86
727.807	37429.65
728.149	37498.8
728.491	37463.1
728.833	37521.17
729.175	37509.88
729.516	37578.35
729.858	37732.47
730.199	37901.5
730.541	37791.68
730.882	37842.07
731.224	38068.28
731.565	37870.77
731.906	37810.21
732.248	38076.41
732.589	37862.18
732.93	37837.55
733.271	37750.55
733.612	37746.93
733.953	37806.14
734.294	37559.82
734.635	37353.72
734.976	37402.08
735.317	37126.38
735.658	37081.41
735.999	37053.39
736.339	36830.57
736.68	36734.3
737.021	36446.63
737.361	36175.67
737.702	36358.27
738.042	36084.6
738.383	35959.63
738.723	35916.47
739.063	35756.02
739.404	35642.35
739.744	35592.41
740.084	35379.99
740.424	35524.39
740.764	35470.38
741.104	35626.31
741.444	35360.33
741.784	35435.58
742.124	35492.53
742.464	35530.49
742.804	35455.01
743.143	35543.83
743.483	35481
743.823	35609.81
744.162	35777.72
744.502	35901.78
744.841	35832.41
745.181	35976.58
745.52	36005.96
745.86	35909.24
746.199	35863.36
746.538	35745.63
746.877	35911.95
747.216	35779.98
747.556	35688.68
747.895	35620.43
748.234	35375.47
748.573	35391.29
748.911	35192.87
749.25	35094.35
749.589	34805.54
749.928	34777.74
750.267	34584.53
750.605	34502.5
750.944	34335.27
751.283	34035.62
751.621	33933.02
751.96	33729.41
752.298	33587.72
752.636	33541.84
752.975	33370.78
753.313	33255.75
753.651	33321.51
753.989	33195.64
754.327	33015.3
754.666	32884.91
755.004	33042.87
755.342	33017.56
755.679	33134.17
756.017	32959.71
756.355	33089.43
756.693	32791.58
757.031	33117.45
757.368	33042.2
757.706	32972.82
758.044	33001.97
758.381	33179.82
758.719	33012.82
759.056	33049.2
759.394	33120.84
759.731	32856.21
760.068	32934.18
760.405	32738.02
760.743	32647.63
761.08	32721.3
761.417	32600.17
761.754	32443.57
762.091	32421.42
762.428	32242.9
762.765	32024.6
763.102	32065.95
763.438	31815.79
763.775	31723.13
764.112	31487.66
764.449	31386.87
764.785	31195.01
765.122	30998.63
765.458	30798.64
765.795	30619.21
766.131	30364.3
766.467	30329.05
766.804	30121.14
767.14	29928.15
767.476	29903.3
767.812	29908.95
768.148	29789.85
768.485	29590.76
768.821	29456.08
769.157	29388.96
769.492	29454.95
769.828	29412.01
770.164	29183.99
770.5	29288.62
770.836	29286.59
771.171	29175.41
771.507	29168.85
771.842	28997.78
772.178	29183.77
772.513	29071
772.849	29102.86
773.184	28942.19
773.519	28955.52
773.855	28910.55
774.19	28813.38
774.525	28660.62
774.86	28787.17
775.195	28638.7
775.53	28530
775.865	28336.78
776.2	28108.77
776.535	27990.35
776.87	27958.94
777.205	27718.04
777.539	27535.9
777.874	27670.81
778.209	27283.25
778.543	27174.55
778.878	27059.75
779.212	26831.51
779.547	26619.31
779.881	26698.41
780.215	26516.27
780.55	26442.6
780.884	26183.17
781.218	26043.51
781.552	25904.98
781.886	25754.7
782.22	25599.45
782.554	25572.11
782.888	25311.1
783.222	25211.89
783.556	25220.93
783.889	25172.8
784.223	24949.08
784.557	24980.04
784.89	25106.59
785.224	24933.48
785.557	24911.11
785.891	24836.76
786.224	24875.86
786.558	24914.5
786.891	24758.57
787.224	24682.64
787.557	24684.9
787.891	24774.62
788.224	24815.75
788.557	24766.48
788.89	24659.14
789.223	24574.85
789.556	24489.2
789.888	24411.46
790.221	24522.65
790.554	24171.47
790.887	24222.32
791.219	24140.06
791.552	24012.38
791.884	23941.19
792.217	23952.72
792.549	23670.24
792.882	23440.19
793.214	23434.09
793.546	23220.08
793.879	23064.61
794.211	22888.56
794.543	22918.62
794.875	22751.17
795.207	22646.54
795.539	22537.61
795.871	22498.29
796.203	22200.45
796.535	22048.81
796.867	22007.01
797.198	21894.69
797.53	21917.06
797.862	21680.01
798.193	21767.92
798.525	21513.46
798.856	21628.03
799.188	21442.28
799.519	21428.49
799.85	21141.27
800.182	21287.93
800.513	21264.88
800.844	21153.92
801.175	21336.52
801.506	21375.38
801.837	21223.98
802.168	21351.66
802.499	21316.85
802.83	21071.21
803.161	21048.84
803.491	21192.79
803.822	21177.65
804.153	21238.89
804.483	21039.8
804.814	20989.18
805.145	21011.33
805.475	21003.64
805.805	20969.97
806.136	20992.57
806.466	21032.57
806.796	20859.69
807.126	20708.74
807.457	20652.01
807.787	20512.58
808.117	20455.63
808.447	20341.06
808.777	20498.35
809.107	20214.74
809.436	20156.66
809.766	20091.12
810.096	19983.33
810.426	19886.16
810.755	19791.92
811.085	19715.99
811.414	19541.99
811.744	19318.72
812.073	19299.05
812.403	19233.29
812.732	19098.38
813.061	19170.47
813.39	18926.86
813.719	18853.87
814.049	18978.61
814.378	18822.68
814.707	18826.75
815.036	18745.4
815.365	18555.57
815.693	18569.58
816.022	18589.24
816.351	18563.71
816.68	18440.77
817.008	18571.84
817.337	18467.44
817.665	18345.18
817.994	18422.69
818.322	18479.87
818.651	18323.49
818.979	18381.11
819.307	18423.37
819.636	18405.52
819.964	18419.3
820.292	18539.53
820.62	18506.31
820.948	18506.76
821.276	18507.89
821.604	18432.41
821.932	18475.12
822.259	18591.28
822.587	18616.13
822.915	18599.41
823.243	18623.59
823.57	18599.86
823.898	18607.1
824.225	18453.2
824.553	18458.4
824.88	18525.06
825.207	18404.16
825.535	18342.92
825.862	18455.24
826.189	18366.2
826.516	18384.73
826.843	18220.44
827.17	18217.73
827.497	18158.29
827.824	18182.25
828.151	18120.55
828.478	17966.66
828.805	18099.76
829.131	17930.5
829.458	17857.51
829.785	17734.58
830.111	17866.78
830.438	17857.06
830.764	17813.9
831.09	17742.49
831.417	17716.72
831.743	17663.84
832.069	17719.66
832.395	17634.69
832.722	17724.63
833.048	17684.86
833.374	17723.05
833.7	17583.17
834.026	17628.82
834.351	17793.33
834.677	17767.8
835.003	17853.89
835.329	17874.01
835.654	17887.11
835.98	17813.67
836.306	17785.2
836.631	17771.64
836.956	17928.7
837.282	17891.63
837.607	17867.23
837.932	17897.74
838.258	17934.12
838.583	17789.26
838.908	17786.33
839.233	17879.66
839.558	17883.27
839.883	17683.05
840.208	17704.52
840.533	17669.04
840.858	17716.27
841.182	17620.45
841.507	17600.79
841.832	17519.89
842.156	17518.76
842.481	17414.13
842.805	17360.12
843.13	17375.94
843.454	17168.72
843.778	17202.16
844.103	17143.41
844.427	17065.67
844.751	17033.13
845.075	16901.6
845.399	16764.43
845.723	16597.88
846.047	16635.85
846.371	16456.87
846.695	16425.46
847.019	16243.09
847.343	16209.19
847.666	16160.15
847.99	16118.35
848.313	16003.77
848.637	15802.2
848.96	15780.73
849.284	15795.87
849.607	15699.15
849.931	15706.61
850.254	15494.86
850.577	15420.29
850.9	15435.43
851.223	15334.64
851.546	15404.02
851.869	15238.6
852.192	15377.35
852.515	15377.58
852.838	15116.57
853.161	15242.21
853.483	15154.76
853.806	15208.54
854.129	15204.25
854.451	15192.95
854.774	15154.08
855.096	15070.01
855.419	15083.35
855.741	15133.29
856.063	15006.29
856.385	15005.38
856.708	14983.69
857.03	14852.17
857.352	15004.93
857.674	14987.3
857.996	14862.11
858.318	14809
858.64	14754.54
858.961	14644.49
859.283	14592.51
859.605	14458.73
859.926	14577.37
860.248	14457.15
860.57	14401.56
860.891	14496.24
861.212	14307.55
861.534	14206.99
861.855	14147.33
862.176	14087.89
862.498	14131.96
862.819	14016.48
863.14	13936.94
863.461	13922.7
863.782	13854.23
864.103	13917.5
864.424	13746.66
864.745	13659.43
865.065	13564.97
865.386	13554.35
865.707	13527.91
866.027	13437.29
866.348	13498.08
866.668	13423.28
866.989	13428.25
867.309	13383.5
867.63	13374.01
867.95	13330.62
868.27	13223.28
868.59	13205.88
868.91	13318.2
869.23	13230.06
869.55	13246.78
869.87	13383.96
870.19	13299.66
870.51	13291.53
870.83	13392.77
871.15	13298.76
871.469	13300.34
871.789	13344.86
872.109	13350.74
872.428	13308.48
872.748	13410.4
873.067	13478.87
873.386	13435.93
873.706	13404.29
874.025	13416.72
874.344	13360
874.663	13405.88
874.982	13351.64
875.301	13313.45
875.62	13261.7
875.939	13313
876.258	13351.64
876.577	13246.56
876.896	13198.65
877.214	13119.33
877.533	13156.84
877.852	13127.69
878.17	13073.23
878.489	13100.57
878.807	13033.91
879.125	13084.98
879.444	13069.16
879.762	12883.4
880.08	12897.64
880.398	12830.98
880.716	12826.68
881.034	12725.44
881.352	12725.22
881.67	12573.58
881.988	12619.91
882.306	12666.46
882.624	12467.6
882.941	12421.27
883.259	12353.47
883.577	12341.72
883.894	12239.81
884.212	12284.55
884.529	12194.38
884.846	12106.93
885.164	12075.74
885.481	12090.43
885.798	12003.65
886.115	11949.19
886.432	11991.45
886.75	11885.01
887.067	11950.32
887.383	11878.23
887.7	11934.05
888.017	11842.53
888.334	11803.21
888.651	11838.91
888.967	11815.18
889.284	11712.81
889.6	11743.32
889.917	11757.33
890.233	11726.15
890.55	11705.81
890.866	11765.92
891.182	11676.88
891.498	11663.1
891.815	11655.87
892.131	11636.88
892.447	11578.13
892.763	11613.16
893.079	11600.27
893.395	11560.5
893.71	11548.07
894.026	11566.6
894.342	11563.44
894.657	11401.18
894.973	11530.9
895.289	11505.36
895.604	11533.61
895.92	11453.61
896.235	11391.01
896.55	11372.26
896.865	11315.99
897.181	11288.64
897.496	11287.97
897.811	11179.04
898.126	11127.97
898.441	11072.6
898.756	11105.6
899.071	11003.91
899.386	11023.11
899.7	10818.6
900.015	10848.66
900.33	10722.56
900.644	10680.52
900.959	10658.15
901.273	10611.6
901.588	10534.99
901.902	10391.72
902.216	10419.97
902.531	10372.28
902.845	10219.52
903.159	10209.58
903.473	10147.66
903.787	10088.22
904.101	10077.38
904.415	10015.91
904.729	9976.36
905.042	9906.99
905.356	9908.34
905.67	9839.19
905.984	9860.43
906.297	9801.68
906.611	9728.23
906.924	9744.73
907.237	9730.04
907.551	9646.2
907.864	9611.85
908.177	9563.04
908.491	9566.43
908.804	9470.39
909.117	9545.19
909.43	9456.6
909.743	9435.36
910.056	9401.24
910.368	9398.75
910.681	9333.44
910.994	9405.3
911.307	9418.86
911.619	9285.08
911.932	9324.63
912.244	9254.57
912.557	9321.69
912.869	9217.51
913.181	9161.47
913.494	9155.37
913.806	9068.36
914.118	9110.62
914.43	9041.47
914.742	9044.86
915.054	8994.01
915.366	8967.35
915.678	8958.99
915.99	8929.84
916.302	8861.36
916.613	8824.53
916.925	8768.94
917.236	8797.18
917.548	8753.12
917.859	8716.28
918.171	8630.18
918.482	8613.23
918.794	8554.7
919.105	8587.25
919.416	8502.05
919.727	8428.83
920.038	8375.95
920.349	8309.97
920.66	8242.17
920.971	8270.42
921.282	8252.57
921.593	8128.27
921.903	8074.49
922.214	8041.95
922.525	7975.06
922.835	7941.61
923.146	7901.16
923.456	7859.13
923.767	7790.66
924.077	7757.21
924.387	7726.03
924.697	7693.26
925.008	7711.79
925.318	7612.81
925.628	7507.05
925.938	7463.89
926.248	7437.67
926.558	7390.89
926.867	7396.32
927.177	7332.36
927.487	7306.15
927.796	7253.95
928.106	7240.61
928.416	7265.47
928.725	7240.39
929.034	7144.8
929.344	7181.41
929.653	7165.14
929.962	7107.06
930.271	7112.93
930.581	6989.32
930.89	7057.34
931.199	7046.5
931.508	6990
931.817	6967.85
932.125	7010.79
932.434	6979.38
932.743	6938.93
933.051	6976.44
933.36	6920.17
933.669	6923.11
933.977	6872.71
934.286	6900.96
934.594	6873.17
934.902	6790.01
935.21	6766.05
935.519	6780.97
935.827	6732.61
936.135	6718.14
936.443	6680.4
936.751	6658.26
937.059	6605.83
937.367	6642.66
937.674	6590.24
937.982	6569.45
938.29	6494.19
938.597	6532.38
938.905	6461.88
939.213	6467.53
939.52	6418.04
939.827	6418.94
940.135	6325.38
940.442	6278.38
940.749	6276.8
941.056	6274.99
941.363	6187.31
941.67	6152.73
941.977	6168.78
942.284	6056.01
942.591	6106.63
942.898	6041.55
943.205	6004.71
943.511	5969.91
943.818	5996.13
944.125	5898.05
944.431	5899.41
944.738	5881.78
945.044	5851.05
945.35	5846.75
945.657	5774.89
945.963	5742.8
946.269	5691.28
946.575	5637.94
946.881	5616.48
947.187	5600.43
947.493	5533.77
947.799	5541.45
948.105	5468.68
948.41	5411.28
948.716	5409.7
949.022	5410.83
949.327	5411.96
949.633	5327.22
949.938	5339.42
950.244	5272.53
950.549	5263.94
950.854	5265.07
951.16	5251.06
951.465	5226.2
951.77	5214.45
952.075	5201.57
952.38	5191.63
952.685	5216.94
952.99	5159.77
953.294	5141.23
953.599	5080.9
953.904	5129.48
954.209	5145.08
954.513	5095.59
954.818	5101.24
955.122	5093.78
955.426	5028.47
955.731	5054.91
956.035	5017.17
956.339	5056.49
956.643	4970.39
956.948	4967
957.252	4946.44
957.556	4990.05
957.86	4885.2
958.163	4941.69
958.467	4897.17
958.771	4858.98
959.075	4838.19
959.378	4851.3
959.682	4892.88
959.985	4802.94
960.289	4744.41
960.592	4742.15
960.896	4734.24
961.199	4731.08
961.502	4688.59
961.805	4675.03
962.108	4658.31
962.411	4646.11
962.714	4610.4
963.017	4590.74
963.32	4571.76
963.623	4565.43
963.926	4510.07
964.228	4479.78
964.531	4500.8
964.833	4522.27
965.136	4432.78
965.438	4363.4
965.741	4346.23
966.043	4338.77
966.345	4299.68
966.648	4309.17
966.95	4256.06
967.252	4245.21
967.554	4188.49
967.856	4209.51
968.158	4164.76
968.46	4146.01
968.761	4109.85
969.063	4071.88
969.365	4053.81
969.666	4065.33
969.968	3982.17
970.269	3990.3
970.571	3970.87
970.872	3912.11
971.174	3905.56
971.475	3907.37
971.776	3891.1
972.077	3885.22
972.378	3893.13
972.679	3861.72
972.98	3808.84
973.281	3792.12
973.582	3794.38
973.883	3789.63
974.183	3761.38
974.484	3777.2
974.785	3755.51
975.085	3739.24
975.386	3707.83
975.686	3670.31
975.986	3696.75
976.287	3694.72
976.587	3612.91
976.887	3673.93
977.187	3621.73
977.487	3619.02
977.787	3606.59
978.087	3606.13
978.387	3584.44
978.687	3596.87
978.987	3565.01
979.286	3525.01
979.586	3562.97
979.885	3555.06
980.185	3517.77
980.484	3499.92
980.784	3487.04
981.083	3495.18
981.382	3462.41
981.682	3492.01
981.981	3481.39
982.28	3446.59
982.579	3414.27
982.878	3423.77
983.177	3409.75
983.475	3366.14
983.774	3373.37
984.073	3364.33
984.372	3341.51
984.67	3296.54
984.969	3315.52
985.267	3282.53
985.566	3284.11
985.864	3253.6
986.162	3283.2
986.461	3264.67
986.759	3233.49
987.057	3172.7
987.355	3161.85
987.653	3227.16
987.951	3185.13
988.249	3158.01
988.547	3154.17
988.844	3134.06
989.142	3059.03
989.44	3098.12
989.737	3021.74
990.035	2999.14
990.332	3005.47
990.63	2985.59
990.927	2938.13
991.224	2959.15
991.521	2933.84
991.819	2893.84
992.116	2916.89
992.413	2909.88
992.71	2850
993.006	2849.77
993.303	2845.48
993.6	2816.55
993.897	2806.16
994.193	2759.83
994.49	2788.53
994.787	2775.87
995.083	2761.86
995.379	2754.86
995.676	2699.72
995.972	2697.01
996.268	2644.35
996.565	2645.26
996.861	2603
997.157	2638.25
997.453	2631.47
997.749	2620.85
998.044	2605.93
998.34	2569.55
998.636	2566.16
998.932	2570.46
999.227	2519.38
999.523	2560.29
999.818	2534.07
1000.114	2532.49
1000.409	2525.48
1000.704	2526.84
1001	2501.3
1001.295	2477.8
1001.59	2467.63
1001.885	2463.11
1002.18	2440.97
1002.475	2443.23
1002.77	2467.18
1003.065	2404.36
1003.359	2377.47
1003.654	2384.92
1003.949	2399.84
1004.243	2393.96
1004.538	2348.77
1004.832	2335.43
1005.127	2338.14
1005.421	2341.08
1005.715	2288.88
1006.009	2315.55
1006.304	2311.25
1006.598	2282.55
1006.892	2268.09
1007.186	2260.41
1007.48	2261.76
1007.773	2231.71
1008.067	2218.83
1008.361	2192.39
1008.655	2194.65
1008.948	2198.94
1009.242	2207.98
1009.535	2160.07
1009.829	2163.01
1010.122	2151.03
1010.415	2124.37
1010.708	2133.63
1011.001	2104.93
1011.295	2063.12
1011.588	2070.36
1011.881	2049.34
1012.173	2005.05
1012.466	2032.62
1012.759	2018.15
1013.052	2004.59
1013.344	1991.04
1013.637	1983.58
1013.93	1961.21
1014.222	1932.05
1014.514	1925.05
1014.807	1908.55
1015.099	1904.71
1015.391	1879.85
1015.683	1883.24
1015.976	1858.38
1016.268	1844.37
1016.56	1860.87
1016.851	1799.4
1017.143	1784.94
1017.435	1756.47
1017.727	1768.89
1018.018	1770.48
1018.31	1736.13
1018.602	1759.4
1018.893	1733.64
1019.185	1751.04
1019.476	1668.78
1019.767	1701.78
1020.058	1684.38
1020.35	1699.07
1020.641	1646.86
1020.932	1634.21
1021.223	1636.92
1021.514	1605.28
1021.804	1615.45
1022.095	1597.83
1022.386	1623.36
1022.677	1574.55
1022.967	1557.37
1023.258	1542.91
1023.548	1571.39
1023.839	1532.74
1024.129	1523.93
1024.419	1535
1024.709	1525.06
1025	1514.66
1025.29	1501.78
1025.58	1497.94
1025.87	1443.48
1026.16	1480.09
1026.449	1457.49
1026.739	1445.96
1027.029	1443.03
1027.319	1452.74
1027.608	1442.12
1027.898	1445.06
1028.187	1429.47
1028.477	1410.94
1028.766	1413.42
1029.055	1409.58
1029.344	1372.52
1029.634	1378.62
1029.923	1361.9
1030.212	1373.88
1030.501	1350.6
1030.79	1336.36
1031.078	1361.9
1031.367	1304.73
1031.656	1311.05
1031.945	1318.96
1032.233	1309.25
1032.522	1280.55
1032.81	1279.87
1033.099	1280.32
1033.387	1272.86
1033.675	1249.59
1033.963	1212.52
1034.251	1241.9
1034.54	1253.65
1034.828	1234.9
1035.116	1231.28
1035.403	1227.21
1035.691	1214.11
1035.979	1204.16
1036.267	1193.09
1036.554	1146.31
1036.842	1175.69
1037.129	1169.14
1037.417	1151.96
1037.704	1129.81
1037.992	1124.62
1038.279	1096.14
1038.566	1129.59
1038.853	1129.59
1039.14	1129.59
