Data from red_cardboard_box_FLMS001491_00096.txt Node
Date: Wed Feb 08 11:33:25 GMT 2017
User: dcchb
Spectrometer: FLMS00149
Trigger mode: 0
Integration Time (sec): 2.000000E-2
Scans to average: 10
Electric dark correction enabled: true
Nonlinearity correction enabled: false
Boxcar width: 0
XAxis mode: Wavelengths
Number of Pixels in Spectrum: 2048
>>>>>Begin Spectral Data<<<<<
341.393	-14.49
341.776	-14.49
342.16	-14.49
342.543	-50.42
342.927	-60.59
343.31	-74.38
343.693	-66.02
344.077	-81.38
344.46	-52.91
344.843	-53.13
345.226	-32.12
345.61	-49.97
345.993	-5.45
346.376	5.4
346.759	2.01
347.142	27.09
347.525	47.88
347.908	37.26
348.291	94.66
348.674	108.9
349.057	92.17
349.44	120.42
349.823	150.93
350.206	172.85
350.588	198.16
350.971	215.79
351.354	234.77
351.737	237.25
352.119	248.33
352.502	286.97
352.884	288.1
353.267	284.94
353.65	300.08
354.032	309.79
354.414	322
354.797	333.97
355.179	336.69
355.562	312.28
355.944	350.25
356.326	342.56
356.709	345.95
357.091	322.68
357.473	326.52
357.855	340.75
358.238	382.33
358.62	332.39
359.002	331.71
359.384	360.87
359.766	338.04
360.148	330.13
360.53	327.65
360.912	336.91
361.294	343.69
361.676	310.92
362.057	334.88
362.439	342.56
362.821	318.16
363.203	316.8
363.584	325.61
363.966	325.61
364.348	333.52
364.729	318.61
365.111	323.81
365.493	326.29
365.874	303.01
366.256	330.13
366.637	310.47
367.019	333.07
367.4	326.74
367.781	307.53
368.163	325.16
368.544	326.52
368.925	327.87
369.306	321.55
369.688	296.46
370.069	322.68
370.45	298.04
370.831	315.22
371.212	323.13
371.593	311.83
371.974	314.77
372.355	310.7
372.736	311.38
373.117	326.97
373.498	328.55
373.879	312.73
374.26	331.49
374.641	335.78
375.021	326.29
375.402	324.71
375.783	341.43
376.163	345.5
376.544	333.3
376.925	344.6
377.305	343.01
377.686	340.3
378.066	336.46
378.447	318.83
378.827	331.71
379.208	325.61
379.588	323.13
379.968	329.23
380.349	329.45
380.729	326.52
381.109	345.27
381.489	338.95
381.87	336.01
382.25	337.14
382.63	334.88
383.01	340.75
383.39	340.75
383.77	337.14
384.15	344.6
384.53	340.98
384.91	347.08
385.29	354.31
385.67	352.73
386.049	346.86
386.429	363.35
386.809	348.21
387.189	355.22
387.568	363.35
387.948	355.89
388.328	369.91
388.707	361.32
389.087	353.18
389.466	375.33
389.846	363.8
390.225	372.39
390.605	376.46
390.984	362.9
391.363	377.59
391.743	367.87
392.122	365.16
392.501	386.18
392.881	383.92
393.26	360.64
393.639	366.29
394.018	384.59
394.397	391.6
394.776	378.27
395.155	374.65
395.534	373.97
395.913	376.01
396.292	385.5
396.671	397.93
397.05	373.52
397.429	382.33
397.808	394.09
398.186	390.24
398.565	383.01
398.944	392.05
399.323	388.66
399.701	417.36
400.08	399.51
400.458	407.19
400.837	386.85
401.215	390.24
401.594	395.44
401.972	408.55
402.351	398.38
402.729	403.35
403.107	404.25
403.486	396.8
403.864	400.41
404.242	419.85
404.62	387.31
404.999	390.02
405.377	418.72
405.755	422.56
406.133	426.4
406.511	413.97
406.889	441.77
407.267	416.01
407.645	421.43
408.023	414.88
408.401	432.73
408.779	412.16
409.156	439.51
409.534	449.9
409.912	442.45
410.29	441.99
410.667	445.61
411.045	447.19
411.422	434.99
411.8	458.49
412.178	444.48
412.555	475.67
412.933	477.7
413.31	463.24
413.687	456.68
414.065	465.5
414.442	459.39
414.819	485.16
415.197	471.15
415.574	480.86
415.951	492.39
416.328	486.96
416.705	477.25
417.082	493.29
417.46	485.61
417.837	503.46
418.214	491.26
418.591	488.32
418.967	501.88
419.344	476.12
419.721	532.61
420.098	484.25
420.475	515.21
420.852	509.79
421.228	508.66
421.605	521.77
421.982	514.76
422.358	526.51
422.735	533.07
423.111	513.86
423.488	530.35
423.864	538.04
424.241	521.09
424.617	520.18
424.994	533.29
425.37	537.81
425.746	543.69
426.123	545.95
426.499	550.24
426.875	526.06
427.251	568.32
427.627	554.31
428.003	543.69
428.379	578.04
428.756	559.28
429.132	581.43
429.507	582.56
429.883	578.26
430.259	573.97
430.635	597.7
431.011	589.79
431.387	609.22
431.763	593.18
432.138	614.64
432.514	602.44
432.89	595.44
433.265	619.84
433.641	607.41
434.016	619.16
434.392	612.39
434.767	619.39
435.143	642.21
435.518	633.4
435.894	642.21
436.269	650.8
436.644	668.65
437.02	657.13
437.395	667.3
437.77	667.98
438.145	654.87
438.52	674.08
438.895	688.54
439.271	690.35
439.646	701.87
440.021	683.8
440.395	692.83
440.77	666.17
441.145	682.89
441.52	705.72
441.895	706.39
442.27	693.51
442.645	730.12
443.019	712.04
443.394	709.11
443.769	721.53
444.143	727.41
444.518	735.77
444.892	714.08
445.267	737.58
445.641	732.38
446.016	734.64
446.39	743.46
446.764	750.23
447.139	758.6
447.513	758.6
447.887	750.46
448.262	762.21
448.636	782.1
449.01	755.21
449.384	758.37
449.758	781.65
450.132	786.84
450.506	787.52
450.88	780.06
451.254	776.67
451.628	800.63
452.002	797.69
452.376	787.75
452.75	813.06
453.123	820.06
453.497	827.75
453.871	805.6
454.244	852.15
454.618	841.53
454.992	838.59
455.365	837.46
455.739	870.68
456.112	883.34
456.486	852.83
456.859	898.48
457.232	895.09
457.606	895.09
457.979	891.25
458.352	901.19
458.725	917.69
459.099	905.03
459.472	934.41
459.845	929.21
460.218	939.61
460.591	946.16
460.964	942.55
461.337	962.43
461.71	969.66
462.083	958.82
462.456	1006.5
462.829	974.18
463.201	1005.6
463.574	1013.96
463.947	1021.19
464.32	1044.92
464.692	1009.21
465.065	1008.98
465.438	1033.16
465.81	1022.09
466.183	1037.23
466.555	1104.8
466.928	1079.27
467.3	1083.56
467.672	1073.16
468.045	1100.28
468.417	1103.9
468.789	1101.41
469.161	1154.07
469.534	1139.15
469.906	1177.79
470.278	1160.17
470.65	1185.25
471.022	1180.51
471.394	1208.75
471.766	1199.71
472.138	1232.93
472.51	1251.01
472.882	1275.19
473.253	1280.84
473.625	1275.87
473.997	1303.21
474.369	1338.02
474.74	1279.71
475.112	1357
475.484	1363.33
475.855	1380.73
476.227	1404.45
476.598	1406.04
476.97	1412.59
477.341	1472.02
477.713	1458.92
478.084	1453.04
478.455	1502.53
478.827	1546.15
479.198	1575.52
479.569	1552.7
479.94	1581.4
480.311	1590.89
480.682	1645.35
481.053	1689.42
481.424	1672.7
481.795	1705.24
482.166	1710.21
482.537	1751.56
482.908	1731.23
483.279	1749.08
483.65	1788.85
484.021	1837.89
484.391	1875.63
484.762	1889.41
485.133	1856.87
485.503	1921.5
485.874	1932.58
486.244	1949.53
486.615	1983.42
486.985	2037.43
487.356	2006.25
487.726	2074.95
488.097	2080.82
488.467	2109.75
488.837	2104.78
489.207	2159.91
489.578	2158.56
489.948	2227.03
490.318	2225.9
490.688	2248.27
491.058	2265.9
491.428	2292.79
491.798	2312.91
492.168	2339.35
492.538	2384.09
492.908	2385.22
493.278	2386.8
493.648	2406.46
494.017	2496.86
494.387	2457.31
494.757	2517.87
495.126	2501.15
495.496	2540.7
495.866	2528.49
496.235	2581.6
496.605	2578.89
496.974	2596.97
497.344	2662.95
497.713	2642.61
498.082	2666.79
498.452	2689.17
498.821	2724.19
499.19	2708.6
499.559	2713.12
499.928	2714.93
500.298	2773.01
500.667	2814.81
501.036	2808.49
501.405	2818.43
501.774	2834.47
502.143	2863.63
502.512	2906.11
502.88	2930.74
503.249	2921.25
503.618	2927.58
503.987	2902.72
504.356	2970.29
504.724	2977.29
505.093	3025.65
505.462	3025.88
505.83	3054.35
506.199	3090.74
506.567	3115.82
506.936	3110.62
507.304	3169.38
507.672	3194.01
508.041	3165.31
508.409	3182.94
508.777	3222.94
509.145	3218.42
509.514	3238.08
509.882	3269.72
510.25	3269.49
510.618	3322.37
510.986	3375.7
511.354	3337.51
511.722	3406.21
512.09	3393.33
512.458	3426.1
512.826	3436.27
513.193	3503.61
513.561	3527.11
513.929	3525.08
514.297	3525.75
514.664	3564.17
515.032	3604.62
515.4	3686.2
515.767	3641.01
516.135	3646.43
516.502	3662.25
516.869	3713.77
517.237	3737.5
517.604	3738.63
517.972	3843.26
518.339	3804.17
518.706	3822.02
519.073	3878.97
519.44	3908.8
519.808	3971.62
520.175	3928
520.542	3981.79
520.909	4029.02
521.276	4049.13
521.643	4071.05
522.009	4097.72
522.376	4112.41
522.743	4171.61
523.11	4205.96
523.477	4253.87
523.843	4240.31
524.21	4257.26
524.577	4345.62
524.943	4313.53
525.31	4394.66
525.676	4382.68
526.043	4437.6
526.409	4490.93
526.776	4434.43
527.142	4520.08
527.508	4596.24
527.874	4591.04
528.241	4611.15
528.607	4639.62
528.973	4694.99
529.339	4770.02
529.705	4780.19
530.071	4797.13
530.437	4791.26
530.803	4832.61
531.169	4849.34
531.535	4853.18
531.901	4903.35
532.267	4938.37
532.632	4995.55
532.998	5054.3
533.364	4991.93
533.73	5025.38
534.095	5096.11
534.461	5080.52
534.826	5162.1
535.192	5183.79
535.557	5250.46
535.923	5183.79
536.288	5194.64
536.653	5297.46
537.019	5273.51
537.384	5323.45
537.749	5404.12
538.114	5361.19
538.479	5374.29
538.845	5450.22
539.21	5402.54
539.575	5434.41
539.94	5497
540.305	5524.8
540.67	5537.45
541.034	5523.89
541.399	5635.76
541.764	5609.77
542.129	5631.69
542.494	5617.9
542.858	5697.68
543.223	5725.47
543.587	5749.43
543.952	5727.28
544.316	5786.94
544.681	5802.76
545.045	5812.93
545.41	5920.27
545.774	5907.16
546.138	5967.27
546.503	5975.18
546.867	6010.21
547.231	6018.57
547.595	5991.68
547.959	6022.19
548.324	6085.46
548.688	6095.63
549.052	6136.99
549.416	6119.81
549.779	6196.42
550.143	6204.33
550.507	6264.89
550.871	6307.83
551.235	6278.9
551.599	6398.45
551.962	6363.42
552.326	6427.37
552.689	6444.55
553.053	6466.92
553.417	6467.15
553.78	6604.54
554.143	6617.88
554.507	6636.41
554.87	6651.55
555.234	6756.18
555.597	6730.87
555.96	6796.4
556.323	6847.25
556.686	6893.8
557.05	6987.36
557.413	6967.02
557.776	7001.37
558.139	7031.2
558.502	7090.86
558.865	7120.91
559.228	7228.71
559.59	7199.56
559.953	7327.69
560.316	7418.76
560.679	7391.87
561.041	7512.09
561.404	7542.82
561.767	7646.78
562.129	7640
562.492	7788.92
562.854	7771.97
563.217	7827.11
563.579	7879.09
563.941	7982.81
564.304	8041.12
564.666	8110.27
565.028	8168.57
565.39	8234.33
565.753	8304.39
566.115	8395.68
566.477	8498.73
566.839	8529.69
567.201	8604.94
567.563	8657.6
567.925	8796.8
568.287	8772.85
568.648	8874.99
569.01	8973.75
569.372	9033.18
569.734	9091.26
570.095	9182.1
570.457	9302.55
570.819	9426.62
571.18	9416.22
571.542	9537.12
571.903	9594.07
572.265	9709.77
572.626	9807.85
572.987	9866.38
573.349	9952.48
573.71	10054.17
574.071	10197.44
574.432	10290.32
574.794	10422.52
575.155	10446.25
575.516	10544.55
575.877	10681.72
576.238	10738.9
576.599	10882.85
576.96	10930.98
577.32	11013.02
577.681	11227.02
578.042	11353.35
578.403	11389.05
578.763	11484.87
579.124	11752.43
579.485	11815.71
579.845	12018.86
580.206	12061.35
580.566	12203.04
580.927	12417.5
581.287	12548.34
581.648	12665.4
582.008	12949.91
582.368	13036.69
582.728	13311.71
583.089	13434.87
583.449	13554.19
583.809	13764.81
584.169	14039.15
584.529	14130
584.889	14375.86
585.249	14490.66
585.609	14721.17
585.969	15066.02
586.329	15219.46
586.688	15498.55
587.048	15663.29
587.408	15941.7
587.768	16183.73
588.127	16471.18
588.487	16630.04
588.846	17155.68
589.206	17234.09
589.565	17547.53
589.925	18008.09
590.284	18102.77
590.643	18420.28
591.003	18822.53
591.362	19184.1
591.721	19469.97
592.08	19818.66
592.44	20154.47
592.799	20605.08
593.158	20812.98
593.517	21046.65
593.876	21696.58
594.235	21944.93
594.593	22304.02
594.952	22711.92
595.311	23065.13
595.67	23531.1
596.029	23928.16
596.387	24391.65
596.746	24779.21
597.104	24996.38
597.463	25467.78
597.822	26018.72
598.18	26250.58
598.538	26703
598.897	27257.11
599.255	27393.83
599.613	28214.6
599.972	28350.41
600.33	28843.51
600.688	29201.69
601.046	29592.41
601.404	30232.85
601.762	30577.25
602.12	31080.96
602.478	31435.98
602.836	31935.63
603.194	32116.42
603.552	32600.7
603.91	32970.4
604.268	33480.22
604.625	33738.52
604.983	34222.57
605.341	34489.91
605.698	34987.3
606.056	35494.63
606.413	35632.93
606.771	36280.15
607.128	36610.76
607.485	36702.51
607.843	37076.96
608.2	37634.01
608.557	38069.03
608.914	38175.69
609.272	38677.37
609.629	39067.19
609.986	39351.03
610.343	39564.13
610.7	40081.86
611.057	40234.39
611.414	40468.51
611.771	40777.88
612.127	41093.81
612.484	41270.53
612.841	41644.75
613.198	41871.41
613.554	42042.71
613.911	42414.9
614.267	42642.47
614.624	42828.45
614.98	43184.15
615.337	43471.15
615.693	43506.17
616.05	43659.84
616.406	44030.23
616.762	44231.58
617.118	44295.53
617.475	44600.61
617.831	44763.31
618.187	44858.91
618.543	45107.03
618.899	45516.29
619.255	45663.4
619.611	45731.2
619.967	46024.75
620.323	46260.22
620.678	46153.33
621.034	46179.77
621.39	46339.32
621.746	46476.49
622.101	46991.28
622.457	46710.83
622.812	47015.68
623.168	47115.34
623.523	47226.98
623.879	47461.1
624.234	47226.75
624.589	47442.34
624.945	47589.45
625.3	47685.05
625.655	47846.62
626.01	47866.06
626.365	48001.65
626.72	47866.28
627.075	48074.19
627.43	48074.19
627.785	48051.14
628.14	48180.17
628.495	48322.77
628.85	48455.19
629.205	48294.3
629.559	48634.63
629.914	48512.37
630.269	48555.53
630.623	48493.61
630.978	48555.31
631.332	48622.87
631.687	48808.86
632.041	48685.92
632.396	48928.63
632.75	48733.15
633.104	48916.2
633.459	48738.35
633.813	48771.12
634.167	48897.44
634.521	48868.52
634.875	49000.04
635.229	48905.13
635.583	48798.69
635.937	48876.65
636.291	48812.25
636.645	48887.73
636.999	48789.42
637.352	48946.93
637.706	48836.88
638.06	48880.04
638.413	48830.78
638.767	48837.11
639.121	48879.14
639.474	48796.65
639.828	48668.07
640.181	49001.85
640.534	48878.91
640.888	48760.5
641.241	48750.33
641.594	48844.34
641.947	49000.04
642.301	48767.05
642.654	48838.69
643.007	48860.16
643.36	48888.4
643.713	48781.06
644.066	48977.89
644.419	48706.94
644.771	48467.4
645.124	48102.66
645.477	48034.19
645.83	47883.23
646.182	47774.99
646.535	47698.38
646.888	47756.46
647.24	47608.89
647.593	47917.81
647.945	47767.53
648.298	47588.78
648.65	47550.13
649.002	47527.99
649.355	47671.71
649.707	47536.8
650.059	47779.05
650.411	48227.63
650.763	48279.15
651.115	48708.52
651.467	48695.41
651.819	48544.91
652.171	48591.91
652.523	48518.47
652.875	48531.35
653.227	48384.91
653.578	48718.46
653.93	48616.09
654.282	48335.88
654.633	48470.79
654.985	48408.42
655.337	48452.71
655.688	48359.15
656.039	48609.09
656.391	48274.63
656.742	48264.92
657.094	48252.04
657.445	48446.83
657.796	48363.22
658.147	48346.72
658.498	48344.69
658.849	48403.44
659.2	48273.5
659.551	48114.86
659.902	48337.23
660.253	48285.93
660.604	48241.87
660.955	48155.99
661.306	48299.04
661.656	48108.76
662.007	48210.46
662.358	48242.77
662.708	48239.38
663.059	48224.01
663.409	47916
663.76	48363.9
664.11	48335.88
664.461	48270.57
664.811	48229.21
665.161	48309.21
665.511	48091.59
665.862	48265.14
666.212	48247.29
666.562	48429.88
666.912	48237.35
667.262	48300.4
667.612	48199.16
667.962	48090.68
668.312	48141.98
668.662	48419.04
669.011	48232.83
669.361	48239.83
669.711	48273.73
670.06	48160.74
670.41	48074.64
670.76	48005.49
671.109	48094.53
671.459	48074.41
671.808	48064.47
672.157	48188.76
672.507	47892.5
672.856	47818.83
673.205	47843.69
673.554	48005.72
673.904	47901.54
674.253	48219.95
674.602	47934.3
674.951	47400.99
675.3	47332.74
675.649	47981.31
675.998	47890.01
676.346	47901.31
676.695	47977.24
677.044	47754.87
677.393	47678.49
677.741	47800.97
678.09	47838.04
678.438	47539.74
678.787	47614.31
679.135	47653.18
679.484	47435.79
679.832	47609.79
680.181	47348.11
680.529	47471.94
680.877	47353.53
681.225	47266.3
681.573	47579.29
681.922	47300.65
682.27	47112.41
682.618	47200.31
682.966	47059.98
683.314	47205.96
683.661	47018.85
684.009	46742.7
684.357	46910.83
684.705	46711.06
685.053	46815.46
685.4	46720.1
685.748	46469.71
686.095	46530.27
686.443	46472.87
686.79	46369.83
687.138	46404.18
687.485	46489.14
687.832	46308.36
688.18	46318.3
688.527	46121.24
688.874	46016.39
689.221	45825.43
689.568	45803.06
689.915	45776.62
690.262	45822.27
690.609	45734.14
690.956	45564.88
691.303	45504.09
691.65	45281.04
691.997	45283.75
692.344	45140.93
692.69	45171.21
693.037	45095.28
693.383	44803.77
693.73	45026.58
694.077	44678.57
694.423	44716.54
694.769	44663.66
695.116	44637.89
695.462	44313.83
695.808	44160.62
696.155	44353.16
696.501	44043.11
696.847	44137.34
697.193	43873.17
697.539	44005.82
697.885	43648.09
698.231	43615.77
698.577	43613.06
698.923	43477.7
699.269	43352.73
699.614	43035.22
699.96	43065.28
700.306	43053.3
700.651	42790.71
700.997	42830.03
701.342	42641.56
701.688	42722.01
702.033	42548.01
702.379	42433.21
702.724	42407.9
703.069	42439.08
703.415	41944.18
703.76	42103.27
704.105	41978.53
704.45	41860.79
704.795	41816.73
705.14	41730.17
705.485	41665.09
705.83	41520.01
706.175	41461.93
706.52	41362.95
706.865	41362.05
707.209	41220.81
707.554	40942.4
707.899	41152.56
708.243	40834.6
708.588	40745.79
708.932	40650.2
709.277	40670.09
709.621	40677.77
709.966	40216.77
710.31	40459.47
710.654	39989.43
710.998	40152.59
711.342	40227.16
711.687	40202.76
712.031	39862.65
712.375	39748.08
712.719	39807.06
713.063	39833.95
713.407	39820.62
713.75	39668.31
714.094	39610
714.438	39398.48
714.782	39569.33
715.125	39416.56
715.469	39359.61
715.812	39081.66
716.156	38836.46
716.499	39087.53
716.843	38986.52
717.186	38839.85
717.53	39192.16
717.873	38952.17
718.216	38796.24
718.559	38624.94
718.902	38459.98
719.246	38570.26
719.589	38384.27
719.932	38274.22
720.275	38212.53
720.617	38221.57
720.96	38143.38
721.303	38217.72
721.646	38185.41
721.989	37969.59
722.331	38012.08
722.674	37947.9
723.016	37858.41
723.359	37843.04
723.701	37849.15
724.044	37560.57
724.386	37464.07
724.729	37533.67
725.071	37580.23
725.413	37417.74
725.755	37407.58
726.097	37330.52
726.439	37137.98
726.782	37147.92
727.124	37276.05
727.465	37111.76
727.807	37083.52
728.149	36947.7
728.491	36955.61
728.833	36982.28
729.175	36903.41
729.516	36658.67
729.858	36705
730.199	36694.37
730.541	36556.75
730.882	36619.12
731.224	36674.04
731.565	36532.8
731.906	36455.28
732.248	36422.97
732.589	36295.29
732.93	36191.34
733.271	36220.49
733.612	36205.8
733.953	36276.08
734.294	36146.59
734.635	35937.33
734.976	36209.64
735.317	35967.61
735.658	35917.45
735.999	36039.48
736.339	35806.49
736.68	35842.65
737.021	35836.77
737.361	35689.65
737.702	35730.33
738.042	35639.94
738.383	35459.38
738.723	35657.79
739.063	35538.92
739.404	35550.45
739.744	35352.49
740.084	35425.25
740.424	35436.33
740.764	35273.62
741.104	35412.83
741.444	35110.24
741.784	35070.91
742.124	35139.84
742.464	35136.67
742.804	35092.38
743.143	35006.96
743.483	35038.82
743.823	34821.88
744.162	34770.36
744.502	34781.2
744.841	34717.93
745.181	34782.11
745.52	34515
745.86	34769.9
746.199	34430.93
746.538	34474.77
746.877	34580.53
747.216	34498.27
747.556	34409.69
747.895	34448.56
748.234	34288.11
748.573	34245.62
748.911	34149.81
749.25	34140.77
749.589	33995.01
749.928	34144.84
750.267	34103.71
750.605	33935.35
750.944	33878.63
751.283	33795.92
751.621	33939.64
751.96	33657.84
752.298	33707.56
752.636	33775.35
752.975	33487.45
753.313	33488.36
753.651	33547.56
753.989	33389.38
754.327	33289.49
754.666	33205.43
755.004	33218.99
755.342	33151.19
755.679	32932.44
756.017	32807.24
756.355	33030.52
756.693	32934.7
757.031	32938.54
757.368	32752.56
757.706	32659.45
758.044	32448.84
758.381	32453.36
758.719	32354.38
759.056	32334.26
759.394	32410.19
759.731	32198.22
760.068	32011.56
760.405	32043.87
760.743	31832.81
761.08	32010.43
761.417	31798.91
761.754	31792.13
762.091	31830.55
762.428	31633.04
762.765	31485.7
763.102	31442.76
763.438	31254.29
763.775	31110.57
764.112	31053.62
764.449	31071.92
764.785	30826.28
765.122	30721.42
765.458	30670.13
765.795	30658.6
766.131	30542.45
766.467	30484.37
766.804	30370.92
767.14	30136.81
767.476	30099.97
767.812	30066.75
768.148	30079.86
768.485	29813.65
768.821	29706.76
769.157	29697.72
769.492	29596.93
769.828	29670.15
770.164	29349.26
770.5	29365.98
770.836	29238.98
771.171	29043.28
771.507	29060.45
771.842	28888.03
772.178	28839.44
772.513	28808.71
772.849	28556.06
773.184	28608.94
773.519	28564.19
773.855	28360.81
774.19	28277.87
774.525	28079.01
774.86	28268.38
775.195	28130.76
775.53	28026.81
775.865	27776.64
776.2	27725.57
776.535	27492.81
776.87	27524.45
777.205	27358.35
777.539	27320.84
777.874	27453.71
778.209	27164.91
778.543	27006.27
778.878	26815.09
779.212	26874.97
779.547	26745.03
779.881	26731.47
780.215	26636.33
780.55	26593.17
780.884	26416.45
781.218	26300.3
781.552	26380.97
781.886	26200.64
782.22	26066.86
782.554	26054.65
782.888	25751.39
783.222	25676.58
783.556	25611.28
783.889	25499.19
784.223	25403.15
784.557	25491.05
784.89	25384.39
785.224	25174.23
785.557	25203.83
785.891	25025.3
786.224	24957.06
786.558	24902.14
786.891	24707.12
787.224	24609.49
787.557	24615.37
787.891	24534.02
788.224	24518.65
788.557	24468.71
788.89	24385.55
789.223	24345.77
789.556	24115.72
789.888	24129.96
790.221	24024.65
790.554	23813.81
790.887	23833.47
791.219	23684.77
791.552	23662.63
791.884	23613.36
792.217	23519.35
792.549	23463.08
792.882	23254.28
793.214	23053.15
793.546	23236.65
793.879	22960.5
794.211	22968.41
794.543	23016.77
794.875	22799.6
795.207	22977.9
795.539	22834.63
795.871	22828.52
796.203	22512.15
796.535	22654.52
796.867	22465.37
797.198	22305.6
797.53	22315.54
797.862	22235.32
798.193	22197.35
798.525	22113.29
798.856	22060.18
799.188	21890.92
799.519	21832.62
799.85	21726.63
800.182	21840.53
800.513	21788.55
800.844	21476.92
801.175	21619.74
801.506	21618.16
801.837	21428.33
802.168	21463.36
802.499	21322.8
802.83	21212.52
803.161	21215.69
803.491	21160.32
803.822	21119.19
804.153	21072.64
804.483	20829.25
804.814	20762.82
805.145	20757.84
805.475	20787.45
805.805	20748.58
806.136	20573.67
806.466	20680.11
806.796	20614.12
807.126	20436.95
807.457	20427.23
807.787	20344.97
808.117	20128.93
808.447	20151.53
808.777	20173
809.107	20233.34
809.436	20055.49
809.766	20039.9
810.096	19961.71
810.426	19909.5
810.755	19880.8
811.085	19869.96
811.414	19796.29
811.744	19647.59
812.073	19737.98
812.403	19524.2
812.732	19517.42
813.061	19548.16
813.39	19448.27
813.719	19258.45
814.049	19383.19
814.378	19378.67
814.707	19228.17
815.036	19213.7
815.365	19096.64
815.693	19018.23
816.022	19027.95
816.351	18973.48
816.68	18864.79
817.008	18897.33
817.337	18719.03
817.665	18801.74
817.994	18792.7
818.322	18757.44
818.651	18667.28
818.979	18528.3
819.307	18659.37
819.636	18491.24
819.964	18426.15
820.292	18484.01
820.62	18520.61
820.948	18406.27
821.276	18517.9
821.604	18413.95
821.932	18421.63
822.259	18384.12
822.587	18390.9
822.915	18297.57
823.243	18362.88
823.57	18243.79
823.898	18321.07
824.225	18318.59
824.553	18331.24
824.88	18326.95
825.207	18306.61
825.535	18295.08
825.862	18279.04
826.189	18259.38
826.516	18370.11
826.843	18365.36
827.17	18366.95
827.497	18294.18
827.824	18368.75
828.151	18226.39
828.478	18274.75
828.805	18301.86
829.131	18254.41
829.458	18296.89
829.785	18159.04
830.111	18122.21
830.438	18301.86
830.764	18298.02
831.09	18320.39
831.417	18045.6
831.743	18228.87
832.069	18221.41
832.395	18175.09
832.722	18201.08
833.048	18126.05
833.374	18127.63
833.7	18082.66
834.026	18067.29
834.351	18111.13
834.677	18088.54
835.003	18095.54
835.329	18016.67
835.654	18113.85
835.98	17981.42
836.306	17966.5
836.631	17941.19
836.956	17984.58
837.282	17925.6
837.607	17893.74
837.932	17770.58
838.258	17776
838.583	17839.05
838.908	17711.6
839.233	17694.42
839.558	17785.49
839.883	17622.33
840.208	17557.48
840.533	17645.61
840.858	17594.54
841.182	17641.99
841.507	17596.57
841.832	17480.19
842.156	17472.73
842.481	17425.5
842.805	17336.47
843.13	17371.94
843.454	17328.78
843.778	17187.32
844.103	17186.41
844.427	17216.02
844.751	17129.92
845.075	17065.96
845.399	17052.18
845.723	16957.27
846.047	16985.06
846.371	16772.19
846.695	16709.36
847.019	16730.61
847.343	16627.33
847.666	16551.63
847.99	16435.47
848.313	16456.04
848.637	16374.46
848.96	16368.35
849.284	16298.53
849.607	16099.66
849.931	16103.96
850.254	16007.69
850.577	15856.28
850.9	15821.93
851.223	15788.26
851.546	15753.91
851.869	15606.34
852.192	15669.84
852.515	15559.56
852.838	15519.11
853.161	15519.56
853.483	15426.23
853.806	15381.94
854.129	15378.1
854.451	15263.53
854.774	15235.73
855.096	15158.44
855.419	15130.87
855.741	15146.24
856.063	14990.09
856.385	14977.88
856.708	14981.72
857.03	14919.81
857.352	14901.05
857.674	14840.49
857.996	14871.45
858.318	14644.78
858.64	14574.73
858.961	14667.61
859.283	14524.34
859.605	14537.89
859.926	14633.26
860.248	14430.55
860.57	14424.9
860.891	14372.7
861.212	14313.72
861.534	14310.56
861.855	14288.18
862.176	14364.79
862.498	14294.96
862.819	14307.39
863.14	14136.32
863.461	14165.7
863.782	14138.81
864.103	14124.57
864.424	14090.45
864.745	14033.73
865.065	14044.8
865.386	13962.54
865.707	13915.99
866.027	13997.8
866.348	13961.86
866.668	13878.25
866.989	13798.93
867.309	13797.35
867.63	13911.47
867.95	13871.02
868.27	13783.34
868.59	13773.62
868.91	13640.29
869.23	13661.08
869.55	13644.13
869.87	13607.52
870.19	13607.07
870.51	13585.6
870.83	13642.1
871.15	13553.97
871.469	13606.17
871.789	13570.91
872.109	13552.84
872.428	13497.47
872.748	13499.96
873.067	13421.99
873.386	13469.67
873.706	13421.77
874.025	13328.89
874.344	13343.35
874.663	13404.59
874.982	13278.49
875.301	13318.04
875.62	13276.46
875.939	13304.25
876.258	13283.92
876.577	13127.08
876.896	13218.38
877.214	13233.75
877.533	13199.4
877.852	13132.06
878.17	13118.5
878.489	13118.5
878.807	13071.49
879.125	13067.88
879.444	13058.39
879.762	13012.06
880.08	12977.03
880.398	12977.48
880.716	12938.84
881.034	12933.42
881.352	12934.55
881.67	12830.37
881.988	12885.28
882.306	12836.7
882.624	12764.16
882.941	12786.53
883.259	12679.64
883.577	12635.35
883.894	12642.35
884.212	12589.02
884.529	12620.2
884.846	12593.99
885.164	12526.65
885.481	12436.25
885.798	12429.93
886.115	12387.89
886.432	12347.22
886.75	12406.2
887.067	12365.3
887.383	12336.37
887.7	12307.44
888.017	12260.67
888.334	12227.45
888.651	12179.99
888.967	12231.74
889.284	12163.49
889.6	12088.47
889.917	11928.47
890.233	12078.98
890.55	11967.57
890.866	11999.66
891.182	11883.73
891.498	11829.94
891.815	11834.69
892.131	11805.76
892.447	11778.19
892.763	11738.42
893.079	11751.98
893.395	11695.48
893.71	11659.1
894.026	11641.25
894.342	11553.57
894.657	11461.59
894.973	11455.72
895.289	11442.38
895.604	11415.72
895.92	11392.67
896.235	11318.32
896.55	11335.94
896.865	11235.83
897.181	11185.21
897.496	11168.72
897.811	11150.19
898.126	11088.95
898.441	11105.89
898.756	11086.23
899.071	11017.31
899.386	10950.42
899.7	10951.55
900.015	10856.64
900.33	10749.97
900.644	10856.86
900.959	10738.22
901.273	10806.47
901.588	10703.87
901.902	10662.06
902.216	10618.45
902.531	10595.17
902.845	10530.99
903.159	10477.66
903.473	10453.26
903.787	10396.99
904.101	10290.55
904.415	10335.97
904.729	10296.88
905.042	10302.98
905.356	10269.53
905.67	10199.25
905.984	10202.42
906.297	10178.24
906.611	9992.93
906.924	10072.7
907.237	10006.26
907.551	9966.04
907.864	9941.41
908.177	9905.25
908.491	9910.9
908.804	9836.32
909.117	9783.67
909.43	9724.69
909.743	9594.3
910.056	9700.28
910.368	9577.12
910.681	9572.83
910.994	9496.22
911.307	9512.26
911.619	9425.94
911.932	9434.07
912.244	9336.68
912.557	9321.76
912.869	9281.31
913.181	9258.49
913.494	9284.47
913.806	9193.85
914.118	9138.04
914.43	9037.7
914.742	9050.81
915.054	8973.97
915.366	8999.96
915.678	8945.5
915.99	8957.02
916.302	8889.68
916.613	8852.85
916.925	8799.06
917.236	8766.52
917.548	8701.44
917.859	8730.82
918.171	8687.88
918.482	8639.74
918.794	8626.41
919.105	8562.68
919.416	8460.09
919.727	8502.8
920.038	8425.51
920.349	8336.7
920.66	8364.72
920.971	8358.85
921.282	8339.64
921.593	8308.68
921.903	8221.22
922.214	8197.5
922.525	8164.73
922.835	8094.45
923.146	8059.42
923.456	8010.16
923.767	8012.64
924.077	8028.01
924.387	7973.1
924.697	7914.79
925.008	7923.83
925.318	7845.42
925.628	7861.46
925.938	7787.34
926.248	7711.18
926.558	7745.53
926.867	7648.81
927.177	7606.1
927.487	7573.33
927.796	7524.97
928.106	7512.77
928.416	7521.13
928.725	7527.23
929.034	7471.64
929.344	7429.15
929.653	7441.36
929.962	7305.32
930.271	7319.1
930.581	7271.19
930.89	7260.12
931.199	7169.5
931.508	7214.02
931.817	7141.7
932.125	7153
932.434	7132.89
932.743	7063.29
933.051	6999.11
933.36	6960.47
933.669	6974.93
933.977	6934.7
934.286	6901.03
934.594	6881.15
934.902	6822.17
935.21	6825.78
935.519	6789.85
935.827	6732
936.135	6734.03
936.443	6687.71
936.751	6661.04
937.059	6621.04
937.367	6607.03
937.674	6612.23
937.982	6576.52
938.29	6589.85
938.597	6589.63
938.905	6466.02
939.213	6455.17
939.52	6387.83
939.827	6367.49
940.135	6320.03
940.442	6256.76
940.749	6338.11
941.056	6302.4
941.363	6244.1
941.67	6229.86
941.977	6226.47
942.284	6162.52
942.591	6117.55
942.898	6095.63
943.205	6104.67
943.511	6076.2
943.818	6042.3
944.125	6003.2
944.431	6000.72
944.738	5938.12
945.044	5913.04
945.35	5912.58
945.657	5837.78
945.963	5865.58
946.269	5854.96
946.575	5820.38
946.881	5802.76
947.187	5774.74
947.493	5749.88
947.799	5711.01
948.105	5671.69
948.41	5666.49
948.716	5622.42
949.022	5616.77
949.327	5586.04
949.633	5511.47
949.938	5522.54
950.244	5518.24
950.549	5454.29
950.854	5441.86
951.16	5462.88
951.465	5414.74
951.77	5344.24
952.075	5336.33
952.38	5353.05
952.685	5291.58
952.99	5280.96
953.294	5293.17
953.599	5224.24
953.904	5193.73
954.209	5155.99
954.513	5204.35
954.818	5161.87
955.122	5104.7
955.426	5130.23
955.731	5073.96
956.035	5043.45
956.339	5002.55
956.643	5008.88
956.948	4927.3
957.252	4967.3
957.556	4912.61
957.86	4930.24
958.163	4911.26
958.467	4863.12
958.771	4860.41
959.075	4831.26
959.378	4822.67
959.682	4815.89
959.985	4800.07
960.289	4770.47
960.592	4718.94
960.896	4713.29
961.199	4667.87
961.502	4689.79
961.805	4669.45
962.108	4650.24
962.411	4609.79
962.714	4574.54
963.017	4578.61
963.32	4579.29
963.623	4513.3
963.926	4533.64
964.228	4464.94
964.531	4482.79
964.833	4468.1
965.136	4416.8
965.438	4424.94
965.741	4396.69
966.043	4381.1
966.345	4302.01
966.648	4291.38
966.95	4290.25
967.252	4287.99
967.554	4240.76
967.856	4218.62
968.158	4225.62
968.46	4214.55
968.761	4212.74
969.063	4177.04
969.365	4144.04
969.666	4109.92
969.968	4080.09
970.269	4131.61
970.571	4090.49
970.872	4114.67
971.174	4024.5
971.475	4030.15
971.776	4009.13
972.077	3950.15
972.378	3998.96
972.679	3948.34
972.98	3949.7
973.281	3910.38
973.582	3883.26
973.883	3875.58
974.183	3868.8
974.484	3803.49
974.785	3824.96
975.085	3822.7
975.386	3783.83
975.686	3806.2
975.986	3801.91
976.287	3751.51
976.587	3723.94
976.887	3680.55
977.187	3721.46
977.487	3659.76
977.787	3655.47
978.087	3664.28
978.387	3631.74
978.687	3619.54
978.987	3580.44
979.286	3593.78
979.586	3542.93
979.885	3535.25
980.185	3481.01
980.484	3475.13
980.784	3467
981.083	3496.6
981.382	3473.33
981.682	3427.68
981.981	3422.93
982.28	3457.73
982.579	3391.52
982.878	3397.17
983.177	3365.31
983.475	3400.33
983.774	3314.01
984.073	3318.75
984.372	3265.65
984.67	3279.21
984.969	3297.51
985.267	3251.64
985.566	3264.29
985.864	3246.44
986.162	3237.63
986.461	3178.19
986.759	3199.66
987.057	3156.05
987.355	3172.32
987.653	3115.14
987.951	3151.53
988.249	3085.09
988.547	3103.17
988.844	3130.51
989.142	3102.26
989.44	3035.37
989.737	3052.77
990.035	3056.84
990.332	3019.1
990.63	2983.85
990.927	2987.01
991.224	2920.12
991.521	2970.29
991.819	2888.03
992.116	2937.3
992.413	2926.45
992.71	2883.96
993.006	2902.72
993.303	2879.22
993.6	2927.13
993.897	2830.18
994.193	2855.94
994.49	2808.49
994.787	2813.46
995.083	2787.47
995.379	2774.81
995.676	2755.61
995.972	2739.33
996.268	2742.95
996.565	2723.74
996.861	2714.93
997.157	2709.73
997.453	2676.74
997.749	2671.54
998.044	2670.18
998.34	2667.92
998.636	2631.77
998.932	2601.03
999.227	2582.5
999.523	2608.49
999.818	2601.71
1000.114	2565.55
1000.409	2540.24
1000.704	2545.67
1001	2517.65
1001.295	2475.39
1001.59	2513.58
1001.885	2500.47
1002.18	2472.68
1002.475	2477.42
1002.77	2439.46
1003.065	2427.25
1003.359	2427.93
1003.654	2387.03
1003.949	2389.97
1004.243	2388.16
1004.538	2368.95
1004.832	2343.64
1005.127	2344.32
1005.421	2286.01
1005.715	2277.88
1006.009	2302.06
1006.304	2276.3
1006.598	2232.46
1006.892	2217.77
1007.186	2243.53
1007.48	2226.35
1007.773	2228.84
1008.067	2186.13
1008.361	2174.38
1008.655	2167.15
1008.948	2161.72
1009.242	2160.37
1009.535	2106.81
1009.829	2128.96
1010.122	2135.06
1010.415	2062.06
1010.708	2094.83
1011.001	2083.53
1011.295	2064.32
1011.588	2051.44
1011.881	2016.42
1012.173	2014.61
1012.466	2020.03
1012.759	1997.89
1013.052	1994.72
1013.344	1992.46
1013.637	1980.26
1013.93	1962.18
1014.222	1936.42
1014.514	1914.5
1014.807	1908.62
1015.099	1901.16
1015.391	1895.97
1015.683	1905.01
1015.976	1876.76
1016.268	1894.39
1016.56	1864.78
1016.851	1857.55
1017.143	1808.96
1017.435	1803.31
1017.727	1834.05
1018.018	1777.55
1018.31	1765.12
1018.602	1799.7
1018.893	1768.74
1019.185	1749.08
1019.476	1753.6
1019.767	1728.29
1020.058	1704.79
1020.35	1713.82
1020.641	1697.1
1020.932	1724.9
1021.223	1645.35
1021.514	1657.78
1021.804	1617.56
1022.095	1611.23
1022.386	1612.58
1022.677	1630.44
1022.967	1592.7
1023.258	1587.05
1023.548	1584.56
1023.839	1576.88
1024.129	1531.68
1024.419	1511.12
1024.709	1514.73
1025	1500.5
1025.29	1535.52
1025.58	1489.42
1025.87	1480.16
1026.16	1466.83
1026.449	1464.79
1026.739	1466.6
1027.029	1472.48
1027.319	1425.25
1027.608	1434.28
1027.898	1413.72
1028.187	1402.65
1028.477	1391.35
1028.766	1373.49
1029.055	1385.02
1029.344	1383.44
1029.634	1378.69
1029.923	1379.14
1030.212	1337.34
1030.501	1347.51
1030.79	1327.17
1031.078	1312.71
1031.367	1296.21
1031.656	1288.07
1031.945	1282.2
1032.233	1260.96
1032.522	1299.82
1032.81	1283.78
1033.099	1261.41
1033.387	1269.77
1033.675	1239.04
1033.963	1226.38
1034.251	1237.91
1034.54	1232.48
1034.828	1197.68
1035.116	1209.88
1035.403	1212.6
1035.691	1173.5
1035.979	1193.84
1036.267	1153.39
1036.554	1168.3
1036.842	1140.28
1037.129	1152.48
1037.417	1152.26
1037.704	1137.34
1037.992	1114.74
1038.279	1105.71
1038.566	1091.02
1038.853	1091.02
1039.14	1091.02
