Data from red_shiny_book_FLMS001491_00018.txt Node
Date: Wed Feb 08 15:23:43 GMT 2017
User: dcchb
Spectrometer: FLMS00149
Trigger mode: 0
Integration Time (sec): 2.000000E-2
Scans to average: 10
Electric dark correction enabled: true
Nonlinearity correction enabled: false
Boxcar width: 0
XAxis mode: Wavelengths
Number of Pixels in Spectrum: 2048
>>>>>Begin Spectral Data<<<<<
341.393	-18.93
341.776	-18.93
342.16	-18.93
342.543	-63.44
342.927	-68.42
343.31	-79.04
343.693	-71.58
344.077	-62.09
344.46	-57.12
344.843	-58.25
345.226	-45.37
345.61	-36.78
345.993	-18.25
346.376	-14.41
346.759	30.79
347.142	34.18
347.525	41.64
347.908	54.29
348.291	66.5
348.674	109.66
349.057	105.82
349.44	128.41
349.823	134.74
350.206	158.47
350.588	218.36
350.971	215.19
351.354	240.73
351.737	252.03
352.119	272.37
352.502	272.37
352.884	282.08
353.267	302.42
353.65	309.43
354.032	327.05
354.414	310.56
354.797	329.09
355.179	340.39
355.562	326.15
355.944	321.18
356.326	351.01
356.709	341.29
357.091	339.48
357.473	355.53
357.855	361.4
358.238	352.59
358.62	347.62
359.002	359.14
359.384	355.53
359.766	351.01
360.148	372.93
360.53	366.6
360.912	333.38
361.294	344.91
361.676	351.69
362.057	362.76
362.439	348.52
362.821	341.52
363.203	347.62
363.584	344
363.966	358.47
364.348	336.77
364.729	337.22
365.111	353.95
365.493	350.33
365.874	332.48
366.256	335.87
366.637	335.64
367.019	337.67
367.4	341.52
367.781	342.19
368.163	331.35
368.544	324.57
368.925	334.06
369.306	350.56
369.688	338.8
370.069	346.04
370.45	311.69
370.831	322.08
371.212	325.02
371.593	354.4
371.974	349.2
372.355	344.45
372.736	337.45
373.117	360.05
373.498	342.42
373.879	349.2
374.26	324.57
374.641	324.79
375.021	328.18
375.402	331.35
375.783	362.08
376.163	370.22
376.544	347.39
376.925	352.59
377.305	357.34
377.686	355.3
378.066	363.44
378.447	360.27
378.827	359.6
379.208	375.41
379.588	354.85
379.968	357.56
380.349	337.9
380.729	354.62
381.109	372.93
381.489	362.31
381.87	368.86
382.25	380.84
382.63	372.48
383.01	373.15
383.39	363.89
383.77	363.21
384.15	390.1
384.53	384.91
384.91	373.83
385.29	399.82
385.67	383.78
386.049	403.21
386.429	397.11
386.809	393.27
387.189	393.72
387.568	396.43
387.948	394.85
388.328	395.07
388.707	401.63
389.087	400.5
389.466	398.46
389.846	409.76
390.225	417.22
390.605	382.42
390.984	428.97
391.363	390.1
391.743	406.83
392.122	399.59
392.501	428.97
392.881	423.55
393.26	421.74
393.639	411.8
394.018	405.47
394.397	413.83
394.776	429.2
395.155	428.29
395.534	423.77
395.913	418.12
396.292	450.67
396.671	435.53
397.05	417.22
397.429	438.01
397.808	437.56
398.186	435.98
398.565	457.22
398.944	446.15
399.323	450.67
399.701	451.34
400.08	430.55
400.458	449.08
400.837	437.33
401.215	453.6
401.594	439.14
401.972	461.29
402.351	483.43
402.729	479.59
403.107	463.77
403.486	480.04
403.864	495.18
404.242	473.26
404.62	460.61
404.999	479.82
405.377	496.09
405.755	469.42
406.133	480.04
406.511	498.57
406.889	512.13
407.267	508.29
407.645	506.71
408.023	510.1
408.401	513.49
408.779	499.93
409.156	514.17
409.534	524.56
409.912	522.3
410.29	544.45
410.667	528.18
411.045	558.23
411.422	561.85
411.8	546.48
412.178	553.71
412.555	541.29
412.933	565.24
413.31	568.86
413.687	573.6
414.065	580.38
414.442	597.55
414.819	595.75
415.197	601.17
415.574	618.8
415.951	608.63
416.328	610.21
416.705	598.46
417.082	610.89
417.46	623.09
417.837	609.31
418.214	654.5
418.591	632.58
418.967	647.05
419.344	662.19
419.721	686.59
420.098	666.71
420.475	649.3
420.852	640.94
421.228	648.63
421.605	678.91
421.982	674.84
422.358	692.47
422.735	719.59
423.111	701.73
423.488	708.96
423.864	705.8
424.241	733.6
424.617	708.06
424.994	724.78
425.37	700.83
425.746	717.33
426.123	709.87
426.499	719.59
426.875	736.99
427.251	767.49
427.627	795.74
428.003	761.17
428.379	795.97
428.756	781.05
429.132	763.2
429.507	764.1
429.883	790.09
430.259	792.58
430.635	782.63
431.011	811.11
431.387	817.21
431.763	829.87
432.138	848.4
432.514	845.68
432.89	865.34
433.265	840.49
433.641	856.53
434.016	858.79
434.392	856.76
434.767	873.71
435.143	862.41
435.518	892.69
435.894	894.5
436.269	932.91
436.644	962.52
437.02	944.21
437.395	960.94
437.77	942.4
438.145	959.81
438.52	968.39
438.895	953.93
439.271	924.33
439.646	949.18
440.021	965
440.395	1006.58
440.77	966.58
441.145	1016.98
441.52	1032.35
441.895	1016.3
442.27	1032.8
442.645	1020.37
443.019	1011.78
443.394	987.83
443.769	1024.21
444.143	1006.81
444.518	1040.26
444.892	1030.99
445.267	1035.74
445.641	1069.18
446.016	1078.9
446.39	1082.97
446.764	1068.95
447.139	1065.79
447.513	1056.75
447.887	1040.03
448.262	1053.14
448.636	1053.36
449.01	1093.36
449.384	1088.16
449.758	1104.43
450.132	1140.14
450.506	1123.87
450.88	1136.75
451.254	1139.24
451.628	1162.96
452.002	1157.54
452.376	1127.94
452.75	1143.76
453.123	1134.26
453.497	1141.5
453.871	1151.44
454.244	1185.34
454.618	1176.97
454.992	1195.96
455.365	1196.64
455.739	1234.6
456.112	1245
456.486	1245.45
456.859	1244.32
457.232	1235.96
457.606	1241.61
457.979	1207.48
458.352	1236.18
458.725	1262.17
459.099	1242.06
459.472	1274.37
459.845	1270.98
460.218	1342.62
460.591	1343.07
460.964	1350.08
461.337	1377.2
461.71	1365.67
462.083	1396.4
462.456	1348.5
462.829	1341.94
463.201	1348.72
463.574	1345.33
463.947	1350.08
464.32	1367.25
464.692	1378.78
465.065	1418.78
465.438	1449.74
465.81	1473.92
466.183	1531.32
466.555	1520.47
466.928	1517.3
467.3	1491.09
467.672	1483.86
468.045	1465.78
468.417	1490.19
468.789	1492.22
469.161	1497.64
469.534	1520.02
469.906	1542.84
470.278	1601.37
470.65	1654.25
471.022	1698.99
471.394	1680.46
471.766	1718.2
472.138	1735.38
472.51	1738.54
472.882	1730.41
473.253	1707.36
473.625	1731.08
473.997	1723.4
474.369	1729.95
474.74	1746
475.112	1811.31
475.484	1869.61
475.855	1909.84
476.227	1934.24
476.598	1985.32
476.97	2006.33
477.341	2052.88
477.713	2047.69
478.084	2041.81
478.455	2063.73
478.827	2054.47
479.198	2029.38
479.569	2050.4
479.94	2089.04
480.311	2128.36
480.682	2192.99
481.053	2253.33
481.424	2318.87
481.795	2369.26
482.166	2441.57
482.537	2493.78
482.908	2527.67
483.279	2514.34
483.65	2482.48
484.021	2512.08
484.391	2485.64
484.762	2472.53
485.133	2465.98
485.503	2514.34
485.874	2557.5
486.244	2639.08
486.615	2759.53
486.985	2768.12
487.356	2879.08
487.726	2969.02
488.097	3005.63
488.467	3022.12
488.837	3071.16
489.207	3024.16
489.578	3013.31
489.948	3021.67
490.318	3020.54
490.688	3011.73
491.058	3023.71
491.428	3032.97
491.798	3092.18
492.168	3189.13
492.538	3259.63
492.908	3364.26
493.278	3471.83
493.648	3511.83
494.017	3589.79
494.387	3584.37
494.757	3579.17
495.126	3539.62
495.496	3554.99
495.866	3504.6
496.235	3471.15
496.605	3473.86
496.974	3463.24
497.344	3508.89
497.713	3562.45
498.082	3583.24
498.452	3703.24
498.821	3790.24
499.19	3828.2
499.559	3944.36
499.928	4013.74
500.298	3984.36
500.667	3996.34
501.036	3967.18
501.405	3904.13
501.774	3869.11
502.143	3784.14
502.512	3773.29
502.88	3786.4
503.249	3761.99
503.618	3826.62
503.987	3888.09
504.356	3941.2
504.724	3994.98
505.093	4085.37
505.462	4228.65
505.83	4261.41
506.199	4267.97
506.567	4315.65
506.936	4273.16
507.304	4272.71
507.672	4179.38
508.041	4151.36
508.409	4083.11
508.777	4048.99
509.145	4014.19
509.514	4020.74
509.882	4084.92
510.25	4099.16
510.618	4186.16
510.986	4288.08
511.354	4375.76
511.722	4446.27
512.09	4543.44
512.458	4575.76
512.826	4578.47
513.193	4541.86
513.561	4516.32
513.929	4425.7
514.297	4423.22
514.664	4413.95
515.032	4297.12
515.4	4272.94
515.767	4263.9
516.135	4269.77
516.502	4277.46
516.869	4377.79
517.237	4517.9
517.604	4570.11
517.972	4691.01
518.339	4700.27
518.706	4858.46
519.073	4854.17
519.44	4875.18
519.808	4838.8
520.175	4790.66
520.542	4728.52
520.909	4591.57
521.276	4585.7
521.643	4505.7
522.009	4527.17
522.376	4554.06
522.743	4602.42
523.11	4663.44
523.477	4723.1
523.843	4808.74
524.21	4962.64
524.577	5063.65
524.943	5173.48
525.31	5246.7
525.676	5304.78
526.043	5378.22
526.409	5341.84
526.776	5299.13
527.142	5176.19
527.508	5164.44
527.874	5079.24
528.241	5069.3
528.607	4994.28
528.973	4956.08
529.339	4975.74
529.705	5083.09
530.071	5213.03
530.437	5281.5
530.803	5434.72
531.169	5541.15
531.535	5648.5
531.901	5787.47
532.267	5834.25
532.632	5866.57
532.998	5976.62
533.364	5944.76
533.73	5886.46
534.095	5847.36
534.461	5805.55
534.826	5713.8
535.192	5651.66
535.557	5585.9
535.923	5620.7
536.288	5574.6
536.653	5665.9
537.019	5744.09
537.384	5818.89
537.749	5994.02
538.114	6143.62
538.479	6235.82
538.845	6405.09
539.21	6461.13
539.575	6510.85
539.94	6638.53
540.305	6651.63
540.67	6524.63
541.034	6452.32
541.399	6480.79
541.764	6291.19
542.129	6263.62
542.494	6223.4
542.858	6129.84
543.223	6109.5
543.587	6124.87
543.952	6166.45
544.316	6313.11
544.681	6431.3
545.045	6578.19
545.41	6709.03
545.774	6857.05
546.138	7029.25
546.503	7081
546.867	7162.35
547.231	7226.53
547.595	7152.86
547.959	7090.49
548.324	7002.36
548.688	6977.5
549.052	6815.47
549.416	6675.36
549.779	6617.74
550.143	6563.5
550.507	6556.72
550.871	6614.8
551.235	6631.07
551.599	6649.15
551.962	6784.28
552.326	6879.88
552.689	7125.97
553.053	7219.08
553.417	7299.07
553.78	7576.13
554.143	7623.13
554.507	7638.5
554.87	7626.07
555.234	7557.37
555.597	7484.38
555.96	7397.6
556.323	7245.29
556.686	7177.95
557.05	7081.45
557.413	7007.78
557.776	6925.75
558.139	6922.36
558.502	6870.38
558.865	6925.52
559.228	7084.62
559.59	7242.8
559.953	7455
560.316	7557.37
560.679	7778.61
561.041	7897.02
561.404	8046.4
561.767	8111.71
562.129	8101.76
562.492	8217.02
562.854	8079.39
563.217	8060.41
563.579	7919.62
563.941	7831.26
564.304	7677.59
564.666	7605.05
565.028	7546.07
565.39	7431.73
565.753	7426.08
566.115	7460.43
566.477	7404.38
566.839	7475.11
567.201	7728.44
567.563	7773.64
567.925	7992.16
568.287	8107.64
568.648	8325.71
569.01	8525.71
569.372	8710.11
569.734	8691.13
570.095	8820.39
570.457	8858.58
570.819	8787.17
571.18	8775.42
571.542	8659.49
571.903	8519.83
572.265	8433.96
572.626	8307.41
572.987	8259.5
573.349	8176.79
573.71	8115.32
574.071	8180.63
574.432	8211.82
574.794	8319.84
575.155	8441.64
575.516	8671.69
575.877	8932.48
576.238	9114.17
576.599	9360.26
576.96	9634.15
577.32	9813.36
577.681	10055.84
578.042	10183.52
578.403	10247.02
578.763	10349.16
579.124	10372.21
579.485	10462.15
579.845	10420.12
580.206	10476.62
580.566	10480.91
580.927	10429.84
581.287	10576.73
581.648	10630.06
582.008	10815.14
582.368	11023.04
582.728	11285.64
583.089	11539.64
583.449	11963.58
583.809	12374.42
584.169	12933.28
584.529	13312.7
584.889	13957.66
585.249	14320.36
585.609	14808.48
585.969	15414.34
586.329	15816.14
586.688	16333.41
587.048	16789.67
587.408	17074.18
587.768	17498.13
588.127	17810.44
588.487	18067.38
588.846	18493.58
589.206	18641.37
589.565	19003.17
589.925	19405.2
590.284	19739.65
590.643	20323.59
591.003	20790.7
591.362	21266.16
591.721	21884.9
592.08	22451.9
592.44	23239.45
592.799	23987
593.158	24695.23
593.517	25348.99
593.876	26219.25
594.235	26762.74
594.593	27537.64
594.952	28145.53
595.311	28540.77
595.67	29149.35
596.029	29826.62
596.387	30397.9
596.746	30750.43
597.104	30959.24
597.463	31330.31
597.822	31876.51
598.18	32034.24
598.538	32495.02
598.897	33083.48
599.255	33172.52
599.613	34012.27
599.972	34310.57
600.33	34981.51
600.688	35369.75
601.046	36182.61
601.404	37011.51
601.762	37341.22
602.12	38311.82
602.478	38860.05
602.836	39507.49
603.194	39656.64
603.552	40274.48
603.91	40705.43
604.268	41208.69
604.625	41642.35
604.983	42092.74
605.341	42236.46
605.698	42556.68
606.056	42918.25
606.413	43029.66
606.771	43352.59
607.128	43529.31
607.485	43585.13
607.843	43900.15
608.2	44122.29
608.557	44447.7
608.914	44692.89
609.272	45092.66
609.629	45424.62
609.986	46004.95
610.343	46292.85
610.7	46820.29
611.057	47070.46
611.414	47463.67
611.771	47817.56
612.127	48203.76
612.484	48421.83
612.841	48742.28
613.198	48871.77
613.554	49138.43
613.911	49318.53
614.267	49436.27
614.624	49519.43
614.98	49658.64
615.337	49790.16
615.693	49724.4
616.05	49804.17
616.406	49994.67
616.762	49787
617.118	49826.77
617.475	49979.76
617.831	50076.71
618.187	50116.25
618.543	50235.35
618.899	50497.71
619.255	50617.03
619.611	50733.64
619.967	51092.95
620.323	51326.39
620.678	51413.62
621.034	51482.32
621.39	51657
621.746	51692.93
622.101	52187.38
622.457	52013.83
622.812	52099.03
623.168	52333.37
623.523	52334.5
623.879	52338.79
624.234	52161.85
624.589	52307.38
624.945	52321.17
625.3	52279.13
625.655	52186.93
626.01	52210.21
626.365	52102.64
626.72	52053.38
627.075	51943.78
627.43	51987.84
627.785	51994.85
628.14	52025.36
628.495	52097.67
628.85	52110.32
629.205	52211.11
629.559	52393.48
629.914	52371.79
630.269	52580.82
630.623	52634.15
630.978	52713.47
631.332	52979
631.687	53061.71
632.041	52839.8
632.396	53038.89
632.75	52947.59
633.104	52996.63
633.459	52875.5
633.813	52874.6
634.167	52789.63
634.521	52724.55
634.875	52748.5
635.229	52507.83
635.583	52312.35
635.937	52224.67
636.291	52161.17
636.645	52034.39
636.999	51971.8
637.352	51997.79
637.706	51791.24
638.06	52047.28
638.413	51961.18
638.767	51877.34
639.121	51910.33
639.474	51865.59
639.828	52001.85
640.181	52099.48
640.534	52168.63
640.888	52189.19
641.241	52238.23
641.594	52293.37
641.947	52448.17
642.301	52438.68
642.654	52441.39
643.007	52527.94
643.36	52498.79
643.713	52402.97
644.066	52485.23
644.419	52145.8
644.771	51842.31
645.124	51417.01
645.477	51167.3
645.83	50974.31
646.182	50728.89
646.535	50619.74
646.888	50638.05
647.24	50450.26
647.593	50616.58
647.945	50444.83
648.298	50235.57
648.65	50307.43
649.002	50092.52
649.355	50417.94
649.707	50354.66
650.059	50571.83
650.411	51056.34
650.763	51083.01
651.115	51501.75
651.467	51422.21
651.819	51525.93
652.171	51498.14
652.523	51514.18
652.875	51600.96
653.227	51484.58
653.578	51627.17
653.93	51543.11
654.282	51389.44
654.633	51220.63
654.985	51243.45
655.337	51207.98
655.688	51153.06
656.039	51188.54
656.391	50741.55
656.742	50796.01
657.094	50706.07
657.445	50692.51
657.796	50650.48
658.147	50491.84
658.498	50468.33
658.849	50563.7
659.2	50439.86
659.551	50465.4
659.902	50604.15
660.253	50592.62
660.604	50731.15
660.955	50607.77
661.306	50976.57
661.656	50911.03
662.007	50972.73
662.358	51133.18
662.708	51141.99
663.059	51113.74
663.409	51003.91
663.76	51287.3
664.11	51284.81
664.461	51218.37
664.811	51249.33
665.161	51159.39
665.511	50982.9
665.862	50916.46
666.212	50928.21
666.562	50779.06
666.912	50572.06
667.262	50560.08
667.612	50358.51
667.962	50241.22
668.312	50222.69
668.662	50295.01
669.011	50073.77
669.361	50100.66
669.711	49958.97
670.06	50064.28
670.41	49881.46
670.76	49964.62
671.109	50069.02
671.459	49897.05
671.808	50101.34
672.157	50302.01
672.507	50133.2
672.856	50269.02
673.205	50451.84
673.554	50519.41
673.904	50471.95
674.253	50740.64
674.602	50565.73
674.951	50122.58
675.3	50000.55
675.649	50630.82
675.998	50410.03
676.346	50376.13
676.695	50447.54
677.044	50143.14
677.393	50282.12
677.741	50083.49
678.09	49878.74
678.438	49655.7
678.787	49682.37
679.135	49651.63
679.484	49207.35
679.832	49364.18
680.181	49186.56
680.529	49100.91
680.877	49056.39
681.225	48878.32
681.573	49201.7
681.922	48885.32
682.27	48918.09
682.618	48963.51
682.966	49027.47
683.314	49095.49
683.661	49069.73
684.009	49045.32
684.357	49086.22
684.705	49138.2
685.053	49261.81
685.4	49236.28
685.748	49178.2
686.095	49154.24
686.443	49084.87
686.79	49038.77
687.138	49131.65
687.485	49205.77
687.832	48843.74
688.18	48909.5
688.527	48571.21
688.874	48472.68
689.221	48315.4
689.568	48149.3
689.915	47981.39
690.262	47874.73
690.609	47667.5
690.956	47397.68
691.303	47373.95
691.65	47121.08
691.997	46990.01
692.344	46793.85
692.69	46723.12
693.037	46682.9
693.383	46444.49
693.73	46512.51
694.077	46298.27
694.423	46423.69
694.769	46418.5
695.116	46486.07
695.462	46496.46
695.808	46415.11
696.155	46610.58
696.501	46268.9
696.847	46315.22
697.193	46305.73
697.539	46494.88
697.885	46254.43
698.231	46200.65
698.577	46122.69
698.923	46005.85
699.269	45895.57
699.614	45841.79
699.96	45654
700.306	45507.11
700.651	45251.3
700.997	44995.71
701.342	44918.88
701.688	44864.19
702.033	44459.23
702.379	44372
702.724	44214.04
703.069	44210.19
703.415	43542.87
703.76	43510.32
704.105	43478.24
704.45	43325.7
704.795	43101.75
705.14	42968.19
705.485	43058.81
705.83	42864.92
706.175	42875.31
706.52	42830.79
706.865	42739.95
707.209	42771.36
707.554	42845.94
707.899	42923.22
708.243	42863.11
708.588	42921.87
708.932	42558.49
709.277	42866.27
709.621	42795.54
709.966	42747.18
710.31	42731.59
710.654	42477.36
710.998	42621.31
711.342	42618.37
711.687	42490.24
712.031	42316.68
712.375	42012.74
712.719	42033.3
713.063	41945.17
713.407	42100.42
713.75	41559.19
714.094	41543.82
714.438	41229.25
714.782	41206.43
715.125	40955.82
715.469	41024.06
715.812	40651.42
716.156	40359.9
716.499	40417.75
716.843	40439.9
717.186	39981.83
717.53	40356.51
717.873	40012.34
718.216	40122.62
718.559	39735.96
718.902	39644.66
719.246	39832.23
719.589	39751.55
719.932	39658.45
720.275	39770.54
720.617	39864.09
720.96	39848.27
721.303	40016.86
721.646	40066.12
721.989	39822.29
722.331	40120.13
722.674	40034.48
723.016	39971.21
723.359	39881.27
723.701	39964.66
724.044	39715.62
724.386	39561.73
724.729	39814.6
725.071	39540.71
725.413	39540.94
725.755	39458.45
726.097	39332.13
726.439	38844.23
726.782	38968.52
727.124	38956.77
727.465	38721.75
727.807	38434.3
728.149	38211.71
728.491	38229.33
728.833	38143.46
729.175	37884.48
729.516	37704.38
729.858	37699.86
730.199	37720.42
730.541	37685.85
730.882	37515.45
731.224	37665.96
731.565	37319.75
731.906	37559.52
732.248	37435.68
732.589	37369.24
732.93	37243.6
733.271	37329.47
733.612	37388.45
733.953	37612.63
734.294	37442.91
734.635	37412.86
734.976	37605.17
735.317	37428.9
735.658	37565.17
735.999	37525.85
736.339	37582.8
736.68	37544.61
737.021	37632.06
737.361	37549.8
737.702	37568.56
738.042	37442.46
738.383	37372.86
738.723	37394.78
739.063	37070.04
739.404	37184.16
739.744	36923.83
740.084	36900.33
740.424	36743.27
740.764	36521.36
741.104	36537.85
741.444	36295.15
741.784	36142.16
742.124	36082.95
742.464	35939.9
742.804	35727.7
743.143	35737.2
743.483	35609.52
743.823	35493.81
744.162	35493.81
744.502	35532.91
744.841	35266.25
745.181	35450.65
745.52	35332.01
745.86	35449.07
746.199	35465.79
746.538	35381.05
746.877	35485.23
747.216	35397.77
747.556	35501.95
747.895	35590.08
748.234	35365.45
748.573	35608.84
748.911	35511.89
749.25	35485.45
749.589	35363.19
749.928	35481.38
750.267	35465.56
750.605	35380.14
750.944	35466.02
751.283	35330.2
751.621	35440.93
751.96	34935.18
752.298	34953.71
752.636	35073.48
752.975	34702.87
753.313	34642.76
753.651	34577.68
753.989	34341.75
754.327	34171.14
754.666	33939.5
755.004	33999.16
755.342	33876.91
755.679	33781.32
756.017	33545.84
756.355	33496.8
756.693	33215.45
757.031	33258.84
757.368	33039.19
757.706	32857.72
758.044	32683.04
758.381	32794.45
758.719	32711.51
759.056	32753.55
759.394	32559.65
759.731	32342.93
760.068	32432.42
760.405	32252.54
760.743	32201.02
761.08	32433.33
761.417	32267.46
761.754	32168.25
762.091	32347
762.428	32354.23
762.765	32113.79
763.102	32220.9
763.438	32107.91
763.775	32046.9
764.112	32129.16
764.449	32196.05
764.785	31981.14
765.122	31810.75
765.458	31759.9
765.795	31714.48
766.131	31725.78
766.467	31531.2
766.804	31407.59
767.14	31274.71
767.476	31270.19
767.812	30983.65
768.148	30962.18
768.485	30756.08
768.821	30449.65
769.157	30432.7
769.492	30272.93
769.828	30368.3
770.164	29913.85
770.5	29739.61
770.836	29580.07
771.171	29348.21
771.507	29265.05
771.842	29104.15
772.178	29056.92
772.513	28899.64
772.849	28750.26
773.184	28696.93
773.519	28667.55
773.855	28530.15
774.19	28456.94
774.525	28356.6
774.86	28482.47
775.195	28418.07
775.53	28314.79
775.865	28152.99
776.2	27922.49
776.535	27852.88
776.87	27879.32
777.205	27769.95
777.539	27751.87
777.874	27804.75
778.209	27694.92
778.543	27736.73
778.878	27568.37
779.212	27606.34
779.547	27453.35
779.881	27516.17
780.215	27350.98
780.55	27546.9
780.884	27259.9
781.218	27151.21
781.552	27098.78
781.886	26894.94
782.22	26878.45
782.554	26698.34
782.888	26487.04
783.222	26335.86
783.556	26126.38
783.889	26071.46
784.223	25839.83
784.557	25701.53
784.89	25848.42
785.224	25478.93
785.557	25337.02
785.891	25200.3
786.224	25089.34
786.558	25160.3
786.891	24829.01
787.224	24526.42
787.557	24609.35
787.891	24619.75
788.224	24469.7
788.557	24396.03
788.89	24297.72
789.223	24293.66
789.556	24117.39
789.888	24155.58
790.221	24031.52
790.554	23758.53
790.887	23817.28
791.219	23862.48
791.552	23866.1
791.884	23704.97
792.217	23688.02
792.549	23824.51
792.882	23497.74
793.214	23612.77
793.546	23645.31
793.879	23499.33
794.211	23441.25
794.543	23485.54
794.875	23484.41
795.207	23553.11
795.539	23303.4
795.871	23532.77
796.203	23255.49
796.535	23086.91
796.867	22948.15
797.198	22983.86
797.53	22928.04
797.862	22833.13
798.193	22757.88
798.525	22616.64
798.856	22586.81
799.188	22306.36
799.519	22252.8
799.85	22049.42
800.182	21941.17
800.513	22043.32
800.844	21625.25
801.175	21770.33
801.506	21688.07
801.837	21532.15
802.168	21487.63
802.499	21300.29
802.83	21212.83
803.161	21135.09
803.491	21070.24
803.822	20926.29
804.153	20909.79
804.483	20817.36
804.814	20709.57
805.145	20751.6
805.475	20668.67
805.805	20606.29
806.136	20704.37
806.466	20657.37
806.796	20619.85
807.126	20376.24
807.457	20463.47
807.787	20545.96
808.117	20428.9
808.447	20480.2
808.777	20538.05
809.107	20468.9
809.436	20384.15
809.766	20417.37
810.096	20364.27
810.426	20298.96
810.755	20320.65
811.085	20271.39
811.414	20304.16
811.744	20211.5
812.073	20065.52
812.403	20127.21
812.732	20018.29
813.061	20056.48
813.39	19961.57
813.719	19748.46
814.049	19931.96
814.378	19758.41
814.707	19661.23
815.036	19585.08
815.365	19468.47
815.693	19232.77
816.022	19230.74
816.351	19324.75
816.68	19153.9
817.008	19109.38
817.337	18956.39
817.665	18879.56
817.994	18840.92
818.322	18704.65
818.651	18602.05
818.979	18516.63
819.307	18568.61
819.636	18514.82
819.964	18335.85
820.292	18455.39
820.62	18442.96
820.948	18247.03
821.276	18350.76
821.604	18356.18
821.932	18314.83
822.259	18312.34
822.587	18290.2
822.915	18312.57
823.243	18412.91
823.57	18377.65
823.898	18354.83
824.225	18304.66
824.553	18392.12
824.88	18403.41
825.207	18524.99
825.535	18494.71
825.862	18602.73
826.189	18486.35
826.516	18595.5
826.843	18577.87
827.17	18755.04
827.497	18679.79
827.824	18784.87
828.151	18796.85
828.478	18756.63
828.805	18871.65
829.131	18736.96
829.458	18822.84
829.785	18670.53
830.111	18729.73
830.438	18889.05
830.764	18673.92
831.09	18709.17
831.417	18608.38
831.743	18579.68
832.069	18579
832.395	18507.59
832.722	18411.55
833.048	18379.01
833.374	18472.34
833.7	18294.49
834.026	18288.16
834.351	18295.17
834.677	18234.15
835.003	18223.08
835.329	18150.99
835.654	18050.88
835.98	17963.65
836.306	17999.58
836.631	17822.41
836.956	17876.42
837.282	17798.68
837.607	17708.97
837.932	17782.19
838.258	17719.82
838.583	17662.19
838.908	17515.98
839.233	17564.11
839.558	17612.02
839.883	17546.94
840.208	17486.15
840.533	17528.41
840.858	17431.69
841.182	17519.37
841.507	17537.9
841.832	17523.21
842.156	17528.86
842.481	17497.68
842.805	17562.08
843.13	17451.58
843.454	17527.51
843.778	17465.81
844.103	17444.8
844.427	17465.36
844.751	17534.28
845.075	17526.83
845.399	17390.79
845.723	17412.48
846.047	17310.56
846.371	17294.97
846.695	17301.52
847.019	17062.21
847.343	17068.99
847.666	17021.76
847.99	16936.79
848.313	16879.16
848.637	16729.33
848.96	16645.04
849.284	16632.61
849.607	16528.21
849.931	16417.03
850.254	16357.82
850.577	16251.15
850.9	16074.44
851.223	16023.36
851.546	15964.83
851.869	15710.83
852.192	15833.31
852.515	15645.97
852.838	15474.45
853.161	15518.29
853.483	15330.95
853.806	15367.79
854.129	15222.26
854.451	15153.78
854.774	15147
855.096	15128.7
855.419	15010.51
855.741	14902.04
856.063	14843.51
856.385	14844.41
856.708	14785.43
857.03	14744.08
857.352	14747.92
857.674	14657.98
857.996	14681.03
858.318	14547.7
858.64	14621.59
858.961	14556.96
859.283	14490.07
859.605	14477.42
859.926	14612.33
860.248	14525.55
860.57	14487.59
860.891	14509.28
861.212	14498.88
861.534	14450.07
861.855	14400.58
862.176	14536.85
862.498	14440.13
862.819	14562.16
863.14	14459.56
863.461	14348.61
863.782	14452.78
864.103	14513.8
864.424	14425.89
864.745	14342.96
865.065	14345.44
865.386	14188.84
865.707	14240.59
866.027	14199.46
866.348	14209.85
866.668	14201.94
866.989	14138.89
867.309	14049.86
867.63	14167.82
867.95	14107.03
868.27	13881.5
868.59	13973.7
868.91	13879.01
869.23	13839.01
869.55	13747.27
869.87	13792.24
870.19	13730.54
870.51	13762.41
870.83	13720.15
871.15	13624.33
871.469	13574.16
871.789	13507.27
872.109	13568.06
872.428	13387.73
872.748	13393.15
873.067	13344.11
873.386	13361.06
873.706	13290.55
874.025	13246.04
874.344	13171.91
874.663	13211.46
874.982	13139.6
875.301	13277.45
875.62	13097.11
875.939	13082.65
876.258	13122.65
876.577	13139.82
876.896	13062.54
877.214	13008.3
877.533	13037.45
877.852	12993.16
878.17	13077.45
878.489	13055.53
878.807	13090.11
879.125	13038.36
879.444	13148.64
879.762	13039.71
880.08	12952.48
880.398	12979.38
880.716	13009.66
881.034	12944.57
881.352	13038.36
881.67	12940.51
881.988	13027.06
882.306	13004.91
882.624	13008.75
882.941	12980.28
883.259	12885.59
883.577	12922.65
883.894	12876.55
884.212	12863.22
884.529	12831.36
884.846	12891.92
885.164	12737.57
885.481	12711.81
885.798	12729.67
886.115	12681.76
886.432	12705.03
886.75	12681.76
887.067	12626.84
887.383	12543
887.7	12624.36
888.017	12530.35
888.334	12354.99
888.651	12369.22
888.967	12238.38
889.284	12180.3
889.6	12219.62
889.917	12106.4
890.233	12034.32
890.55	11983.92
890.866	12022.34
891.182	11941.44
891.498	11876.58
891.815	11824.15
892.131	11688.56
892.447	11711.39
892.763	11668.22
893.079	11607.89
893.395	11525.86
893.71	11549.81
894.026	11502.58
894.342	11430.72
894.657	11364.96
894.973	11347.1
895.289	11307.56
895.604	11339.87
895.92	11242.47
896.235	11229.59
896.55	11215.35
896.865	11205.86
897.181	11074.34
897.496	11187.11
897.811	11109.14
898.126	11043.83
898.441	11121.12
898.756	11054.68
899.071	11015.81
899.386	11069.14
899.7	10950.05
900.015	10988.69
900.33	10858.98
900.644	10900.33
900.959	10859.21
901.273	10902.82
901.588	10832.09
901.902	10807.23
902.216	10730.17
902.531	10714.8
902.845	10785.76
903.159	10630.74
903.473	10632.55
903.787	10580.34
904.101	10595.03
904.415	10557.52
904.729	10528.82
905.042	10465.32
905.356	10401.82
905.67	10405.21
905.984	10351.2
906.297	10414.92
906.611	10254.7
906.924	10309.16
907.237	10263.52
907.551	10111.66
907.864	10115.04
908.177	10089.06
908.491	9994.6
908.804	9926.8
909.117	9905.11
909.43	9826.24
909.743	9733.13
910.056	9783.08
910.368	9651.55
910.681	9633.25
910.994	9596.41
911.307	9517.32
911.619	9408.85
911.932	9331.11
912.244	9347.16
912.557	9312.35
912.869	9219.7
913.181	9205.92
913.494	9144.9
913.806	9064.9
914.118	9061.74
914.43	8981.52
914.742	8963.89
915.054	8958.69
915.366	8906.71
915.678	8771.35
915.99	8797.34
916.302	8762.31
916.613	8726.15
916.925	8770.67
917.236	8694.52
917.548	8636.44
917.859	8751.24
918.171	8602.09
918.482	8573.39
918.794	8529.78
919.105	8573.84
919.416	8512.83
919.727	8511.02
920.038	8519.61
920.349	8403.45
920.66	8368.65
920.971	8372.04
921.282	8306.28
921.593	8304.92
921.903	8251.36
922.214	8252.04
922.525	8259.5
922.835	8224.7
923.146	8154.42
923.456	8177.69
923.767	8102.67
924.077	8188.54
924.387	8129.56
924.697	8110.8
925.008	8088.88
925.318	8005.27
925.628	8023.57
925.938	7987.64
926.248	7848.21
926.558	7871.94
926.867	7854.99
927.177	7873.52
927.487	7728.44
927.796	7624.26
928.106	7683.7
928.416	7613.64
928.725	7625.84
929.034	7548.11
929.344	7516.24
929.653	7520.54
929.962	7469.46
930.271	7385.85
930.581	7334.78
930.89	7263.59
931.199	7214.33
931.508	7240.77
931.817	7236.02
932.125	7121.9
932.434	7096.14
932.743	6998.97
933.051	7070.15
933.36	6917.84
933.669	6895.69
933.977	6918.07
934.286	6908.35
934.594	6911.51
934.902	6815.02
935.21	6720.56
935.519	6724.85
935.827	6724.17
936.135	6652.99
936.443	6604.4
936.751	6599.88
937.059	6585.19
937.367	6509.04
937.674	6562.14
937.982	6493.45
938.29	6462.03
938.597	6420
938.905	6349.27
939.213	6335.94
939.52	6348.82
939.827	6339.32
940.135	6299.55
940.442	6360.12
940.749	6284.19
941.056	6308.37
941.363	6236.05
941.67	6228.82
941.977	6222.27
942.284	6160.57
942.591	6136.17
942.898	6141.82
943.205	6163.96
943.511	6116.28
943.818	6148.82
944.125	6049.39
944.431	6050.07
944.738	6057.07
945.044	6024.08
945.35	5992.67
945.657	5977.98
945.963	5968.94
946.269	5955.61
946.575	5961.71
946.881	5889.17
947.187	5892.56
947.493	5846.46
947.799	5851.65
948.105	5793.35
948.41	5721.94
948.716	5767.14
949.022	5726.69
949.327	5683.75
949.633	5634.03
949.938	5614.82
950.244	5613.69
950.549	5528.95
950.854	5533.92
951.16	5508.61
951.465	5452.34
951.77	5492.57
952.075	5424.77
952.38	5407.6
952.685	5366.92
952.99	5315.85
953.294	5302.74
953.599	5352.68
953.904	5240.14
954.209	5216.87
954.513	5239.01
954.818	5166.93
955.122	5142.52
955.426	5095.74
955.731	5091.9
956.035	5051.22
956.339	5011.45
956.643	5001.05
956.948	4985.01
957.252	4965.35
957.556	4947.95
957.86	4895.75
958.163	4868.18
958.467	4827.5
958.771	4802.19
959.075	4744.11
959.378	4741.85
959.682	4766.71
959.985	4727.39
960.289	4717.67
960.592	4687.39
960.896	4647.39
961.199	4633.16
961.502	4627.51
961.805	4554.06
962.108	4585.92
962.411	4562.87
962.714	4513.61
963.017	4529.2
963.32	4544.8
963.623	4549.09
963.926	4528.07
964.228	4510.22
964.531	4517.45
964.833	4494.63
965.136	4440.62
965.438	4413.27
965.741	4387.29
966.043	4434.29
966.345	4413.05
966.648	4382.09
966.95	4373.27
967.252	4368.3
967.554	4357.23
967.856	4325.14
968.158	4276.1
968.46	4315.88
968.761	4267.06
969.063	4305.25
969.365	4234.97
969.666	4225.48
969.968	4211.7
970.269	4154.07
970.571	4150
970.872	4189.78
971.174	4118.59
971.475	4095.54
971.776	4138.03
972.077	4060.51
972.378	4047.41
972.679	4077.46
972.98	4042.89
973.281	4041.98
973.582	4016.45
973.883	3961.31
974.183	3961.76
974.484	3973.74
974.785	3889.45
975.085	3903.23
975.386	3889.67
975.686	3884.7
975.986	3825.72
976.287	3812.16
976.587	3815.32
976.887	3727.19
977.187	3742.1
977.487	3712.05
977.787	3701.2
978.087	3656.91
978.387	3674.54
978.687	3617.14
978.987	3623.46
979.286	3573.97
979.586	3564.03
979.885	3528.78
980.185	3536.01
980.484	3500.53
980.784	3501.43
981.083	3484.26
981.382	3447.42
981.682	3450.81
981.981	3428.44
982.28	3408.33
982.579	3416.01
982.878	3363.58
983.177	3383.02
983.475	3338.05
983.774	3327.65
984.073	3325.62
984.372	3303.02
984.67	3296.24
984.969	3247.65
985.267	3277.03
985.566	3238.62
985.864	3252.85
986.162	3237.03
986.461	3180.54
986.759	3208.79
987.057	3165.17
987.355	3139.86
987.653	3169.24
987.951	3121.78
988.249	3140.54
988.547	3132.18
988.844	3106.87
989.142	3118.84
989.44	3073.87
989.737	3063.7
990.035	3026.42
990.332	3090.6
990.63	3059.19
990.927	3057.15
991.224	3016.93
991.521	3008.79
991.819	3012.86
992.116	2967.66
992.413	3008.79
992.71	2950.04
993.006	2957.72
993.303	2929.25
993.6	2963.82
993.897	2930.83
994.193	2900.77
994.49	2905.06
994.787	2860.55
995.083	2860.32
995.379	2868.91
995.676	2845.41
995.972	2820.1
996.268	2806.76
996.565	2773.77
996.861	2756.37
997.157	2788.91
997.453	2766.76
997.749	2710.27
998.044	2721.34
998.34	2707.1
998.636	2713.43
998.932	2674.56
999.227	2642.47
999.523	2647.44
999.818	2612.19
1000.114	2614.23
1000.409	2601.12
1000.704	2609.93
1001	2547.56
1001.295	2535.13
1001.59	2534.23
1001.885	2543.04
1002.18	2499.43
1002.475	2475.7
1002.77	2465.08
1003.065	2424.4
1003.359	2455.81
1003.654	2444.29
1003.949	2375.14
1004.243	2414.68
1004.538	2356.15
1004.832	2366.32
1005.127	2383.04
1005.421	2308.24
1005.715	2299.43
1006.009	2245.2
1006.304	2240.22
1006.598	2264.86
1006.892	2270.28
1007.186	2262.37
1007.48	2240.45
1007.773	2211.3
1008.067	2209.26
1008.361	2171.07
1008.655	2147.12
1008.948	2157.29
1009.242	2176.72
1009.535	2138.08
1009.829	2101.47
1010.122	2102.83
1010.415	2099.66
1010.708	2046.33
1011.001	2083.84
1011.295	2073.67
1011.588	2032.32
1011.881	2048.59
1012.173	2021.02
1012.466	2048.59
1012.759	2010.4
1013.052	2000
1013.344	1936.28
1013.637	1990.74
1013.93	1957.29
1014.222	1940.34
1014.514	1922.72
1014.807	1938.54
1015.099	1908.48
1015.391	1920.68
1015.683	1915.49
1015.976	1922.04
1016.268	1887.01
1016.56	1873.45
1016.851	1851.99
1017.143	1864.19
1017.435	1844.3
1017.727	1816.96
1018.018	1816.73
1018.31	1841.14
1018.602	1816.05
1018.893	1825.32
1019.185	1812.44
1019.476	1790.74
1019.767	1774.02
1020.058	1746.9
1020.35	1749.16
1020.641	1755.72
1020.932	1733.8
1021.223	1691.76
1021.514	1687.7
1021.804	1682.72
1022.095	1657.19
1022.386	1677.07
1022.677	1650.63
1022.967	1627.36
1023.258	1603.86
1023.548	1627.13
1023.839	1616.29
1024.129	1582.84
1024.419	1578.55
1024.709	1559.11
1025	1564.08
1025.29	1538.77
1025.58	1534.48
1025.87	1527.93
1026.16	1491.99
1026.449	1486.8
1026.739	1497.19
1027.029	1466.23
1027.319	1461.49
1027.608	1452.9
1027.898	1449.06
1028.187	1442.5
1028.477	1444.09
1028.766	1388.95
1029.055	1392.34
1029.344	1364.31
1029.634	1357.99
1029.923	1347.14
1030.212	1336.52
1030.501	1328.38
1030.79	1340.13
1031.078	1332.45
1031.367	1321.6
1031.656	1329.51
1031.945	1279.57
1032.233	1307.82
1032.522	1285.45
1032.81	1271.44
1033.099	1244.54
1033.387	1238.22
1033.675	1227.82
1033.963	1237.76
1034.251	1221.95
1034.54	1221.04
1034.828	1198.67
1035.116	1179.91
1035.403	1189.86
1035.691	1168.84
1035.979	1188.27
1036.267	1159.12
1036.554	1153.02
1036.842	1157.99
1037.129	1145.79
1037.417	1144.21
1037.704	1133.36
1037.992	1114.6
1038.279	1108.95
1038.566	1110.08
1038.853	1110.08
1039.14	1110.08
