Data from red_cardboard_box_FLMS001491_00016.txt Node
Date: Wed Feb 08 11:31:36 GMT 2017
User: dcchb
Spectrometer: FLMS00149
Trigger mode: 0
Integration Time (sec): 2.000000E-2
Scans to average: 10
Electric dark correction enabled: true
Nonlinearity correction enabled: false
Boxcar width: 0
XAxis mode: Wavelengths
Number of Pixels in Spectrum: 2048
>>>>>Begin Spectral Data<<<<<
341.393	-19.12
341.776	-19.12
342.16	-19.12
342.543	-51.21
342.927	-47.82
343.31	-86.92
343.693	-81.27
344.077	-80.37
344.46	-64.09
344.843	-49.86
345.226	-27.03
345.61	-24.1
345.993	-9.18
346.376	-8.95
346.759	26.98
347.142	32.4
347.525	35.56
347.908	65.39
348.291	64.26
348.674	98.61
349.057	108.56
349.44	127.09
349.823	145.62
350.206	155.11
350.588	187.65
350.971	211.15
351.354	207.76
351.737	241.43
352.119	243.47
352.502	276.69
352.884	263.81
353.267	252.06
353.65	283.92
354.032	299.96
354.414	300.19
354.797	316.01
355.179	319.17
355.562	314.65
355.944	323.92
356.326	332.28
356.709	312.17
357.091	327.08
357.473	355.56
357.855	338.61
358.238	342.67
358.62	325.05
359.002	330.47
359.384	341.77
359.766	345.16
360.148	337.7
360.53	332.51
360.912	325.27
361.294	328.89
361.676	321.43
362.057	338.61
362.439	321.88
362.821	311.71
363.203	318.72
363.584	323.01
363.966	312.39
364.348	311.71
364.729	314.65
365.111	323.92
365.493	324.6
365.874	323.92
366.256	305.84
366.637	318.95
367.019	313.97
367.4	308.78
367.781	318.72
368.163	317.59
368.544	311.94
368.925	294.09
369.306	315.56
369.688	323.47
370.069	295.9
370.45	330.25
370.831	312.17
371.212	298.61
371.593	314.65
371.974	292.28
372.355	293.64
372.736	312.17
373.117	321.21
373.498	318.95
373.879	324.37
374.26	289.57
374.641	297.93
375.021	329.34
375.402	321.88
375.783	301.32
376.163	322.11
376.544	320.08
376.925	336.35
377.305	338.38
377.686	318.04
378.066	332.96
378.447	315.1
378.827	328.44
379.208	333.18
379.588	329.57
379.968	329.34
380.349	330.92
380.729	306.52
381.109	321.66
381.489	327.76
381.87	336.35
382.25	329.57
382.63	331.38
383.01	339.28
383.39	344.93
383.77	315.33
384.15	352.39
384.53	346.74
384.91	351.26
385.29	344.71
385.67	340.87
386.049	353.3
386.429	354.2
386.809	347.87
387.189	350.36
387.568	359.17
387.948	339.96
388.328	331.38
388.707	352.17
389.087	345.39
389.466	351.26
389.846	352.17
390.225	358.49
390.605	353.75
390.984	357.14
391.363	357.36
391.743	337.7
392.122	356.46
392.501	357.14
392.881	369.79
393.26	376.8
393.639	334.54
394.018	355.33
394.397	372.73
394.776	360.75
395.155	372.28
395.534	351.04
395.913	362.11
396.292	371.37
396.671	369.34
397.05	373.63
397.429	358.04
397.808	354.88
398.186	354.88
398.565	362.56
398.944	354.65
399.323	396.91
399.701	366.85
400.08	385.39
400.458	359.62
400.837	354.65
401.215	379.74
401.594	372.5
401.972	367.53
402.351	373.41
402.729	372.05
403.107	369.34
403.486	337.03
403.864	374.76
404.242	373.41
404.62	396.91
404.999	384.93
405.377	377.7
405.755	405.27
406.133	368.44
406.511	396.68
406.889	367.98
407.267	414.31
407.645	389.68
408.023	388.55
408.401	383.35
408.779	398.94
409.156	410.92
409.534	424.25
409.912	409.34
410.29	408.44
410.667	388.78
411.045	391.94
411.422	392.84
411.8	409.79
412.178	411.37
412.555	419.51
412.933	403.92
413.31	406.63
413.687	397.14
414.065	409.34
414.442	407.53
414.819	436.23
415.197	422.45
415.574	407.08
415.951	429.23
416.328	412.96
416.705	431.94
417.082	440.07
417.46	405.27
417.837	413.41
418.214	420.86
418.591	419.28
418.967	434.65
419.344	439.17
419.721	436.01
420.098	459.96
420.475	452.95
420.852	446.17
421.228	430.36
421.605	459.51
421.982	432.84
422.358	459.28
422.735	435.33
423.111	458.15
423.488	460.64
423.864	465.61
424.241	445.5
424.617	477.81
424.994	457.47
425.37	462.45
425.746	453.86
426.123	442.56
426.499	481.2
426.875	470.13
427.251	471.48
427.627	461.77
428.003	455.67
428.379	475.55
428.756	480.3
429.132	472.61
429.507	469.45
429.883	497.47
430.259	482.56
430.635	486.4
431.011	520.52
431.387	491.37
431.763	507.64
432.138	491.82
432.514	492.28
432.89	522.1
433.265	523.91
433.641	495.21
434.016	522.56
434.392	508.09
434.767	517.81
435.143	524.82
435.518	530.24
435.894	518.04
436.269	513.52
436.644	540.64
437.02	537.02
437.395	520.52
437.77	536.34
438.145	550.58
438.52	556.91
438.895	553.97
439.271	570.47
439.646	548.54
440.021	569.56
440.395	586.06
440.77	550.58
441.145	539.73
441.52	565.49
441.895	571.14
442.27	586.74
442.645	565.04
443.019	574.08
443.394	573.18
443.769	584.93
444.143	578.83
444.518	606.62
444.892	595.32
445.267	588.54
445.641	578.83
446.016	592.84
446.39	596.68
446.764	590.58
447.139	589.45
447.513	600.75
447.887	614.53
448.262	609.56
448.636	616.79
449.01	595.1
449.384	621.99
449.758	605.94
450.132	614.98
450.506	611.59
450.88	607.07
451.254	621.76
451.628	617.47
452.002	624.25
452.376	624.02
452.75	616.57
453.123	624.7
453.497	636.68
453.871	640.75
454.244	657.47
454.618	652.27
454.992	644.14
455.365	657.02
455.739	661.31
456.112	678.03
456.486	670.12
456.859	682.78
457.232	694.3
457.606	669.22
457.979	685.72
458.352	679.39
458.725	687.07
459.099	693.17
459.472	709.22
459.845	703.34
460.218	716.45
460.591	705.6
460.964	724.59
461.337	714.64
461.71	735.43
462.083	726.17
462.456	719.39
462.829	750.57
463.201	767.3
463.574	740.86
463.947	760.29
464.32	754.42
464.692	764.36
465.065	772.72
465.438	763
465.81	785.6
466.183	782.66
466.555	798.71
466.928	808.88
467.3	812.04
467.672	809.1
468.045	808.2
468.417	831.02
468.789	819.5
469.161	846.16
469.534	844.36
469.906	848.88
470.278	851.81
470.65	868.08
471.022	881.64
471.394	906.73
471.766	882.1
472.138	904.24
472.51	914.64
472.882	915.77
473.253	923.68
473.625	951.92
473.997	982.66
474.369	945.14
474.74	969.55
475.112	986.05
475.484	991.7
475.855	958.7
476.227	981.08
476.598	1002.54
476.97	1030.11
477.341	1019.72
477.713	1056.1
478.084	1033.28
478.455	1105.37
478.827	1079.15
479.198	1090.9
479.569	1131.58
479.94	1124.57
480.311	1130.9
480.682	1121.64
481.053	1172.71
481.424	1195.08
481.795	1200.28
482.166	1182.43
482.537	1171.81
482.908	1220.84
483.279	1237.34
483.65	1252.48
484.021	1279.6
484.391	1264.68
484.762	1301.29
485.133	1271.92
485.503	1322.31
485.874	1320.5
486.244	1341.52
486.615	1325.93
486.985	1346.94
487.356	1397.34
487.726	1415.64
488.097	1428.07
488.467	1413.61
488.837	1470.78
489.207	1471.01
489.578	1525.02
489.948	1488.41
490.318	1517.56
490.688	1489.99
491.058	1547.39
491.428	1544.68
491.798	1547.84
492.168	1582.87
492.538	1599.36
492.908	1587.84
493.278	1630.78
493.648	1625.13
494.017	1656.31
494.387	1681.85
494.757	1676.88
495.126	1712.81
495.496	1688.4
495.866	1719.59
496.235	1734.95
496.605	1734.73
496.974	1779.47
497.344	1774.5
497.713	1784.67
498.082	1784.9
498.452	1841.39
498.821	1789.19
499.19	1814.5
499.559	1823.31
499.928	1844.56
500.298	1894.95
500.667	1874.39
501.036	1871.45
501.405	1868.96
501.774	1910.54
502.143	1928.4
502.512	1934.05
502.88	1943.76
503.249	1957.55
503.618	1997.09
503.987	1948.73
504.356	1987.83
504.724	1998.45
505.093	1997.55
505.462	2033.7
505.83	2039.58
506.199	2032.12
506.567	2097.2
506.936	2077.32
507.304	2072.12
507.672	2100.82
508.041	2150.76
508.409	2112.12
508.777	2115.28
509.145	2155.28
509.514	2172.46
509.882	2177.2
510.25	2181.27
510.618	2199.35
510.986	2220.82
511.354	2243.87
511.722	2236.18
512.09	2248.16
512.458	2278.89
512.826	2304.66
513.193	2322.28
513.561	2330.19
513.929	2366.58
514.297	2374.49
514.664	2370.87
515.032	2366.35
515.4	2413.81
515.767	2413.58
516.135	2375.84
516.502	2395.28
516.869	2460.13
517.237	2453.81
517.604	2474.37
517.972	2491.77
518.339	2511.43
518.706	2512.79
519.073	2550.3
519.44	2534.48
519.808	2569.28
520.175	2599.56
520.542	2640.69
520.909	2619.45
521.276	2646.79
521.643	2686.79
522.009	2653.12
522.376	2710.75
522.743	2713.69
523.11	2777.19
523.477	2736.74
523.843	2756.4
524.21	2815.38
524.577	2851.54
524.943	2825.77
525.31	2849.5
525.676	2879.11
526.043	2921.59
526.409	2931.31
526.776	2921.59
527.142	2963.4
527.508	2977.63
527.874	2993
528.241	2995.26
528.607	3020.57
528.973	3067.12
529.339	3018.54
529.705	3087.46
530.071	3095.82
530.437	3120.23
530.803	3126.56
531.169	3197.06
531.535	3200.23
531.901	3178.53
532.267	3226.44
532.632	3239.32
532.998	3223.28
533.364	3219.66
533.73	3263.28
534.095	3325.2
534.461	3310.73
534.826	3336.49
535.192	3363.39
535.557	3371.52
535.923	3369.94
536.288	3414.01
536.653	3463.5
537.019	3443.61
537.384	3422.59
537.749	3472.08
538.114	3440.22
538.479	3483.38
538.845	3490.39
539.21	3511.4
539.575	3534.91
539.94	3579.2
540.305	3581.46
540.67	3573.1
541.034	3626.66
541.399	3604.96
541.764	3602.7
542.129	3653.55
542.494	3629.59
542.858	3672.76
543.223	3668.01
543.587	3699.65
543.952	3717.5
544.316	3737.84
544.681	3784.62
545.045	3778.06
545.41	3789.36
545.774	3806.54
546.138	3822.13
546.503	3837.05
546.867	3850.6
547.231	3911.17
547.595	3943.48
547.959	3895.8
548.324	3989.58
548.688	3945.07
549.052	3994.56
549.416	3980.09
549.779	4007.44
550.143	4049.92
550.507	4063.93
550.871	4112.52
551.235	4126.98
551.599	4148.68
551.962	4155
552.326	4184.16
552.689	4230.93
553.053	4220.09
553.417	4202.46
553.78	4305.28
554.143	4323.81
554.507	4355.9
554.87	4310.25
555.234	4427.99
555.597	4430.02
555.96	4414.88
556.323	4427.76
556.686	4496.92
557.05	4541.66
557.413	4533.3
557.776	4577.59
558.139	4614.43
558.502	4646.06
558.865	4633.41
559.228	4703.01
559.59	4733.75
559.953	4756.12
560.316	4800.18
560.679	4817.13
561.041	4890.8
561.404	4919.96
561.767	4986.39
562.129	4958.37
562.492	5040.63
562.854	5040.86
563.217	5059.61
563.579	5132.15
563.941	5140.06
564.304	5205.6
564.666	5266.39
565.028	5319.49
565.39	5352.49
565.753	5348.42
566.115	5453.95
566.477	5481.75
566.839	5507.51
567.201	5575.98
567.563	5575.53
567.925	5699.14
568.287	5718.35
568.648	5732.14
569.01	5794.28
569.372	5881.06
569.734	5888.52
570.095	5959.02
570.457	6018.01
570.819	6055.74
571.18	6121.51
571.542	6131.22
571.903	6221.62
572.265	6302.74
572.626	6361.95
572.987	6320.82
573.349	6402.63
573.71	6531.66
574.071	6570.53
574.432	6635.39
574.794	6737.53
575.155	6747.93
575.516	6775.73
575.877	6871.77
576.238	6982.5
576.599	7004.87
576.96	7066.79
577.32	7115.38
577.681	7258.2
578.042	7417.52
578.403	7439.44
578.763	7580.9
579.124	7589.72
579.485	7734.34
579.845	7772.08
580.206	7842.14
580.566	7930.95
580.927	8092.75
581.287	8184.73
581.648	8207.1
582.008	8349.47
582.368	8481.67
582.728	8554.66
583.089	8740.42
583.449	8871.49
583.809	8981.54
584.169	9123.46
584.529	9242.78
584.889	9441.42
585.249	9546.05
585.609	9684.12
585.969	9848.87
586.329	10045.02
586.688	10209.99
587.048	10286.37
587.408	10481.39
587.768	10707.15
588.127	10882.28
588.487	11064.2
588.846	11355.49
589.206	11444.76
589.565	11728.14
589.925	11950.5
590.284	12183.72
590.643	12383.04
591.003	12646.53
591.362	12923.36
591.721	13127.65
592.08	13319.28
592.44	13656.9
592.799	13792.04
593.158	14095.08
593.517	14382.76
593.876	14706.36
594.235	14851.22
594.593	15204.88
594.952	15546.34
595.311	15729.61
595.67	16128.93
596.029	16534.11
596.387	16810.72
596.746	17098.17
597.104	17355.33
597.463	17640.3
597.822	18087.97
598.18	18313.73
598.538	18620.16
598.897	19033.26
599.255	19199.81
599.613	19773.8
599.972	19905.32
600.33	20276.61
600.688	20579.43
601.046	20874.79
601.404	21337.38
601.762	21740.53
602.12	22126.06
602.478	22419.38
602.836	22637.46
603.194	22863.89
603.552	23253.48
603.91	23507.49
604.268	24016.63
604.625	24134.37
604.983	24606.9
605.341	24710.17
605.698	25221.57
606.056	25594.21
606.413	25879.18
606.771	26181.77
607.128	26431.71
607.485	26698.37
607.843	26946.49
608.2	27210.44
608.557	27646.59
608.914	27804.55
609.272	28266.46
609.629	28440.47
609.986	28828.93
610.343	28819.67
610.7	29375.81
611.057	29414.23
611.414	29727.89
611.771	29891.28
612.127	30176.69
612.484	30274.99
612.841	30788.65
613.198	30837.92
613.554	31073.39
613.911	31312.93
614.267	31645.58
614.624	31636.54
614.98	31890.32
615.337	32283.76
615.693	32368.05
616.05	32374.83
616.406	32711.09
616.762	32865.89
617.118	33040.8
617.475	33215.71
617.831	33344.52
618.187	33671.52
618.543	33790.16
618.899	34015.91
619.255	34050.49
619.611	34120.09
619.967	34462
620.323	34505.62
620.678	34633.07
621.034	34625.16
621.39	34837.36
621.746	35021.54
622.101	35450.45
622.457	35297.24
622.812	35408.19
623.168	35581.07
623.523	35615.19
623.879	35787.62
624.234	35657.23
624.589	35905.36
624.945	35921.63
625.3	36112.36
625.655	36337.21
626.01	36240.71
626.365	36355.74
626.72	36370.43
627.075	36442.74
627.43	36517.54
627.785	36575.85
628.14	36694.71
628.495	36817.65
628.85	36792.79
629.205	36825.33
629.559	37020.35
629.914	36881.37
630.269	37177.64
630.623	36922.73
630.978	36930.19
631.332	37243.17
631.687	37255.38
632.041	37116.17
632.396	37243.85
632.75	37114.82
633.104	37204.53
633.459	37091.76
633.813	37147.13
634.167	37194.36
634.521	37390.51
634.875	37411.98
635.229	37223.51
635.583	37262.61
635.937	37328.59
636.291	37264.64
636.645	37245.21
636.999	37281.82
637.352	37459.66
637.706	37170.18
638.06	37350.29
638.413	37319.33
638.767	37273.68
639.121	37346.45
639.474	37235.26
639.828	37281.59
640.181	37377.86
640.534	37443.17
640.888	37278.43
641.241	37163.18
641.594	37300.12
641.947	37298.31
642.301	37146.23
642.654	37287.69
643.007	37282.95
643.36	37297.18
643.713	37285.21
644.066	37355.49
644.419	37211.54
644.771	36986.46
645.124	36609.07
645.477	36624.21
645.83	36446.36
646.182	36282.29
646.535	36272.13
646.888	36449.07
647.24	36374.72
647.593	36583.3
647.945	36570.2
648.298	36297.89
648.65	36316.87
649.002	36154.16
649.355	36333.37
649.707	36344.89
650.059	36432.35
650.411	36807.93
650.763	37030.98
651.115	37412.43
651.467	37149.62
651.819	37073.23
652.171	37085.44
652.523	37095.15
652.875	37029.39
653.227	36957.53
653.578	37294.92
653.93	37221.25
654.282	36991.2
654.633	37059
654.985	37057.87
655.337	37074.59
655.688	37144.87
656.039	37132.67
656.391	36922.28
656.742	36944.88
657.094	37076.4
657.445	37052.67
657.796	36916.85
658.147	36991.65
658.498	36980.81
658.849	37164.08
659.2	36919.34
659.551	36900.13
659.902	36957.08
660.253	37112.1
660.604	37095.61
660.955	36809.51
661.306	37052.67
661.656	36962.95
662.007	37004.08
662.358	36999.79
662.708	37051.54
663.059	36992.33
663.409	36816.29
663.76	36940.81
664.11	37088.38
664.461	37084.99
664.811	37085.44
665.161	37000.92
665.511	36937.42
665.862	36909.62
666.212	37145.32
666.562	36996.63
666.912	36891.32
667.262	36969.73
667.612	37012.44
667.962	37056.96
668.312	36963.41
668.662	37082.27
669.011	37054.25
669.361	36963.86
669.711	36967.02
670.06	36810.42
670.41	36939.23
670.76	36764.32
671.109	36917.98
671.459	36955.95
671.808	36698.55
672.157	36846.35
672.507	36617.88
672.856	36698.55
673.205	36705.79
673.554	36807.7
673.904	36698.1
674.253	36898.1
674.602	36770.87
674.951	36183.77
675.3	36085.01
675.649	36790.76
675.998	36579.46
676.346	36680.02
676.695	36760.7
677.044	36426.7
677.393	36511.22
677.741	36629.86
678.09	36601.83
678.438	36507.83
678.787	36489.97
679.135	36440.26
679.484	36344.21
679.832	36421.05
680.181	36102.19
680.529	36465.57
680.877	36183.99
681.225	36073.71
681.573	36426.25
681.922	35952.36
682.27	36069.87
682.618	35998.69
682.966	35871.68
683.314	35965.24
683.661	35847.5
684.009	35715.08
684.357	35702.42
684.705	35674.17
685.053	35724.12
685.4	35567.74
685.748	35451.58
686.095	35580.39
686.443	35292.49
686.79	35230.12
687.138	35288.65
687.485	35316.44
687.832	35238.48
688.18	35349.44
688.527	35041.2
688.874	35047.3
689.221	34969.56
689.568	34878.49
689.915	34648.89
690.262	34766.63
690.609	34685.95
690.956	34590.59
691.303	34374.1
691.65	34384.94
691.997	34357.37
692.344	34173.88
692.69	34276.7
693.037	34255.91
693.383	33880.55
693.73	34058.4
694.077	33843.26
694.423	33856.37
694.769	33683.04
695.116	33673.78
695.462	33696.15
695.808	33492.31
696.155	33554.91
696.501	33350.17
696.847	33351.75
697.193	33185.65
697.539	33238.31
697.885	32876.96
698.231	32887.81
698.577	33003.96
698.923	32887.13
699.269	32713.8
699.614	32499.57
699.96	32465.67
700.306	32570.3
700.651	32409.4
700.997	32361.72
701.342	32256.41
701.688	32132.57
702.033	32145.91
702.379	32065
702.724	31916.08
703.069	32133.7
703.415	31621.4
703.76	31756.99
704.105	31662.3
704.45	31673.83
704.795	31576.2
705.14	31544.34
705.485	31383.89
705.83	31324.01
706.175	31270.9
706.52	31322.43
706.865	31064.13
707.209	31163.56
707.554	30917.92
707.899	31089.21
708.243	30843.34
708.588	30871.59
708.932	30460.53
709.277	30573.52
709.621	30696.45
709.966	30366.52
710.31	30447.19
710.654	30249.68
710.998	30251.27
711.342	30348.67
711.687	30097.82
712.031	30085.62
712.375	29906.19
712.719	30093.3
713.063	29902.35
713.407	30077.49
713.75	29830.26
714.094	29882.24
714.438	29661.23
714.782	29727.89
715.125	29677.5
715.469	29544.84
715.812	29448.12
716.156	29250.62
716.499	29376.94
716.843	29428.46
717.186	29329.26
717.53	29371.06
717.873	29434.11
718.216	29214.91
718.559	29136.95
718.902	28928.14
719.246	29096.72
719.589	28848.37
719.932	28736.5
720.275	28863.96
720.617	28789.16
720.96	28750.97
721.303	28668.26
721.646	28741.7
721.989	28646.11
722.331	28811.3
722.674	28589.16
723.016	28680.23
723.359	28456.29
723.701	28561.82
724.044	28437.08
724.386	28285.22
724.729	28405.21
725.071	28232.11
725.413	28301.94
725.755	28183.3
726.097	28121.38
726.439	27941.27
726.782	28000.48
727.124	28087.71
727.465	27939.24
727.807	27945.56
728.149	27833.48
728.491	27804.1
728.833	27819.01
729.175	27762.52
729.516	27713.25
729.858	27564.78
730.199	27666.48
730.541	27713.48
730.882	27667.83
731.224	27647.49
731.565	27465.58
731.906	27614.95
732.248	27518.68
732.589	27356.88
732.93	27276.66
733.271	27282.53
733.612	27315.98
733.953	27285.24
734.294	27225.81
734.635	27181.06
734.976	27158.01
735.317	26975.42
735.658	27026.04
735.999	27045.7
736.339	26972.93
736.68	27082.76
737.021	27057
737.361	26884.58
737.702	27038.7
738.042	26954.18
738.383	26826.05
738.723	26821.98
739.063	26719.16
739.404	26761.87
739.744	26705.37
740.084	26571.82
740.424	26702.43
740.764	26606.16
741.104	26736.33
741.444	26552.15
741.784	26273.52
742.124	26560.52
742.464	26403.23
742.804	26352.84
743.143	26391.26
743.483	26409.11
743.823	26272.16
744.162	26265.83
744.502	26226.29
744.841	26087.76
745.181	26343.57
745.52	26174.54
745.86	26224.71
746.199	26174.99
746.538	26111.94
746.877	26114.2
747.216	26134.09
747.556	25925.28
747.895	26035.78
748.234	25900.19
748.573	25862
748.911	25976.12
749.25	25806.86
749.589	25597.15
749.928	25720.31
750.267	25750.59
750.605	25600.54
750.944	25681.67
751.283	25558.06
751.621	25633.54
751.96	25536.81
752.298	25540.66
752.636	25418.17
752.975	25351.51
753.313	25254.56
753.651	25478.28
753.989	25219.53
754.327	25220.44
754.666	25107.9
755.004	25183.6
755.342	25187.9
755.679	25125.98
756.017	24939.99
756.355	25040.33
756.693	24845.31
757.031	24878.98
757.368	24765.99
757.706	24662.26
758.044	24648.7
758.381	24745.87
758.719	24582.94
759.056	24612.77
759.394	24584.07
759.731	24257.75
760.068	24363.51
760.405	24231.76
760.743	24249.39
761.08	24212.33
761.417	24162.16
761.754	24169.62
762.091	23897.99
762.428	23820.7
762.765	23666.36
763.102	23830.42
763.438	23703.42
763.775	23594.27
764.112	23679.91
764.449	23677.65
764.785	23507.72
765.122	23471.56
765.458	23202.41
765.795	23167.61
766.131	23262.98
766.467	23154.96
766.804	23000.16
767.14	23066.37
767.476	22895.98
767.812	22823.67
768.148	22905.02
768.485	22678.58
768.821	22640.85
769.157	22577.8
769.492	22357.24
769.828	22524.92
770.164	22309.33
770.5	22258.71
770.836	22387.97
771.171	22121.31
771.507	22097.58
771.842	21943.46
772.178	21969.45
772.513	21910.02
772.849	21771.94
773.184	21695.11
773.519	21734.88
773.855	21658.27
774.19	21503.02
774.525	21409.69
774.86	21399.75
775.195	21354.78
775.53	21252.41
775.865	21182.35
776.2	20985.07
776.535	20865.52
776.87	20835.24
777.205	20730.61
777.539	20672.54
777.874	20835.7
778.209	20586.66
778.543	20489.49
778.878	20475.7
779.212	20367.23
779.547	20280.23
779.881	20390.51
780.215	20109.16
780.55	20331.3
780.884	20013.34
781.218	20114.58
781.552	20018.99
781.886	19887.25
782.22	19817.42
782.554	19792.56
782.888	19567.48
783.222	19508.27
783.556	19515.96
783.889	19338.33
784.223	19278.67
784.557	19258.79
784.89	19230.77
785.224	19139.02
785.557	19108.96
785.891	18968.17
786.224	18861.28
786.558	18976.53
786.891	18800.04
787.224	18716.65
787.557	18731.8
787.891	18631.46
788.224	18603.66
788.557	18692.47
788.89	18417.68
789.223	18541.07
789.556	18330.68
789.888	18248.64
790.221	18328.42
790.554	18152.38
790.887	18090
791.219	18023.57
791.552	17979.72
791.884	17871.71
792.217	17843.68
792.549	17791.26
792.882	17651.37
793.214	17587.87
793.546	17627.42
793.879	17505.61
794.211	17359.63
794.543	17426.97
794.875	17332.28
795.207	17364.15
795.539	17361.44
795.871	17342
796.203	17222.68
796.535	17080.54
796.867	16971.16
797.198	17071.27
797.53	16926.87
797.862	16876.25
798.193	16919.87
798.525	16799.42
798.856	16758.97
799.188	16652.75
799.519	16641
799.85	16539.31
800.182	16576.15
800.513	16440.33
800.844	16384.06
801.175	16418.86
801.506	16377.06
801.837	16284.18
802.168	16329.82
802.499	16159.66
802.83	16156.95
803.161	16069.04
803.491	16062.94
803.822	16125.99
804.153	15959.67
804.483	15831.08
804.814	15738.88
805.145	15844.64
805.475	15686.45
805.805	15746.56
806.136	15679.9
806.466	15588.83
806.796	15651.88
807.126	15541.37
807.457	15510.41
807.787	15477.64
808.117	15454.37
808.447	15309.51
808.777	15333.01
809.107	15256.63
809.436	15222.28
809.766	15196.52
810.096	15165.11
810.426	15093.02
810.755	15126.01
811.085	15094.15
811.414	15058.67
811.744	14912.69
812.073	14893.93
812.403	14841.05
812.732	14816.87
813.061	14789.75
813.39	14796.76
813.719	14650.1
814.049	14728.06
814.378	14705.91
814.707	14558.57
815.036	14642.64
815.365	14461.4
815.693	14361.97
816.022	14460.72
816.351	14390.44
816.68	14313.83
817.008	14329.2
817.337	14283.78
817.665	14227.51
817.994	14231.12
818.322	14237.45
818.651	14190.45
818.979	14129.88
819.307	14188.19
819.636	14166.72
819.964	14035.87
820.292	14073.16
820.62	14060.73
820.948	14015.54
821.276	14016.21
821.604	13997.91
821.932	14074.52
822.259	14030.45
822.587	14015.54
822.915	14023.22
823.243	13990.45
823.57	13901.19
823.898	13910
824.225	13871.36
824.553	13956.78
824.88	13828.42
825.207	13918.36
825.535	13959.72
825.862	13938.7
826.189	13861.87
826.516	13963.11
826.843	13940.28
827.17	13926.5
827.497	13931.7
827.824	13985.03
828.151	14004.69
828.478	13891.7
828.805	13972.15
829.131	13874.3
829.458	13880.17
829.785	13795.88
830.111	13829.1
830.438	13899.15
830.764	13860.96
831.09	13819.61
831.417	13835.88
831.743	13960.4
832.069	13867.52
832.395	13802.66
832.722	13771.7
833.048	13825.71
833.374	13865.48
833.7	13763.56
834.026	13773.51
834.351	13827.97
834.677	13802.89
835.003	13760.63
835.329	13800.85
835.654	13674.53
835.98	13690.8
836.306	13750.01
836.631	13701.65
836.956	13723.57
837.282	13706.84
837.607	13569.45
837.932	13579.84
838.258	13592.04
838.583	13567.19
838.908	13540.52
839.233	13493.52
839.558	13453.97
839.883	13377.13
840.208	13294.42
840.533	13401.31
840.858	13370.13
841.182	13418.26
841.507	13414.87
841.832	13314.08
842.156	13300.75
842.481	13322.67
842.805	13289.68
843.13	13248.32
843.454	13142.11
843.778	13159.96
844.103	13107.76
844.427	13071.15
844.751	13049.01
845.075	13083.58
845.399	13033.87
845.723	12910.93
846.047	12948.44
846.371	12767.21
846.695	12814.89
847.019	12645.4
847.343	12644.95
847.666	12623.71
847.99	12461.45
848.313	12537.16
848.637	12509.13
848.96	12398.4
849.284	12420.55
849.607	12314.34
849.931	12317.5
850.254	12165.19
850.577	12133.78
850.9	12063.95
851.223	12117.73
851.546	12061.24
851.869	11921.81
852.192	12022.14
852.515	11847.68
852.838	11820.56
853.161	11804.97
853.483	11655.37
853.806	11728.36
854.129	11710.29
854.451	11674.13
854.774	11601.59
855.096	11581.25
855.419	11546.22
855.741	11519.56
856.063	11402.5
856.385	11463.74
856.708	11388.71
857.03	11348.49
857.352	11312.78
857.674	11344.19
857.996	11268.94
858.318	11190.3
858.64	11219.45
858.961	11235.72
859.283	11120.47
859.605	11101.94
859.926	11108.04
860.248	11087.93
860.57	11043.64
860.891	11001.83
861.212	11033.69
861.534	10869.18
861.855	10893.58
862.176	10954.6
862.498	10905.56
862.819	10922.06
863.14	10770.2
863.461	10836.18
863.782	10820.82
864.103	10782.4
864.424	10809.29
864.745	10742.63
865.065	10718.45
865.386	10692.23
865.707	10732.01
866.027	10659.92
866.348	10676.64
866.668	10572.91
866.989	10579.47
867.309	10475.74
867.63	10567.94
867.95	10634.83
868.27	10542.18
868.59	10586.02
868.91	10524.33
869.23	10431
869.55	10418.57
869.87	10479.36
870.19	10350.55
870.51	10368.85
870.83	10383.99
871.15	10318.91
871.469	10401.39
871.789	10417.89
872.109	10293.83
872.428	10348.29
872.748	10292.47
873.067	10271.68
873.386	10278.01
873.706	10305.8
874.025	10224
874.344	10215.64
874.663	10230.32
874.982	10219.7
875.301	10160.27
875.62	10068.97
875.939	10113.49
876.258	10024.68
876.577	9994.62
876.896	10018.58
877.214	10049.99
877.533	10017.9
877.852	9970.9
878.17	10004.79
878.489	9988.07
878.807	9965.47
879.125	9977.9
879.444	9965.25
879.762	9893.84
880.08	9922.08
880.398	9855.87
880.716	9929.54
881.034	9869.88
881.352	9840.73
881.67	9765.25
881.988	9821.52
882.306	9816.55
882.624	9715.54
882.941	9734.52
883.259	9704.69
883.577	9609.55
883.894	9690.23
884.212	9540.17
884.529	9587.4
884.846	9586.95
885.164	9585.82
885.481	9585.37
885.798	9499.95
886.115	9520.51
886.432	9456.79
886.75	9478.48
887.067	9470.8
887.383	9381.98
887.7	9439.84
888.017	9381.31
888.334	9374.08
888.651	9343.79
888.967	9311.48
889.284	9281.42
889.6	9265.38
889.917	9234.42
890.233	9274.64
890.55	9189.22
890.866	9122.56
891.182	9115.33
891.498	9117.59
891.815	9000.75
892.131	9036.68
892.447	9026.06
892.763	8996.23
893.079	8952.39
893.395	8953.75
893.71	8946.52
894.026	8921.88
894.342	8903.13
894.657	8824.49
894.973	8820.64
895.289	8801.89
895.604	8778.84
895.92	8715.11
896.235	8638.5
896.55	8675.34
896.865	8617.94
897.181	8632.17
897.496	8613.42
897.811	8557.83
898.126	8532.52
898.441	8500.88
898.756	8463.82
899.071	8412.07
899.386	8457.04
899.7	8376.36
900.015	8341.33
900.33	8270.15
900.644	8267.44
900.959	8269.92
901.273	8242.13
901.588	8194.22
901.902	8110.61
902.216	8178.85
902.531	8114.22
902.845	8114.45
903.159	8139.31
903.473	7998.07
903.787	7988.58
904.101	7915.81
904.415	7956.03
904.729	7933.89
905.042	7941.34
905.356	7874.23
905.67	7792.42
905.984	7837.84
906.297	7785.64
906.611	7767.79
906.924	7718.98
907.237	7681.46
907.551	7650.05
907.864	7608.92
908.177	7658.19
908.491	7580.45
908.804	7562.15
909.117	7505.42
909.43	7428.14
909.743	7472.2
910.056	7408.03
910.368	7342.72
910.681	7325.77
910.994	7281.48
911.307	7293
911.619	7230.18
911.932	7225.88
912.244	7143.85
912.557	7136.17
912.869	7068.83
913.181	7126.68
913.494	7055.04
913.806	7004.65
914.118	7046.91
914.43	6955.61
914.742	6955.61
915.054	6909.06
915.366	6914.71
915.678	6865.21
915.99	6903.86
916.302	6790.41
916.613	6806.23
916.925	6727.82
917.236	6782.73
917.548	6736.63
917.859	6690.08
918.171	6631.32
918.482	6589.97
918.794	6600.59
919.105	6617.76
919.416	6542.74
919.727	6523.98
920.038	6512
920.349	6423.64
920.66	6454.15
920.971	6434.94
921.282	6421.61
921.593	6410.54
921.903	6328.51
922.214	6320.6
922.525	6276.98
922.835	6250.99
923.146	6192.92
923.456	6229.75
923.767	6195.4
924.077	6174.84
924.387	6098.91
924.697	6126.25
925.008	6109.3
925.318	6046.25
925.628	6049.19
925.938	5992.7
926.248	5976.2
926.558	5900.27
926.867	5951.11
927.177	5927.39
927.487	5849.65
927.796	5846.48
928.106	5829.31
928.416	5760.16
928.725	5775.53
929.034	5739.37
929.344	5746.6
929.653	5719.93
929.962	5706.38
930.271	5675.64
930.581	5680.84
930.89	5571.46
931.199	5579.37
931.508	5563.33
931.817	5591.8
932.125	5491.69
932.434	5498.92
932.743	5451.24
933.051	5350
933.36	5380.51
933.669	5385.25
933.977	5375.76
934.286	5303.45
934.594	5291.92
934.902	5274.97
935.21	5264.58
935.519	5289.44
935.827	5236.56
936.135	5217.12
936.443	5173.28
936.751	5123.11
937.059	5124.02
937.367	5122.44
937.674	5087.18
937.982	5048.09
938.29	5094.19
938.597	5067.52
938.905	4975.32
939.213	5008.54
939.52	4921.99
939.827	4995.89
940.135	4880.41
940.442	4881.31
940.749	4864.59
941.056	4888.77
941.363	4873.4
941.67	4839.73
941.977	4824.36
942.284	4775.78
942.591	4756.12
942.898	4744.82
943.205	4687.42
943.511	4689.23
943.818	4723.12
944.125	4635.67
944.431	4658.27
944.738	4659.85
945.044	4594.09
945.35	4580.08
945.657	4540.98
945.963	4533.52
946.269	4503.47
946.575	4541.21
946.881	4453.08
947.187	4455.56
947.493	4430.48
947.799	4408.78
948.105	4401.55
948.41	4374.66
948.716	4359.52
949.022	4350.25
949.327	4421.66
949.633	4293.31
949.938	4294.89
950.244	4284.27
950.549	4272.06
950.854	4228.9
951.16	4213.99
951.465	4232.29
951.77	4169.47
952.075	4183.93
952.38	4192.97
952.685	4139.64
952.99	4100.09
953.294	4123.14
953.599	4075.01
953.904	4013.99
954.209	4038.4
954.513	4056.02
954.818	4024.16
955.122	4024.16
955.426	3982.35
955.731	3929.25
956.035	3960.66
956.339	3940.09
956.643	3922.47
956.948	3878.4
957.252	3875.24
957.556	3822.81
957.86	3833.88
958.163	3823.26
958.467	3813.09
958.771	3780.1
959.075	3781.23
959.378	3745.97
959.682	3704.17
959.985	3722.7
960.289	3711.17
960.592	3696.48
960.896	3647.22
961.199	3687.67
961.502	3659.88
961.805	3587.11
962.108	3617.16
962.411	3608.13
962.714	3632.76
963.017	3590.27
963.32	3588.69
963.623	3535.36
963.926	3522.48
964.228	3497.62
964.531	3518.86
964.833	3496.49
965.136	3470.95
965.438	3488.81
965.741	3469.37
966.043	3414.91
966.345	3378.08
966.648	3405.87
966.95	3366.32
967.252	3361.8
967.554	3329.26
967.856	3328.36
968.158	3295.82
968.46	3288.13
968.761	3281.81
969.063	3287.91
969.365	3240.68
969.666	3254.46
969.968	3245.65
970.269	3253.11
970.571	3215.37
970.872	3167.69
971.174	3185.76
971.475	3145.54
971.776	3173.33
972.077	3141.92
972.378	3121.81
972.679	3078.87
972.98	3116.84
973.281	3121.58
973.582	3095.82
973.883	3024.19
974.183	3039.78
974.484	3049.95
974.785	2997.07
975.085	2997.07
975.386	2993.45
975.686	2999.1
975.986	2974.92
976.287	2928.6
976.587	2910.52
976.887	2927.24
977.187	2896.05
977.487	2900.12
977.787	2867.35
978.087	2840.91
978.387	2887.01
978.687	2831.65
978.987	2833.23
979.286	2828.94
979.586	2829.16
979.885	2786.68
980.185	2797.98
980.484	2761.14
980.784	2753.01
981.083	2796.62
981.382	2732.22
981.682	2713.91
981.981	2680.24
982.28	2689.05
982.579	2690.64
982.878	2661.03
983.177	2669.85
983.475	2644.76
983.774	2621.03
984.073	2602.95
984.372	2622.16
984.67	2616.97
984.969	2636.4
985.267	2610.64
985.566	2573.58
985.864	2545.33
986.162	2547.14
986.461	2547.81
986.759	2546.68
987.057	2501.49
987.355	2514.59
987.653	2503.07
987.951	2453.81
988.249	2461.26
988.547	2420.59
988.844	2446.8
989.142	2455.39
989.44	2429.17
989.737	2419.68
990.035	2412.9
990.332	2356.86
990.63	2357.54
990.927	2386.01
991.224	2320.02
991.521	2340.36
991.819	2293.13
992.116	2299.23
992.413	2309.85
992.71	2333.81
993.006	2285.67
993.303	2279.35
993.6	2247.71
993.897	2215.85
994.193	2255.17
994.49	2256.52
994.787	2251.78
995.083	2220.82
995.379	2228.95
995.676	2196.19
995.972	2184.89
996.268	2165.9
996.565	2185.34
996.861	2169.07
997.157	2125.9
997.453	2145.79
997.749	2124.55
998.044	2120.25
998.34	2112.8
998.636	2092.23
998.932	2092.01
999.227	2047.49
999.523	2034.83
999.818	2059.92
1000.114	2029.64
1000.409	2017.88
1000.704	2016.53
1001	1987.15
1001.295	1979.02
1001.59	1981.95
1001.885	1989.64
1002.18	1961.16
1002.475	1981.28
1002.77	1938.79
1003.065	1914.61
1003.359	1927.72
1003.654	1896.76
1003.949	1913.03
1004.243	1876.87
1004.538	1895.85
1004.832	1883.43
1005.127	1864.22
1005.421	1828.06
1005.715	1828.96
1006.009	1857.66
1006.304	1828.29
1006.598	1814.05
1006.892	1786.03
1007.186	1810.66
1007.48	1786.25
1007.773	1780.83
1008.067	1786.03
1008.361	1760.72
1008.655	1760.72
1008.948	1725.01
1009.242	1710.1
1009.535	1718.01
1009.829	1713.26
1010.122	1711.68
1010.415	1685.24
1010.708	1704.67
1011.001	1663.77
1011.295	1645.47
1011.588	1636.65
1011.881	1638.46
1012.173	1619.25
1012.466	1593.49
1012.759	1626.93
1013.052	1578.35
1013.344	1614.73
1013.637	1590.1
1013.93	1582.19
1014.222	1561.85
1014.514	1551
1014.807	1530.21
1015.099	1529.76
1015.391	1530.44
1015.683	1533.6
1015.976	1518.91
1016.268	1493.83
1016.56	1473.72
1016.851	1473.27
1017.143	1497.9
1017.435	1476.2
1017.727	1449.99
1018.018	1463.78
1018.31	1458.58
1018.602	1429.2
1018.893	1436.66
1019.185	1427.17
1019.476	1409.54
1019.767	1411.57
1020.058	1381.97
1020.35	1348.52
1020.641	1370.9
1020.932	1353.04
1021.223	1366.38
1021.514	1348.3
1021.804	1292.93
1022.095	1322.76
1022.386	1323.89
1022.677	1313.95
1022.967	1290.67
1023.258	1272.37
1023.548	1280.96
1023.839	1284.8
1024.129	1269.43
1024.419	1272.59
1024.709	1274.18
1025	1252.48
1025.29	1207.74
1025.58	1199.83
1025.87	1202.99
1026.16	1210.67
1026.449	1202.76
1026.739	1202.31
1027.029	1146.72
1027.319	1200.51
1027.608	1171.35
1027.898	1152.6
1028.187	1173.84
1028.477	1142.88
1028.766	1125.93
1029.055	1104.01
1029.344	1111.92
1029.634	1125.03
1029.923	1112.82
1030.212	1085.25
1030.501	1092.71
1030.79	1085.03
1031.078	1071.02
1031.367	1097.68
1031.656	1071.92
1031.945	1065.59
1032.233	1041.64
1032.522	1064.69
1032.81	1048.87
1033.099	1020.85
1033.387	1020.85
1033.675	1033.73
1033.963	1020.85
1034.251	1017.01
1034.54	1022.43
1034.828	970
1035.116	975.88
1035.403	992.38
1035.691	976.1
1035.979	969.55
1036.267	951.25
1036.554	956.44
1036.842	938.59
1037.129	965.26
1037.417	949.89
1037.704	931.13
1037.992	947.4
1038.279	951.47
1038.566	918.03
1038.853	918.03
1039.14	918.03
