Data from red_cardboard_box_FLMS001491_00015.txt Node
Date: Wed Feb 08 11:31:36 GMT 2017
User: dcchb
Spectrometer: FLMS00149
Trigger mode: 0
Integration Time (sec): 2.000000E-2
Scans to average: 10
Electric dark correction enabled: true
Nonlinearity correction enabled: false
Boxcar width: 0
XAxis mode: Wavelengths
Number of Pixels in Spectrum: 2048
>>>>>Begin Spectral Data<<<<<
341.393	-18.8
341.776	-18.8
342.16	-18.8
342.543	-70.32
342.927	-55.18
343.31	-86.14
343.693	-62.19
344.077	-81.62
344.46	-57.67
344.843	-51.34
345.226	-47.27
345.61	-26.93
345.993	-26.03
346.376	-4.11
346.759	9.67
347.142	21.2
347.525	48.54
347.908	67.53
348.291	79.96
348.674	95.32
349.057	121.08
349.44	126.51
349.823	141.87
350.206	160.41
350.588	202.44
350.971	210.57
351.354	205.38
351.737	225.71
352.119	247.63
352.502	259.61
352.884	297.8
353.267	286.05
353.65	305.49
354.032	294.19
354.414	309.1
354.797	310.23
355.179	328.99
355.562	314.75
355.944	311.59
356.326	316.33
356.709	330.34
357.091	350.91
357.473	321.98
357.855	342.1
358.238	339.38
358.62	350.23
359.002	349.78
359.384	357.91
359.766	359.95
360.148	346.84
360.53	357.91
360.912	333.96
361.294	344.58
361.676	349.33
362.057	338.25
362.439	327.18
362.821	353.39
363.203	314.3
363.584	337.12
363.966	317.92
364.348	331.7
364.729	323.56
365.111	301.64
365.493	319.95
365.874	281.31
366.256	320.4
366.637	320.63
367.019	308.42
367.4	325.37
367.781	326.28
368.163	308.88
368.544	305.71
368.925	310.91
369.306	295.32
369.688	307.75
370.069	321.76
370.45	309.33
370.831	321.98
371.212	305.49
371.593	322.66
371.974	307.29
372.355	308.88
372.736	313.4
373.117	311.36
373.498	316.33
373.879	313.17
374.26	309.78
374.641	316.11
375.021	320.18
375.402	328.08
375.783	299.16
376.163	291.25
376.544	314.07
376.925	322.44
377.305	303.23
377.686	305.03
378.066	323.34
378.447	306.39
378.827	335.32
379.208	317.01
379.588	320.4
379.968	314.75
380.349	334.19
380.729	331.02
381.109	315.2
381.489	332.15
381.87	311.14
382.25	337.35
382.63	324.69
383.01	337.8
383.39	347.29
383.77	334.19
384.15	337.35
384.53	313.17
384.91	314.07
385.29	340.97
385.67	324.24
386.049	349.78
386.429	335.32
386.809	331.25
387.189	345.71
387.568	337.58
387.948	327.18
388.328	339.16
388.707	351.13
389.087	329.21
389.466	355.65
389.846	358.14
390.225	335.32
390.605	338.48
390.984	351.81
391.363	347.97
391.743	333.96
392.122	362.43
392.501	337.12
392.881	358.14
393.26	353.17
393.639	361.98
394.018	336.9
394.397	356.11
394.776	363.56
395.155	376.67
395.534	369.21
395.913	330.34
396.292	360.17
396.671	350
397.05	369.67
397.429	377.57
397.808	352.72
398.186	384.81
398.565	355.88
398.944	365.6
399.323	352.49
399.701	364.69
400.08	368.31
400.458	363.56
400.837	380.51
401.215	366.73
401.594	356.78
401.972	360.63
402.351	376.9
402.729	361.3
403.107	349.55
403.486	357.91
403.864	370.57
404.242	359.04
404.62	381.19
404.999	373.51
405.377	370.57
405.755	385.26
406.133	394.98
406.511	374.86
406.889	369.21
407.267	390.68
407.645	397.01
408.023	404.69
408.401	399.95
408.779	408.31
409.156	394.52
409.534	387.07
409.912	409.44
410.29	418.03
410.667	403.79
411.045	396.78
411.422	402.43
411.8	409.89
412.178	400.63
412.555	415.77
412.933	382.55
413.31	398.37
413.687	415.99
414.065	402.66
414.442	420.06
414.819	421.87
415.197	422.32
415.574	412.83
415.951	412.15
416.328	421.42
416.705	419.61
417.082	422.55
417.46	405.6
417.837	434.97
418.214	432.71
418.591	413.96
418.967	426.16
419.344	423
419.721	432.71
420.098	413.28
420.475	424.58
420.852	424.58
421.228	461.64
421.605	465.48
421.982	444.47
422.358	448.08
422.735	443.79
423.111	463.22
423.488	455.76
423.864	443.34
424.241	457.57
424.617	470.45
424.994	453.73
425.37	448.76
425.746	470
426.123	461.41
426.499	482.88
426.875	473.39
427.251	456.67
427.627	475.65
428.003	474.3
428.379	490.11
428.756	469.78
429.132	473.17
429.507	497.12
429.883	481.07
430.259	470
430.635	497.12
431.011	507.06
431.387	500.51
431.763	507.51
432.138	498.02
432.514	532.6
432.89	510.9
433.265	507.97
433.641	510.45
434.016	514.75
434.392	495.76
434.767	535.31
435.143	530.79
435.518	520.85
435.894	504.8
436.269	537.34
436.644	561.75
437.02	542.77
437.395	547.06
437.77	547.51
438.145	556.33
438.52	554.52
438.895	547.29
439.271	555.65
439.646	535.31
440.021	537.34
440.395	577.12
440.77	560.39
441.145	542.54
441.52	555.88
441.895	556.78
442.27	583.67
442.645	585.7
443.019	577.12
443.394	578.25
443.769	601.75
444.143	552.49
444.518	570.11
444.892	584.58
445.267	578.93
445.641	590.9
446.016	603.56
446.39	586.61
446.764	571.92
447.139	584.58
447.513	603.56
447.887	594.52
448.262	597
448.636	605.82
449.01	611.69
449.384	609.89
449.758	616.44
450.132	612.82
450.506	613.73
450.88	628.64
451.254	623.67
451.628	622.77
452.002	635.65
452.376	618.02
452.75	643.56
453.123	625.03
453.497	665.93
453.871	626.83
454.244	661.64
454.618	642.2
454.992	644.91
455.365	655.31
455.739	670.9
456.112	658.92
456.486	702.99
456.859	678.36
457.232	654.4
457.606	682.2
457.979	677.68
458.352	702.99
458.725	694.4
459.099	713.61
459.472	710.45
459.845	702.76
460.218	721.97
460.591	735.53
460.964	699.6
461.337	723.78
461.71	748.41
462.083	737.11
462.456	736.21
462.829	746.38
463.201	740.73
463.574	778.24
463.947	755.42
464.32	760.16
464.692	785.25
465.065	785.25
465.438	800.84
465.81	782.76
466.183	796.55
466.555	789.32
466.928	793.61
467.3	812.37
467.672	805.13
468.045	809.2
468.417	810.56
468.789	834.96
469.161	855.53
469.534	852.82
469.906	829.54
470.278	837.9
470.65	861.63
471.022	886.94
471.394	879.48
471.766	903.44
472.138	892.14
472.51	897.56
472.882	948.41
473.253	930.1
473.625	956.77
473.997	930.78
474.369	940.95
474.74	938.92
475.112	966.26
475.484	973.49
475.855	1006.94
476.227	991.34
476.598	1006.48
476.97	1021.85
477.341	1041.96
477.713	1045.58
478.084	1049.87
478.455	1066.14
478.827	1074.05
479.198	1119.48
479.569	1119.93
479.94	1107.95
480.311	1132.81
480.682	1149.31
481.053	1151.79
481.424	1174.16
481.795	1194.05
482.166	1196.76
482.537	1200.38
482.908	1209.64
483.279	1202.86
483.65	1264.56
484.021	1282.86
484.391	1278.79
484.762	1277.21
485.133	1311.56
485.503	1311.56
485.874	1335.74
486.244	1348.62
486.615	1363.31
486.985	1388.4
487.356	1407.83
487.726	1397.44
488.097	1424.55
488.467	1422.07
488.837	1450.31
489.207	1490.09
489.578	1487.6
489.948	1480.14
490.318	1506.13
490.688	1538
491.058	1519.69
491.428	1556.75
491.798	1553.36
492.168	1573.25
492.538	1613.47
492.908	1618.45
493.278	1635.85
493.648	1625.9
494.017	1662.96
494.387	1678.56
494.757	1700.93
495.126	1672.46
495.496	1712
495.866	1741.61
496.235	1711.55
496.605	1755.17
496.974	1794.71
497.344	1760.36
497.713	1796.07
498.082	1767.59
498.452	1808.95
498.821	1823.86
499.19	1813.02
499.559	1837.65
499.928	1841.27
500.298	1883.07
500.667	1915.16
501.036	1887.37
501.405	1895.73
501.774	1911.55
502.143	1926.91
502.512	1935.95
502.88	1931.66
503.249	1966.91
503.618	1976.85
503.987	1984.09
504.356	1946.35
504.724	1995.16
505.093	1991.54
505.462	2062.73
505.83	2051.2
506.199	2041.94
506.567	2081.03
506.936	2056.17
507.304	2105.44
507.672	2105.44
508.041	2109.51
508.409	2161.71
508.777	2147.47
509.145	2181.14
509.514	2190.18
509.882	2165.32
510.25	2229.28
510.618	2247.13
510.986	2248.26
511.354	2222.95
511.722	2265.89
512.09	2249.39
512.458	2281.71
512.826	2301.14
513.193	2316.51
513.561	2337.75
513.929	2328.48
514.297	2340.01
514.664	2376.17
515.032	2380.01
515.4	2377.97
515.767	2435.15
516.135	2418.88
516.502	2421.81
516.869	2469.95
517.237	2482.38
517.604	2470.4
517.972	2506.78
518.339	2520.34
518.706	2545.43
519.073	2556.5
519.44	2544.07
519.808	2601.25
520.175	2589.04
520.542	2578.87
520.909	2616.39
521.276	2647.35
521.643	2663.84
522.009	2654.58
522.376	2688.7
522.743	2694.58
523.11	2716.27
523.477	2748.36
523.843	2785.2
524.21	2815.7
524.577	2820.67
524.943	2827
525.31	2862.93
525.676	2876.94
526.043	2880.56
526.409	2937.28
526.776	2928.69
527.142	2944.51
527.508	2976.38
527.874	2979.54
528.241	3028.13
528.607	3024.51
528.973	3048.24
529.339	3032.19
529.705	3067.9
530.071	3111.97
530.437	3130.5
530.803	3147.9
531.169	3161.23
531.535	3152.42
531.901	3190.16
532.267	3196.71
532.632	3256.37
532.998	3255.69
533.364	3285.07
533.73	3272.87
534.095	3313.09
534.461	3320.77
534.826	3350.15
535.192	3387.67
535.557	3378.17
535.923	3387.21
536.288	3411.85
536.653	3412.98
537.019	3435.35
537.384	3443.48
537.749	3443.48
538.114	3535.23
538.479	3520.99
538.845	3553.76
539.21	3520.32
539.575	3541.79
539.94	3575.23
540.305	3555.8
540.67	3597.6
541.034	3593.08
541.399	3649.81
541.764	3619.07
542.129	3634.66
542.494	3676.7
542.858	3720.09
543.223	3682.12
543.587	3687.09
543.952	3689.8
544.316	3728
544.681	3752.18
545.045	3791.72
545.41	3839.86
545.774	3803.47
546.138	3845.28
546.503	3844.15
546.867	3836.24
547.231	3842.57
547.595	3886.86
547.959	3948.1
548.324	3939.06
548.688	3990.59
549.052	3995.56
549.416	3977.25
549.779	4001.89
550.143	4027.42
550.507	4058.38
550.871	4099.06
551.235	4103.8
551.599	4159.4
551.962	4168.89
552.326	4128.44
552.689	4246.17
553.053	4204.37
553.417	4217.93
553.78	4315.1
554.143	4303.35
554.507	4298.83
554.87	4358.94
555.234	4362.33
555.597	4369.79
555.96	4459.28
556.323	4512.61
556.686	4461.54
557.05	4548.54
557.413	4520.74
557.776	4597.35
558.139	4657.24
558.502	4607.97
558.865	4634.86
559.228	4708.53
559.59	4756.22
559.953	4809.1
560.316	4827.18
560.679	4852.26
561.041	4872.37
561.404	4936.78
561.767	5003.44
562.129	4928.19
562.492	5042.99
562.854	5073.72
563.217	5092.03
563.579	5159.14
563.941	5215.64
564.304	5233.04
564.666	5250.89
565.028	5309.87
565.39	5344.9
565.753	5427.39
566.115	5458.12
566.477	5468.74
566.839	5533.82
567.201	5609.53
567.563	5591.68
567.925	5688.62
568.287	5726.59
568.648	5691.33
569.01	5825.34
569.372	5872.57
569.734	5933.59
570.095	6019.91
570.457	6030.08
570.819	6090.42
571.18	6117.99
571.542	6153.47
571.903	6214.94
572.265	6305.78
572.626	6402.5
572.987	6424.42
573.349	6472.33
573.71	6548.71
574.071	6586.45
574.432	6656.51
574.794	6753.9
575.155	6778.99
575.516	6807.91
575.877	6928.81
576.238	6981.47
576.599	7063.05
576.96	7069.38
577.32	7158.19
577.681	7305.08
578.042	7384.85
578.403	7432.76
578.763	7484.51
579.124	7619.19
579.485	7720.88
579.845	7833.65
580.206	7856.7
580.566	7929.24
580.927	8073.64
581.287	8239.51
581.648	8222.79
582.008	8409.45
582.368	8571.26
582.728	8674.08
583.089	8775.32
583.449	8875.2
583.809	9010.34
584.169	9159.04
584.529	9226.61
584.889	9490.33
585.249	9571.68
585.609	9702.08
585.969	9924.67
586.329	10010.32
586.688	10213.02
587.048	10313.58
587.408	10535.5
587.768	10732.1
588.127	10886.68
588.487	11055.49
588.846	11360.56
589.206	11480.79
589.565	11688.92
589.925	11912.41
590.284	12179.52
590.643	12330.71
591.003	12647.08
591.362	12905.61
591.721	13068.54
592.08	13356.44
592.44	13621.52
592.799	13852.7
593.158	14090.43
593.517	14369.75
593.876	14702.85
594.235	14897.87
594.593	15223.29
594.952	15555.03
595.311	15848.58
595.67	16120.44
596.029	16495.34
596.387	16821.89
596.746	17101.2
597.104	17371.03
597.463	17709.55
597.822	17994.51
598.18	18294.62
598.538	18528.28
598.897	19060.02
599.255	19118.78
599.613	19738.87
599.972	19958.98
600.33	20423.38
600.688	20672.41
601.046	21143.36
601.404	21420.19
601.762	21677.13
602.12	22053.84
602.478	22354.4
602.836	22697.89
603.194	22964.55
603.552	23346.69
603.91	23480.7
604.268	23996.39
604.625	24169.72
604.983	24611.51
605.341	24774.45
605.698	25144.38
606.056	25551.15
606.413	25848.54
606.771	26211.92
607.128	26460.05
607.485	26733.49
607.843	26896.88
608.2	27314.27
608.557	27580.93
608.914	27703.86
609.272	28204.19
609.629	28438.08
609.986	28690.5
610.343	28867.45
610.7	29396.02
611.057	29543.59
611.414	29722.79
611.771	29957.14
612.127	30351.7
612.484	30523.45
612.841	30850.22
613.198	30764.57
613.554	31044.79
613.911	31414.72
614.267	31632.8
614.624	31753.25
614.98	31937.2
615.337	32232.33
615.693	32357.75
616.05	32448.37
616.406	32974.91
616.762	32955.25
617.118	32889.04
617.475	33247.67
617.831	33515.91
618.187	33582.58
618.543	33886.75
618.899	34100.53
619.255	34204.03
619.611	34182.34
619.967	34511.14
620.323	34605.38
620.678	34618.71
621.034	34662.78
621.39	34911.36
621.746	35019.6
622.101	35420.5
622.457	35188.41
622.812	35360.84
623.168	35623.2
623.523	35660.26
623.879	35810.09
624.234	35636.99
624.589	35927.6
624.945	35932.12
625.3	36072.91
625.655	36166.01
626.01	36268.61
626.365	36421.15
626.72	36484.65
627.075	36403.07
627.43	36424.76
627.785	36559.22
628.14	36697.3
628.495	36854.36
628.85	36830.4
629.205	36694.59
629.559	37076.5
629.914	36980.91
630.269	36989.72
630.623	37068.36
630.978	37004.86
631.332	37113.11
631.687	37198.53
632.041	37077.63
632.396	37282.37
632.75	37189.04
633.104	37304.51
633.459	37140
633.813	37180.22
634.167	37187
634.521	37349.03
634.875	37421.12
635.229	37353.1
635.583	37180
635.937	37215.7
636.291	37400.33
636.645	37405.53
636.999	37203.5
637.352	37321.69
637.706	37195.36
638.06	37441.23
638.413	37287.11
638.767	37308.36
639.121	37413.66
639.474	37136.61
639.828	37217.06
640.181	37495.24
640.534	37365.75
640.888	37342.25
641.241	37208.02
641.594	37273.33
641.947	37525.75
642.301	37285.53
642.654	37390.16
643.007	37332.54
643.36	37352.2
643.713	37288.69
644.066	37501.12
644.419	37174.12
644.771	37009.15
645.124	36465.89
645.477	36634.02
645.83	36464.99
646.182	36278.1
646.535	36324.88
646.888	36420.24
647.24	36375.05
647.593	36493.46
647.945	36453.91
648.298	36337.53
648.65	36242.62
649.002	36324.65
649.355	36395.61
649.707	36347.02
650.059	36413.24
650.411	36994.92
650.763	37045.54
651.115	37366.43
651.467	37254.8
651.819	37261.8
652.171	37258.19
652.523	37169.83
652.875	37103.39
653.227	37049.83
653.578	37289.37
653.93	37151.75
654.282	37110.85
654.633	37023.62
654.985	36999.44
655.337	37155.14
655.688	37063.16
656.039	37276.72
656.391	36956.73
656.742	37034.46
657.094	37064.52
657.445	37161.92
657.796	36914.69
658.147	37024.52
658.498	37111.52
658.849	37003.28
659.2	37041.7
659.551	36901.81
659.902	36991.75
660.253	37033.56
660.604	36992.66
660.955	36827.01
661.306	37007.57
661.656	36938.65
662.007	36989.27
662.358	37213.44
662.708	37068.81
663.059	37077.85
663.409	36784.75
663.76	37082.15
664.11	37080.56
664.461	36976.84
664.811	37078.08
665.161	36913.79
665.511	36897.97
665.862	37051.86
666.212	37015.71
666.562	37051.64
666.912	36997.4
667.262	36966.22
667.612	37036.5
667.962	37030.4
668.312	36886.67
668.662	37221.8
669.011	37047.35
669.361	36917.63
669.711	36875.82
670.06	37010.28
670.41	36899.33
670.76	36765.54
671.109	36953.34
671.459	36857.52
671.808	36794.02
672.157	36917.86
672.507	36769.16
672.856	36638.09
673.205	36720.57
673.554	36705.89
673.904	36718.31
674.253	36820.23
674.602	36673.12
674.951	36133.02
675.3	36038.56
675.649	36623.63
675.998	36670.63
676.346	36647.13
676.695	36776.62
677.044	36524.87
677.393	36697.98
677.741	36588.83
678.09	36511.31
678.438	36413.01
678.787	36545.89
679.135	36562.39
679.484	36260.7
679.832	36403.29
680.181	36254.15
680.529	36323.52
680.877	36293.01
681.225	36173.47
681.573	36366.69
681.922	36157.42
682.27	36052.57
682.618	36048.73
682.966	35978.9
683.314	35995.62
683.661	35861.39
684.009	35669.3
684.357	35628.17
684.705	35603.77
685.053	35610.55
685.4	35663.88
685.748	35463.43
686.095	35468.63
686.443	35345.47
686.79	35325.58
687.138	35397.44
687.485	35316.77
687.832	35245.58
688.18	35331.91
688.527	35086.04
688.874	35103.89
689.221	34951.58
689.568	34799.95
689.915	34863
690.262	34947.97
690.609	34880.4
690.956	34621.87
691.303	34542.55
691.65	34437.47
691.997	34276.57
692.344	34303.24
692.69	34243.58
693.037	34161.32
693.383	33993.41
693.73	34045.62
694.077	33832.06
694.423	33823.7
694.769	33823.93
695.116	33669.81
695.462	33737.38
695.808	33488.79
696.155	33614.67
696.501	33434.33
696.847	33360.66
697.193	33146.2
697.539	33299.87
697.885	33023.72
698.231	32915.25
698.577	32974.68
698.923	32887.23
699.269	32739.44
699.614	32628.25
699.96	32571.53
700.306	32510.74
700.651	32396.85
700.997	32415.15
701.342	32179.9
701.688	32218.09
702.033	31997.99
702.379	32086.57
702.724	32067.82
703.069	32006.8
703.415	31796.41
703.76	31656.07
704.105	31872.34
704.45	31720.48
704.795	31485.91
705.14	31419.92
705.485	31510.32
705.83	31284.56
706.175	31360.26
706.52	31299.93
706.865	31026.49
707.209	31081.4
707.554	31056.54
707.899	31029.65
708.243	30795.08
708.588	30909.43
708.932	30633.28
709.277	30642.09
709.621	30599.83
709.966	30414.75
710.31	30395.32
710.654	30167.98
710.998	30299.73
711.342	30281.2
711.687	30194.64
712.031	30018.15
712.375	30020.19
712.719	29997.81
713.063	29828.33
713.407	30043.69
713.75	29897.48
714.094	29811.83
714.438	29651.16
714.782	29692.74
715.125	29637.82
715.469	29610.03
715.812	29368.9
716.156	29255.46
716.499	29320.77
716.843	29423.14
717.186	29227.21
717.53	29334.55
717.873	29352.41
718.216	29214.33
718.559	29203.48
718.902	28942.7
719.246	29096.14
719.589	28902.7
719.932	28865.41
720.275	28855.92
720.617	28848.92
720.96	28719.65
721.303	28836.71
721.646	28870.84
721.989	28558.98
722.331	28761.24
722.674	28518.53
723.016	28553.78
723.359	28497.51
723.701	28558.75
724.044	28342.72
724.386	28275.37
724.729	28333.9
725.071	28387.69
725.413	28373.67
725.755	28144.08
726.097	28050.29
726.439	28012.55
726.782	27970.07
727.124	28075.38
727.465	28021.82
727.807	27972.33
728.149	28001.48
728.491	27853.01
728.833	27859.34
729.175	27741.83
729.516	27661.83
729.858	27594.26
730.199	27724.65
730.541	27586.8
730.882	27566.46
731.224	27676.52
731.565	27492.57
731.906	27516.75
732.248	27487.37
732.589	27389.75
732.93	27248.73
733.271	27314.04
733.612	27213.93
733.953	27379.12
734.294	27259.35
734.635	27179.58
734.976	27304.32
735.317	27050.55
735.658	27169.64
735.999	27080.15
736.339	26997.21
736.68	27026.82
737.021	26965.12
737.361	26860.49
737.702	27085.35
738.042	26833.15
738.383	26771.91
738.723	26911.11
739.063	26661.63
739.404	26736.43
739.744	26718.13
740.084	26671.12
740.424	26722.42
740.764	26601.97
741.104	26744.11
741.444	26523.33
741.784	26290.34
742.124	26612.14
742.464	26470
742.804	26312.03
743.143	26423.67
743.483	26327.85
743.823	26226.16
744.162	26313.84
744.502	26402.65
744.841	26327.17
745.181	26248.98
745.52	26123.56
745.86	26191.81
746.199	26129.67
746.538	26088.54
746.877	26120.17
747.216	26011.48
747.556	26017.8
747.895	26090.57
748.234	25869.11
748.573	25928.99
748.911	25842.22
749.25	25836.79
749.589	25694.65
749.928	25780.52
750.267	25748.89
750.605	25679.73
750.944	25643.8
751.283	25588.89
751.621	25672.05
751.96	25422.34
752.298	25510.02
752.636	25455.79
752.975	25371.27
753.313	25288.11
753.651	25399.97
753.989	25268.22
754.327	25198.62
754.666	25103.25
755.004	25119.52
755.342	25123.59
755.679	25084.95
756.017	24939.19
756.355	25103.25
756.693	24918.85
757.031	24871.85
757.368	24809.47
757.706	24723.15
758.044	24707.1
758.381	24669.37
758.719	24606.32
759.056	24559.76
759.394	24679.99
759.731	24304.63
760.068	24421.24
760.405	24301.24
760.743	24162.49
761.08	24159.1
761.417	24116.39
761.754	24037.29
762.091	23972.43
762.428	23916.62
762.765	23798.2
763.102	23884.75
763.438	23754.36
763.775	23659.9
764.112	23604.53
764.449	23640.92
764.785	23438.44
765.122	23433.92
765.458	23248.84
765.795	23264.43
766.131	23161.61
766.467	23185.34
766.804	23082.97
767.14	22880.94
767.476	22971.33
767.812	22863.54
768.148	22854.72
768.485	22664.22
768.821	22645.69
769.157	22603.21
769.492	22559.82
769.828	22472.14
770.164	22235.31
770.5	22215.42
770.836	22319.37
771.171	22083.9
771.507	22106.04
771.842	21952.37
772.178	21991.24
772.513	21847.74
772.849	21828.76
773.184	21728.65
773.519	21589.67
773.855	21626.73
774.19	21562.1
774.525	21396.91
774.86	21429.68
775.195	21323.46
775.53	21256.35
775.865	21226.29
776.2	21123.92
776.535	20946.53
776.87	20868.11
777.205	20744.27
777.539	20747.89
777.874	20728.9
778.209	20662.92
778.543	20625.86
778.878	20379.99
779.212	20472.19
779.547	20155.81
779.881	20372.08
780.215	20201.69
780.55	20307.22
780.884	20091.18
781.218	20024.29
781.552	20009.6
781.886	19860.9
782.22	19764.86
782.554	19705.2
782.888	19597.63
783.222	19523.51
783.556	19465.43
783.889	19356.06
784.223	19228.6
784.557	19230.19
784.89	19356.51
785.224	19148.83
785.557	19035.39
785.891	19027.25
786.224	18938.22
786.558	18921.04
786.891	18712.23
787.224	18788.84
787.557	18714.27
787.891	18738.9
788.224	18629.75
788.557	18511.79
788.89	18554.72
789.223	18494.61
789.556	18364.67
789.888	18260.04
790.221	18216.2
790.554	18110.22
790.887	18068.41
791.219	18035.42
791.552	17977.56
791.884	17939.15
792.217	17858.92
792.549	17824.35
792.882	17673.17
793.214	17540.97
793.546	17540.74
793.879	17515.88
794.211	17350.46
794.543	17490.8
794.875	17357.92
795.207	17468.42
795.539	17362.21
795.871	17329.22
796.203	17140.98
796.535	17008.32
796.867	17048.32
797.198	17024.59
797.53	17027.31
797.862	16828.44
798.193	16898.95
798.525	16766.97
798.856	16842.23
799.188	16677.49
799.519	16669.58
799.85	16515.23
800.182	16557.49
800.513	16610.37
800.844	16387.1
801.175	16471.39
801.506	16345.97
801.837	16297.16
802.168	16268.23
802.499	16174
802.83	16115.01
803.161	16179.65
803.491	16041.8
803.822	16094.45
804.153	15991.63
804.483	15862.82
804.814	15802.48
805.145	15817.62
805.475	15809.71
805.805	15682.71
806.136	15699.21
806.466	15659.21
806.796	15595.25
807.126	15555.48
807.457	15522.04
807.787	15483.84
808.117	15360.68
808.447	15430.74
808.777	15449.04
809.107	15251.08
809.436	15226.9
809.766	15266.67
810.096	15257.86
810.426	15102.84
810.755	15141.48
811.085	15081.82
811.414	15032.78
811.744	14927.93
812.073	14952.33
812.403	14898.1
812.732	14821.49
813.061	14858.78
813.39	14743.07
813.719	14695.16
814.049	14754.15
814.378	14728.16
814.707	14587.37
815.036	14713.47
815.365	14546.02
815.693	14479.58
816.022	14446.13
816.351	14409.3
816.68	14312.8
817.008	14358.68
817.337	14288.85
817.665	14234.84
817.994	14171.79
818.322	14200.49
818.651	14145.12
818.979	14092.92
819.307	14178.79
819.636	14138.34
819.964	14009.76
820.292	14032.58
820.62	14157.78
820.948	14020.15
821.276	14078.91
821.604	14022.19
821.932	13993.04
822.259	14005.92
822.587	13967.05
822.915	14022.41
823.243	14021.96
823.57	13936.54
823.898	13978.8
824.225	13887.28
824.553	13897.67
824.88	13898.58
825.207	13999.82
825.535	13922.98
825.862	13936.99
826.189	13867.84
826.516	13939.48
826.843	13949.87
827.17	13943.09
827.497	14054.96
827.824	14013.6
828.151	13952.59
828.478	13904
828.805	13948.07
829.131	13868.07
829.458	13935.64
829.785	13859.93
830.111	13804.79
830.438	13861.06
830.764	13837.56
831.09	13906.26
831.417	13763.66
831.743	13906.94
832.069	13912.13
832.395	13830.55
832.722	13812.02
833.048	13808.41
833.374	13888.86
833.7	13741.29
834.026	13852.93
834.351	13913.94
834.677	13761.63
835.003	13830.1
835.329	13716.21
835.654	13776.32
835.98	13684.57
836.306	13739.71
836.631	13636.66
836.956	13716.21
837.282	13672.37
837.607	13597.79
837.932	13583.1
838.258	13615.64
838.583	13593.5
838.908	13511.24
839.233	13517.34
839.558	13560.28
839.883	13351.02
840.208	13414.07
840.533	13337.91
840.858	13376.1
841.182	13337.69
841.507	13371.13
841.832	13268.31
842.156	13335.43
842.481	13244.58
842.805	13215.66
843.13	13196.9
843.454	13194.19
843.778	13126.84
844.103	13048.2
844.427	13083
844.751	13114.19
845.075	12998.71
845.399	13021.76
845.723	12988.77
846.047	12961.42
846.371	12850.47
846.695	12796.23
847.019	12705.84
847.343	12692.73
847.666	12584.03
847.99	12485.28
848.313	12573.19
848.637	12473.08
848.96	12372.74
849.284	12396.02
849.607	12278.96
849.931	12309.46
850.254	12276.47
850.577	12138.17
850.9	12145.4
851.223	12128.9
851.546	12004.16
851.869	12008.68
852.192	11981.34
852.515	11922.13
852.838	11830.38
853.161	11794.68
853.483	11812.08
853.806	11799.87
854.129	11731.85
854.451	11661.12
854.774	11603.04
855.096	11575.25
855.419	11605.3
855.741	11508.13
856.063	11458.64
856.385	11440.56
856.708	11411.86
857.03	11363.27
857.352	11346.78
857.674	11360.79
857.996	11323.5
858.318	11214.8
858.64	11244.18
858.961	11165.09
859.283	11180.45
859.605	11153.79
859.926	11091.87
860.248	11064.07
860.57	11071.98
860.891	11024.07
861.212	10919.9
861.534	10942.95
861.855	10904.3
862.176	10954.47
862.498	10900.24
862.819	10933.46
863.14	10829.96
863.461	10843.74
863.782	10799.67
864.103	10802.84
864.424	10755.61
864.745	10781.6
865.065	10734.59
865.386	10738.66
865.707	10734.59
866.027	10751.09
866.348	10659.11
866.668	10652.78
866.989	10537.53
867.309	10558.1
867.63	10599
867.95	10537.53
868.27	10515.84
868.59	10556.29
868.91	10480.59
869.23	10452.34
869.55	10394.03
869.87	10396.29
870.19	10335.28
870.51	10409.63
870.83	10393.81
871.15	10383.41
871.469	10353.13
871.789	10326.92
872.109	10346.8
872.428	10206.92
872.748	10269.07
873.067	10237.2
873.386	10318.33
873.706	10209.86
874.025	10212.8
874.344	10173.93
874.663	10278.11
874.982	10199.46
875.301	10178.45
875.62	10145.45
875.939	10161.5
876.258	10082.18
876.577	10078.34
876.896	10098
877.214	10094.61
877.533	10084.89
877.852	10027.49
878.17	10012.58
878.489	10024.55
878.807	9973.03
879.125	9988.85
879.444	9978.68
879.762	9928.74
880.08	9943.42
880.398	9895.52
880.716	9818
881.034	9843.31
881.352	9838.12
881.67	9822.52
881.988	9738.23
882.306	9786.82
882.624	9828.63
882.941	9689.19
883.259	9747.05
883.577	9679.48
883.894	9605.81
884.212	9614.39
884.529	9613.04
884.846	9616.43
885.164	9544.34
885.481	9572.81
885.798	9603.09
886.115	9503.66
886.432	9472.48
886.75	9431.57
887.067	9464.79
887.383	9469.09
887.7	9416.21
888.017	9363.55
888.334	9336.21
888.651	9303.67
888.967	9297.57
889.284	9291.24
889.6	9259.15
889.917	9204.46
890.233	9211.01
890.55	9173.95
890.866	9193.16
891.182	9098.7
891.498	9089.44
891.815	9073.39
892.131	8985.03
892.447	8978.7
892.763	9015.99
893.079	8980.96
893.395	8998.14
893.71	8936.45
894.026	8903.68
894.342	8933.73
894.657	8809.67
894.973	8834.98
895.289	8784.81
895.604	8792.49
895.92	8731.48
896.235	8749.33
896.55	8683.35
896.865	8636.57
897.181	8653.06
897.496	8609.22
897.811	8559.73
898.126	8528.77
898.441	8502.78
898.756	8488.77
899.071	8482.22
899.386	8466.63
899.7	8335.56
900.015	8374.43
900.33	8280.42
900.644	8292.17
900.959	8255.56
901.273	8246.75
901.588	8180.76
901.902	8169.69
902.216	8125.17
902.531	8139.86
902.845	8087.43
903.159	8039.29
903.473	8046.53
903.787	7948.22
904.101	7968.56
904.415	7946.87
904.729	7936.47
905.042	7885.85
905.356	7902.8
905.67	7847.89
905.984	7814.44
906.297	7749.36
906.611	7733.99
906.924	7623.94
907.237	7711.85
907.551	7627.78
907.864	7592.53
908.177	7625.75
908.491	7580.1
908.804	7604.73
909.117	7503.94
909.43	7434.11
909.743	7436.15
910.056	7465.52
910.368	7368.58
910.681	7314.57
910.994	7310.73
911.307	7296.71
911.619	7235.93
911.932	7251.74
912.244	7207.68
912.557	7191.18
912.869	7164.06
913.181	7106.44
913.494	7105.31
913.806	7044.52
914.118	7025.31
914.43	7013.56
914.742	7002.03
915.054	6946.44
915.366	6879.55
915.678	6870.74
915.99	6856.95
916.302	6817.86
916.613	6785.32
916.925	6797.97
917.236	6747.8
917.548	6681.82
917.859	6725.88
918.171	6672.78
918.482	6611.31
918.794	6629.16
919.105	6609.5
919.416	6559.33
919.727	6501.03
920.038	6513.68
920.349	6436.4
920.66	6465.1
920.971	6402.73
921.282	6353.69
921.593	6420.58
921.903	6315.95
922.214	6310.07
922.525	6255.84
922.835	6275.95
923.146	6197.08
923.456	6201.38
923.767	6198.44
924.077	6192.34
924.387	6105.11
924.697	6086.8
925.008	6087.93
925.318	6063.08
925.628	6059.01
925.938	6026.47
926.248	5924.77
926.558	5959.8
926.867	5923.87
927.177	5886.36
927.487	5826.02
927.796	5807.94
928.106	5818.11
928.416	5751.44
928.725	5780.6
929.034	5722.52
929.344	5761.84
929.653	5731.56
929.962	5647.27
930.271	5622.63
930.581	5600.49
930.89	5599.58
931.199	5574.5
931.508	5566.36
931.817	5565.91
932.125	5561.39
932.434	5524.56
932.743	5489.53
933.051	5411.79
933.36	5450.44
933.669	5332.7
933.977	5296.99
934.286	5298.8
934.594	5316.2
934.902	5244.11
935.21	5264.9
935.519	5298.58
935.827	5225.81
936.135	5221.97
936.443	5190.1
936.751	5150.33
937.059	5154.17
937.367	5119.37
937.674	5103.78
937.982	5092.03
938.29	5087.51
938.597	5106.49
938.905	5006.38
939.213	5017.45
939.52	4937.68
939.827	4940.39
940.135	4888.42
940.442	4899.72
940.749	4899.72
941.056	4911.69
941.363	4872.37
941.67	4896.55
941.977	4791.7
942.284	4779.94
942.591	4804.58
942.898	4736.56
943.205	4732.04
943.511	4657.46
943.818	4689.55
944.125	4698.37
944.431	4659.27
944.738	4605.26
945.044	4621.53
945.35	4536.79
945.657	4544.7
945.963	4544.02
946.269	4514.42
946.575	4481.2
946.881	4486.85
947.187	4461.76
947.493	4455.43
947.799	4428.09
948.105	4414.98
948.41	4363.23
948.716	4383.35
949.022	4344.48
949.327	4393.29
949.633	4318.94
949.938	4313.97
950.244	4310.58
950.549	4199.62
950.854	4276.68
951.16	4216.8
951.465	4169.11
951.77	4170.24
952.075	4161.2
952.38	4204.14
952.685	4128.89
952.99	4122.56
953.294	4079.62
953.599	4081.88
953.904	4066.97
954.209	3990.36
954.513	4024.26
954.818	4012.28
955.122	4015.22
955.426	3999.85
955.731	3972.73
956.035	3949.01
956.339	3923.24
956.643	3911.04
956.948	3917.14
957.252	3858.84
957.556	3885.73
957.86	3844.6
958.163	3824.26
958.467	3768.22
958.771	3794.21
959.075	3756.02
959.378	3740.65
959.682	3755.11
959.985	3695
960.289	3696.13
960.592	3678.96
960.896	3657.49
961.199	3665.62
961.502	3674.44
961.805	3611.16
962.108	3587.21
962.411	3568
962.714	3557.6
963.017	3521.45
963.32	3586.98
963.623	3553.08
963.926	3519.64
964.228	3514.89
964.531	3527.32
964.833	3517.38
965.136	3449.81
965.438	3450.04
965.741	3447.1
966.043	3406.42
966.345	3391.73
966.648	3395.12
966.95	3363.26
967.252	3379.98
967.554	3350.38
967.856	3335.24
968.158	3297.5
968.46	3244.84
968.761	3258.4
969.063	3266.99
969.365	3217.73
969.666	3260.21
969.968	3256.82
970.269	3253.66
970.571	3195.35
970.872	3199.65
971.174	3146.99
971.475	3166.88
971.776	3128.91
972.077	3112.19
972.378	3116.94
972.679	3141.12
972.98	3091.4
973.281	3121.23
973.582	3056.37
973.883	3071.06
974.183	3071.06
974.484	3010.95
974.785	3002.59
975.085	3012.53
975.386	3011.4
975.686	3015.7
975.986	2988.35
976.287	2933.67
976.587	2928.02
976.887	2909.49
977.187	2914.01
977.487	2892.76
977.787	2870.84
978.087	2856.83
978.387	2850.28
978.687	2853.22
978.987	2833.56
979.286	2824.74
979.586	2819.77
979.885	2751.75
980.185	2761.24
980.484	2758.3
980.784	2730.28
981.083	2718.3
981.382	2731.41
981.682	2703.39
981.981	2721.69
982.28	2696.84
982.579	2675.82
982.878	2685.08
983.177	2679.66
983.475	2655.03
983.774	2622.94
984.073	2595.14
984.372	2635.59
984.67	2596.27
984.969	2568.48
985.267	2595.14
985.566	2582.71
985.864	2528.48
986.162	2510.63
986.461	2535.48
986.759	2509.5
987.057	2497.52
987.355	2496.84
987.653	2483.06
987.951	2437.18
988.249	2474.69
988.547	2453.9
988.844	2426.33
989.142	2448.25
989.44	2433.34
989.737	2404.41
990.035	2389.5
990.332	2378.43
990.63	2381.36
990.927	2322.16
991.224	2372.32
991.521	2323.06
991.819	2347.24
992.116	2325.32
992.413	2305.66
992.71	2304.98
993.006	2280.8
993.303	2284.19
993.6	2269.28
993.897	2262.72
994.193	2246.45
994.49	2260.92
994.787	2236.28
995.083	2228.37
995.379	2181.14
995.676	2174.59
995.972	2188.6
996.268	2194.02
996.565	2191.54
996.861	2151.99
997.157	2156.29
997.453	2127.81
997.749	2104.54
998.044	2124.65
998.34	2069.73
998.636	2094.37
998.932	2049.85
999.227	2068.38
999.523	2041.71
999.818	2055.27
1000.114	2058.66
1000.409	2016.18
1000.704	2006.46
1001	1983.41
1001.295	2015.05
1001.59	1988.61
1001.885	1963.97
1002.18	1942.73
1002.475	1935.73
1002.77	1937.76
1003.065	1949.51
1003.359	1913.58
1003.654	1903.41
1003.949	1894.6
1004.243	1901.83
1004.538	1857.54
1004.832	1896.18
1005.127	1868.61
1005.421	1837.42
1005.715	1853.47
1006.009	1826.58
1006.304	1816.41
1006.598	1805.33
1006.892	1803.07
1007.186	1801.49
1007.48	1770.08
1007.773	1764.66
1008.067	1758.78
1008.361	1756.3
1008.655	1736.86
1008.948	1754.04
1009.242	1721.95
1009.535	1701.16
1009.829	1706.58
1010.122	1673.59
1010.415	1702.29
1010.708	1686.69
1011.001	1667.03
1011.295	1685.11
1011.588	1662.96
1011.881	1655.73
1012.173	1650.76
1012.466	1660.93
1012.759	1599.69
1013.052	1592.46
1013.344	1551.56
1013.637	1576.87
1013.93	1594.94
1014.222	1546.13
1014.514	1557.2
1014.807	1581.61
1015.099	1558.56
1015.391	1533.25
1015.683	1549.3
1015.976	1524.44
1016.268	1459.35
1016.56	1503.19
1016.851	1468.17
1017.143	1460.26
1017.435	1466.36
1017.727	1448.51
1018.018	1453.7
1018.31	1442.18
1018.602	1410.99
1018.893	1429.75
1019.185	1407.38
1019.476	1398.34
1019.767	1415.97
1020.058	1386.81
1020.35	1372.35
1020.641	1385.23
1020.932	1380.49
1021.223	1364.67
1021.514	1331.22
1021.804	1311.11
1022.095	1322.63
1022.386	1316.31
1022.677	1280.15
1022.967	1311.11
1023.258	1284.67
1023.548	1284.44
1023.839	1269.75
1024.129	1273.82
1024.419	1244.9
1024.709	1264.33
1025	1244.67
1025.29	1242.41
1025.58	1239.7
1025.87	1224.33
1026.16	1171.23
1026.449	1209.19
1026.739	1208.74
1027.029	1186.37
1027.319	1161.96
1027.608	1169.19
1027.898	1181.17
1028.187	1168.97
1028.477	1134.84
1028.766	1124.9
1029.055	1129.65
1029.344	1140.49
1029.634	1153.37
1029.923	1112.92
1030.212	1105.24
1030.501	1113.15
1030.79	1090.32
1031.078	1092.81
1031.367	1067.73
1031.656	1052.81
1031.945	1075.41
1032.233	1064.79
1032.522	1063.21
1032.81	1027.95
1033.099	1026.15
1033.387	1021.17
1033.675	994.96
1033.963	1008.07
1034.251	1027.05
1034.54	986.82
1034.828	988.86
1035.116	1008.52
1035.403	987.5
1035.691	971.01
1035.979	986.6
1036.267	966.71
1036.554	931.01
1036.842	954.51
1037.129	955.41
1037.417	956.54
1037.704	934.4
1037.992	924.23
1038.279	923.1
1038.566	905.92
1038.853	905.92
1039.14	905.92
