Data from red_shiny_book_FLMS001491_00022.txt Node
Date: Wed Feb 08 15:24:37 GMT 2017
User: dcchb
Spectrometer: FLMS00149
Trigger mode: 0
Integration Time (sec): 2.000000E-2
Scans to average: 10
Electric dark correction enabled: true
Nonlinearity correction enabled: false
Boxcar width: 0
XAxis mode: Wavelengths
Number of Pixels in Spectrum: 2048
>>>>>Begin Spectral Data<<<<<
341.393	-4.03
341.776	-4.03
342.16	-4.03
342.543	-74.98
342.927	-50.35
343.31	-91.03
343.693	-67.53
344.077	-55.32
344.46	-41.54
344.843	-61.2
345.226	-50.35
345.61	-23.23
345.993	-31.37
346.376	3.21
346.759	5.47
347.142	30.32
347.525	41.4
347.908	59.93
348.291	79.36
348.674	79.36
349.057	122.53
349.44	126.82
349.823	139.02
350.206	170.43
350.588	214.05
350.971	227.61
351.354	224.9
351.737	249.75
352.119	254.05
352.502	270.54
352.884	269.87
353.267	289.07
353.65	300.83
354.032	287.04
354.414	301.73
354.797	321.84
355.179	323.65
355.562	348.96
355.944	329.07
356.326	322.29
356.709	330.88
357.091	348.73
357.473	350.32
357.855	357.77
358.238	334.27
358.62	355.06
359.002	340.6
359.384	351.45
359.766	348.96
360.148	342.86
360.53	355.29
360.912	380.82
361.294	332.24
361.676	353.03
362.057	322.07
362.439	331.56
362.821	338.34
363.203	361.61
363.584	338.34
363.966	336.76
364.348	340.15
364.729	328.85
365.111	325.68
365.493	330.43
365.874	319.36
366.256	334.04
366.637	336.98
367.019	320.03
367.4	321.62
367.781	316.19
368.163	321.84
368.544	324.78
368.925	321.39
369.306	345.34
369.688	329.98
370.069	297.21
370.45	326.59
370.831	324.1
371.212	334.04
371.593	347.6
371.974	314.84
372.355	327.72
372.736	324.1
373.117	336.53
373.498	322.75
373.879	325.01
374.26	326.14
374.641	318.68
375.021	322.29
375.402	342.18
375.783	329.53
376.163	342.86
376.544	340.6
376.925	328.85
377.305	329.53
377.686	349.19
378.066	333.59
378.447	337.21
378.827	350.77
379.208	351.9
379.588	354.84
379.968	343.08
380.349	333.14
380.729	381.28
381.109	343.76
381.489	347.38
381.87	341.95
382.25	358.68
382.63	369.07
383.01	351.9
383.39	346.47
383.77	343.54
384.15	359.13
384.53	365.23
384.91	383.31
385.29	331.79
385.67	359.81
386.049	369.98
386.429	373.82
386.809	383.54
387.189	376.98
387.568	365.68
387.948	395.29
388.328	405.23
388.707	380.15
389.087	381.95
389.466	364.78
389.846	385.12
390.225	378.56
390.605	391.67
390.984	380.37
391.363	391.22
391.743	397.09
392.122	384.67
392.501	390.31
392.881	414.49
393.26	395.74
393.639	389.64
394.018	403.87
394.397	406.36
394.776	418.79
395.155	422.18
395.534	394.16
395.913	400.26
396.292	424.66
396.671	428.51
397.05	409.75
397.429	431.22
397.808	420.37
398.186	435.06
398.565	412.23
398.944	408.62
399.323	419.47
399.701	414.27
400.08	417.43
400.458	433.93
400.837	434.61
401.215	450.65
401.594	447.94
401.972	426.25
402.351	438.9
402.729	447.04
403.107	443.87
403.486	455.62
403.864	466.24
404.242	473.02
404.62	459.69
404.999	462.18
405.377	480.26
405.755	469.18
406.133	476.19
406.511	475.28
406.889	475.74
407.267	470.31
407.645	491.78
408.023	498.11
408.401	496.75
408.779	488.84
409.156	507.83
409.534	488.62
409.912	516.86
410.29	521.61
410.667	520.48
411.045	526.81
411.422	524.1
411.8	533.14
412.178	546.92
412.555	531.55
412.933	554.83
413.31	567.94
413.687	522.29
414.065	571.1
414.442	550.31
414.819	547.15
415.197	562.29
415.574	577.88
415.951	588.5
416.328	621.49
416.705	602.51
417.082	617.43
417.46	597.99
417.837	601.83
418.214	620.37
418.591	616.52
418.967	610.65
419.344	618.11
419.721	640.93
420.098	620.82
420.475	673.47
420.852	676.18
421.228	689.06
421.605	654.94
421.982	675.73
422.358	646.13
422.735	656.97
423.111	652.45
423.488	682.96
423.864	677.76
424.241	712.79
424.617	693.13
424.994	709.18
425.37	706.69
425.746	703.07
426.123	696.07
426.499	696.52
426.875	723.41
427.251	715.96
427.627	718.89
428.003	750.53
428.379	781.04
428.756	786.46
429.132	788.5
429.507	781.72
429.883	781.26
430.259	794.82
430.635	789.85
431.011	779.68
431.387	775.16
431.763	813.58
432.138	808.38
432.514	849.29
432.89	854.71
433.265	881.83
433.641	881.83
434.016	877.08
434.392	859
434.767	875.95
435.143	868.04
435.518	884.76
435.894	894.48
436.269	902.84
436.644	928.15
437.02	924.31
437.395	938.1
437.77	985.78
438.145	982.16
438.52	952.11
438.895	961.6
439.271	964.99
439.646	990.3
440.021	995.27
440.395	979.45
440.77	980.13
441.145	983.75
441.52	1016.06
441.895	1049.28
442.27	1066.68
442.645	1042.27
443.019	1073.23
443.394	1075.49
443.769	1065.55
444.143	1033.01
444.518	1029.85
444.892	1025.78
445.267	1036.63
445.641	1078.21
446.016	1081.14
446.39	1106.23
446.764	1120.69
447.139	1130.86
447.513	1158.66
447.887	1139
448.262	1109.62
448.636	1087.7
449.01	1109.17
449.384	1100.13
449.758	1127.02
450.132	1125.21
450.506	1131.76
450.88	1162.27
451.254	1192.1
451.628	1211.31
452.002	1217.64
452.376	1238.2
452.75	1222.84
453.123	1206.11
453.497	1185.32
453.871	1183.51
454.244	1211.31
454.618	1205.21
454.992	1235.04
455.365	1242.27
455.739	1269.39
456.112	1323.4
456.486	1326.79
456.859	1328.6
457.232	1378.31
457.606	1365.2
457.979	1344.87
458.352	1327.47
458.725	1310.52
459.099	1290.18
459.472	1306.45
459.845	1357.97
460.218	1379.44
460.591	1398.65
460.964	1432.32
461.337	1472.09
461.71	1481.36
462.083	1503.05
462.456	1510.06
462.829	1491.75
463.201	1466.9
463.574	1468.48
463.947	1487.23
464.32	1477.97
464.692	1497.63
465.065	1500.79
465.438	1580.57
465.81	1615.14
466.183	1614.24
466.555	1737.4
466.928	1716.38
467.3	1685.2
467.672	1709.83
468.045	1733.1
468.417	1713.44
468.789	1660.79
469.161	1645.2
469.534	1692.43
469.906	1701.47
470.278	1709.38
470.65	1787.79
471.022	1861.46
471.394	1884.96
471.766	1960.44
472.138	1923.38
472.51	2023.94
472.882	1999.99
473.253	1961.8
473.625	1990.27
473.997	1959.99
474.369	1979.43
474.74	1959.99
475.112	1982.59
475.484	2051.74
475.855	2138.97
476.227	2168.35
476.598	2249.47
476.97	2305.07
477.341	2361.56
477.713	2404.05
478.084	2394.78
478.455	2432.29
478.827	2390.26
479.198	2406.98
479.569	2372.41
479.94	2429.58
480.311	2404.27
480.682	2441.11
481.053	2509.81
481.424	2608.56
481.795	2672.97
482.166	2782.34
482.537	2841.78
482.908	2952.96
483.279	2954.77
483.65	2979.17
484.021	3021.21
484.391	2969.68
484.762	2956.8
485.133	2922.9
485.503	2921.55
485.874	2957.48
486.244	2979.4
486.615	3075.22
486.985	3161.99
487.356	3330.35
487.726	3393.4
488.097	3519.27
488.467	3592.49
488.837	3637.69
489.207	3686.73
489.578	3697.8
489.948	3664.8
490.318	3642.21
490.688	3591.59
491.058	3547.07
491.428	3567.41
491.798	3607.41
492.168	3664.35
492.538	3769.21
492.908	3901.86
493.278	4018.47
493.648	4134.17
494.017	4273.38
494.387	4323.32
494.757	4340.04
495.126	4398.57
495.496	4333.04
495.866	4287.16
496.235	4212.36
496.605	4158.35
496.974	4126.04
497.344	4145.02
497.713	4119.48
498.082	4222.08
498.452	4328.52
498.821	4443.54
499.19	4538.23
499.559	4702.74
499.928	4780.71
500.298	4811.67
500.667	4949.52
501.036	4871.78
501.405	4840.59
501.774	4772.35
502.143	4719.69
502.512	4624.55
502.88	4568.51
503.249	4500.04
503.618	4531.9
503.987	4540.71
504.356	4652.8
504.724	4813.48
505.093	4912.46
505.462	5059.12
505.83	5160.81
506.199	5238.77
506.567	5320.81
506.936	5335.72
507.304	5363.52
507.672	5272.9
508.041	5147.7
508.409	5106.57
508.777	5020.7
509.145	4949.97
509.514	4893.7
509.882	4918.11
510.25	4958.1
510.618	5098.89
510.986	5245.78
511.354	5372.33
511.722	5577.97
512.09	5660.01
512.458	5714.02
512.826	5752.89
513.193	5801.92
513.561	5746.56
513.929	5729.16
514.297	5624.98
514.664	5463.18
515.032	5408.49
515.4	5351.09
515.767	5294.14
516.135	5294.14
516.502	5336.4
516.869	5430.63
517.237	5617.07
517.604	5702.72
517.972	5937.29
518.339	6102.25
518.706	6158.75
519.073	6257.73
519.44	6304.51
519.808	6344.06
520.175	6177.51
520.542	6098.64
520.909	6008.7
521.276	5824.3
521.643	5735.26
522.009	5697.52
522.376	5721.93
522.743	5714.02
523.11	5849.38
523.477	5964.41
523.843	6124.85
524.21	6282.14
524.577	6563.49
524.943	6655.91
525.31	6777.72
525.676	6943.14
526.043	6954.21
526.409	6998.73
526.776	6975
527.142	6744.5
527.508	6712.18
527.874	6653.2
528.241	6484.39
528.607	6383.15
528.973	6373.43
529.339	6383.15
529.705	6516.26
530.071	6588.8
530.437	6760.09
530.803	6935.68
531.169	7158.95
531.535	7381.54
531.901	7544.48
532.267	7719.16
532.632	7844.36
532.998	7860.4
533.364	7846.62
533.73	7672.83
534.095	7600.07
534.461	7462.22
534.826	7293.41
535.192	7153.53
535.557	7096.58
535.923	7049.12
536.288	7102.23
536.653	7230.36
537.019	7337.93
537.384	7513.74
537.749	7713.74
538.114	8015.2
538.479	8169.09
538.845	8383.32
539.21	8372.7
539.575	8520.27
539.94	8560.04
540.305	8521.4
540.67	8354.4
541.034	8257.68
541.399	8123.9
541.764	7981.75
542.129	7778.59
542.494	7748.99
542.858	7725.49
543.223	7680.97
543.587	7732.49
543.952	7878.71
544.316	8064.92
544.681	8259.94
545.045	8501.29
545.41	8708.06
545.774	8937.21
546.138	9036.64
546.503	9212.23
546.867	9226.92
547.231	9264.21
547.595	9150.76
547.959	8981.28
548.324	8835.29
548.688	8693.37
549.052	8498.12
549.416	8353.72
549.779	8231.24
550.143	8141.98
550.507	8192.82
550.871	8208.87
551.235	8306.04
551.599	8507.84
551.962	8657.22
552.326	8849.98
552.689	9090.65
553.053	9288.39
553.417	9463.97
553.78	9579.45
554.143	9649.05
554.507	9704.19
554.87	9587.36
555.234	9569.51
555.597	9295.84
555.96	9110.76
556.323	8978.56
556.686	8829.41
557.05	8608.86
557.413	8528.18
557.776	8559.37
558.139	8570.44
558.502	8664.9
558.865	8754.16
559.228	9054.95
559.59	9253.36
559.953	9431.43
560.316	9750.75
560.679	9912.1
561.041	10115.93
561.404	10274.12
561.767	10270.05
562.129	10263.05
562.492	10251.98
562.854	10059.44
563.217	9809.28
563.579	9732.22
563.941	9521.6
564.304	9344.88
564.666	9268.27
565.028	9155.06
565.39	9117.54
565.753	9112.57
566.115	9220.82
566.477	9386.46
566.839	9573.8
567.201	9806.11
567.563	10028.48
567.925	10252.43
568.287	10563.83
568.648	10808.8
569.01	10846.76
569.372	11052.63
569.734	10936.03
570.095	10949.36
570.457	10866.42
570.819	10679.31
571.18	10604.28
571.542	10399.09
571.903	10272.54
572.265	10115.03
572.626	9911.19
572.987	9804.3
573.349	9895.6
573.71	9889.05
574.071	10086.1
574.432	10255.37
574.794	10490.16
575.155	10698.74
575.516	11004.05
575.877	11311.38
576.238	11585.27
576.599	11865.04
576.96	12107.97
577.32	12222.55
577.681	12386.61
578.042	12373.73
578.403	12317.23
578.763	12248.99
579.124	12211.25
579.485	12105.71
579.845	11992.27
580.206	11877.24
580.566	11831.6
580.927	11819.62
581.287	11971.25
581.648	12069.56
582.008	12450.79
582.368	12731.69
582.728	13114.95
583.089	13533.25
583.449	13964.42
583.809	14557.63
584.169	15062.7
584.529	15474.21
584.889	16069.68
585.249	16529.55
585.609	16938.13
585.969	17420.38
586.329	17712.57
586.688	17886.13
587.048	18192.56
587.408	18308.04
587.768	18544.41
588.127	18802.03
588.487	18856.5
588.846	19340.78
589.206	19620.54
589.565	19855.79
589.925	20362.44
590.284	20717.69
590.643	21417.11
591.003	22150.19
591.362	22949.5
591.721	23339.32
592.08	24267.2
592.44	24961.19
592.799	25793.26
593.158	26407.48
593.517	27265.54
593.876	27821.68
594.235	28303.48
594.593	28752.73
594.952	29314.98
595.311	29556.33
595.67	29892.59
596.029	30437.66
596.387	30612.57
596.746	31047.59
597.104	31082.84
597.463	31463.85
597.822	31832.88
598.18	32183.6
598.538	32590.37
598.897	33311.26
599.255	33563.68
599.613	34738.79
599.972	35112.57
600.33	35918.42
600.688	36386.88
601.046	37116.35
601.404	37914.98
601.762	38568.75
602.12	39263.42
602.478	39900.91
602.836	40377.06
603.194	40552.87
603.552	41011.17
603.91	41149.47
604.268	41387.65
604.625	41578.16
604.983	41886.85
605.341	41726.85
605.698	42222.66
606.056	42388.53
606.413	42392.15
606.771	42807.28
607.128	43033.04
607.485	43141.96
607.843	43524.32
608.2	44080.47
608.557	44678.64
608.914	44797.06
609.272	45513.42
609.629	46059.4
609.986	46531.7
610.343	46648.53
610.7	47390.66
611.057	47616.19
611.414	47954.49
611.771	48226.8
612.127	48420.69
612.484	48557.41
612.841	48890.06
613.198	48715.6
613.554	48733
613.911	48973.9
614.267	48910.17
614.624	48834.01
614.98	48971.18
615.337	49111.29
615.693	49018.41
616.05	48966.44
616.406	49195.36
616.762	49256.37
617.118	49291.4
617.475	49479.19
617.831	49830.37
618.187	50176.35
618.543	50344.48
618.899	50782.89
619.255	50861.98
619.611	51096.33
619.967	51367.05
620.323	51587.61
620.678	51604.11
621.034	51721.62
621.39	51705.8
621.746	51837.32
622.101	52111.21
622.457	51847.72
622.812	51889.07
623.168	51912.12
623.523	51788.29
623.879	51837.78
624.234	51522.08
624.589	51535.41
624.945	51577.22
625.3	51526.6
625.655	51545.58
626.01	51551.91
626.365	51530.44
626.72	51570.21
627.075	51664.45
627.43	51827.83
627.785	51813.37
628.14	52122.97
628.495	52221.95
628.85	52319.57
629.205	52479.11
629.559	52728.83
629.914	52688.15
630.269	52856.73
630.623	52754.81
630.978	52781.03
631.332	52890.4
631.687	52900.35
632.041	52774.02
632.396	52654.48
632.75	52420.81
633.104	52385.33
633.459	52212
633.813	52097.43
634.167	52026.7
634.521	51881.62
634.875	51828.51
635.229	51744.9
635.583	51481.4
635.937	51605.92
636.291	51556.88
636.645	51732.24
636.999	51624.22
637.352	51840.49
637.706	51802.52
638.06	52010.88
638.413	52016.3
638.767	52081.84
639.121	52273.92
639.474	52175.62
639.828	52329.97
640.181	52541.71
640.534	52588.26
640.888	52421.94
641.241	52356.41
641.594	52350.3
641.947	52296.52
642.301	52166.13
642.654	52081.16
643.007	51951.67
643.36	51715.74
643.713	51523.21
644.066	51551.46
644.419	51208.41
644.771	50979.04
645.124	50532.05
645.477	50350.81
645.83	50208.44
646.182	50079.4
646.535	49962.34
646.888	50105.62
647.24	49949.46
647.593	50203.24
647.945	50314.2
648.298	50311.71
648.65	50305.16
649.002	50357.36
649.355	50705.6
649.707	50731.82
650.059	50969.32
650.411	51342.87
650.763	51464.68
651.115	51873.93
651.467	51561.62
651.819	51445.02
652.171	51417
652.523	51287.06
652.875	51185.14
653.227	50964.13
653.578	50995.99
653.93	50847.52
654.282	50725.49
654.633	50314.2
654.985	50353.07
655.337	50163.92
655.688	50209.8
656.039	50330.47
656.391	49986.98
656.742	50054.32
657.094	50163.24
657.445	50295.44
657.796	50327.98
658.147	50305.84
658.498	50378.83
658.849	50588.09
659.2	50659.28
659.551	50630.12
659.902	50811.59
660.253	50954.18
660.604	51064.69
660.955	50954.86
661.306	51066.04
661.656	51026.72
662.007	51013.16
662.358	51056.33
662.708	50894.75
663.059	50790.57
663.409	50497.47
663.76	50670.12
664.11	50470.58
664.461	50354.65
664.811	50249.34
665.161	50066.52
665.511	49839.64
665.862	49935
666.212	49754.21
666.562	49839.18
666.912	49626.53
667.262	49571.85
667.612	49552.64
667.962	49655.69
668.312	49648
668.662	49900.43
669.011	49921.44
669.361	50091.15
669.711	50087.09
670.06	50181.32
670.41	50269.68
670.76	50273.97
671.109	50555.55
671.459	50432.39
671.808	50553.52
672.157	50643
672.507	50478.49
672.856	50377.25
673.205	50425.84
673.554	50508.54
673.904	50387.64
674.253	50444.14
674.602	50149.23
674.951	49484.84
675.3	49273.55
675.649	49633.09
675.998	49561.23
676.346	49376.37
676.695	49515.35
677.044	48960.11
677.393	49102.71
677.741	48998.75
678.09	48947.68
678.438	48796.95
678.787	48897.97
679.135	48931.41
679.484	48724.64
679.832	48959.21
680.181	48780
680.529	49030.84
680.877	49072.65
681.225	49174.79
681.573	49503.6
681.922	49335.69
682.27	49412.3
682.618	49471.28
682.966	49566.87
683.314	49608.91
683.661	49448.01
684.009	49327.11
684.357	49180.67
684.705	49005.53
685.053	49092.99
685.4	49001.92
685.748	48759.89
686.095	48592.66
686.443	48391.31
686.79	48247.14
687.138	48052.34
687.485	47955.39
687.832	47640.15
688.18	47564.89
688.527	47297.56
688.874	47229.53
689.221	47030.44
689.568	47045.36
689.915	46830
690.262	46894.63
690.609	46778.47
690.956	46709.55
691.303	46776.21
691.65	46732.37
691.997	46849.88
692.344	46613.28
692.69	46784.12
693.037	46938.47
693.383	46731.92
693.73	47069.77
694.077	46891.24
694.423	46928.07
694.769	46939.83
695.116	46985.02
695.462	46844.69
695.808	46650.57
696.155	46646.5
696.501	46332.38
696.847	46229.34
697.193	45923.58
697.539	45899.17
697.885	45503.93
698.231	45329.02
698.577	45216.03
698.923	45078.86
699.269	44642.71
699.614	44325.2
699.96	44184.64
700.306	44118.2
700.651	43806.57
700.997	43544.66
701.342	43514.6
701.688	43462.85
702.033	43396.64
702.379	43303.31
702.724	43255.4
703.069	43374.72
703.415	43040.04
703.76	43246.59
704.105	43429.41
704.45	43378.56
704.795	43140.15
705.14	43206.14
705.485	43437.32
705.83	43289.75
706.175	43495.85
706.52	43289.75
706.865	43283.88
707.209	43280.03
707.554	43115.29
707.899	43397.32
708.243	43000.04
708.588	42884.56
708.932	42531.35
709.277	42579.71
709.621	42426.5
709.966	41938.37
710.31	42142.89
710.654	41589.91
710.998	41513.98
711.342	41337.71
711.687	41188.34
712.031	40899.98
712.375	40577.05
712.719	40528.02
713.063	40340
713.407	40425.42
713.75	40213
714.094	40281.47
714.438	40123.51
714.782	40121.47
715.125	39976.62
715.469	40161.47
715.812	40103.85
716.156	39920.35
716.499	40164.64
716.843	40239.66
717.186	39990.4
717.53	40358.98
717.873	40525.08
718.216	40399.21
718.559	40337.74
718.902	40187.01
719.246	40228.59
719.589	40419.77
719.932	40179.1
720.275	40256.84
720.617	40163.28
720.96	40085.77
721.303	39970.74
721.646	39942.95
721.989	39654.37
722.331	39693.91
722.674	39352.23
723.016	39324.43
723.359	39087.6
723.701	39011.45
724.044	38631.12
724.386	38495.3
724.729	38316.55
725.071	38157.01
725.413	38015.31
725.755	37920.85
726.097	37718.15
726.439	37640.41
726.782	37489.23
727.124	37790.24
727.465	37474.31
727.807	37534.42
728.149	37443.13
728.491	37485.16
728.833	37511.15
729.175	37451.26
729.516	37624.36
729.858	37660.07
730.199	37868.65
730.541	37817.58
730.882	37803.79
731.224	38012.38
731.565	37889.89
731.906	38049.21
732.248	38066.39
732.589	38006.05
732.93	37818.48
733.271	37705.27
733.612	37808.54
733.953	37651.03
734.294	37551.82
734.635	37387.53
734.976	37375.78
735.317	37116.13
735.658	36934.44
735.999	36984.61
736.339	36799.07
736.68	36715.24
737.021	36511.4
737.361	36100.34
737.702	36222.37
738.042	36095.36
738.383	35880
738.723	35941.47
739.063	35624.64
739.404	35690.63
739.744	35600.01
740.084	35420.81
740.424	35569.28
740.764	35440.24
741.104	35577.19
741.444	35407.92
741.784	35374.03
742.124	35576.51
742.464	35613.34
742.804	35554.14
743.143	35532.67
743.483	35603.63
743.823	35604.08
744.162	35753
744.502	35851.53
744.841	35753.9
745.181	35981.02
745.52	35863.51
745.86	36019.43
746.199	35842.72
746.538	35861.25
746.877	35804.52
747.216	35811.98
747.556	35631.87
747.895	35723.4
748.234	35425.1
748.573	35338.55
748.911	35295.61
749.25	35079.35
749.589	34781.95
749.928	34865.11
750.267	34670.77
750.605	34553.94
750.944	34333.6
751.283	34150.56
751.621	34043.89
751.96	33731.13
752.298	33544.02
752.636	33573.4
752.975	33467.64
753.313	33284.14
753.651	33437.13
753.989	33071.04
754.327	33094.77
754.666	32851.83
755.004	33040.53
755.342	33124.6
755.679	33007.76
756.017	32990.14
756.355	32946.52
756.693	32945.39
757.031	33110.58
757.368	32986.75
757.706	33174.99
758.044	32940.65
758.381	33055.67
758.719	32967.54
759.056	33098.38
759.394	33058.83
759.731	32944.03
760.068	33068.33
760.405	32845.05
760.743	32732.06
761.08	32759.41
761.417	32662.69
761.754	32464.95
762.091	32478.96
762.428	32385.63
762.765	32116.49
763.102	32051.85
763.438	31871.75
763.775	31520.34
764.112	31543.85
764.449	31566.67
764.785	31182.27
765.122	30989.74
765.458	30690.99
765.795	30602.63
766.131	30493.03
766.467	30251.68
766.804	30048.29
767.14	30037.9
767.476	29955.86
767.812	29904.11
768.148	29849.88
768.485	29677.91
768.821	29474.97
769.157	29532.6
769.492	29388.65
769.828	29438.14
770.164	29219.39
770.5	29264.13
770.836	29257.35
771.171	29099.16
771.507	29142.55
771.842	29014.65
772.178	29071.14
772.513	29097.81
772.849	29079.5
773.184	28987.3
773.519	29020.52
773.855	28948.66
774.19	28761.32
774.525	28856.91
774.86	28780.3
775.195	28659.4
775.53	28649.46
775.865	28396.81
776.2	28161.11
776.535	27962.47
776.87	27935.81
777.205	27750.73
777.539	27582.82
777.874	27659.43
778.209	27470.73
778.543	27279.1
778.878	26962.27
779.212	27029.61
779.547	26649.96
779.881	26726.35
780.215	26412.91
780.55	26302.63
780.884	26196.19
781.218	26093.82
781.552	26029.41
781.886	25768.63
782.22	25642.31
782.554	25496.32
782.888	25310.34
783.222	25183.11
783.556	25071.93
783.889	25070.8
784.223	25032.38
784.557	24932.04
784.89	25041.87
785.224	24942.21
785.557	24953.06
785.891	24861.99
786.224	24870.35
786.558	24892.72
786.891	24754.87
787.224	24720.52
787.557	24618.15
787.891	24682.78
788.224	24665.83
788.557	24664.03
788.89	24632.62
789.223	24676.68
789.556	24577.25
789.888	24497.03
790.221	24349.91
790.554	24179.97
790.887	24189.01
791.219	24177.26
791.552	23997.6
791.884	23893.2
792.217	23868.12
792.549	23652.3
792.882	23429.48
793.214	23254.8
793.546	23262.48
793.879	23031.3
794.211	22964.18
794.543	22973
794.875	22770.07
795.207	22637.64
795.539	22538.88
795.871	22516.06
796.203	22232
796.535	22181.83
796.867	21911.1
797.198	21839.69
797.53	21900.71
797.862	21735.29
798.193	21696.2
798.525	21620.04
798.856	21652.81
799.188	21350.44
799.519	21327.62
799.85	21306.37
800.182	21250.78
800.513	21286.49
800.844	21187.73
801.175	21379.59
801.506	21330.33
801.837	21237.45
802.168	21318.58
802.499	21200.39
802.83	21147.96
803.161	21213.27
803.491	21128.53
803.822	21206.94
804.153	21246.94
804.483	21074.97
804.814	21032.03
805.145	21042.88
805.475	21030.45
805.805	20937.12
806.136	20921.07
806.466	20963.33
806.796	20811.47
807.126	20647.64
807.457	20658.93
807.787	20720.63
808.117	20508.88
808.447	20337.36
808.777	20317.02
809.107	20280.87
809.436	20216.69
809.766	20089.01
810.096	19987.54
810.426	19787.77
810.755	19739.41
811.085	19649.24
811.414	19590.49
811.744	19327.9
812.073	19281.12
812.403	19285.86
812.732	19103.72
813.061	19011.29
813.39	18991.18
813.719	18927.91
814.049	18948.47
814.378	18863.05
814.707	18704.64
815.036	18660.12
815.365	18734.24
815.693	18586.67
816.022	18595.94
816.351	18516.62
816.68	18435.94
817.008	18587.12
817.337	18467.13
817.665	18328.83
817.994	18531.53
818.322	18488.6
818.651	18362.5
818.979	18372.44
819.307	18545.54
819.636	18418.32
819.964	18444.53
820.292	18568.37
820.62	18577.41
820.948	18545.77
821.276	18536.73
821.604	18425.77
821.932	18592.77
822.259	18611.76
822.587	18583.28
822.915	18535.83
823.243	18717.97
823.57	18624.19
823.898	18596.62
824.225	18514.81
824.553	18531.08
824.88	18455.38
825.207	18470.74
825.535	18505.77
825.862	18374.7
826.189	18300.35
826.516	18397.52
826.843	18256.74
827.17	18177.64
827.497	18211.99
827.824	18126.8
828.151	18146.23
828.478	18102.84
828.805	18065.1
829.131	17930.19
829.458	17842.51
829.785	17753.7
830.111	17797.77
830.438	17900.36
830.764	17778.56
831.09	17874.83
831.417	17700.37
831.743	17692.01
832.069	17737.88
832.395	17643.87
832.722	17713.7
833.048	17674.61
833.374	17691.1
833.7	17651.1
834.026	17717.32
834.351	17830.99
834.677	17706.24
835.003	17759.58
835.329	17869.4
835.654	17864.43
835.98	17715.73
836.306	17886.8
836.631	17771.55
836.956	17827.6
837.282	17870.53
837.607	17750.31
837.932	17828.5
838.258	17892.45
838.583	17874.37
838.908	17811.55
839.233	17896.29
839.558	17780.59
839.883	17760.25
840.208	17709.18
840.533	17731.55
840.858	17685
841.182	17689.07
841.507	17694.94
841.832	17533.82
842.156	17510.54
842.481	17523.42
842.805	17431.22
843.13	17239.14
843.454	17242.98
843.778	17191
844.103	17078.46
844.427	16966.6
844.751	16967.96
845.075	16830.56
845.399	16787.85
845.723	16715.08
846.047	16636.89
846.371	16492.26
846.695	16448.42
847.019	16285.72
847.343	16157.13
847.666	16132.95
847.99	16013.63
848.313	15968.89
848.637	15850.7
848.96	15787.65
849.284	15799.17
849.607	15657.94
849.931	15558.28
850.254	15421.11
850.577	15533.19
850.9	15495.68
851.223	15432.86
851.546	15369.13
851.869	15362.35
852.192	15429.24
852.515	15271.51
852.838	15313.99
853.161	15296.82
853.483	15131.17
853.806	15146.08
854.129	15185.41
854.451	15177.5
854.774	15146.54
855.096	15189.02
855.419	15142.24
855.741	15114.22
856.063	15037.61
856.385	14986.77
856.708	14929.82
857.03	14951.51
857.352	14958.29
857.674	14958.07
857.996	14921.23
858.318	14855.92
858.64	14856.37
858.961	14746.1
859.283	14644.86
859.605	14521.92
859.926	14552.2
860.248	14454.58
860.57	14422.71
860.891	14409.16
861.212	14356.28
861.534	14217.97
861.855	14165.77
862.176	14034.7
862.498	14059.11
862.819	14091.42
863.14	13944.31
863.461	13934.37
863.782	13854.37
864.103	13832.45
864.424	13725.11
864.745	13715.39
865.065	13603.07
865.386	13456.41
865.707	13506.81
866.027	13495.28
866.348	13552.45
866.668	13449.86
866.989	13404.66
867.309	13341.84
867.63	13350.2
867.95	13365.11
868.27	13282.4
868.59	13272.24
868.91	13256.64
869.23	13232.69
869.55	13203.31
869.87	13252.58
870.19	13345
870.51	13298.9
870.83	13369.18
871.15	13295.51
871.469	13296.64
871.789	13309.07
872.109	13356.08
872.428	13229.98
872.748	13417.99
873.067	13406.7
873.386	13465.45
873.706	13454.83
874.025	13379.58
874.344	13304.33
874.663	13361.5
874.982	13409.86
875.301	13458.67
875.62	13263.87
875.939	13297.55
876.258	13312.01
876.577	13265.23
876.896	13197.66
877.214	13160.83
877.533	13187.49
877.852	13122.64
878.17	13107.95
878.489	13198.57
878.807	13091.45
879.125	13023.2
879.444	13027.5
879.762	12961.74
880.08	12880.38
880.398	12810.33
880.716	12835.86
881.034	12637.22
881.352	12729.65
881.67	12599.94
881.988	12571.69
882.306	12548.41
882.624	12424.8
882.941	12366.72
883.259	12387.51
883.577	12246.73
883.894	12156.33
884.212	12217.57
884.529	12225.03
884.846	12186.61
885.164	12060.06
885.481	11984.81
885.798	12082.21
886.115	11951.82
886.432	11977.58
886.75	11881.09
887.067	11955.66
887.383	11940.07
887.7	11846.51
888.017	11863.01
888.334	11808.55
888.651	11888.32
888.967	11872.95
889.284	11667.31
889.6	11786.4
889.917	11754.76
890.233	11783.46
890.55	11685.84
890.866	11754.31
891.182	11613.52
891.498	11750.92
891.815	11616.69
892.131	11604.26
892.447	11544.6
892.763	11684.48
893.079	11620.53
893.395	11629.79
893.71	11510.93
894.026	11571.72
894.342	11526.29
894.657	11462.79
894.973	11530.36
895.289	11512.28
895.604	11507.99
895.92	11414.66
896.235	11354.32
896.55	11341.67
896.865	11343.02
897.181	11253.76
897.496	11333.53
897.811	11211.72
898.126	11133.08
898.441	11091.5
898.756	11121.56
899.071	10981.45
899.386	11021.67
899.7	10856.48
900.015	10830.27
900.33	10652.87
900.644	10736.71
900.959	10688.8
901.273	10621.46
901.588	10468.02
901.902	10397.51
902.216	10433.44
902.531	10377.4
902.845	10311.41
903.159	10198.19
903.473	10184.41
903.787	10119.55
904.101	10073.45
904.415	9987.8
904.729	9964.53
905.042	9899.22
905.356	9884.98
905.67	9901.25
905.984	9826.68
906.297	9756.17
906.611	9672.56
906.924	9762.5
907.237	9627.59
907.551	9626.68
907.864	9558.44
908.177	9555.95
908.491	9584.88
908.804	9496.74
909.117	9478.89
909.43	9501.26
909.743	9387.82
910.056	9434.82
910.368	9377.2
910.681	9392.79
910.994	9356.41
911.307	9336.97
911.619	9255.62
911.932	9304.66
912.244	9254.04
912.557	9234.83
912.869	9182.63
913.181	9209.52
913.494	9145.34
913.806	9100.59
914.118	9035.29
914.43	9015.85
914.742	9028.96
915.054	8955.29
915.366	8974.72
915.678	8972.91
915.99	8892.01
916.302	8832.58
916.613	8829.87
916.925	8901.96
917.236	8872.13
917.548	8715.97
917.859	8760.04
918.171	8649.53
918.482	8594.62
918.794	8512.81
919.105	8534.06
919.416	8476.88
919.727	8464.68
920.038	8375.42
920.349	8291.58
920.66	8292.25
920.971	8254.29
921.282	8197.79
921.593	8128.64
921.903	8040.28
922.214	8072.37
922.525	8056.55
922.835	7936.33
923.146	7935.2
923.456	7816.79
923.767	7773.62
924.077	7811.36
924.387	7789.89
924.697	7662.89
925.008	7720.97
925.318	7561.88
925.628	7580.18
925.938	7546.51
926.248	7461.54
926.558	7402.79
926.867	7400.3
927.177	7349.23
927.487	7269
927.796	7299.96
928.106	7250.93
928.416	7211.38
928.725	7197.14
929.034	7160.98
929.344	7165.96
929.653	7205.05
929.962	7109.46
930.271	7113.53
930.581	7101.1
930.89	7031.95
931.199	7044.83
931.508	6951.5
931.817	6996.69
932.125	7026.75
932.434	6993.08
932.743	6914.89
933.051	6920.76
933.36	6907.88
933.669	6872.63
933.977	6882.12
934.286	6927.54
934.594	6823.59
934.902	6864.95
935.21	6774.1
935.519	6729.81
935.827	6781.56
936.135	6742.01
936.443	6624.95
936.751	6639.64
937.059	6665.86
937.367	6612.52
937.674	6617.72
937.982	6515.35
938.29	6579.08
938.597	6556.93
938.905	6442.58
939.213	6435.81
939.52	6406.88
939.827	6370.04
940.135	6348.35
940.442	6276.94
940.749	6316.71
941.056	6291.85
941.363	6187.9
941.67	6156.94
941.977	6141.35
942.284	6128.24
942.591	6091.63
942.898	6041.69
943.205	6015.03
943.511	6010.51
943.818	6012.99
944.125	5858.87
944.431	5909.49
944.738	5822.04
945.044	5868.59
945.35	5731.87
945.657	5805.77
945.963	5679.22
946.269	5665.2
946.575	5664.98
946.881	5588.14
947.187	5562.83
947.493	5566.22
947.799	5531.42
948.105	5483.97
948.41	5503.63
948.716	5422.05
949.022	5399
949.327	5369.39
949.633	5313.35
949.938	5328.26
950.244	5325.1
950.549	5264.54
950.854	5232
951.16	5202.62
951.465	5244.2
951.77	5218.44
952.075	5163.07
952.38	5151.32
952.685	5169.85
952.99	5131.21
953.294	5157.87
953.599	5139.34
953.904	5138.89
954.209	5076.52
954.513	5118.1
954.818	5100.47
955.122	5075.62
955.426	5055.95
955.731	5049.63
956.035	5076.29
956.339	4985.67
956.643	5022.74
956.948	4975.05
957.252	4984.54
957.556	4955.62
957.86	4970.99
958.163	4900.48
958.467	4881.5
958.771	4875.39
959.075	4837.88
959.378	4862.29
959.682	4838.33
959.985	4770.09
960.289	4785.45
960.592	4751.78
960.896	4725.12
961.199	4730.54
961.502	4716.08
961.805	4687.6
962.108	4648.06
962.411	4634.04
962.714	4576.19
963.017	4595.18
963.32	4604.67
963.623	4532.13
963.926	4529.19
964.228	4501.17
964.531	4444.45
964.833	4457.1
965.136	4445.8
965.438	4362.41
965.741	4360.61
966.043	4341.17
966.345	4335.52
966.648	4282.64
966.95	4232.47
967.252	4221.85
967.554	4208.75
967.856	4164.9
968.158	4134.4
968.46	4162.42
968.761	4081.29
969.063	4123.78
969.365	4093.04
969.666	4037.68
969.968	3999.71
970.269	3957.45
970.571	4015.98
970.872	3928.75
971.174	3914.74
971.475	3898.24
971.776	3867.96
972.077	3832.71
972.378	3859.38
972.679	3864.8
972.98	3820.96
973.281	3802.88
973.582	3806.04
973.883	3817.34
974.183	3785.25
974.484	3754.07
974.785	3731.47
975.085	3726.95
975.386	3738.93
975.686	3710.68
975.986	3690.79
976.287	3697.57
976.587	3658.25
976.887	3625.03
977.187	3652.6
977.487	3601.08
977.787	3588.2
978.087	3636.56
978.387	3591.81
978.687	3591.36
978.987	3569.44
979.286	3564.92
979.586	3535.99
979.885	3571.7
980.185	3544.58
980.484	3495.77
980.784	3511.59
981.083	3455.54
981.382	3498.03
981.682	3456.45
981.981	3471.14
982.28	3455.09
982.579	3419.84
982.878	3467.07
983.177	3404.47
983.475	3419.61
983.774	3356.34
984.073	3362.67
984.372	3344.14
984.67	3321.08
984.969	3316.57
985.267	3277.92
985.566	3303.46
985.864	3229.34
986.162	3230.69
986.461	3228.66
986.759	3246.74
987.057	3206.96
987.355	3152.73
987.653	3140.52
987.951	3148.66
988.249	3111.15
988.547	3102.33
988.844	3100.75
989.142	3026.18
989.44	3051.94
989.737	3046.06
990.035	2988.89
990.332	2971.04
990.63	2957.25
990.927	3004.03
991.224	2933.07
991.521	2953.41
991.819	2928.78
992.116	2885.16
992.413	2920.87
992.71	2914.77
993.006	2844.71
993.303	2821.21
993.6	2842
993.897	2825.5
994.193	2805.62
994.49	2770.37
994.787	2758.61
995.083	2729.01
995.379	2725.17
995.676	2721.1
995.972	2712.29
996.268	2671.84
996.565	2664.83
996.861	2656.02
997.157	2620.54
997.453	2621.89
997.749	2583.25
998.044	2603.82
998.34	2615.57
998.636	2596.36
998.932	2586.87
999.227	2532.18
999.523	2533.31
999.818	2557.72
1000.114	2516.36
1000.409	2521.11
1000.704	2517.94
1001	2497.6
1001.295	2515.91
1001.59	2479.98
1001.885	2511.39
1002.18	2451.73
1002.475	2456.7
1002.77	2424.61
1003.065	2437.04
1003.359	2398.17
1003.654	2397.27
1003.949	2359.08
1004.243	2356.36
1004.538	2344.61
1004.832	2371.73
1005.127	2347.78
1005.421	2336.7
1005.715	2326.76
1006.009	2290.6
1006.304	2293.77
1006.598	2235.69
1006.892	2312.98
1007.186	2230.72
1007.48	2240.44
1007.773	2234.56
1008.067	2240.21
1008.361	2222.81
1008.655	2207.22
1008.948	2191.62
1009.242	2162.02
1009.535	2132.87
1009.829	2134.68
1010.122	2129.25
1010.415	2118.4
1010.708	2113.43
1011.001	2073.21
1011.295	2077.5
1011.588	2087.9
1011.881	2068.69
1012.173	2022.14
1012.466	2037.5
1012.759	2055.36
1013.052	1985.98
1013.344	1987.79
1013.637	1992.31
1013.93	1974.68
1014.222	1957.51
1014.514	1920.22
1014.807	1907.56
1015.099	1910.5
1015.391	1897.85
1015.683	1882.93
1015.976	1868.47
1016.268	1830.73
1016.56	1841.8
1016.851	1823.5
1017.143	1788.7
1017.435	1788.24
1017.727	1797.06
1018.018	1754.57
1018.31	1771.97
1018.602	1717.51
1018.893	1741.01
1019.185	1733.78
1019.476	1694.24
1019.767	1694.69
1020.058	1681.35
1020.35	1670.28
1020.641	1641.81
1020.932	1651.52
1021.223	1642.94
1021.514	1614.69
1021.804	1612.66
1022.095	1600.45
1022.386	1573.11
1022.677	1571.53
1022.967	1547.8
1023.258	1577.85
1023.548	1565.88
1023.839	1534.47
1024.129	1531.75
1024.419	1513.67
1024.709	1505.77
1025	1491.75
1025.29	1498.99
1025.58	1493.79
1025.87	1471.64
1026.16	1456.73
1026.449	1448.37
1026.739	1436.61
1027.029	1458.76
1027.319	1437.07
1027.608	1430.51
1027.898	1419.89
1028.187	1427.12
1028.477	1413.11
1028.766	1394.13
1029.055	1364.75
1029.344	1391.64
1029.634	1344.19
1029.923	1374.92
1030.212	1374.02
1030.501	1343.96
1030.79	1343.28
1031.078	1353.68
1031.367	1346
1031.656	1324.3
1031.945	1297.64
1032.233	1318.43
1032.522	1309.39
1032.81	1270.07
1033.099	1262.38
1033.387	1264.64
1033.675	1249.05
1033.963	1251.99
1034.251	1224.19
1034.54	1240.46
1034.828	1243.4
1035.116	1214.25
1035.403	1190.75
1035.691	1209.95
1035.979	1181.48
1036.267	1157.98
1036.554	1173.57
1036.842	1178.77
1037.129	1170.86
1037.417	1160.46
1037.704	1162.05
1037.992	1129.73
1038.279	1104.87
1038.566	1095.83
1038.853	1095.83
1039.14	1095.83
