Data from red_cardboard_box_FLMS001491_00009.txt Node
Date: Wed Feb 08 11:31:24 GMT 2017
User: dcchb
Spectrometer: FLMS00149
Trigger mode: 0
Integration Time (sec): 2.000000E-2
Scans to average: 10
Electric dark correction enabled: true
Nonlinearity correction enabled: false
Boxcar width: 0
XAxis mode: Wavelengths
Number of Pixels in Spectrum: 2048
>>>>>Begin Spectral Data<<<<<
341.393	-23.28
341.776	-23.28
342.16	-23.28
342.543	-67.79
342.927	-72.99
343.31	-70.51
343.693	-75.93
344.077	-67.34
344.46	-52.2
344.843	-57.85
345.226	-68.02
345.61	-16.04
345.993	-23.5
346.376	0.45
346.759	11.53
347.142	24.63
347.525	40
347.908	63.05
348.291	69.15
348.674	102.6
349.057	120
349.44	137.17
349.823	154.12
350.206	142.6
350.588	194.35
350.971	205.87
351.354	237.06
351.737	247
352.119	254.46
352.502	272.76
352.884	279.54
353.267	287.45
353.65	301.69
354.032	287.9
354.414	326.77
354.797	321.12
355.179	315.47
355.562	331.52
355.944	326.09
356.326	342.59
356.709	358.18
357.091	353.21
357.473	343.49
357.855	348.69
358.238	342.14
358.62	340.33
359.002	341.46
359.384	343.27
359.766	345.3
360.148	359.99
360.53	353.66
360.912	329.03
361.294	316.83
361.676	344.85
362.057	307.34
362.439	347.79
362.821	325.87
363.203	319.54
363.584	315.47
363.966	313.44
364.348	324.06
364.729	293.78
365.111	344.4
365.493	312.76
365.874	305.08
366.256	322.7
366.637	315.25
367.019	319.09
367.4	302.82
367.781	325.64
368.163	325.87
368.544	313.21
368.925	308.24
369.306	320.44
369.688	312.53
370.069	307.11
370.45	319.54
370.831	330.61
371.212	304.62
371.593	322.7
371.974	326.55
372.355	324.74
372.736	327.22
373.117	336.26
373.498	324.74
373.879	324.96
374.26	319.54
374.641	315.92
375.021	311.63
375.402	317.73
375.783	308.69
376.163	313.66
376.544	343.49
376.925	346.21
377.305	347.34
377.686	325.87
378.066	314.34
378.447	333.32
378.827	329.03
379.208	329.03
379.588	317.96
379.968	325.42
380.349	327.22
380.729	327.9
381.109	348.47
381.489	322.03
381.87	348.01
382.25	315.47
382.63	348.47
383.01	339.2
383.39	339.65
383.77	338.07
384.15	324.96
384.53	326.55
384.91	351.63
385.29	338.52
385.67	346.88
386.049	357.05
386.429	355.02
386.809	350.27
387.189	351.63
387.568	360.44
387.948	339.88
388.328	352.99
388.707	345.75
389.087	358.41
389.466	365.19
389.846	374.45
390.225	362.7
390.605	347.56
390.984	356.83
391.363	358.63
391.743	370.84
392.122	376.49
392.501	347.34
392.881	366.54
393.26	353.89
393.639	374.23
394.018	377.39
394.397	378.75
394.776	364.06
395.155	373.1
395.534	384.62
395.913	369.26
396.292	378.3
396.671	361.57
397.05	362.7
397.429	365.64
397.808	375.13
398.186	371.29
398.565	365.87
398.944	383.72
399.323	359.31
399.701	400.44
400.08	376.26
400.458	390.27
400.837	380.55
401.215	395.24
401.594	373.78
401.972	370.39
402.351	398.63
402.729	398.18
403.107	405.64
403.486	390.72
403.864	392.76
404.242	386.2
404.62	387.56
404.999	390.05
405.377	399.31
405.755	412.64
406.133	401.35
406.511	392.76
406.889	387.11
407.267	382.81
407.645	405.64
408.023	404.28
408.401	421.91
408.779	411.06
409.156	399.09
409.534	405.41
409.912	412.42
410.29	408.8
410.667	426.43
411.045	425.75
411.422	431.63
411.8	411.97
412.178	412.19
412.555	439.31
412.933	414
413.31	419.88
413.687	437.05
414.065	427.79
414.442	439.31
414.819	429.59
415.197	451.74
415.574	456.94
415.951	444.51
416.328	481.8
416.705	452.64
417.082	460.55
417.46	450.38
417.837	463.49
418.214	451.06
418.591	444.51
418.967	478.41
419.344	454
419.721	482.02
420.098	457.84
420.475	471.85
420.852	478.63
421.228	484.28
421.605	473.21
421.982	471.4
422.358	479.31
422.735	476.37
423.111	484.28
423.488	480.89
423.864	481.34
424.241	489.93
424.617	482.93
424.994	489.25
425.37	515.01
425.746	494.68
426.123	510.27
426.499	497.61
426.875	514.34
427.251	503.04
427.627	511.4
428.003	502.59
428.379	526.77
428.756	500.55
429.132	508.69
429.507	519.53
429.883	538.74
430.259	538.29
430.635	551.4
431.011	541.91
431.387	539.87
431.763	540.32
432.138	532.87
432.514	560.21
432.89	540.78
433.265	557.5
433.641	538.06
434.016	573.09
434.392	545.3
434.767	571.06
435.143	584.62
435.518	567.67
435.894	587.78
436.269	583.49
436.644	602.7
437.02	580.78
437.395	584.62
437.77	614.67
438.145	609.02
438.52	588.69
438.895	618.51
439.271	611.96
439.646	612.19
440.021	607.22
440.395	625.07
440.77	632.3
441.145	604.28
441.52	637.05
441.895	636.82
442.27	649.25
442.645	625.52
443.019	639.53
443.394	638.85
443.769	628.01
444.143	630.94
444.518	632.98
444.892	634.79
445.267	638.4
445.641	649.25
446.016	617.61
446.39	647.44
446.764	663.03
447.139	673.2
447.513	667.78
447.887	663.94
448.262	663.94
448.636	693.77
449.01	682.69
449.384	700.77
449.758	665.97
450.132	666.2
450.506	685.86
450.88	654.22
451.254	687.89
451.628	710.94
452.002	696.7
452.376	705.07
452.75	710.04
453.123	708.68
453.497	701.22
453.871	719.08
454.244	737.16
454.618	738.06
454.992	731.96
455.365	740.32
455.739	745.29
456.112	749.81
456.486	731.51
456.859	752.3
457.232	774.44
457.606	755.91
457.979	745.52
458.352	768.57
458.725	781.45
459.099	795.01
459.472	773.76
459.845	802.46
460.218	791.84
460.591	786.42
460.964	784.16
461.337	810.15
461.71	817.83
462.083	851.05
462.456	832.07
462.829	814.22
463.201	853.08
463.574	860.54
463.947	860.54
464.32	844.5
464.692	872.07
465.065	866.19
465.438	882.46
465.81	898.51
466.183	879.98
466.555	930.15
466.928	912.74
467.3	909.13
467.672	933.08
468.045	923.59
468.417	935.12
468.789	942.8
469.161	952.97
469.534	979.18
469.906	981.44
470.278	970.37
470.65	1012.63
471.022	1023.25
471.394	1004.49
471.766	1003.82
472.138	1031.61
472.51	1038.62
472.882	1055.57
473.253	1048.33
473.625	1068.9
473.997	1074.1
474.369	1093.98
474.74	1092.17
475.112	1110.25
475.484	1127.43
475.855	1140.53
476.227	1143.92
476.598	1167.65
476.97	1172.17
477.341	1171.49
477.713	1202.45
478.084	1215.56
478.455	1212.85
478.827	1243.81
479.198	1277.03
479.569	1283.81
479.94	1285.16
480.311	1333.07
480.682	1326.74
481.053	1380.53
481.424	1375.33
481.795	1372.17
482.166	1377.14
482.537	1421.88
482.908	1415.33
483.279	1456.23
483.65	1463.92
484.021	1475.67
484.391	1510.69
484.762	1511.37
485.133	1514.08
485.503	1519.51
485.874	1588.21
486.244	1566.96
486.615	1592.05
486.985	1575.78
487.356	1679.05
487.726	1637.02
488.097	1673.4
488.467	1651.48
488.837	1697.58
489.207	1729.67
489.578	1758.82
489.948	1745.72
490.318	1801.76
490.688	1783
491.058	1808.99
491.428	1822.32
491.798	1872.95
492.168	1879.05
492.538	1900.29
492.908	1895.54
493.278	1914.07
493.648	1947.29
494.017	1946.16
494.387	1957.46
494.757	1991.59
495.126	2017.8
495.496	1996.33
495.866	2030.46
496.235	2052.38
496.605	2049.21
496.974	2063.22
497.344	2081.98
497.713	2105.48
498.082	2119.94
498.452	2134.86
498.821	2139.83
499.19	2175.76
499.559	2198.13
499.928	2157.68
500.298	2217.79
500.667	2232.94
501.036	2216.89
501.405	2232.48
501.774	2260.73
502.143	2284.23
502.512	2299.6
502.88	2320.84
503.249	2308.41
503.618	2328.53
503.987	2322.2
504.356	2345.93
504.724	2376.43
505.093	2400.16
505.462	2425.02
505.83	2412.82
506.199	2442.2
506.567	2450.11
506.936	2467.73
507.304	2486.94
507.672	2493.49
508.041	2489.65
508.409	2487.62
508.777	2543.21
509.145	2559.48
509.514	2578.69
509.882	2587.73
510.25	2608.74
510.618	2621.63
510.986	2622.3
511.354	2674.96
511.722	2678.8
512.09	2700.49
512.458	2703.21
512.826	2705.47
513.193	2747.72
513.561	2739.36
513.929	2746.82
514.297	2789.08
514.664	2833.6
515.032	2823.65
515.4	2846.93
515.767	2890.77
516.135	2879.7
516.502	2872.47
516.869	2946.36
517.237	2906.82
517.604	2919.92
517.972	2970.09
518.339	2988.4
518.706	3019.58
519.073	3032.01
519.44	3050.99
519.808	3093.48
520.175	3077.43
520.542	3111.56
520.909	3114.49
521.276	3137.32
521.643	3170.09
522.009	3173.48
522.376	3219.58
522.743	3246.69
523.11	3263.19
523.477	3284.89
523.843	3272.91
524.21	3297.09
524.577	3390.42
524.943	3331.44
525.31	3411.89
525.676	3482.39
526.043	3446.01
526.409	3511.55
526.776	3552.67
527.142	3520.36
527.508	3566.69
527.874	3583.41
528.241	3592.9
528.607	3589.96
528.973	3651.2
529.339	3652.56
529.705	3728.49
530.071	3702.73
530.437	3732.33
530.803	3738.88
531.169	3777.75
531.535	3811.2
531.901	3838.09
532.267	3817.3
532.632	3897.07
532.998	3882.16
533.364	3886.45
533.73	3914.25
534.095	3944.53
534.461	3985.66
534.826	4002.83
535.192	4024.07
535.557	4046.9
535.923	4040.57
536.288	4050.74
536.653	4075.6
537.019	4106.56
537.384	4116.05
537.749	4152.43
538.114	4161.7
538.479	4197.18
538.845	4220.45
539.21	4215.03
539.575	4239.21
539.94	4252.32
540.305	4295.71
540.67	4301.81
541.034	4301.58
541.399	4331.19
541.764	4371.41
542.129	4367.34
542.494	4397.85
542.858	4376.38
543.223	4386.33
543.587	4483.72
543.952	4448.92
544.316	4504.74
544.681	4497.73
545.045	4497.06
545.41	4545.64
545.774	4580.22
546.138	4575.25
546.503	4566.89
546.867	4613.89
547.231	4666.54
547.595	4705.86
547.959	4720.1
548.324	4724.17
548.688	4701.12
549.052	4797.61
549.416	4752.19
549.779	4805.3
550.143	4811.4
550.507	4874.22
550.871	4901.57
551.235	4897.5
551.599	4985.63
551.962	4902.24
552.326	4958.06
552.689	5033.99
553.053	5058.17
553.417	5107.89
553.78	5104.27
554.143	5057.04
554.507	5159.64
554.87	5150.37
555.234	5243.25
555.597	5238.96
555.96	5270.37
556.323	5315.79
556.686	5349.24
557.05	5369.12
557.413	5398.28
557.776	5414.32
558.139	5473.08
558.502	5476.01
558.865	5511.27
559.228	5588.78
559.59	5649.79
559.953	5665.16
560.316	5702.45
560.679	5756.23
561.041	5836.68
561.404	5789.45
561.767	5907.87
562.129	5926.4
562.492	6008.2
562.854	6029.67
563.217	6031.93
563.579	6059.73
563.941	6177.69
564.304	6224.24
564.666	6316.67
565.028	6281.19
565.39	6344.01
565.753	6413.84
566.115	6455.42
566.477	6544.46
566.839	6577.23
567.201	6669.2
567.563	6675.3
567.925	6772.48
568.287	6796.43
568.648	6848.41
569.01	6912.59
569.372	7004.34
569.734	7017.89
570.095	7084.33
570.457	7137.89
570.819	7196.42
571.18	7252.01
571.542	7381.05
571.903	7452.69
572.265	7543.53
572.626	7587.82
572.987	7607.03
573.349	7674.83
573.71	7779.23
574.071	7853.13
574.432	7967.47
574.794	8071.43
575.155	8115.94
575.516	8129.73
575.877	8300.35
576.238	8347.58
576.599	8450.85
576.96	8482.49
577.32	8610.4
577.681	8700.34
578.042	8853.1
578.403	8910.73
578.763	9015.81
579.124	9070.04
579.485	9288.34
579.845	9394.56
580.206	9398.62
580.566	9604.04
580.927	9740.99
581.287	9851.72
581.648	9873.86
582.008	10026.63
582.368	10204.7
582.728	10324.93
583.089	10446.5
583.449	10592.72
583.809	10682.88
584.169	10892.14
584.529	11034.96
584.889	11234.96
585.249	11356.76
585.609	11532.8
585.969	11783.19
586.329	11934.83
586.688	12075.16
587.048	12202.62
587.408	12405.32
587.768	12610.74
588.127	12791.08
588.487	13068.81
588.846	13267.67
589.206	13470.15
589.565	13680.54
589.925	13954.44
590.284	14167.31
590.643	14473.74
591.003	14688.43
591.362	14995.09
591.721	15164.35
592.08	15415.19
592.44	15758.46
592.799	15985.79
593.158	16276.63
593.517	16561.6
593.876	16829.39
594.235	17096.5
594.593	17400.22
594.952	17782.58
595.311	17968.79
595.67	18321.78
596.029	18806.29
596.387	19068.88
596.746	19324.01
597.104	19599.71
597.463	19858.69
597.822	20307.94
598.18	20517.65
598.538	20858.66
598.897	21267.69
599.255	21537.29
599.613	22093.43
599.972	22205.97
600.33	22595.11
600.688	22904.03
601.046	23362.1
601.404	23663.56
601.762	23952.59
602.12	24342.86
602.478	24681.61
602.836	25010.42
603.194	25188.49
603.552	25521.59
603.91	25828.02
604.268	26289.93
604.625	26555.46
604.983	26901.21
605.341	27173.3
605.698	27493.51
606.056	27909.32
606.413	28151.8
606.771	28463.21
607.128	28870.65
607.485	28977.32
607.843	29231.77
608.2	29502.73
608.557	29998.99
608.914	30039.89
609.272	30616.14
609.629	30822.24
609.986	31269.23
610.343	31316.46
610.7	31625.16
611.057	31931.36
611.414	32147.18
611.771	32339.04
612.127	32583.55
612.484	32870.77
612.841	33143.76
613.198	33128.85
613.554	33496.75
613.911	33887.7
614.267	33968.82
614.624	34169.27
614.98	34466.44
615.337	34768.58
615.693	34703.49
616.05	34954.79
616.406	35432.51
616.762	35417.37
617.118	35471.84
617.475	35608.78
617.831	35929.45
618.187	36056.23
618.543	36312.94
618.899	36681.97
619.255	36756.55
619.611	36817.34
619.967	36910.67
620.323	37175.97
620.678	37224.11
621.034	37187.04
621.39	37411.45
621.746	37493.7
622.101	37926.91
622.457	37763.53
622.812	37932.34
623.168	38190.86
623.523	38218.2
623.879	38396.5
624.234	38163.06
624.589	38533.9
624.945	38700.9
625.3	38670.62
625.655	38732.54
626.01	38840.56
626.365	38963.5
626.72	38888.02
627.075	38985.87
627.43	39178.18
627.785	39121.23
628.14	39153.32
628.495	39351.28
628.85	39377.72
629.205	39310.6
629.559	39603.25
629.914	39597.6
630.269	39665.4
630.623	39632.63
630.978	39493.2
631.332	39710.14
631.687	39928.44
632.041	39692.74
632.396	39909.23
632.75	39751.05
633.104	39896.8
633.459	39921.44
633.813	39870.14
634.167	39868.33
634.521	39777.94
634.875	39968.44
635.229	39931.15
635.583	39788.33
635.937	39876.69
636.291	39825.85
636.645	39839.63
636.999	39793.76
637.352	39936.35
637.706	39809.8
638.06	40083.92
638.413	39881.44
638.767	39804.15
639.121	39935.67
639.474	39746.53
639.828	39798.5
640.181	39925.05
640.534	39980.64
640.888	39998.72
641.241	39785.62
641.594	39812.51
641.947	40003.02
642.301	39806.18
642.654	39945.39
643.007	39945.62
643.36	39927.99
643.713	39919.85
644.066	39964.15
644.419	39735.68
644.771	39492.97
645.124	39224.96
645.477	39164.17
645.83	38812.99
646.182	38846.66
646.535	38905.87
646.888	38923.72
647.24	38909.03
647.593	39067.22
647.945	38905.87
648.298	38691.86
648.65	38793.56
649.002	38665.42
649.355	39002.82
649.707	38796.49
650.059	38925.76
650.411	39372.07
650.763	39513.09
651.115	39933.64
651.467	39578.39
651.819	39808.22
652.171	39680.54
652.523	39631.27
652.875	39707.66
653.227	39346.54
653.578	39746.07
653.93	39635.57
654.282	39569.81
654.633	39438.96
654.985	39610.71
655.337	39506.76
655.688	39683.25
656.039	39767.77
656.391	39497.49
656.742	39478.74
657.094	39521.67
657.445	39652.06
657.796	39539.3
658.147	39480.09
658.498	39531.39
658.849	39502.24
659.2	39481.22
659.551	39341.34
659.902	39536.59
660.253	39515.8
660.604	39543.14
660.955	39358.97
661.306	39530.71
661.656	39441
662.007	39543.37
662.358	39544.5
662.708	39488.23
663.059	39359.64
663.409	39292.3
663.76	39596.47
664.11	39546.76
664.461	39587.43
664.811	39481.67
665.161	39516.25
665.511	39423.6
665.862	39525.74
666.212	39599.86
666.562	39608.9
666.912	39454.1
667.262	39410.72
667.612	39454.78
667.962	39384.05
668.312	39294.56
668.662	39501.33
669.011	39570.94
669.361	39437.16
669.711	39502.24
670.06	39272.87
670.41	39250.72
670.76	39201.91
671.109	39453.88
671.459	39298.18
671.808	39116.71
672.157	39250.49
672.507	39036.71
672.856	39031.06
673.205	39172.98
673.554	39322.58
673.904	39109.93
674.253	39393.77
674.602	39055.02
674.951	38695.71
675.3	38536.84
675.649	39057.5
675.998	39056.15
676.346	38948.13
676.695	39058.63
677.044	38939.77
677.393	38999.65
677.741	38997.17
678.09	38919.43
678.438	38765.31
678.787	38891.41
679.135	39062.93
679.484	38697.06
679.832	38815.25
680.181	38585.43
680.529	38728.7
680.877	38687.57
681.225	38604.41
681.573	38777.51
681.922	38508.14
682.27	38390.4
682.618	38517.63
682.966	38331.2
683.314	38475.15
683.661	38350.4
684.009	38096.63
684.357	38020.47
684.705	37962.17
685.053	37998.1
685.4	37963.75
685.748	37910.42
686.095	37967.59
686.443	37792
686.79	37792.23
687.138	37722.4
687.485	37712.23
687.832	37522.86
688.18	37639.24
688.527	37437.89
688.874	37422.74
689.221	37448.96
689.568	37229.3
689.915	37182.53
690.262	37111.79
690.609	37057.78
690.956	36830.9
691.303	36810.78
691.65	36752.03
691.997	36644.01
692.344	36439.72
692.69	36624.12
693.037	36676.32
693.383	36182.78
693.73	36400.17
694.077	36250.35
694.423	36238.82
694.769	36000.64
695.116	35973.07
695.462	36013.97
695.808	35736.46
696.155	35862.56
696.501	35629.12
696.847	35691.72
697.193	35412.18
697.539	35504.38
697.885	35189.13
698.231	35224.61
698.577	35303.48
698.923	35103.26
699.269	34981
699.614	34791.18
699.96	34794.11
700.306	34677.51
700.651	34533.1
700.997	34556.61
701.342	34564.29
701.688	34442.71
702.033	34307.8
702.379	34269.38
702.724	34166.11
703.069	34348.7
703.415	33781.48
703.76	33937.86
704.105	33941.03
704.45	33767.25
704.795	33675.72
705.14	33441.38
705.485	33493.81
705.83	33490.64
706.175	33432.57
706.52	33386.24
706.865	33332
707.209	33205.68
707.554	33029.64
707.899	33099.92
708.243	32974.5
708.588	32839.14
708.932	32722.98
709.277	32715.52
709.621	32749.2
709.966	32478.47
710.31	32492.25
710.654	32190.57
710.998	32275.99
711.342	32325.93
711.687	32286.16
712.031	32188.31
712.375	32047.52
712.719	32042.32
713.063	32001.42
713.407	32018.37
713.75	31844.36
714.094	31892.49
714.438	31705.38
714.782	31765.49
715.125	31737.02
715.469	31720.52
715.812	31498.15
716.156	31299.74
716.499	31388.1
716.843	31430.13
717.186	31241.21
717.53	31327.54
717.873	31476.69
718.216	31187.43
718.559	31205.06
718.902	30902.69
719.246	30968.9
719.589	30894.55
719.932	30804.16
720.275	30654.34
720.617	30749.7
720.96	30613.21
721.303	30730.04
721.646	30744.05
721.989	30599.65
722.331	30723.49
722.674	30485.53
723.016	30572.08
723.359	30409.82
723.701	30347.9
724.044	30203.73
724.386	30188.36
724.729	30262.48
725.071	30128.93
725.413	30245.53
725.755	30081.47
726.097	29982.94
726.439	29807.13
726.782	29880.12
727.124	30005.54
727.465	29768.26
727.807	29801.25
728.149	29830.85
728.491	29592.67
728.833	29738.65
729.175	29537.98
729.516	29514.7
729.858	29526.68
730.199	29530.52
730.541	29491.2
730.882	29563.52
731.224	29569.17
731.565	29300.02
731.906	29374.59
732.248	29295.5
732.589	29231.55
732.93	29135.73
733.271	29271.77
733.612	29083.98
733.953	29176.18
734.294	29058.9
734.635	28946.58
734.976	29236.29
735.317	28929.18
735.658	29006.02
735.999	28995.62
736.339	28781.39
736.68	28840.82
737.021	28764.67
737.361	28618
737.702	28889.86
738.042	28683.99
738.383	28592.47
738.723	28681.51
739.063	28445.81
739.404	28591.34
739.744	28510.66
740.084	28412.13
740.424	28501.62
740.764	28385.02
741.104	28488.06
741.444	28307.73
741.784	28218.92
742.124	28305.24
742.464	28214.85
742.804	28156.1
743.143	28074.97
743.483	28076.78
743.823	27957.68
744.162	27881.98
744.502	27877.69
744.841	27879.72
745.181	28013.95
745.52	27867.52
745.86	28026.61
746.199	27862.32
746.538	27802.21
746.877	27782.09
747.216	27840.62
747.556	27706.62
747.895	27727.86
748.234	27619.61
748.573	27628.2
748.911	27554.08
749.25	27621.65
749.589	27543
749.928	27466.62
750.267	27421.2
750.605	27342.33
750.944	27361.77
751.283	27289.68
751.621	27304.59
751.96	27141.66
752.298	27069.34
752.636	27104.37
752.975	27056.24
753.313	26921.33
753.651	27078.38
753.989	26881.78
754.327	26844.04
754.666	26778.5
755.004	26764.72
755.342	26826.87
755.679	26654.67
756.017	26416.25
756.355	26601.56
756.693	26424.84
757.031	26488.57
757.368	26261.23
757.706	26292.42
758.044	26199.99
758.381	26197.73
758.719	26080.67
759.056	26043.38
759.394	26073.89
759.731	25839.09
760.068	25908.47
760.405	25732.66
760.743	25823.73
761.08	25724.3
761.417	25774.69
761.754	25585.32
762.091	25599.55
762.428	25377.86
762.765	25338.99
763.102	25358.88
763.438	25337.64
763.775	25091.54
764.112	25142.16
764.449	25173.58
764.785	24978.33
765.122	24906.46
765.458	24720.93
765.795	24700.14
766.131	24693.36
766.467	24562.74
766.804	24479.81
767.14	24402.75
767.476	24361.17
767.812	24327.5
768.148	24256.54
768.485	24160.04
768.821	24092.93
769.157	23974.28
769.492	23984.91
769.828	23885.47
770.164	23668.98
770.5	23770.9
770.836	23732.26
771.171	23480.74
771.507	23499.72
771.842	23272.61
772.178	23313.51
772.513	23240.74
772.849	23163.01
773.184	23041.88
773.519	23084.36
773.855	22990.58
774.19	22977.25
774.525	22799.4
774.86	22786.75
775.195	22779.51
775.53	22633.3
775.865	22615.45
776.2	22362.8
776.535	22304.72
776.87	22211.62
777.205	22093.43
777.539	21998.74
777.874	22100.89
778.209	21860.22
778.543	21870.84
778.878	21656.38
779.212	21786.55
779.547	21556.04
779.881	21620.67
780.215	21524.18
780.55	21543.39
780.884	21342.72
781.218	21263.4
781.552	21302.94
781.886	21136.39
782.22	20968.94
782.554	20962.39
782.888	20840.81
783.222	20775.5
783.556	20709.96
783.889	20610.08
784.223	20430.88
784.557	20470.87
784.89	20506.58
785.224	20394.49
785.557	20258
785.891	20177.55
786.224	20186.81
786.558	20154.05
786.891	19973.03
787.224	20001.28
787.557	19862.75
787.891	19817.78
788.224	19758.12
788.557	19734.62
788.89	19691.23
789.223	19640.84
789.556	19583.44
789.888	19534.63
790.221	19369.89
790.554	19305.26
790.887	19257.12
791.219	19144.58
791.552	19065.94
791.884	19115.43
792.217	19060.29
792.549	18892.38
792.882	18725.38
793.214	18767.87
793.546	18738.72
793.879	18623.24
794.211	18556.12
794.543	18562.9
794.875	18497.37
795.207	18600.41
795.539	18397.71
795.871	18381.21
796.203	18260.31
796.535	18138.51
796.867	18120.88
797.198	18113.2
797.53	18036.81
797.862	17899.42
798.193	17888.34
798.525	17834.33
798.856	17836.14
799.188	17647.22
799.519	17701
799.85	17554.79
800.182	17577.84
800.513	17646.99
800.844	17423.72
801.175	17520.9
801.506	17425.76
801.837	17301.69
802.168	17347.57
802.499	17284.97
802.83	17133.79
803.161	17090.62
803.491	17080.91
803.822	17086.33
804.153	16940.12
804.483	16845.88
804.814	16781.93
805.145	16869.61
805.475	16803.85
805.805	16655.38
806.136	16609.73
806.466	16730.18
806.796	16600.24
807.126	16547.59
807.457	16458.1
807.787	16444.09
808.117	16342.62
808.447	16280.7
808.777	16287.26
809.107	16275.28
809.436	16199.57
809.766	16151.67
810.096	16091.1
810.426	16098.33
810.755	16079.8
811.085	15988.73
811.414	15989.18
811.744	15950.32
812.073	15882.29
812.403	15845.46
812.732	15668.74
813.061	15786.7
813.39	15665.58
813.719	15587.84
814.049	15624.45
814.378	15639.59
814.707	15508.74
815.036	15526.6
815.365	15523.89
815.693	15390.1
816.022	15355.53
816.351	15325.7
816.68	15221.52
817.008	15367.28
817.337	15110.34
817.665	15126.83
817.994	15261.07
818.322	15040.73
818.651	15111.69
818.979	15067.4
819.307	15127.51
819.636	15042.77
819.964	14970.45
820.292	14954.86
820.62	14982.66
820.948	14951.92
821.276	14951.92
821.604	14842.77
821.932	14886.39
822.259	14984.69
822.587	14927.07
822.915	14841.87
823.243	14897.46
823.57	14824.69
823.898	14882.77
824.225	14817.69
824.553	14845.03
824.88	14776.33
825.207	14879.16
825.535	14818.14
825.862	14859.95
826.189	14731.59
826.516	14843.9
826.843	14816.56
827.17	14931.81
827.497	14937.91
827.824	14839.38
828.151	14881.42
828.478	14774.98
828.805	14875.32
829.131	14736.79
829.458	14702.21
829.785	14682.78
830.111	14648.88
830.438	14785.15
830.764	14729.78
831.09	14759.61
831.417	14748.31
831.743	14707.86
832.069	14775.88
832.395	14676.68
832.722	14732.04
833.048	14664.02
833.374	14702.21
833.7	14651.37
834.026	14655.43
834.351	14669.44
834.677	14582.67
835.003	14674.19
835.329	14618.6
835.654	14632.16
835.98	14601.42
836.306	14524.36
836.631	14563.23
836.956	14551.93
837.282	14530.92
837.607	14482.56
837.932	14381.09
838.258	14426.74
838.583	14415.21
838.908	14348.32
839.233	14476.91
839.558	14331.6
839.883	14226.74
840.208	14212.28
840.533	14199.63
840.858	14239.85
841.182	14239.63
841.507	14181.55
841.832	14140.65
842.156	14141.32
842.481	14078.05
842.805	14130.48
843.13	14016.35
843.454	14045.96
843.778	14049.12
844.103	13982.23
844.427	13959.18
844.751	13919.41
845.075	13789.47
845.399	13879.64
845.723	13631.73
846.047	13746.76
846.371	13579.76
846.695	13614.11
847.019	13431.06
847.343	13515.35
847.666	13465.41
847.99	13367.78
848.313	13352.19
848.637	13214.57
848.96	13223.83
849.284	13184.96
849.607	13176.6
849.931	13090.05
850.254	12925.54
850.577	12963.27
850.9	12832.2
851.223	12859.55
851.546	12746.78
851.869	12731.87
852.192	12728.48
852.515	12625.66
852.838	12599.67
853.161	12633.57
853.483	12487.58
853.806	12469.73
854.129	12466.34
854.451	12359.22
854.774	12366.23
855.096	12304.31
855.419	12273.12
855.741	12192.22
856.063	12168.49
856.385	12123.07
856.708	12179.57
857.03	12097.76
857.352	12107.7
857.674	11971.21
857.996	11926.69
858.318	11855.06
858.64	11902.06
858.961	11822.51
859.283	11850.08
859.605	11766.47
859.926	11843.53
860.248	11772.35
860.57	11717.88
860.891	11649.19
861.212	11610.09
861.534	11625.01
861.855	11600.6
862.176	11601.73
862.498	11590.43
862.819	11604.21
863.14	11519.92
863.461	11434.73
863.782	11438.8
864.103	11431.79
864.424	11386.82
864.745	11443.31
865.065	11466.14
865.386	11389.53
865.707	11344.79
866.027	11357.67
866.348	11319.48
866.668	11341.17
866.989	11267.73
867.309	11146.37
867.63	11219.37
867.95	11225.92
868.27	11135.53
868.59	11189.54
868.91	11137.56
869.23	11091.46
869.55	11039.03
869.87	11177.56
870.19	11054.62
870.51	11053.04
870.83	11066.83
871.15	11049.65
871.469	11022.08
871.789	10987.28
872.109	10984.12
872.428	10894.63
872.748	10848.08
873.067	10914.97
873.386	10938.47
873.706	10860.28
874.025	10854.4
874.344	10829.55
874.663	10859.15
874.982	10818.02
875.301	10782.99
875.62	10797.46
875.939	10665.26
876.258	10724.01
876.577	10705.26
876.896	10720.85
877.214	10653.96
877.533	10694.86
877.852	10631.13
878.17	10616.22
878.489	10610.57
878.807	10672.71
879.125	10638.36
879.444	10536.67
879.762	10592.26
880.08	10588.65
880.398	10509.55
880.716	10482.89
881.034	10498.26
881.352	10421.87
881.67	10446.5
881.988	10474.07
882.306	10434.08
882.624	10452.38
882.941	10345.94
883.259	10302.33
883.577	10331.03
883.894	10316.11
884.212	10251.03
884.529	10218.49
884.846	10233.18
885.164	10200.18
885.481	10182.11
885.798	10193.63
886.115	10068.44
886.432	10070.02
886.75	9973.07
887.067	10001.54
887.383	9981.66
887.7	9954.09
888.017	9980.75
888.334	9926.52
888.651	9841.32
888.967	9879.74
889.284	9865.5
889.6	9796.8
889.917	9729.24
890.233	9771.72
890.55	9715.22
890.866	9718.16
891.182	9703.93
891.498	9661.67
891.815	9581.44
892.131	9622.57
892.447	9591.39
892.763	9566.53
893.079	9508.22
893.395	9526.98
893.71	9490.82
894.026	9430.26
894.342	9462.58
894.657	9318.63
894.973	9327.21
895.289	9381.9
895.604	9306.65
895.92	9265.07
896.235	9216.03
896.55	9175.58
896.865	9273.88
897.181	9120.89
897.496	9080.21
897.811	9091.51
898.126	9097.16
898.441	9056.26
898.756	9051.29
899.071	8923.61
899.386	8940.56
899.7	8919.54
900.015	8844.06
900.33	8801.35
900.644	8771.07
900.959	8836.15
901.273	8783.72
901.588	8683.16
901.902	8731.07
902.216	8637.29
902.531	8671.64
902.845	8630.06
903.159	8584.18
903.473	8501.02
903.787	8488.14
904.101	8430.29
904.415	8474.35
904.729	8451.53
905.042	8378.76
905.356	8346.45
905.67	8351.87
905.984	8322.49
906.297	8240.24
906.611	8176.73
906.924	8172.89
907.237	8119.11
907.551	8141.03
907.864	8107.13
908.177	8098.77
908.491	8047.92
908.804	8057.87
909.117	7965.89
909.43	7950.3
909.743	7874.37
910.056	7920.02
910.368	7840.02
910.681	7784.65
910.994	7809.29
911.307	7762.06
911.619	7614.72
911.932	7647.26
912.244	7601.61
912.557	7619.46
912.869	7555.28
913.181	7564.55
913.494	7520.48
913.806	7516.19
914.118	7476.41
914.43	7398.68
914.742	7430.54
915.054	7331.33
915.366	7259.02
915.678	7267.15
915.99	7310.09
916.302	7221.96
916.613	7192.58
916.925	7197.32
917.236	7160.94
917.548	7111
917.859	7160.49
918.171	7089.76
918.482	7030.78
918.794	6978.12
919.105	7023.09
919.416	6902.19
919.727	6891.34
920.038	6914.17
920.349	6835.98
920.66	6834.4
920.971	6788.07
921.282	6797.79
921.593	6754.4
921.903	6723.44
922.214	6661.97
922.525	6619.26
922.835	6600.96
923.146	6606.38
923.456	6603.67
923.767	6597.11
924.077	6546.27
924.387	6468.76
924.697	6424.01
925.008	6419.94
925.318	6396.89
925.628	6380.62
925.938	6392.37
926.248	6364.35
926.558	6289.55
926.867	6251.59
927.177	6238.71
927.487	6240.29
927.796	6147.18
928.106	6156.45
928.416	6098.82
928.725	6145.38
929.034	6088.65
929.344	6121.87
929.653	6087.52
929.962	6030.12
930.271	5959.84
930.581	5950.35
930.89	5893.63
931.199	5916.91
931.508	5903.12
931.817	5865.83
932.125	5865.16
932.434	5876
932.743	5799.17
933.051	5743.13
933.36	5714.43
933.669	5687.31
933.977	5702.9
934.286	5673.07
934.594	5604.37
934.902	5614.32
935.21	5597.14
935.519	5593.98
935.827	5510.36
936.135	5502.68
936.443	5503.13
936.751	5477.6
937.059	5462.23
937.367	5397.15
937.674	5399.63
937.982	5420.42
938.29	5416.58
938.597	5403.93
938.905	5313.98
939.213	5270.37
939.52	5273.31
939.827	5223.37
940.135	5162.58
940.442	5182.01
940.749	5156.02
941.056	5190.15
941.363	5140.88
941.67	5153.31
941.977	5107.21
942.284	5041.68
942.591	5005.52
942.898	5031.73
943.205	4967.55
943.511	4992.64
943.818	4981.34
944.125	4959.64
944.431	4952.41
944.738	4887.33
945.044	4886.65
945.35	4839.42
945.657	4790.61
945.963	4777.05
946.269	4778.18
946.575	4769.82
946.881	4741.34
947.187	4680.1
947.493	4700.44
947.799	4693.21
948.105	4655.7
948.41	4611.4
948.716	4653.66
949.022	4570.5
949.327	4580.22
949.633	4589.71
949.938	4537.73
950.244	4531.63
950.549	4508.58
950.854	4478.3
951.16	4495.25
951.465	4444.18
951.77	4436.72
952.075	4427.91
952.38	4394.01
952.685	4428.58
952.99	4326.44
953.294	4347
953.599	4313.56
953.904	4263.39
954.209	4278.98
954.513	4269.49
954.818	4230.85
955.122	4214.13
955.426	4183.62
955.731	4183.62
956.035	4176.16
956.339	4155.14
956.643	4172.32
956.948	4120.8
957.252	4085.99
957.556	4064.75
957.86	4043.96
958.163	4020.91
958.467	4033.34
958.771	3987.24
959.075	3974.13
959.378	3985.43
959.682	4001.93
959.985	3935.26
960.289	3915.15
960.592	3897.52
960.896	3918.77
961.199	3859.11
961.502	3808.26
961.805	3820.24
962.108	3786.57
962.411	3793.57
962.714	3802.84
963.017	3783.4
963.32	3764.87
963.623	3733.91
963.926	3754.93
964.228	3717.87
964.531	3696.63
964.833	3654.59
965.136	3624.54
965.438	3652.56
965.741	3622.73
966.043	3585.44
966.345	3544.54
966.648	3570.08
966.95	3581.15
967.252	3533.47
967.554	3522.39
967.856	3568.27
968.158	3503.41
968.46	3467.03
968.761	3488.5
969.063	3436.97
969.365	3431.55
969.666	3415.5
969.968	3385.45
970.269	3412.57
970.571	3357.65
970.872	3357.65
971.174	3346.58
971.475	3340.48
971.776	3295.05
972.077	3295.96
972.378	3319.01
972.679	3305
972.98	3297.09
973.281	3235.85
973.582	3220.93
973.883	3241.72
974.183	3225
974.484	3165.34
974.785	3163.98
975.085	3136.87
975.386	3172.57
975.686	3170.09
975.986	3142.74
976.287	3155.85
976.587	3081.5
976.887	3077.43
977.187	3096.87
977.487	3059.58
977.787	3011.45
978.087	3034.5
978.387	3017.55
978.687	2981.16
978.987	2962.41
979.286	2957.21
979.586	2951.56
979.885	2936.87
980.185	2899.81
980.484	2919.92
980.784	2881.73
981.083	2912.01
981.382	2891.22
981.682	2870.43
981.981	2838.8
982.28	2853.03
982.579	2829.3
982.878	2843.32
983.177	2777.78
983.475	2804.67
983.774	2782.98
984.073	2751.34
984.372	2746.59
984.67	2742.53
984.969	2718.12
985.267	2713.15
985.566	2698.01
985.864	2703.88
986.162	2686.26
986.461	2654.62
986.759	2681.06
987.057	2667.05
987.355	2630.89
987.653	2617.33
987.951	2601.74
988.249	2597.9
988.547	2596.99
988.844	2590.44
989.142	2585.24
989.44	2549.54
989.737	2540.72
990.035	2528.52
990.332	2535.75
990.63	2495.53
990.927	2467.05
991.224	2439.48
991.521	2414.17
991.819	2451.46
992.116	2462.53
992.413	2433.61
992.71	2430.44
993.006	2353.38
993.303	2424.57
993.6	2400.16
993.897	2377.11
994.193	2391.8
994.49	2383.44
994.787	2360.16
995.083	2319.04
995.379	2352.03
995.676	2314.97
995.972	2296.44
996.268	2280.17
996.565	2283.1
996.861	2253.73
997.157	2251.69
997.453	2235.42
997.749	2231.81
998.044	2217.34
998.34	2225.7
998.636	2168.98
998.932	2185.25
999.227	2184.12
999.523	2190.45
999.818	2168.98
1000.114	2151.36
1000.409	2121.75
1000.704	2127.18
1001	2117.46
1001.295	2112.26
1001.59	2085.37
1001.885	2100.51
1002.18	2092.15
1002.475	2065.48
1002.77	2038.36
1003.065	2028.2
1003.359	2003.34
1003.654	1997.24
1003.949	2006.5
1004.243	1981.64
1004.538	1989.55
1004.832	1989.33
1005.127	1968.31
1005.421	1930.8
1005.715	1941.19
1006.009	1957.69
1006.304	1899.16
1006.598	1885.37
1006.892	1909.55
1007.186	1891.25
1007.48	1848.54
1007.773	1887.41
1008.067	1872.27
1008.361	1840.18
1008.655	1832.49
1008.948	1832.27
1009.242	1827.07
1009.535	1823
1009.829	1819.39
1010.122	1778.03
1010.415	1794.3
1010.708	1764.93
1011.001	1742.33
1011.295	1744.59
1011.588	1715.44
1011.881	1738.71
1012.173	1724.47
1012.466	1708.2
1012.759	1683.12
1013.052	1696.45
1013.344	1654.42
1013.637	1645.83
1013.93	1636.79
1014.222	1654.65
1014.514	1641.99
1014.807	1653.06
1015.099	1597.47
1015.391	1606.96
1015.683	1585.04
1015.976	1567.87
1016.268	1574.42
1016.56	1564.03
1016.851	1557.7
1017.143	1549.11
1017.435	1546.63
1017.727	1529.45
1018.018	1493.07
1018.31	1489.68
1018.602	1482.67
1018.893	1477.48
1019.185	1459.4
1019.476	1449
1019.767	1440.87
1020.058	1442
1020.35	1447.65
1020.641	1423.01
1020.932	1416.23
1021.223	1398.83
1021.514	1385.95
1021.804	1394.54
1022.095	1342.56
1022.386	1376.01
1022.677	1339.17
1022.967	1348.44
1023.258	1372.85
1023.548	1337.37
1023.839	1334.88
1024.129	1337.14
1024.419	1321.1
1024.709	1292.62
1025	1327.2
1025.29	1303.24
1025.58	1316.12
1025.87	1266.18
1026.16	1272.73
1026.449	1252.62
1026.739	1243.36
1027.029	1230.02
1027.319	1232.96
1027.608	1232.06
1027.898	1218.95
1028.187	1234.77
1028.477	1219.18
1028.766	1189.57
1029.055	1198.39
1029.344	1191.38
1029.634	1151.16
1029.923	1157.48
1030.212	1176.92
1030.501	1156.58
1030.79	1159.29
1031.078	1135.11
1031.367	1132.17
1031.656	1131.95
1031.945	1108.67
1032.233	1100.99
1032.522	1102.57
1032.81	1085.4
1033.099	1103.47
1033.387	1068.67
1033.675	1065.51
1033.963	1056.24
1034.251	1047.43
1034.54	1072.51
1034.828	1053.31
1035.116	1023.25
1035.403	1035.68
1035.691	1023.93
1035.979	1035
1036.267	1018.5
1036.554	1005.17
1036.842	1010.14
1037.129	1002.91
1037.417	998.62
1037.704	979.86
1037.992	955.68
1038.279	951.16
1038.566	942.8
1038.853	942.8
1039.14	942.8
