Data from red_cardboard_box_FLMS001491_00100.txt Node
Date: Wed Feb 08 11:33:26 GMT 2017
User: dcchb
Spectrometer: FLMS00149
Trigger mode: 0
Integration Time (sec): 2.000000E-2
Scans to average: 10
Electric dark correction enabled: true
Nonlinearity correction enabled: false
Boxcar width: 0
XAxis mode: Wavelengths
Number of Pixels in Spectrum: 2048
>>>>>Begin Spectral Data<<<<<
341.393	-21.13
341.776	-21.13
342.16	-21.13
342.543	-63.39
342.927	-87.12
343.31	-83.5
343.693	-78.75
344.077	-76.27
344.46	-40.79
344.843	-61.81
345.226	-24.97
345.61	-37.63
345.993	-37.17
346.376	-4.86
346.759	17.74
347.142	10.06
347.525	39.43
347.908	54.8
348.291	85.99
348.674	111.07
349.057	126.66
349.44	106.32
349.823	134.8
350.206	185.64
350.588	191.29
350.971	190.16
351.354	228.13
351.737	251.18
352.119	243.27
352.502	269.94
352.884	288.69
353.267	295.47
353.65	287.34
354.032	300.22
354.414	304.96
354.797	311.74
355.179	305.87
355.562	335.25
355.944	327.34
356.326	340.89
356.709	332.76
357.091	331.18
357.473	357.62
357.855	327.34
358.238	334.34
358.62	336.6
359.002	327.34
359.384	357.84
359.766	321.46
360.148	340.67
360.53	329.37
360.912	352.42
361.294	323.27
361.676	337.96
362.057	328.01
362.439	342.02
362.821	326.43
363.203	320.1
363.584	331.18
363.966	312.42
364.348	325.3
364.729	332.08
365.111	323.49
365.493	320.78
365.874	323.27
366.256	319.2
366.637	310.16
367.019	305.87
367.4	306.55
367.781	314.23
368.163	313.55
368.544	326.21
368.925	302.03
369.306	325.75
369.688	304.06
370.069	339.54
370.45	318.3
370.831	326.66
371.212	323.49
371.593	314.46
371.974	281.69
372.355	321.46
372.736	328.92
373.117	298.41
373.498	298.18
373.879	311.97
374.26	307.22
374.641	323.49
375.021	318.97
375.402	331.18
375.783	303.38
376.163	320.1
376.544	321.01
376.925	345.64
377.305	324.62
377.686	330.5
378.066	319.65
378.447	331.86
378.827	339.31
379.208	336.83
379.588	333.44
379.968	337.96
380.349	344.28
380.729	324.85
381.109	319.65
381.489	337.28
381.87	340.67
382.25	331.18
382.63	336.6
383.01	333.66
383.39	316.71
383.77	350.84
384.15	351.06
384.53	351.06
384.91	357.84
385.29	352.87
385.67	338.64
386.049	347.22
386.429	348.35
386.809	370.27
387.189	364.62
387.568	362.59
387.948	351.52
388.328	365.75
388.707	349.71
389.087	385.19
389.466	361.01
389.846	355.13
390.225	350.84
390.605	377.73
390.984	351.97
391.363	347.9
391.743	366.66
392.122	382.7
392.501	373.66
392.881	379.31
393.26	381.8
393.639	361.69
394.018	358.75
394.397	364.62
394.776	386.54
395.155	387.9
395.534	369.14
395.913	380.89
396.292	377.73
396.671	378.18
397.05	360.56
397.429	387.67
397.808	403.94
398.186	386.09
398.565	387.45
398.944	384.74
399.323	375.7
399.701	387.67
400.08	382.7
400.458	387.45
400.837	387.9
401.215	412.76
401.594	389.26
401.972	390.39
402.351	395.36
402.729	387
403.107	391.52
403.486	409.37
403.864	418.63
404.242	418.86
404.62	418.86
404.999	389.26
405.377	391.06
405.755	405.98
406.133	423.15
406.511	421.12
406.889	426.54
407.267	411.18
407.645	427.22
408.023	427.45
408.401	423.83
408.779	429.03
409.156	412.08
409.534	435.13
409.912	417.28
410.29	441.91
410.667	437.39
411.045	405.07
411.422	455.02
411.8	440.78
412.178	441.23
412.555	435.58
412.933	467.9
413.31	454.79
413.687	467.67
414.065	451.4
414.442	472.87
414.819	477.61
415.197	468.58
415.574	473.09
415.951	468.58
416.328	495.02
416.705	481
417.082	487.33
417.46	471.06
417.837	476.48
418.214	488.69
418.591	475.58
418.967	491.4
419.344	488.24
419.721	499.08
420.098	488.91
420.475	522.13
420.852	502.7
421.228	523.04
421.605	508.57
421.982	504.05
422.358	508.35
422.735	523.94
423.111	515.81
423.488	533.43
423.864	509.25
424.241	519.87
424.617	539.53
424.994	534.11
425.37	530.95
425.746	520.33
426.123	525.3
426.499	537.95
426.875	541.12
427.251	555.58
427.627	561.91
428.003	540.66
428.379	565.75
428.756	542.02
429.132	584.5
429.507	571.17
429.883	584.05
430.259	591.28
430.635	561.68
431.011	596.71
431.387	599.87
431.763	605.07
432.138	602.36
432.514	593.54
432.89	615.92
433.265	609.81
433.641	618.63
434.016	624.5
434.392	627.22
434.767	629.47
435.143	641.45
435.518	616.59
435.894	615.24
436.269	636.93
436.644	651.62
437.02	630.15
437.395	647.33
437.77	662.24
438.145	664.05
438.52	669.47
438.895	664.95
439.271	677.61
439.646	685.29
440.021	708.34
440.395	679.64
440.77	676.71
441.145	699.76
441.52	728
441.895	698.17
442.27	701.11
442.645	679.19
443.019	720.09
443.394	721.68
443.769	701.34
444.143	724.39
444.518	733.2
444.892	719.42
445.267	719.64
445.641	735.01
446.016	720.32
446.39	735.46
446.764	749.92
447.139	725.97
447.513	740.43
447.887	739.98
448.262	739.98
448.636	761
449.01	739.53
449.384	782.47
449.758	753.99
450.132	773.65
450.506	796.48
450.88	767.55
451.254	794.89
451.628	786.31
452.002	796.02
452.376	784.95
452.75	805.29
453.123	787.44
453.497	819.3
453.871	839.41
454.244	845.74
454.618	827.66
454.992	831.28
455.365	836.93
455.739	847.55
456.112	869.69
456.486	875.12
456.859	882.58
457.232	868.79
457.606	864.27
457.979	894.33
458.352	929.58
458.725	924.38
459.099	918.05
459.472	916.25
459.845	927.32
460.218	945.62
460.591	927.09
460.964	944.72
461.337	960.09
461.71	973.19
462.083	974.32
462.456	974.1
462.829	971.16
463.201	995.79
463.574	995.12
463.947	1006.19
464.32	1028.79
464.692	1023.59
465.065	1028.11
465.438	1039.63
465.81	1046.87
466.183	1086.64
466.555	1101.33
466.928	1069.46
467.3	1074.66
467.672	1079.18
468.045	1127.09
468.417	1118.28
468.789	1130.03
469.161	1138.39
469.534	1126.41
469.906	1139.97
470.278	1138.39
470.65	1177.94
471.022	1182.23
471.394	1210.25
471.766	1210.7
472.138	1251.38
472.51	1273.3
472.882	1271.04
473.253	1285.28
473.625	1288.67
473.997	1317.37
474.369	1311.04
474.74	1302.9
475.112	1357.37
475.484	1379.74
475.855	1355.56
476.227	1373.41
476.598	1427.19
476.97	1406.86
477.341	1452.73
477.713	1457.25
478.084	1473.97
478.455	1529.11
478.827	1507.42
479.198	1539.28
479.569	1533.18
479.94	1601.65
480.311	1577.02
480.682	1639.17
481.053	1657.24
481.424	1665.61
481.795	1699.05
482.166	1681.2
482.537	1739.73
482.908	1767.52
483.279	1804.59
483.65	1802.1
484.021	1823.57
484.391	1834.42
484.762	1868.09
485.133	1869.22
485.503	1906.73
485.874	1937.46
486.244	1933.4
486.615	1996.9
486.985	2004.13
487.356	2039.16
487.726	2043.45
488.097	2080.74
488.467	2052.26
488.837	2109.66
489.207	2149.66
489.578	2182.65
489.948	2177.46
490.318	2196.21
490.688	2231.47
491.058	2275.08
491.428	2259.04
491.798	2294.74
492.168	2328.19
492.538	2339.03
492.908	2378.36
493.278	2404.57
493.648	2419.03
494.017	2439.14
494.387	2474.17
494.757	2453.61
495.126	2532.25
495.496	2511.69
495.866	2524.34
496.235	2533.15
496.605	2601.17
496.974	2599.59
497.344	2633.94
497.713	2650.21
498.082	2666.26
498.452	2693.38
498.821	2689.76
499.19	2734.5
499.559	2718.23
499.928	2745.35
500.298	2796.2
500.667	2815.41
501.036	2781.51
501.405	2874.16
501.774	2819.47
502.143	2841.85
502.512	2894.5
502.88	2879.81
503.249	2897.66
503.618	2940.15
503.987	2938.11
504.356	2977.21
504.724	3018.79
505.093	3014.05
505.462	3015.17
505.83	3046.59
506.199	3048.39
506.567	3108.96
506.936	3103.99
507.304	3111.9
507.672	3140.82
508.041	3190.09
508.409	3182.18
508.777	3230.31
509.145	3271.89
509.514	3239.58
509.882	3264.21
510.25	3277.54
510.618	3302.63
510.986	3316.41
511.354	3319.12
511.722	3391.66
512.09	3421.04
512.458	3416.97
512.826	3429.18
513.193	3442.73
513.561	3470.3
513.929	3540.13
514.297	3536.29
514.664	3578.1
515.032	3581.49
515.4	3660.81
515.767	3646.34
516.135	3650.86
516.502	3674.37
516.869	3703.52
517.237	3712.11
517.604	3754.59
517.972	3820.13
518.339	3843.85
518.706	3789.17
519.073	3862.38
519.44	3896.96
519.808	3897.41
520.175	3916.62
520.542	3983.96
520.909	3992.32
521.276	4011.31
521.643	4060.12
522.009	4119.1
522.376	4121.13
522.743	4145.31
523.11	4157.52
523.477	4232.54
523.843	4226.44
524.21	4264.63
524.577	4320.45
524.943	4318.42
525.31	4401.13
525.676	4434.12
526.043	4465.08
526.409	4469.37
526.776	4454.91
527.142	4515.93
527.508	4589.6
527.874	4602.7
528.241	4629.14
528.607	4647.45
528.973	4668.01
529.339	4726.54
529.705	4737.39
530.071	4771.29
530.437	4766.99
530.803	4827.33
531.169	4840.21
531.535	4868.91
531.901	4885.63
532.267	4959.53
532.632	4945.75
532.998	4938.51
533.364	5040.88
533.73	5062.8
534.095	5098.06
534.461	5095.12
534.826	5129.92
535.192	5169.02
535.557	5203.14
535.923	5180.54
536.288	5258.51
536.653	5265.06
537.019	5263.93
537.384	5305.51
537.749	5370.37
538.114	5362.01
538.479	5353.42
538.845	5418.28
539.21	5392.29
539.575	5435.22
539.94	5384.83
540.305	5492.4
540.67	5454.43
541.034	5551.15
541.399	5585.5
541.764	5603.58
542.129	5606.29
542.494	5658.27
542.858	5683.81
543.223	5642.9
543.587	5763.58
543.952	5733.75
544.316	5764.03
544.681	5775.78
545.045	5833.86
545.41	5827.76
545.774	5933.06
546.138	5884.7
546.503	5900.07
546.867	5900.97
547.231	6016.68
547.595	5977.36
547.959	6009.9
548.324	6029.11
548.688	6086.05
549.052	6082.21
549.416	6146.39
549.779	6211.02
550.143	6239.04
550.507	6228.65
550.871	6272.72
551.235	6280.17
551.599	6302.77
551.962	6411.92
552.326	6420.28
552.689	6464.58
553.053	6449.43
553.417	6517.91
553.78	6587.96
554.143	6590
554.507	6655.76
554.87	6659.37
555.234	6722.2
555.597	6732.14
555.96	6792.7
556.323	6842.19
556.686	6867.96
557.05	6925.13
557.413	6917.22
557.776	6985.01
558.139	7055.29
558.502	7062.53
558.865	7136.42
559.228	7165.57
559.59	7236.98
559.953	7284.44
560.316	7338.23
560.679	7446.7
561.041	7430.88
561.404	7491.44
561.767	7635.17
562.129	7666.8
562.492	7744.09
562.854	7816.4
563.217	7846.91
563.579	7867.48
563.941	8014.37
564.304	8002.84
564.666	8128.49
565.028	8088.04
565.39	8220.46
565.753	8314.92
566.115	8383.62
566.477	8416.84
566.839	8568.02
567.201	8617.29
567.563	8695.03
567.925	8720.11
568.287	8810.73
568.648	8898.41
569.01	8992.87
569.372	8977.05
569.734	9086.43
570.095	9177.27
570.457	9271.73
570.819	9349.47
571.18	9478.06
571.542	9513.08
571.903	9594.89
572.265	9734.55
572.626	9761.89
572.987	9826.3
573.349	10001.43
573.71	10092.73
574.071	10144.93
574.432	10234.65
574.794	10369.56
575.155	10455.88
575.516	10495.88
575.877	10606.61
576.238	10699.49
576.599	10810.22
576.96	10949.66
577.32	10988.3
577.681	11131.12
578.042	11303.32
578.403	11348.97
578.763	11535.18
579.124	11659.24
579.485	11768.39
579.845	11950.99
580.206	12015.84
580.566	12209.28
580.927	12397.53
581.287	12541.03
581.648	12681.36
582.008	12899.66
582.368	12986.89
582.728	13176.94
583.089	13368.35
583.449	13484.96
583.809	13748.23
584.169	13975.34
584.529	14087.65
584.889	14336.91
585.249	14501.43
585.609	14703.91
585.969	14984.8
586.329	15175.31
586.688	15385.02
587.048	15695.29
587.408	15848.74
587.768	16144.32
588.127	16436.29
588.487	16647.13
588.846	17028.37
589.206	17257.06
589.565	17475.13
589.925	17836.03
590.284	18186.08
590.643	18342.91
591.003	18783.35
591.362	19095.2
591.721	19431.92
592.08	19792.59
592.44	20082.52
592.799	20460.37
593.158	20723.18
593.517	21253.11
593.876	21584.4
594.235	21948.01
594.593	22239.53
594.952	22733.98
595.311	23040.86
595.67	23480.17
596.029	23866.38
596.387	24340.49
596.746	24797.2
597.104	24993.81
597.463	25326
597.822	25877.4
598.18	26155.58
598.538	26620.88
598.897	27111.26
599.255	27342.44
599.613	28062.43
599.972	28427.84
600.33	28894.04
600.688	29095.62
601.046	29603.4
601.404	30055.37
601.762	30553.89
602.12	31095.34
602.478	31408.33
602.836	31735.55
603.194	32103.68
603.552	32482.87
603.91	32873.6
604.268	33420.93
604.625	33759.23
604.983	34280.57
605.341	34468.59
605.698	35005.75
606.056	35363.48
606.413	35826.06
606.771	36133.85
607.128	36635.08
607.485	36755.08
607.843	37073.49
608.2	37509.18
608.557	37953.01
608.914	38082.28
609.272	38636.16
609.629	38902.82
609.986	39381.68
610.343	39449.25
610.7	40042.68
611.057	40197.02
611.414	40453.51
611.771	40719.49
612.127	40945.25
612.484	41293.04
612.841	41723.31
613.198	41738.22
613.554	41974.6
613.911	42326.23
614.267	42651.87
614.624	42734.81
614.98	43050.05
615.337	43329.37
615.693	43432.64
616.05	43700.21
616.406	44180.42
616.762	44051.84
617.118	44176.8
617.475	44608.43
617.831	44826.5
618.187	45006.39
618.543	45202.99
618.899	45555.07
619.255	45649.53
619.611	45530.44
619.967	45812.47
620.323	46190.31
620.678	46101.95
621.034	46093.59
621.39	46308.95
621.746	46424.66
622.101	47002.94
622.457	46719.34
622.812	46828.03
623.168	47152.77
623.523	47060.12
623.879	47319.32
624.234	47250.85
624.589	47488.13
624.945	47620.33
625.3	47764.73
625.655	47698.29
626.01	47845.86
626.365	47928.57
626.72	47981.68
627.075	48031.39
627.43	48026.65
627.785	47948.91
628.14	48262.57
628.495	48384.6
628.85	48316.58
629.205	48366.98
629.559	48547.99
629.914	48519.06
630.269	48554.32
630.623	48432.96
630.978	48486.75
631.332	48778.94
631.687	48795.21
632.041	48718.38
632.396	48776.68
632.75	48696.23
633.104	48710.7
633.459	48651.04
633.813	48726.06
634.167	48761.99
634.521	48859.39
634.875	48930.58
635.229	48884.7
635.583	48748.89
635.937	48802.67
636.291	48756.35
636.645	48802.67
636.999	48777.59
637.352	48864.59
637.706	48726.06
638.06	48874.53
638.413	48757.48
638.767	48676.57
639.121	48942.1
639.474	48583.47
639.828	48676.57
640.181	48745.95
640.534	48824.59
640.888	48860.75
641.241	48637.48
641.594	48762.22
641.947	48844.7
642.301	48766.29
642.654	48903.01
643.007	48794.08
643.36	48791.82
643.713	48798.83
644.066	48937.58
644.419	48578.27
644.771	48380.99
645.124	48019.42
645.477	47982.81
645.83	47784.85
646.182	47557.28
646.535	47637.96
646.888	47805.64
647.24	47662.59
647.593	47930.15
647.945	47816.26
648.298	47613.55
648.65	47625.3
649.002	47492.2
649.355	47592.99
649.707	47548.02
650.059	47708.24
650.411	48279.3
650.763	48315.23
651.115	48611.94
651.467	48460.99
651.819	48549.57
652.171	48422.12
652.523	48421.21
652.875	48425.73
653.227	48253.53
653.578	48551.6
653.93	48480.42
654.282	48358.16
654.633	48363.59
654.985	48389.8
655.337	48404.49
655.688	48424.83
656.039	48538.27
656.391	48152.29
656.742	48196.81
657.094	48303.25
657.445	48470.7
657.796	48249.69
658.147	48339.41
658.498	48202.46
658.849	48298.73
659.2	48219.41
659.551	48155.01
659.902	48327.43
660.253	48228
660.604	48189.58
660.955	48155.23
661.306	48244.49
661.656	48188.68
662.007	48176.25
662.358	48164.72
662.708	48151.84
663.059	48155.91
663.409	47888.8
663.76	48335.79
664.11	48311.16
664.461	48362.46
664.811	48335.57
665.161	48281.1
665.511	48043.6
665.862	48231.61
666.212	48242.69
666.562	48232.74
666.912	48117.49
667.262	48309.8
667.612	48229.58
667.962	48181.9
668.312	48112.07
668.662	48233.42
669.011	48132.86
669.361	48086.53
669.711	48240.43
670.06	48164.04
670.41	47929.93
670.76	47901.23
671.109	48050.15
671.459	48167.43
671.808	47893.32
672.157	48131.28
672.507	47800.21
672.856	47948.91
673.205	47864.39
673.554	47916.59
673.904	47901.23
674.253	48060.09
674.602	47927.67
674.951	47403.39
675.3	47162.26
675.649	47915.01
675.998	47841.79
676.346	47669.59
676.695	47961.56
677.044	47653.32
677.393	47770.38
677.741	47718.18
678.09	47658.29
678.438	47603.61
678.787	47593.44
679.135	47717.95
679.484	47454.91
679.832	47650.61
680.181	47290.39
680.529	47395.93
680.877	47332.88
681.225	47260.57
681.573	47540.33
681.922	47135.6
682.27	47127.24
682.618	47263.73
682.966	47034.13
683.314	47124.3
683.661	47050.63
684.009	46812.22
684.357	46739.22
684.705	46707.13
685.053	46738.32
685.4	46699.22
685.748	46385.79
686.095	46426.91
686.443	46426.91
686.79	46342.4
687.138	46365
687.485	46389.63
687.832	46244.32
688.18	46208.84
688.527	46200.93
688.874	46020.6
689.221	45957.1
689.568	45846.82
689.915	45647.27
690.262	45742.19
690.609	45627.16
690.956	45549.88
691.303	45488.86
691.65	45162.32
691.997	45286.61
692.344	45030.34
692.69	45104.24
693.037	45016.56
693.383	44894.75
693.73	44890.68
694.077	44764.36
694.423	44537.7
694.769	44680.97
695.116	44466.51
695.462	44376.35
695.808	44308.78
696.155	44469.68
696.501	44094.32
696.847	44139.97
697.193	43774.1
697.539	43968.22
697.885	43671.06
698.231	43476.48
698.577	43514.22
698.923	43408.01
699.269	43234
699.614	43132.76
699.96	43123.72
700.306	43100.67
700.651	42859.78
700.997	42786.78
701.342	42598.09
701.688	42636.73
702.033	42496.62
702.379	42402.16
702.724	42404.87
703.069	42393.57
703.415	41990.2
703.76	42030.65
704.105	42037.43
704.45	41908.84
704.795	41763.08
705.14	41665.01
705.485	41583.88
705.83	41361.96
706.175	41493.94
706.52	41335.98
706.865	41305.92
707.209	41127.62
707.554	41056.21
707.899	41074.74
708.243	40848.3
708.588	40825.93
708.932	40536.9
709.277	40679.95
709.621	40535.54
709.966	40325.15
710.31	40381.88
710.654	40070.02
710.998	40200.41
711.342	40232.28
711.687	39986.86
712.031	39854.88
712.375	39816.47
712.719	39874.77
713.063	39764.94
713.407	39794.09
713.75	39685.62
714.094	39657.15
714.438	39352.75
714.782	39574.89
715.125	39260.55
715.469	39330.38
715.812	39078.41
716.156	38890.62
716.499	38992.08
716.843	38944.85
717.186	38838.64
717.53	38934.91
717.873	38811.97
718.216	38804.52
718.559	38637.29
718.902	38329.95
719.246	38462.38
719.589	38411.08
719.932	38249.95
720.275	38257.64
720.617	38232.33
720.96	38164.76
721.303	38192.78
721.646	38082.95
721.989	37838.44
722.331	37977.87
722.674	37746.24
723.016	37862.85
723.359	37779.68
723.701	37642.29
724.044	37611.55
724.386	37377.89
724.729	37670.08
725.071	37494.49
725.413	37488.84
725.755	37488.62
726.097	37201.17
726.439	37132.47
726.782	37178.34
727.124	37219.25
727.465	36992.13
727.807	37036.88
728.149	37001.85
728.491	36940.38
728.833	36836.43
729.175	36744.23
729.516	36773.38
729.858	36666.49
730.199	36667.17
730.541	36626.49
730.882	36581.07
731.224	36702.88
731.565	36459.27
731.906	36366.16
732.248	36527.74
732.589	36238.26
732.93	36205.04
733.271	36091.59
733.612	36330.91
733.953	36238.03
734.294	36028.32
734.635	35906.97
734.976	35974.53
735.317	35779.96
735.658	35913.29
735.999	35912.16
736.339	35884.14
736.68	35771.38
737.021	35556.92
737.361	35549.91
737.702	35646.86
738.042	35623.58
738.383	35436.47
738.723	35593.3
739.063	35478.95
739.404	35425.4
739.744	35448.45
740.084	35448.22
740.424	35243.25
740.764	35300.43
741.104	35431.5
741.444	35127.32
741.784	34951.51
742.124	35131.84
742.464	35139.98
742.804	34935.01
743.143	34955.58
743.483	34980.89
743.823	34824.73
744.162	34692.08
744.502	34668.58
744.841	34669.26
745.181	34845.52
745.52	34539.54
745.86	34688.01
746.199	34620.45
746.538	34477.85
746.877	34517.85
747.216	34456.38
747.556	34377.06
747.895	34340.9
748.234	34243.96
748.573	34191.76
748.911	34120.12
749.25	34226.56
749.589	34045.32
749.928	34149.72
750.267	34101.59
750.605	33902.5
750.944	33784.99
751.283	33911.54
751.621	33814.37
751.96	33618.66
752.298	33558.1
752.636	33744.08
752.975	33395.17
753.313	33385.22
753.651	33439.69
753.989	33267.26
754.327	33302.51
754.666	33053.71
755.004	33075.85
755.342	33035.4
755.679	33094.84
756.017	32930.32
756.355	32916.99
756.693	32820.72
757.031	32747.73
757.368	32757.44
757.706	32521.07
758.044	32486.49
758.381	32580.5
758.719	32401.29
759.056	32312.94
759.394	32226.16
759.731	32110
760.068	32067.29
760.405	31898.26
760.743	31876.56
761.08	32057.8
761.417	31761.09
761.754	31676.12
762.091	31663.46
762.428	31578.72
762.765	31332.62
763.102	31399.51
763.438	31299.63
763.775	31163.14
764.112	31018.73
764.449	31051.5
764.785	30806.08
765.122	30770.83
765.458	30550.27
765.795	30503.49
766.131	30598.63
766.467	30489.25
766.804	30294.46
767.14	30170.85
767.476	30137.4
767.812	29968.36
768.148	30047.01
768.485	29852.44
768.821	29694.02
769.157	29664.64
769.492	29605.44
769.828	29504.2
770.164	29235.05
770.5	29326.8
770.836	29314.37
771.171	29030.76
771.507	29069.86
771.842	28796.19
772.178	28901.05
772.513	28590.77
772.849	28684.56
773.184	28508.06
773.519	28500.15
773.855	28395.3
774.19	28275.3
774.525	28227.39
774.86	28174.06
775.195	28206.6
775.53	27930.23
775.865	27779.95
776.2	27659.05
776.535	27572.27
776.87	27401.2
777.205	27340.86
777.539	27214.99
777.874	27325.72
778.209	27062.45
778.543	26982.91
778.878	26777.94
779.212	26798.73
779.547	26586.98
779.881	26774.1
780.215	26678.73
780.55	26569.58
780.884	26496.82
781.218	26358.29
781.552	26388.57
781.886	26179.09
782.22	25995.14
782.554	25949.71
782.888	25682.83
783.222	25641.02
783.556	25597.86
783.889	25495.94
784.223	25349.05
784.557	25293.46
784.89	25236.29
785.224	25145.67
785.557	25060.7
785.891	24959.23
786.224	24962.17
786.558	24884.66
786.891	24727.6
787.224	24587.26
787.557	24618.45
787.891	24615.28
788.224	24444.89
788.557	24405.35
788.89	24431.34
789.223	24289.19
789.556	24019.59
789.888	24090.33
790.221	23995.87
790.554	23945.47
790.887	23785.48
791.219	23690.11
791.552	23632.49
791.884	23391.36
792.217	23414.41
792.549	23280.4
792.882	23284.02
793.214	23222.55
793.546	23153.4
793.879	22921.32
794.211	22904.6
794.543	22903.69
794.875	22831.6
795.207	22923.13
795.539	22813.52
795.871	22783.02
796.203	22566.3
796.535	22393.87
796.867	22443.59
797.198	22468.45
797.53	22377.38
797.862	22207.44
798.193	22237.95
798.525	21955.02
798.856	22071.17
799.188	21928.12
799.519	21836.37
799.85	21744.63
800.182	21764.29
800.513	21700.11
800.844	21489.72
801.175	21690.62
801.506	21534.24
801.837	21447.46
802.168	21428.02
802.499	21309.38
802.83	21195.26
803.161	21124.76
803.491	21059.22
803.822	21106.68
804.153	20970.41
804.483	20821.03
804.814	20773.13
805.145	20725.22
805.475	20824.88
805.805	20713.01
806.136	20517.31
806.466	20641.6
806.796	20503.75
807.126	20461.72
807.457	20371.78
807.787	20275.96
808.117	20278
808.447	20114.39
808.777	20267.6
809.107	20143.54
809.436	20058.34
809.766	19994.84
810.096	19905.58
810.426	19939.48
810.755	19958.23
811.085	19765.92
811.414	19692.93
811.744	19742.42
812.073	19636.66
812.403	19621.52
812.732	19452.03
813.061	19509.2
813.39	19357.8
813.719	19193.05
814.049	19379.94
814.378	19231.25
814.707	19328.87
815.036	19202.32
815.365	19099.95
815.693	19046.17
816.022	18976.56
816.351	18853.18
816.68	18784.7
817.008	18900.63
817.337	18704.48
817.665	18680.3
817.994	18692.95
818.322	18706.51
818.651	18591.49
818.979	18546.29
819.307	18614.31
819.636	18516.24
819.964	18402.57
820.292	18506.29
820.62	18470.81
820.948	18321.89
821.276	18450.7
821.604	18441.21
821.932	18346.52
822.259	18399.18
822.587	18385.39
822.915	18394.88
823.243	18355.56
823.57	18285.73
823.898	18328.9
824.225	18243.7
824.553	18269.92
824.88	18310.14
825.207	18339.29
825.535	18248.45
825.862	18316.69
826.189	18215.45
826.516	18309.24
826.843	18345.62
827.17	18299.29
827.497	18399.63
827.824	18269.24
828.151	18298.16
828.478	18277.6
828.805	18326.18
829.131	18286.86
829.458	18236.47
829.785	18154.44
830.111	18262.23
830.438	18203.7
830.764	18222.23
831.09	18267.2
831.417	18173.42
831.743	18170.93
832.069	18266.53
832.395	18122.35
832.722	18224.94
833.048	18099.3
833.374	18206.64
833.7	18039.64
834.026	18203.93
834.351	18220.88
834.677	18099.52
835.003	18154.21
835.329	18067.21
835.654	18038.51
835.98	18026.76
836.306	17911.96
836.631	17807.55
836.956	17943.6
837.282	17923.03
837.607	17823.6
837.932	17762.36
838.258	17824.73
838.583	17840.1
838.908	17717.39
839.233	17704.28
839.558	17746.54
839.883	17633.32
840.208	17507
840.533	17580.44
840.858	17551.29
841.182	17568.24
841.507	17635.58
841.832	17449.37
842.156	17428.36
842.481	17345.65
842.805	17311.75
843.13	17380.9
843.454	17272.2
843.778	17182.94
844.103	17136.39
844.427	17148.36
844.751	17199.89
845.075	17051.87
845.399	17001.02
845.723	16913.79
846.047	16876.73
846.371	16825.66
846.695	16770.29
847.019	16612.56
847.343	16573.01
847.666	16436.52
847.99	16501.6
848.313	16395.84
848.637	16342.73
848.96	16232.23
849.284	16182.06
849.607	16121.5
849.931	16047.83
850.254	16016.87
850.577	15992.69
850.9	15901.16
851.223	15708.17
851.546	15710.89
851.869	15620.27
852.192	15770.55
852.515	15520.16
852.838	15489.42
853.161	15475.64
853.483	15424.79
853.806	15356.32
854.129	15308.86
854.451	15246.27
854.774	15221.18
855.096	15116.33
855.419	15077.23
855.741	15090.56
856.063	14960.62
856.385	14940.29
856.708	14848.31
857.03	14964.24
857.352	14870
857.674	14828.2
857.996	14776
858.318	14603.57
858.64	14727.64
858.961	14616.45
859.283	14617.58
859.605	14523.57
859.926	14599.73
860.248	14463.69
860.57	14365.38
860.891	14473.63
861.212	14349.11
861.534	14345.5
861.855	14265.5
862.176	14386.18
862.498	14279.06
862.819	14299.4
863.14	14232.28
863.461	14167.42
863.782	14064.83
864.103	14105.5
864.424	14122.45
864.745	14126.07
865.065	14143.7
865.386	14020.76
865.707	13972.4
866.027	13929.24
866.348	13808.11
866.668	13863.03
866.989	13849.69
867.309	13746.87
867.63	13798.17
867.95	13773.76
868.27	13717.49
868.59	13885.85
868.91	13679.08
869.23	13569.02
869.55	13541.9
869.87	13659.87
870.19	13627.55
870.51	13591.62
870.83	13708.68
871.15	13597.27
871.469	13487.44
871.789	13593.2
872.109	13491.51
872.428	13475.01
872.748	13536.48
873.067	13451.74
873.386	13453.09
873.706	13437.5
874.025	13380.55
874.344	13317.05
874.663	13360.89
874.982	13313.66
875.301	13261.23
875.62	13248.58
875.939	13210.39
876.258	13242.02
876.577	13191.18
876.896	13161.12
877.214	13146.66
877.533	13173.55
877.852	13166.32
878.17	13048.81
878.489	13072.09
878.807	13081.12
879.125	13131.97
879.444	13015.59
879.762	12936.95
880.08	13026.66
880.398	12953.67
880.716	12841.81
881.034	12914.8
881.352	12884.75
881.67	12898.53
881.988	12909.6
882.306	12896.27
882.624	12834.35
882.941	12725.43
883.259	12615.15
883.577	12597.3
883.894	12605.88
884.212	12621.7
884.529	12583.74
884.846	12590.74
885.164	12577.18
885.481	12450.18
885.798	12512.1
886.115	12410.63
886.432	12315.72
886.75	12322.95
887.067	12359.11
887.383	12310.3
887.7	12309.62
888.017	12219.23
888.334	12159.12
888.651	12058.33
888.967	12155.05
889.284	12125.67
889.6	12066.24
889.917	12024.43
890.233	11986.69
890.55	11940.36
890.866	11962.96
891.182	11901.04
891.498	11874.15
891.815	11822.85
892.131	11742.86
892.447	11763.19
892.763	11643.2
893.079	11791.22
893.395	11688.62
893.71	11692.23
894.026	11616.08
894.342	11571.79
894.657	11449.08
894.973	11448.17
895.289	11423.77
895.604	11450.66
895.92	11274.84
896.235	11254.96
896.55	11329.76
896.865	11234.17
897.181	11183.77
897.496	11178.8
897.811	11174.96
898.126	11067.17
898.441	11122.76
898.756	11056.55
899.071	10999.6
899.386	11031.01
899.7	10807.74
900.015	10854.52
900.33	10846.38
900.644	10728.19
900.959	10832.6
901.273	10725.93
901.588	10670.57
901.902	10603.45
902.216	10625.14
902.531	10524.36
902.845	10531.14
903.159	10542.43
903.473	10406.85
903.787	10457.69
904.101	10345.38
904.415	10337.92
904.729	10261.54
905.042	10231.26
905.356	10213.63
905.67	10216.34
905.984	10174.99
906.297	10109.68
906.611	10063.8
906.924	10014.31
907.237	9998.27
907.551	9981.32
907.864	9933.19
908.177	9878.05
908.491	9812.96
908.804	9914.88
909.117	9754.88
909.43	9680.54
909.743	9623.81
910.056	9670.82
910.368	9575.45
910.681	9581.1
910.994	9515.79
911.307	9491.61
911.619	9385.63
911.932	9402.58
912.244	9335.91
912.557	9336.36
912.869	9279.19
913.181	9235.58
913.494	9227.67
913.806	9193.32
914.118	9139.53
914.43	9115.58
914.742	9124.62
915.054	8947.22
915.366	8951.97
915.678	9001.68
915.99	8886.88
916.302	8804.85
916.613	8862.7
916.925	8819.32
917.236	8827.23
917.548	8714.23
917.859	8731.18
918.171	8603.95
918.482	8585.42
918.794	8600.79
919.105	8562.83
919.416	8469.04
919.727	8497.97
920.038	8475.82
920.349	8411.42
920.66	8347.46
920.971	8342.72
921.282	8274.25
921.593	8220.91
921.903	8201.71
922.214	8182.95
922.525	8159.45
922.835	8137.53
923.146	8047.13
923.456	8074.25
923.767	8022.27
924.077	7979.79
924.387	7968.94
924.697	7952.45
925.008	7906.35
925.318	7826.35
925.628	7799
925.938	7809.17
926.248	7748.38
926.558	7689.63
926.867	7646.69
927.177	7587.03
927.487	7571.44
927.796	7469.07
928.106	7530.54
928.416	7474.27
928.725	7473.36
929.034	7406.47
929.344	7486.02
929.653	7449.41
929.962	7328.06
930.271	7286.93
930.581	7260.04
930.89	7203.54
931.199	7201.73
931.508	7203.31
931.817	7156.76
932.125	7141.85
932.434	7076.76
932.743	7011.45
933.051	6973.26
933.36	6959.93
933.669	6933.94
933.977	6930.1
934.286	6902.3
934.594	6883.55
934.902	6789.99
935.21	6841.06
935.519	6810.1
935.827	6736.89
936.135	6750.67
936.443	6659.37
936.751	6645.59
937.059	6630.67
937.367	6609.66
937.674	6599.49
937.982	6619.37
938.29	6528.98
938.597	6528.98
938.905	6448.53
939.213	6396.78
939.52	6396.1
939.827	6355.65
940.135	6328.31
940.442	6278.14
940.749	6277.69
941.056	6295.31
941.363	6223.45
941.67	6218.71
941.977	6148.43
942.284	6150.69
942.591	6072.04
942.898	6090.8
943.205	6100.07
943.511	6097.58
943.818	6030.91
944.125	6013.06
944.431	5981.42
944.738	5970.13
945.044	5903.01
945.35	5874.31
945.657	5818.27
945.963	5865.5
946.269	5769.45
946.575	5815.78
946.881	5751.15
947.187	5681.32
947.493	5743.01
947.799	5704.82
948.105	5661.89
948.41	5658.04
948.716	5605.84
949.022	5601.32
949.327	5622.34
949.633	5508.89
949.938	5514.54
950.244	5509.8
950.549	5396.81
950.854	5392.74
951.16	5408.33
951.465	5382.34
951.77	5361.55
952.075	5373.53
952.38	5298.96
952.685	5345.06
952.99	5293.53
953.294	5265.29
953.599	5264.61
953.904	5229.35
954.209	5169.69
954.513	5112.52
954.818	5140.77
955.122	5118.62
955.426	5130.37
955.731	5080.66
956.035	5065.74
956.339	5023.94
956.643	5015.57
956.948	4970.38
957.252	4916.59
957.556	4963.82
957.86	4922.7
958.163	4922.92
958.467	4891.74
958.771	4873.66
959.075	4821.91
959.378	4792.53
959.682	4796.37
959.985	4750.95
960.289	4753.43
960.592	4716.83
960.896	4690.84
961.199	4675.47
961.502	4689.71
961.805	4617.84
962.108	4580.11
962.411	4575.36
962.714	4574.91
963.017	4533.55
963.32	4542.37
963.623	4498.07
963.926	4469.83
964.228	4462.14
964.531	4449.94
964.833	4438.87
965.136	4405.19
965.438	4398.87
965.741	4374.01
966.043	4375.82
966.345	4343.5
966.648	4311.86
966.95	4261.47
967.252	4299.66
967.554	4255.37
967.856	4230.74
968.158	4239.55
968.46	4230.28
968.761	4192.55
969.063	4159.55
969.365	4146.44
969.666	4148.25
969.968	4137.41
970.269	4136.95
970.571	4085.43
970.872	4033.68
971.174	4051.76
971.475	3976.73
971.776	3992.32
972.077	4008.6
972.378	3960.91
972.679	3976.51
972.98	3953.23
973.281	3923.4
973.582	3890.18
973.883	3857.19
974.183	3849.5
974.484	3814.25
974.785	3769.05
975.085	3796.4
975.386	3781.93
975.686	3773.12
975.986	3745.33
976.287	3731.09
976.587	3681.82
976.887	3674.14
977.187	3706.23
977.487	3659.45
977.787	3626.46
978.087	3656.29
978.387	3614.71
978.687	3641.83
978.987	3595.95
979.286	3554.82
979.586	3535.16
979.885	3528.61
980.185	3489.29
980.484	3532
980.784	3494.03
981.083	3482.96
981.382	3456.75
981.682	3436.63
981.981	3455.16
982.28	3435.5
982.579	3379.01
982.878	3394.6
983.177	3369.06
983.475	3360.25
983.774	3302.17
984.073	3345.79
984.372	3339.46
984.67	3280.7
984.969	3289.07
985.267	3253.36
985.566	3258.11
985.864	3231.89
986.162	3206.81
986.461	3201.84
986.759	3179.24
987.057	3187.83
987.355	3147.37
987.653	3159.8
987.951	3125.23
988.249	3111.9
988.547	3072.8
988.844	3056.76
989.142	3073.7
989.44	3040.03
989.737	3014.27
990.035	3051.11
990.332	3010.43
990.63	2976.53
990.927	2996.64
991.224	2943.54
991.521	2964.78
991.819	2916.42
992.116	2912.58
992.413	2898.34
992.71	2923.43
993.006	2905.12
993.303	2887.49
993.6	2868.74
993.897	2851.79
994.193	2790.55
994.49	2818.34
994.787	2807.04
995.083	2828.29
995.379	2763.66
995.676	2728.85
995.972	2736.99
996.268	2730.44
996.565	2750.78
996.861	2712.58
997.157	2659.7
997.453	2674.17
997.749	2618.35
998.044	2638.24
998.34	2634.39
998.636	2620.38
998.932	2565.02
999.227	2589.65
999.523	2558.46
999.818	2569.08
1000.114	2541.97
1000.409	2533.38
1000.704	2503.78
1001	2518.69
1001.295	2466.49
1001.59	2488.86
1001.885	2484.12
1002.18	2483.21
1002.475	2425.36
1002.77	2455.42
1003.065	2417.9
1003.359	2402.76
1003.654	2382.65
1003.949	2400.73
1004.243	2372.25
1004.538	2349.2
1004.832	2371.58
1005.127	2338.36
1005.421	2298.36
1005.715	2297.45
1006.009	2263.1
1006.304	2275.76
1006.598	2258.36
1006.892	2260.17
1007.186	2201.86
1007.48	2228.53
1007.773	2202.54
1008.067	2197.12
1008.361	2170.23
1008.655	2160.06
1008.948	2147.63
1009.242	2123.22
1009.535	2111.02
1009.829	2132.49
1010.122	2087.29
1010.415	2121.64
1010.708	2064.01
1011.001	2052.49
1011.295	2087.97
1011.588	1997.35
1011.881	2021.53
1012.173	2011.81
1012.466	2011.59
1012.759	1969.33
1013.052	1993.05
1013.344	1948.76
1013.637	1960.51
1013.93	1966.16
1014.222	1939.72
1014.514	1948.31
1014.807	1887.07
1015.099	1880.29
1015.391	1904.47
1015.683	1874.87
1015.976	1856.11
1016.268	1848.88
1016.56	1843
1016.851	1838.03
1017.143	1827.18
1017.435	1801.65
1017.727	1777.47
1018.018	1770.69
1018.31	1791.48
1018.602	1772.5
1018.893	1766.17
1019.185	1735.89
1019.476	1746.73
1019.767	1697.7
1020.058	1733.63
1020.35	1678.03
1020.641	1671.03
1020.932	1663.35
1021.223	1641.65
1021.514	1620.18
1021.804	1624.48
1022.095	1638.49
1022.386	1587.64
1022.677	1592.39
1022.967	1551.94
1023.258	1583.8
1023.548	1550.35
1023.839	1563.24
1024.129	1535.44
1024.419	1535.89
1024.709	1507.64
1025	1520.98
1025.29	1483.92
1025.58	1467.65
1025.87	1459.06
1026.16	1466.06
1026.449	1457.25
1026.739	1466.29
1027.029	1452.28
1027.319	1454.31
1027.608	1421.32
1027.898	1433.52
1028.187	1404.82
1028.477	1389
1028.766	1384.94
1029.055	1396.23
1029.344	1367.99
1029.634	1362.11
1029.923	1361.43
1030.212	1331.6
1030.501	1320.76
1030.79	1298.16
1031.078	1288.67
1031.367	1291.38
1031.656	1278.72
1031.945	1294.32
1032.233	1252.06
1032.522	1262.68
1032.81	1265.16
1033.099	1248.44
1033.387	1230.59
1033.675	1237.82
1033.963	1242.34
1034.251	1222
1034.54	1225.62
1034.828	1203.47
1035.116	1201.21
1035.403	1197.82
1035.691	1170.93
1035.979	1160.08
1036.267	1179.29
1036.554	1143.36
1036.842	1139.29
1037.129	1128.67
1037.417	1125.96
1037.704	1119.63
1037.992	1099.75
1038.279	1106.75
1038.566	1102.91
1038.853	1102.91
1039.14	1102.91
