Data from red_cardboard_box_FLMS001491_00031.txt Node
Date: Wed Feb 08 11:32:04 GMT 2017
User: dcchb
Spectrometer: FLMS00149
Trigger mode: 0
Integration Time (sec): 2.000000E-2
Scans to average: 10
Electric dark correction enabled: true
Nonlinearity correction enabled: false
Boxcar width: 0
XAxis mode: Wavelengths
Number of Pixels in Spectrum: 2048
>>>>>Begin Spectral Data<<<<<
341.393	-6.12
341.776	-6.12
342.16	-6.12
342.543	-60.35
342.927	-57.19
343.31	-95.15
343.693	-67.81
344.077	-63.52
344.46	-49.73
344.843	-46.11
345.226	-40.01
345.61	-27.81
345.993	-14.25
346.376	1.79
346.759	5.86
347.142	6.31
347.525	37.5
347.908	74.33
348.291	79.53
348.674	89.25
349.057	109.81
349.44	116.37
349.823	153.65
350.206	143.26
350.588	182.81
350.971	218.51
351.354	237.72
351.737	215.12
352.119	271.17
352.502	268.68
352.884	274.78
353.267	293.09
353.65	289.02
354.032	286.98
354.414	299.19
354.797	314.55
355.179	337.15
355.562	317.72
355.944	337.83
356.326	331.73
356.709	331.5
357.091	318.17
357.473	361.56
357.855	337.6
358.238	342.58
358.62	338.28
359.002	340.09
359.384	348.9
359.766	333.76
360.148	344.38
360.53	343.48
360.912	327.66
361.294	332.41
361.676	327.66
362.057	311.16
362.439	328.79
362.821	319.07
363.203	330.37
363.584	331.5
363.966	320.2
364.348	327.21
364.729	301.22
365.111	299.19
365.493	318.62
365.874	318.4
366.256	320.43
366.637	313.88
367.019	319.98
367.4	296.48
367.781	331.95
368.163	320.2
368.544	298.28
368.925	306.64
369.306	311.84
369.688	303.71
370.069	320.2
370.45	317.27
370.831	296.25
371.212	310.71
371.593	314.55
371.974	300.32
372.355	305.97
372.736	307.55
373.117	314.33
373.498	304.16
373.879	296.25
374.26	325.18
374.641	308.45
375.021	307.77
375.402	329.47
375.783	306.64
376.163	310.26
376.544	312.75
376.925	302.12
377.305	332.41
377.686	326.76
378.066	322.01
378.447	312.52
378.827	317.04
379.208	324.95
379.588	319.75
379.968	330.15
380.349	330.15
380.729	325.4
381.109	310.03
381.489	340.09
381.87	331.5
382.25	342.35
382.63	301.67
383.01	319.53
383.39	325.85
383.77	332.63
384.15	318.85
384.53	318.62
384.91	340.09
385.29	331.95
385.67	337.83
386.049	343.71
386.429	335.57
386.809	344.61
387.189	346.19
387.568	325.85
387.948	330.6
388.328	332.86
388.707	343.03
389.087	329.47
389.466	348.45
389.846	347.77
390.225	343.48
390.605	333.08
390.984	330.15
391.363	364.72
391.743	354.33
392.122	361.56
392.501	357.04
392.881	373.99
393.26	348.45
393.639	372.18
394.018	352.52
394.397	367.66
394.776	352.29
395.155	363.59
395.534	353.42
395.913	345.29
396.292	356.81
396.671	369.24
397.05	340.99
397.429	359.75
397.808	368.79
398.186	353.87
398.565	358.62
398.944	347.77
399.323	370.82
399.701	364.95
400.08	362.24
400.458	339.41
400.837	366.76
401.215	360.2
401.594	370.82
401.972	371.05
402.351	389.58
402.729	368.79
403.107	388.45
403.486	365.17
403.864	374.67
404.242	404.04
404.62	377.15
404.999	399.3
405.377	377.83
405.755	376.02
406.133	389.81
406.511	406.75
406.889	413.08
407.267	400.88
407.645	390.48
408.023	376.7
408.401	399.75
408.779	390.94
409.156	413.76
409.534	409.92
409.912	404.95
410.29	416.7
410.667	392.07
411.045	406.75
411.422	412.18
411.8	408.79
412.178	430.48
412.555	414.44
412.933	426.19
413.31	418.51
413.687	420.99
414.065	429.81
414.442	429.13
414.819	414.21
415.197	430.03
415.574	419.86
415.951	441.78
416.328	430.26
416.705	437.94
417.082	437.71
417.46	443.59
417.837	415.34
418.214	435
418.591	430.71
418.967	433.87
419.344	438.17
419.721	446.3
420.098	444.95
420.475	454.66
420.852	439.52
421.228	455.57
421.605	443.82
421.982	449.69
422.358	452.63
422.735	444.72
423.111	453.99
423.488	454.66
423.864	466.87
424.241	448.56
424.617	451.95
424.994	478.84
425.37	476.13
425.746	467.32
426.123	491.95
426.499	448.56
426.875	463.7
427.251	461.67
427.627	488.33
428.003	482.23
428.379	482.69
428.756	505.74
429.132	486.07
429.507	488.11
429.883	486.07
430.259	495.34
430.635	498.96
431.011	487.88
431.387	507.54
431.763	516.58
432.138	505.51
432.514	520.42
432.89	523.14
433.265	517.03
433.641	515.45
434.016	537.15
434.392	541.67
434.767	533.08
435.143	525.85
435.518	562.46
435.894	540.76
436.269	540.76
436.644	546.86
437.02	546.86
437.395	578.05
437.77	557.49
438.145	540.08
438.52	550.48
438.895	565.17
439.271	562.91
439.646	584.6
440.021	582.8
440.395	568.78
440.77	573.98
441.145	586.64
441.52	589.35
441.895	588.22
442.27	595
442.645	572.17
443.019	591.38
443.394	576.92
443.769	573.3
444.143	590.48
444.518	583.25
444.892	606.07
445.267	617.37
445.641	606.52
446.016	606.07
446.39	634.32
446.764	608.11
447.139	620.76
447.513	621.44
447.887	611.5
448.262	602.68
448.636	629.8
449.01	602.46
449.384	625.51
449.758	639.97
450.132	644.49
450.506	634.09
450.88	622.12
451.254	651.49
451.628	632.96
452.002	646.75
452.376	656.92
452.75	650.59
453.123	664.83
453.497	646.75
453.871	673.87
454.244	677.26
454.618	658.5
454.992	685.62
455.365	681.1
455.739	688.78
456.112	691.95
456.486	685.39
456.859	698.27
457.232	718.84
457.606	719.51
457.979	699.18
458.352	715.67
458.725	730.14
459.099	726.29
459.472	741.66
459.845	713.64
460.218	728.1
460.591	716.58
460.964	754.09
461.337	757.25
461.71	771.94
462.083	748.44
462.456	772.85
462.829	773.98
463.201	773.07
463.574	789.57
463.947	789.34
464.32	826.86
464.692	797.71
465.065	784.82
465.438	809
465.81	811.26
466.183	804.71
466.555	840.87
466.928	850.58
467.3	857.59
467.672	844.71
468.045	861.88
468.417	859.85
468.789	870.47
469.161	873.18
469.534	898.95
469.906	888.55
470.278	908.44
470.65	892.62
471.022	897.59
471.394	919.28
471.766	952.5
472.138	940.3
472.51	945.27
472.882	982.33
473.253	973.29
473.625	956.34
473.997	982.78
474.369	989.56
474.74	987.53
475.112	997.7
475.484	1016.68
475.855	1023.69
476.227	1052.84
476.598	1049.68
476.97	1052.39
477.341	1079.51
477.713	1111.37
478.084	1099.84
478.455	1106.62
478.827	1124.7
479.198	1134.19
479.569	1152.27
479.94	1173.29
480.311	1148.88
480.682	1194.98
481.053	1213.74
481.424	1236.79
481.795	1232.04
482.166	1263
482.537	1269.78
482.908	1291.03
483.279	1277.47
483.65	1307.3
484.021	1351.59
484.391	1328.99
484.762	1330.8
485.133	1332.83
485.503	1384.13
485.874	1414.19
486.244	1423.45
486.615	1409.89
486.985	1432.72
487.356	1489.89
487.726	1468.65
488.097	1510
488.467	1498.7
488.837	1526.73
489.207	1522.66
489.578	1580.96
489.948	1589.77
490.318	1583.45
490.688	1604.69
491.058	1629.32
491.428	1662.09
491.798	1671.58
492.168	1682.88
492.538	1672.94
492.908	1680.62
493.278	1705.25
493.648	1722.2
494.017	1750
494.387	1762.65
494.757	1760.62
495.126	1819.37
495.496	1763.33
495.866	1801.29
496.235	1799.94
496.605	1857.11
496.974	1836.77
497.344	1831.12
497.713	1871.35
498.082	1885.59
498.452	1877.9
498.821	1904.12
499.19	1931.23
499.559	1930.56
499.928	1942.31
500.298	1939.82
500.667	1935.08
501.036	1964
501.405	1981.85
501.774	2015.98
502.143	2003.55
502.512	2034.06
502.88	2010.55
503.249	2059.59
503.618	2044.68
503.987	2045.81
504.356	2079.25
504.724	2083.55
505.093	2110.21
505.462	2117.67
505.83	2102.53
506.199	2106.82
506.567	2191.57
506.936	2183.43
507.304	2197.22
507.672	2184.34
508.041	2232.7
508.409	2218.91
508.777	2256.88
509.145	2262.75
509.514	2264.11
509.882	2301.17
510.25	2264.33
510.618	2303.65
510.986	2321.05
511.354	2309.3
511.722	2381.84
512.09	2408.74
512.458	2374.61
512.826	2382.97
513.193	2385.91
513.561	2425.46
513.929	2438.11
514.297	2474.05
514.664	2450.99
515.032	2467.49
515.4	2495.97
515.767	2530.31
516.135	2554.27
516.502	2525.34
516.869	2568.51
517.237	2563.53
517.604	2585.91
517.972	2589.52
518.339	2600.6
518.706	2635.4
519.073	2660.93
519.44	2668.39
519.808	2711.1
520.175	2687.6
520.542	2729.41
520.909	2761.95
521.276	2742.51
521.643	2784.55
522.009	2781.61
522.376	2815.51
522.743	2853.7
523.11	2825.9
523.477	2869.51
523.843	2869.51
524.21	2930.76
524.577	2947.48
524.943	2949.06
525.31	2966.24
525.676	2979.57
526.043	3015.05
526.409	3084.88
526.776	3079.23
527.142	3088.04
527.508	3112.9
527.874	3143.86
528.241	3105.21
528.607	3110.64
528.973	3160.58
529.339	3150.64
529.705	3204.65
530.071	3235.16
530.437	3232.44
530.803	3283.74
531.169	3277.41
531.535	3317.86
531.901	3327.58
532.267	3324.42
532.632	3347.24
532.998	3343.85
533.364	3377.07
533.73	3378.2
534.095	3439.22
534.461	3451.19
534.826	3471.53
535.192	3463.85
535.557	3512.44
535.923	3511.53
536.288	3534.58
536.653	3557.63
537.019	3558.99
537.384	3580.91
537.749	3589.72
538.114	3558.99
538.479	3644.86
538.845	3611.87
539.21	3640.12
539.575	3661.13
539.94	3656.61
540.305	3667.91
540.67	3743.39
541.034	3688.25
541.399	3737.29
541.764	3747.68
542.129	3766.89
542.494	3819.77
542.858	3788.81
543.223	3826.33
543.587	3800.11
543.952	3880.11
544.316	3853.44
544.681	3822.48
545.045	3850.05
545.41	3888.25
545.774	3967.11
546.138	3934.12
546.503	3981.35
546.867	4006.89
547.231	4031.07
547.595	4053.89
547.959	4088.24
548.324	4083.04
548.688	4073.78
549.052	4102.7
549.416	4118.3
549.779	4117.84
550.143	4109.03
550.507	4174.34
550.871	4236.48
551.235	4231.29
551.599	4223.15
551.962	4250.5
552.326	4282.59
552.689	4335.69
553.053	4301.34
553.417	4330.95
553.78	4332.3
554.143	4399.19
554.507	4392.86
554.87	4446.2
555.234	4519.19
555.597	4461.34
555.96	4549.7
556.323	4569.58
556.686	4551.96
557.05	4640.54
557.413	4628.34
557.776	4662.46
558.139	4667.66
558.502	4730.03
558.865	4732.97
559.228	4769.13
559.59	4818.62
559.953	4818.16
560.316	4933.64
560.679	4942
561.041	4990.59
561.404	4996.69
561.767	5046.63
562.129	5031.72
562.492	5116.01
562.854	5125.95
563.217	5128.89
563.579	5180.87
563.941	5230.81
564.304	5282.11
564.666	5332.73
565.028	5370.47
565.39	5401.2
565.753	5446.17
566.115	5511.93
566.477	5557.13
566.839	5548.54
567.201	5659.5
567.563	5653.85
567.925	5693.4
568.287	5796.67
568.648	5835.54
569.01	5887.74
569.372	5921.19
569.734	5937.46
570.095	6018.58
570.457	6047.06
570.819	6147.17
571.18	6168.19
571.542	6252.02
571.903	6301.97
572.265	6342.64
572.626	6348.52
572.987	6419.03
573.349	6464
573.71	6602.98
574.071	6605.69
574.432	6681.62
574.794	6745.12
575.155	6811.11
575.516	6816.3
575.877	6903.31
576.238	7019.91
576.599	7115.96
576.96	7117.31
577.32	7261.26
577.681	7310.08
578.042	7357.98
578.403	7428.49
578.763	7470.75
579.124	7573.35
579.485	7704.19
579.845	7880.91
580.206	7855.82
580.566	7946.9
580.927	8098.08
581.287	8241.13
581.648	8278.86
582.008	8428.01
582.368	8565.18
582.728	8623.04
583.089	8736.03
583.449	8798.17
583.809	8900.77
584.169	9077.94
584.529	9179.63
584.889	9345.28
585.249	9450.36
585.609	9544.59
585.969	9794.98
586.329	9812.38
586.688	10064.81
587.048	10150.68
587.408	10360.17
587.768	10469.32
588.127	10702.3
588.487	10870.89
588.846	11103.42
589.206	11160.37
589.565	11403.98
589.925	11632.9
590.284	11706.57
590.643	12060.23
591.003	12232.43
591.362	12535.7
591.721	12730.95
592.08	12903.15
592.44	13186.31
592.799	13376.81
593.158	13564.15
593.517	13882.11
593.876	14116.45
594.235	14286.39
594.593	14539.49
594.952	14879.37
595.311	15137.44
595.67	15405.91
596.029	15693.58
596.387	15917.99
596.746	16363.62
597.104	16433.9
597.463	16743.95
597.822	17101.01
598.18	17354.11
598.538	17542.35
598.897	17990.02
599.255	18080.41
599.613	18728.31
599.972	18752.26
600.33	19212.14
600.688	19351.12
601.046	19793.82
601.404	20101.6
601.762	20350.64
602.12	20603.96
602.478	20971.19
602.836	21243.5
603.194	21470.38
603.552	21776.36
603.91	21951.95
604.268	22405.95
604.625	22584.93
604.983	23044.13
605.341	23137.91
605.698	23504
606.056	23783.54
606.413	24013.37
606.771	24415.84
607.128	24558.21
607.485	24795.49
607.843	25117.97
608.2	25432.76
608.557	25775.35
608.914	25978.51
609.272	26259.86
609.629	26486.07
609.986	26782.56
610.343	26880.86
610.7	27299.61
611.057	27339.15
611.414	27672.03
611.771	27851.91
612.127	28101.17
612.484	28322.63
612.841	28599.46
613.198	28739.57
613.554	28854.82
613.911	29162.38
614.267	29241.93
614.624	29355.6
614.98	29630.62
615.337	29997.84
615.693	30025.86
616.05	30161.23
616.406	30470.82
616.762	30529.13
617.118	30682.34
617.475	30818.16
617.831	31056.57
618.187	31246.4
618.543	31362.55
618.899	31594.18
619.255	31782.65
619.611	31659.04
619.967	31947.39
620.323	32151.46
620.678	32291.34
621.034	32249.08
621.39	32296.54
621.746	32514.84
622.101	32851.55
622.457	32782.63
622.812	33010.87
623.168	32991.66
623.523	33202.95
623.879	33319.11
624.234	33160.24
624.589	33316.17
624.945	33443.85
625.3	33577.86
625.655	33625.99
626.01	33756.16
626.365	33782.15
626.72	33804.75
627.075	33911.86
627.43	33987.57
627.785	33981.47
628.14	34204.06
628.495	34383.49
628.85	34352.53
629.205	34165.64
629.559	34482.7
629.914	34351.4
630.269	34471.4
630.623	34410.38
630.978	34431.85
631.332	34649.24
631.687	34703.03
632.041	34558.85
632.396	34691.05
632.75	34676.36
633.104	34728.34
633.459	34586.65
633.813	34604.95
634.167	34703.48
634.521	34684.27
634.875	34729.92
635.229	34681.56
635.583	34643.82
635.937	34606.08
636.291	34630.26
636.645	34863.93
636.999	34689.47
637.352	34699.19
637.706	34527.89
638.06	34717.27
638.413	34671.39
638.767	34639.3
639.121	34691.96
639.474	34625.97
639.828	34751.84
640.181	34826.64
640.534	34839.97
640.888	34720.2
641.241	34609.47
641.594	34817.38
641.947	34876.13
642.301	34773.99
642.654	34685.18
643.007	34776.02
643.36	34912.51
643.713	34714.33
644.066	34886.75
644.419	34648.79
644.771	34400.44
645.124	34199.31
645.477	34037.96
645.83	33864.86
646.182	33911.86
646.535	33837.29
646.888	33913.44
647.24	33784.86
647.593	33988.92
647.945	33927.46
648.298	33778.53
648.65	33788.7
649.002	33658.76
649.355	33879.1
649.707	33842.03
650.059	33894.91
650.411	34280.21
650.763	34452.41
651.115	34647.66
651.467	34588.91
651.819	34648.34
652.171	34642.69
652.523	34619.19
652.875	34619.41
653.227	34425.3
653.578	34730.6
653.93	34657.83
654.282	34538.06
654.633	34328.12
654.985	34437.27
655.337	34552.3
655.688	34702.58
656.039	34637.95
656.391	34463.49
656.742	34449.7
657.094	34397.27
657.445	34619.41
657.796	34394.56
658.147	34545.97
658.498	34369.25
658.849	34446.99
659.2	34429.14
659.551	34424.84
659.902	34518.63
660.253	34364.96
660.604	34571.05
660.955	34307.11
661.306	34493.09
661.656	34530.38
662.007	34493.99
662.358	34514.33
662.708	34472.98
663.059	34434.33
663.409	34253.1
663.76	34567.44
664.11	34439.76
664.461	34498.97
664.811	34588.91
665.161	34496.93
665.511	34375.81
665.862	34510.04
666.212	34590.26
666.562	34556.14
666.912	34565.4
667.262	34401.57
667.612	34469.59
667.962	34501
668.312	34542.35
668.662	34560.21
669.011	34566.31
669.361	34525.41
669.711	34490.38
670.06	34361.34
670.41	34355.92
670.76	34265.53
671.109	34447.67
671.459	34349.59
671.808	34290.38
672.157	34286.77
672.507	34154.12
672.856	34058.75
673.205	34414.9
673.554	34311.4
673.904	34288.8
674.253	34309.82
674.602	34279.76
674.951	33762.71
675.3	33625.32
675.649	34179.88
675.998	34093.1
676.346	34202.48
676.695	34259.42
677.044	33950.28
677.393	34037.06
677.741	34211.52
678.09	34018.3
678.438	33955.25
678.787	34068.02
679.135	34129.48
679.484	33819.44
679.832	34015.14
680.181	33674.58
680.529	33830.06
680.877	33848.14
681.225	33859.66
681.573	33987.57
681.922	33708.03
682.27	33590.29
682.618	33621.47
682.966	33502.83
683.314	33680.23
683.661	33601.14
684.009	33380.13
684.357	33238.21
684.705	33262.16
685.053	33240.02
685.4	33271.2
685.748	33091.09
686.095	33090.87
686.443	32881.38
686.79	32898.78
687.138	32974.49
687.485	32904.21
687.832	32820.82
688.18	32868.73
688.527	32593.93
688.874	32619.69
689.221	32450.21
689.568	32367.72
689.915	32408.4
690.262	32296.76
690.609	32379.93
690.956	32182.87
691.303	32099.25
691.65	31935.87
691.997	32091.12
692.344	31839.37
692.69	31869.2
693.037	31866.49
693.383	31562.55
693.73	31765.25
694.077	31590.12
694.423	31506.05
694.769	31433.74
695.116	31354.19
695.462	31419.27
695.808	31229.67
696.155	31348.77
696.501	31077.81
696.847	31115.78
697.193	30907.2
697.539	31036.46
697.885	30766.63
698.231	30809.8
698.577	30705.85
698.923	30503.36
699.269	30494.1
699.614	30368.23
699.96	30269.7
700.306	30259.98
700.651	30111.96
700.997	30169.14
701.342	30087.56
701.688	29964.4
702.033	29880.56
702.379	30032.19
702.724	29717.4
703.069	29781.12
703.415	29509.72
703.76	29608.47
704.105	29562.6
704.45	29508.14
704.795	29221.14
705.14	29266.56
705.485	29209.16
705.83	29032.44
706.175	29280.12
706.52	29179.78
706.865	28925.78
707.209	29006
707.554	28902.5
707.899	28869.06
708.243	28867.7
708.588	28629.29
708.932	28457.54
709.277	28403.31
709.621	28576.86
709.966	28310.65
710.31	28340.48
710.654	28108.85
710.998	28256.64
711.342	28336.19
711.687	28096.87
712.031	27995.63
712.375	27952.47
712.719	28053.71
713.063	27969.42
713.407	28001.96
713.75	27756.32
714.094	27845.36
714.438	27619.82
714.782	27762.42
715.125	27547.74
715.469	27597.45
715.812	27472.03
716.156	27351.58
716.499	27413.95
716.843	27440.17
717.186	27247.41
717.53	27427.29
717.873	27382.09
718.216	27282.43
718.559	27164.92
718.902	27069.56
719.246	27056.9
719.589	27009.9
719.932	26889.45
720.275	26855.32
720.617	26880.41
720.96	26813.74
721.303	26740.3
721.646	26763.58
721.989	26641.09
722.331	26772.62
722.674	26703.92
723.016	26698.94
723.359	26521.77
723.701	26674.76
724.044	26526.97
724.386	26194.1
724.729	26355
725.071	26286.75
725.413	26255.57
725.755	26264.61
726.097	26132.63
726.439	26045.85
726.782	26100.32
727.124	26128.34
727.465	25998.4
727.807	26035.69
728.149	26044.05
728.491	25922.02
728.833	25923.37
729.175	25835.24
729.516	25729.7
729.858	25738.52
730.199	25877.95
730.541	25833.2
730.882	25714.34
731.224	25749.37
731.565	25616.94
731.906	25598.63
732.248	25633.21
732.589	25447
732.93	25341.92
733.271	25388.92
733.612	25396.15
733.953	25523.16
734.294	25285.2
734.635	25368.81
734.976	25355.48
735.317	25200.45
735.658	25140.57
735.999	25157.06
736.339	25080
736.68	25151.64
737.021	25227.8
737.361	24986.22
737.702	25185.31
738.042	24987.13
738.383	25009.05
738.723	24935.83
739.063	24883.85
739.404	24959.1
739.744	24813.57
740.084	24753.46
740.424	24813.12
740.764	24738.77
741.104	24869.84
741.444	24743.97
741.784	24593.24
742.124	24637.08
742.464	24646.8
742.804	24635.72
743.143	24661.71
743.483	24563.63
743.823	24567.48
744.162	24496.06
744.502	24442.28
744.841	24421.04
745.181	24464.43
745.52	24314.83
745.86	24351.44
746.199	24274.38
746.538	24347.82
746.877	24428.72
747.216	24262.4
747.556	24182.85
747.895	24231.44
748.234	24138.56
748.573	24043.65
748.911	24016.76
749.25	23978.79
749.589	23949.86
749.928	23975.63
750.267	23968.4
750.605	23997.55
750.944	23895.63
751.283	23765.46
751.621	23848.85
751.96	23716.42
752.298	23685.01
752.636	23681.85
752.975	23572.02
753.313	23528.63
753.651	23631.91
753.989	23383.1
754.327	23398.01
754.666	23364.34
755.004	23273.27
755.342	23273.95
755.679	23337.9
756.017	23228.53
756.355	23290.45
756.693	23164.57
757.031	22996.9
757.368	23039.15
757.706	23079.83
758.044	22947.63
758.381	22895.88
758.719	22811.82
759.056	22838.48
759.394	22830.57
759.731	22648.2
760.068	22560.3
760.405	22565.72
760.743	22447.08
761.08	22546.74
761.417	22405.5
761.754	22416.35
762.091	22362.11
762.428	22257.71
762.765	22137.26
763.102	22102.91
763.438	22013.19
763.775	21938.39
764.112	21955.57
764.449	21968.22
764.785	21895.23
765.122	21694.78
765.458	21574.79
765.795	21639.87
766.131	21572.07
766.467	21494.11
766.804	21348.58
767.14	21326.2
767.476	21356.26
767.812	21323.49
768.148	21191.97
768.485	21149.94
768.821	21026.33
769.157	20904.97
769.492	20896.61
769.828	20855.26
770.164	20811.64
770.5	20777.29
770.836	20650.52
771.171	20578.2
771.507	20593.57
771.842	20320.36
772.178	20365.1
772.513	20259.11
772.849	20313.58
773.184	20193.58
773.519	20200.13
773.855	20043.75
774.19	19958.33
774.525	19968.95
774.86	19786.36
775.195	19755.85
775.53	19814.83
775.865	19695.29
776.2	19641.5
776.535	19504.78
776.87	19452.13
777.205	19415.07
777.539	19290.78
777.874	19336.65
778.209	19197
778.543	19128.52
778.878	18982.99
779.212	18963.56
779.547	18926.95
779.881	19006.27
780.215	18782.09
780.55	18826.61
780.884	18748.42
781.218	18651.47
781.552	18622.77
781.886	18449.67
782.22	18420.74
782.554	18331.48
782.888	18198.6
783.222	18181.2
783.556	18171.03
783.889	18065.27
784.223	17865.96
784.557	17927.42
784.89	17942.56
785.224	17768.11
785.557	17666.87
785.891	17700.09
786.224	17646.53
786.558	17590.03
786.891	17505.29
787.224	17329.25
787.557	17423.26
787.891	17317.72
788.224	17398.85
788.557	17274.33
788.89	17117.5
789.223	17106.2
789.556	17024.17
789.888	16951.86
790.221	16971.74
790.554	16770.84
790.887	16868.47
791.219	16740.56
791.552	16697.85
791.884	16617.63
792.217	16638.19
792.549	16581.7
792.882	16418.99
793.214	16349.39
793.546	16398.88
793.879	16256.96
794.211	16138.54
794.543	16208.15
794.875	16041.37
795.207	16281.37
795.539	16016.51
795.871	16039.34
796.203	15934.71
796.535	15912.79
796.867	15903.75
797.198	15807.48
797.53	15823.75
797.862	15712.57
798.193	15744.2
798.525	15542.18
798.856	15570.2
799.188	15418.56
799.519	15393.48
799.85	15353.03
800.182	15396.19
800.513	15347.6
800.844	15160.27
801.175	15250.66
801.506	15240.72
801.837	15133.37
802.168	15173.6
802.499	15103.54
802.83	14971.57
803.161	14835.75
803.491	14913.72
803.822	14953.27
804.153	14827.39
804.483	14717.79
804.814	14747.39
805.145	14662.88
805.475	14720.73
805.805	14612.26
806.136	14592.82
806.466	14575.42
806.796	14605.03
807.126	14509.43
807.457	14372.04
807.787	14342.21
808.117	14347.63
808.447	14318.93
808.777	14292.94
809.107	14278.48
809.436	14260.85
809.766	14143.34
810.096	14161.2
810.426	14096.34
810.755	14091.59
811.085	14006.85
811.414	14047.53
811.744	13944.93
812.073	13885.27
812.403	13936.12
812.732	13817.02
813.061	13879.17
813.39	13769.79
813.719	13693.64
814.049	13744.03
814.378	13672.39
814.707	13594.88
815.036	13592.4
815.365	13509.46
815.693	13374.1
816.022	13446.64
816.351	13405.96
816.68	13381.78
817.008	13424.49
817.337	13336.13
817.665	13284.38
817.994	13249.81
818.322	13294.55
818.651	13212.97
818.979	13158.06
819.307	13129.36
819.636	13184.27
819.964	13042.13
820.292	13045.97
820.62	13072.41
820.948	13019.98
821.276	13060.66
821.604	13095.69
821.932	13049.59
822.259	13096.14
822.587	12999.42
822.915	13005.29
823.243	13027.44
823.57	12996.03
823.898	13033.99
824.225	12973.88
824.553	12968.68
824.88	13046.42
825.207	12995.35
825.535	12921
825.862	13027.67
826.189	12912.41
826.516	13026.99
826.843	13144.5
827.17	13030.6
827.497	13073.54
827.824	13002.13
828.151	13037.16
828.478	12911.28
828.805	13044.61
829.131	12839.42
829.458	12861.57
829.785	12918.74
830.111	12949.48
830.438	12963.49
830.764	12898.63
831.09	12907.22
831.417	12898.18
831.743	12901.79
832.069	12950.61
832.395	12933.88
832.722	12961.9
833.048	12916.26
833.374	12942.02
833.7	12866.09
834.026	12840.78
834.351	12884.62
834.677	12851.4
835.003	12895.69
835.329	12814.11
835.654	12767.33
835.98	12801.68
836.306	12815.47
836.631	12741.57
836.956	12735.02
837.282	12737.28
837.607	12697.05
837.932	12636.04
838.258	12725.08
838.583	12626.09
838.908	12611.86
839.233	12631.74
839.558	12582.03
839.883	12528.24
840.208	12456.38
840.533	12514.69
840.858	12495.25
841.182	12537.28
841.507	12500.67
841.832	12433.11
842.156	12421.35
842.481	12414.8
842.805	12309.49
843.13	12295.48
843.454	12335.71
843.778	12243.96
844.103	12271.3
844.427	12235.37
844.751	12192.66
845.075	12138.2
845.399	12143.17
845.723	12008.03
846.047	12049.39
846.371	11957.19
846.695	11948.15
847.019	11851.65
847.343	11811.43
847.666	11765.33
847.99	11744.54
848.313	11671.77
848.637	11685.33
848.96	11635.39
849.284	11595.16
849.607	11535.28
849.931	11416.18
850.254	11350.2
850.577	11379.8
850.9	11331.44
851.223	11279.69
851.546	11223.42
851.869	11100.26
852.192	11159.47
852.515	11059.81
852.838	11045.57
853.161	10980.49
853.483	11020.71
853.806	10896.42
854.129	10925.8
854.451	10831.34
854.774	10787.5
855.096	10879.93
855.419	10739.36
855.741	10768.74
856.063	10696.2
856.385	10600.39
856.708	10593.83
857.03	10596.09
857.352	10595.64
857.674	10567.17
857.996	10549.76
858.318	10429.77
858.64	10413.5
858.961	10406.04
859.283	10312.26
859.605	10347.96
859.926	10388.64
860.248	10274.74
860.57	10319.26
860.891	10239.04
861.212	10206.95
861.534	10206.05
861.855	10177.12
862.176	10147.97
862.498	10196.78
862.819	10175.99
863.14	10065.71
863.461	10096.9
863.782	9991.81
864.103	10057.12
864.424	10014.64
864.745	10074.07
865.065	10019.16
865.386	9977.35
865.707	10026.16
866.027	10032.94
866.348	9976.9
866.668	9857.13
866.989	9841.99
867.309	9802.89
867.63	9837.02
867.95	9882.89
868.27	9818.26
868.59	9851.93
868.91	9802.44
869.23	9780.07
869.55	9757.92
869.87	9717.24
870.19	9664.59
870.51	9696.68
870.83	9748.88
871.15	9739.62
871.469	9629.34
871.789	9662.78
872.109	9614.42
872.428	9609.68
872.748	9622.56
873.067	9561.32
873.386	9496.01
873.706	9537.59
874.025	9460.08
874.344	9547.08
874.663	9494.43
874.982	9541.43
875.301	9452.62
875.62	9482
875.939	9487.42
876.258	9465.95
876.577	9391.6
876.896	9447.42
877.214	9379.17
877.533	9425.27
877.852	9376.24
878.17	9315.67
878.489	9331.49
878.807	9318.16
879.125	9357.71
879.444	9297.82
879.762	9358.16
880.08	9263.92
880.398	9243.58
880.716	9243.81
881.034	9199.07
881.352	9224.38
881.67	9227.31
881.988	9240.65
882.306	9185.51
882.624	9189.8
882.941	9125.62
883.259	9089.92
883.577	9028.68
883.894	9015.34
884.212	8978.05
884.529	8966.08
884.846	8984.16
885.164	9042.91
885.481	8931.73
885.798	8899.64
886.115	8799.98
886.432	8870.26
886.75	8800.66
887.067	8798.4
887.383	8815.8
887.7	8766.08
888.017	8712.98
888.334	8746.42
888.651	8708.91
888.967	8705.07
889.284	8625.07
889.6	8618.74
889.917	8615.35
890.233	8585.97
890.55	8611.74
890.866	8545.07
891.182	8570.16
891.498	8509.14
891.815	8466.43
892.131	8433.66
892.447	8396.38
892.763	8361.12
893.079	8387.56
893.395	8354.79
893.71	8339.88
894.026	8342.82
894.342	8252.42
894.657	8209.94
894.973	8200.22
895.289	8181.92
895.604	8308.47
895.92	8157.06
896.235	8160.22
896.55	8035.93
896.865	8047.68
897.181	7988.02
897.496	8011.53
897.811	7994.8
898.126	7969.72
898.441	7948.03
898.756	7942.15
899.071	7910.51
899.386	7953.68
899.7	7889.72
900.015	7765.43
900.33	7799.33
900.644	7772.21
900.959	7783.06
901.273	7712.78
901.588	7696.51
901.902	7629.16
902.216	7534.03
902.531	7606.79
902.845	7495.83
903.159	7555.27
903.473	7475.27
903.787	7428.27
904.101	7448.15
904.415	7441.37
904.729	7431.88
905.042	7332.67
905.356	7344.43
905.67	7309.17
905.984	7287.7
906.297	7261.26
906.611	7197.31
906.924	7157.54
907.237	7083.64
907.551	7130.87
907.864	7092
908.177	7109.4
908.491	7054.26
908.804	7033.02
909.117	6995.51
909.43	7008.16
909.743	6942.85
910.056	6907.6
910.368	6898.11
910.681	6826.02
910.994	6888.17
911.307	6793.71
911.619	6748.96
911.932	6779.02
912.244	6712.58
912.557	6714.39
912.869	6622.64
913.181	6667.16
913.494	6635.74
913.806	6592.13
914.118	6564.11
914.43	6587.61
914.742	6520.27
915.054	6467.39
915.366	6438.23
915.678	6402.53
915.99	6458.35
916.302	6424
916.613	6329.76
916.925	6346.94
917.236	6340.16
917.548	6291.35
917.859	6237.34
918.171	6209.77
918.482	6189.2
918.794	6200.05
919.105	6148.07
919.416	6107.85
919.727	6067.85
920.038	6084.35
920.349	6031.24
920.66	6005.7
920.971	6005.03
921.282	5988.08
921.593	5956.21
921.903	5928.19
922.214	5861.07
922.525	5830.79
922.835	5824.24
923.146	5839.38
923.456	5821.98
923.767	5788.76
924.077	5781.08
924.387	5718.03
924.697	5712.83
925.008	5701.53
925.318	5680.97
925.628	5673.06
925.938	5631.48
926.248	5594.19
926.558	5563.23
926.867	5534.08
927.177	5517.13
927.487	5447.98
927.796	5441.65
928.106	5432.61
928.416	5384.25
928.725	5427.87
929.034	5396.23
929.344	5385.61
929.653	5343.8
929.962	5269.68
930.271	5293.41
930.581	5276.23
930.89	5236.68
931.199	5226.74
931.508	5204.14
931.817	5172.05
932.125	5210.47
932.434	5113.3
932.743	5130.92
933.051	5106.52
933.36	5051.38
933.669	5073.75
933.977	5018.61
934.286	4998.05
934.594	4995.56
934.902	4966.86
935.21	4960.08
935.519	4940.42
935.827	4965.73
936.135	4882.34
936.443	4857.94
936.751	4815.9
937.059	4808.22
937.367	4771.39
937.674	4789.24
937.982	4767.77
938.29	4760.54
938.597	4798.73
938.905	4698.85
939.213	4688.9
939.52	4638.28
939.827	4623.82
940.135	4555.57
940.442	4558.51
940.749	4564.39
941.056	4600.32
941.363	4555.57
941.67	4533.2
941.977	4496.36
942.284	4457.95
942.591	4431.06
942.898	4396.48
943.205	4432.41
943.511	4408.91
943.818	4408.23
944.125	4372.3
944.431	4348.12
944.738	4292.3
945.044	4324.17
945.35	4274.45
945.657	4243.49
945.963	4239.42
946.269	4218.41
946.575	4194.9
946.881	4180.44
947.187	4167.11
947.493	4197.84
947.799	4183.6
948.105	4075.81
948.41	4069.26
948.716	4111.74
949.022	4059.31
949.327	4078.3
949.633	4076.04
949.938	4090.27
950.244	4013.21
950.549	3957.17
950.854	3981.12
951.16	3969.6
951.465	3873.33
951.77	3874.23
952.075	3925.08
952.38	3909.71
952.685	3888.7
952.99	3841.01
953.294	3834.01
953.599	3834.46
953.904	3832.2
954.209	3757.63
954.513	3784.52
954.818	3756.5
955.122	3750.4
955.426	3735.71
955.731	3746.33
956.035	3673.79
956.339	3631.75
956.643	3634.24
956.948	3646.22
957.252	3629.04
957.556	3631.08
957.86	3663.62
958.163	3588.59
958.467	3561.93
958.771	3553.79
959.075	3551.08
959.378	3537.29
959.682	3510.63
959.985	3506.33
960.289	3489.39
960.592	3457.52
960.896	3445.54
961.199	3426.34
961.502	3429.5
961.805	3388.6
962.108	3378.2
962.411	3374.81
962.714	3376.17
963.017	3350.63
963.32	3383.17
963.623	3319.9
963.926	3285.55
964.228	3277.41
964.531	3288.49
964.833	3289.84
965.136	3274.25
965.438	3266.11
965.741	3199.22
966.043	3215.72
966.345	3167.36
966.648	3179.34
966.95	3179.34
967.252	3145.67
967.554	3104.09
967.856	3116.74
968.158	3074.93
968.46	3117.87
968.761	3101.83
969.063	3070.41
969.365	3103.63
969.666	3050.98
969.968	3062.5
970.269	3037.19
970.571	3012.56
970.872	2993.58
971.174	2935.5
971.475	2951.32
971.776	2941.6
972.077	2938.21
972.378	2972.56
972.679	2910.64
972.98	2940.93
973.281	2877.88
973.582	2869.97
973.883	2841.72
974.183	2839.69
974.484	2838.33
974.785	2817.09
975.085	2827.03
975.386	2828.61
975.686	2802.85
975.986	2787.71
976.287	2753.81
976.587	2718.56
976.887	2727.82
977.187	2743.19
977.487	2720.37
977.787	2699.35
978.087	2724.89
978.387	2717.43
978.687	2691.67
978.987	2657.77
979.286	2637.66
979.586	2662.29
979.885	2603.31
980.185	2611.22
980.484	2604.66
980.784	2574.38
981.083	2574.16
981.382	2569.86
981.682	2550.65
981.981	2554.49
982.28	2535.06
982.579	2540.26
982.878	2529.64
983.177	2505.68
983.475	2518.79
983.774	2474.95
984.073	2454.38
984.372	2474.27
984.67	2440.15
984.969	2425.23
985.267	2393.37
985.566	2406.25
985.864	2427.94
986.162	2445.35
986.461	2340.72
986.759	2388.17
987.057	2339.36
987.355	2328.74
987.653	2332.81
987.951	2340.49
988.249	2305.46
988.547	2323.99
988.844	2257.33
989.142	2284.9
989.44	2299.81
989.737	2302.07
990.035	2276.08
990.332	2250.55
990.63	2218.23
990.927	2243.99
991.224	2216.65
991.521	2196.54
991.819	2225.24
992.116	2207.16
992.413	2163.32
992.71	2172.36
993.006	2152.47
993.303	2164.22
993.6	2147.27
993.897	2144.56
994.193	2142.3
994.49	2087.61
994.787	2089.87
995.083	2088.52
995.379	2089.2
995.676	2109.31
995.972	2056.88
996.268	2074.28
996.565	2019.82
996.861	2079.71
997.157	2035.64
997.453	1998.8
997.749	2004.23
998.044	1995.64
998.34	1975.53
998.636	2012.81
998.932	1959.71
999.227	1924.23
999.523	1943.21
999.818	1947.73
1000.114	1912.25
1000.409	1883.33
1000.704	1900.95
1001	1884.46
1001.295	1914.29
1001.59	1868.19
1001.885	1858.92
1002.18	1842.88
1002.475	1852.37
1002.77	1838.81
1003.065	1824.8
1003.359	1825.93
1003.654	1825.02
1003.949	1794.29
1004.243	1788.64
1004.538	1797
1004.832	1750.45
1005.127	1789.54
1005.421	1750
1005.715	1750
1006.009	1746.61
1006.304	1713.84
1006.598	1719.71
1006.892	1704.8
1007.186	1716.1
1007.48	1681.3
1007.773	1694.86
1008.067	1651.47
1008.361	1665.48
1008.655	1654.41
1008.948	1640.85
1009.242	1638.81
1009.535	1594.29
1009.829	1571.92
1010.122	1592.71
1010.415	1590
1010.708	1608.98
1011.001	1554.07
1011.295	1568.53
1011.588	1550.45
1011.881	1545.93
1012.173	1520.17
1012.466	1508.42
1012.759	1497.57
1013.052	1543.67
1013.344	1491.02
1013.637	1498.03
1013.93	1501.19
1014.222	1473.17
1014.514	1464.58
1014.807	1455.09
1015.099	1432.72
1015.391	1448.99
1015.683	1428.42
1015.976	1433.85
1016.268	1434.07
1016.56	1432.94
1016.851	1412.38
1017.143	1383.23
1017.435	1379.38
1017.727	1407.86
1018.018	1388.42
1018.31	1383.68
1018.602	1342.1
1018.893	1357.46
1019.185	1342.55
1019.476	1338.03
1019.767	1347.3
1020.058	1303.68
1020.35	1305.04
1020.641	1306.17
1020.932	1282.44
1021.223	1272.95
1021.514	1267.75
1021.804	1277.69
1022.095	1252.16
1022.386	1250.12
1022.677	1227.3
1022.967	1230.46
1023.258	1221.65
1023.548	1202.67
1023.839	1230.69
1024.129	1201.99
1024.419	1186.4
1024.709	1202.67
1025	1195.89
1025.29	1169.67
1025.58	1173.51
1025.87	1137.36
1026.16	1152.05
1026.449	1169.45
1026.739	1121.99
1027.029	1131.03
1027.319	1131.03
1027.608	1103.91
1027.898	1129.22
1028.187	1105.04
1028.477	1103.01
1028.766	1081.31
1029.055	1071.14
1029.344	1082.22
1029.634	1069.56
1029.923	1077.92
1030.212	1054.87
1030.501	1043.57
1030.79	1035.21
1031.078	1034.31
1031.367	1023.24
1031.656	1026.63
1031.945	1019.62
1032.233	1015.1
1032.522	1013.52
1032.81	994.99
1033.099	988.21
1033.387	979.85
1033.675	971.03
1033.963	979.62
1034.251	982.33
1034.54	953.63
1034.828	963.8
1035.116	973.75
1035.403	950.7
1035.691	931.71
1035.979	953.86
1036.267	928.55
1036.554	933.75
1036.842	926.97
1037.129	911.6
1037.417	915.22
1037.704	886.97
1037.992	888.32
1038.279	882.22
1038.566	905.5
1038.853	905.5
1039.14	905.5
