Data from red_shiny_book_FLMS001491_00042.txt Node
Date: Wed Feb 08 15:24:54 GMT 2017
User: dcchb
Spectrometer: FLMS00149
Trigger mode: 0
Integration Time (sec): 2.000000E-2
Scans to average: 10
Electric dark correction enabled: true
Nonlinearity correction enabled: false
Boxcar width: 0
XAxis mode: Wavelengths
Number of Pixels in Spectrum: 2048
>>>>>Begin Spectral Data<<<<<
341.393	-16.52
341.776	-16.52
342.16	-16.52
342.543	-52.91
342.927	-60.37
343.31	-58.11
343.693	-55.62
344.077	-56.07
344.46	-68.05
344.843	-56.52
345.226	-32.34
345.61	-51.33
345.993	-23.98
346.376	-2.29
346.759	-0.48
347.142	30.93
347.525	42
347.908	66.86
348.291	76.35
348.674	103.92
349.057	84.72
349.44	124.49
349.823	140.08
350.206	163.36
350.588	201.1
350.971	206.29
351.354	227.08
351.737	244.49
352.119	259.4
352.502	292.62
352.884	294.2
353.267	290.59
353.65	293.07
354.032	299.17
354.414	317.25
354.797	333.3
355.179	307.99
355.562	317.48
355.944	349.34
356.326	343.47
356.709	367.65
357.091	345.73
357.473	361.32
357.855	373.52
358.238	346.18
358.62	326.29
359.002	332.39
359.384	358.61
359.766	338.95
360.148	334.88
360.53	357.7
360.912	351.15
361.294	352.5
361.676	335.33
362.057	335.78
362.439	341.66
362.821	355.22
363.203	330.81
363.584	333.3
363.966	329.23
364.348	325.16
364.729	331.94
365.111	322.22
365.493	321.32
365.874	333.3
366.256	340.75
366.637	330.36
367.019	301.21
367.4	323.58
367.781	316.12
368.163	335.33
368.544	328.78
368.925	329.45
369.306	331.26
369.688	330.36
370.069	337.82
370.45	320.42
370.831	329.91
371.212	333.97
371.593	315.44
371.974	306.18
372.355	335.1
372.736	309.79
373.117	322.22
373.498	341.43
373.879	320.64
374.26	341.66
374.641	332.62
375.021	307.31
375.402	331.26
375.783	343.47
376.163	328.78
376.544	331.49
376.925	326.97
377.305	336.01
377.686	322.22
378.066	321.09
378.447	353.63
378.827	344.82
379.208	333.52
379.588	351.37
379.968	364.71
380.349	359.96
380.729	338.72
381.109	360.87
381.489	359.96
381.87	357.02
382.25	369.23
382.63	357.48
383.01	338.72
383.39	359.51
383.77	355.67
384.15	368.32
384.53	348.21
384.91	358.61
385.29	378.94
385.67	390.92
386.049	364.03
386.429	361.54
386.809	363.35
387.189	360.64
387.568	375.33
387.948	352.05
388.328	377.36
388.707	359.06
389.087	376.01
389.466	381.66
389.846	387.76
390.225	383.46
390.605	373.07
390.984	377.14
391.363	378.94
391.743	392.96
392.122	408.1
392.501	394.76
392.881	387.76
393.26	365.84
393.639	407.87
394.018	387.98
394.397	380.53
394.776	389.79
395.155	390.92
395.534	418.27
395.913	414.65
396.292	406.29
396.671	408.1
397.05	417.59
397.429	380.53
397.808	413.29
398.186	411.49
398.565	393.86
398.944	407.64
399.323	406.51
399.701	425.27
400.08	418.04
400.458	422.79
400.837	429.79
401.215	421.43
401.594	412.84
401.972	419.4
402.351	417.36
402.729	411.03
403.107	432.05
403.486	429.56
403.864	436.34
404.242	445.16
404.62	438.83
404.999	463.91
405.377	446.74
405.755	460.07
406.133	437.7
406.511	430.47
406.889	449.9
407.267	482.44
407.645	443.35
408.023	469.34
408.401	485.83
408.779	485.83
409.156	468.21
409.534	487.42
409.912	496.23
410.29	491.71
410.667	490.81
411.045	481.77
411.422	495.78
411.8	501.2
412.178	515.66
412.555	537.36
412.933	491.94
413.31	526.06
413.687	516.79
414.065	536
414.442	513.4
414.819	538.26
415.197	538.94
415.574	550.47
415.951	566.06
416.328	536
416.705	548.43
417.082	570.8
417.46	532.61
417.837	566.06
418.214	568.09
418.591	551.82
418.967	564.7
419.344	586.62
419.721	587.07
420.098	602.44
420.475	615.55
420.852	587.98
421.228	589.56
421.605	609.67
421.982	613.97
422.358	610.8
422.735	651.25
423.111	612.61
423.488	616.68
423.864	638.15
424.241	634.31
424.617	646.51
424.994	663.68
425.37	647.41
425.746	635.21
426.123	662.1
426.499	644.02
426.875	679.05
427.251	679.28
427.627	661.2
428.003	680.18
428.379	719.73
428.756	728.09
429.132	721.76
429.507	710.24
429.883	705.04
430.259	687.64
430.635	681.08
431.011	720.4
431.387	710.01
431.763	755.21
432.138	744.36
432.514	748.43
432.89	746.17
433.265	757.24
433.641	780.52
434.016	774.64
434.392	776.22
434.767	767.64
435.143	780.06
435.518	798.59
435.894	789.56
436.269	825.49
436.644	817.35
437.02	825.26
437.395	840.18
437.77	823.45
438.145	840.18
438.52	836.33
438.895	843.57
439.271	834.3
439.646	826.39
440.021	807.63
440.395	870.91
440.77	855.54
441.145	869.1
441.52	886.95
441.895	909.78
442.27	903.45
442.645	898.48
443.019	888.31
443.394	923.79
443.769	895.54
444.143	887.86
444.518	887.41
444.892	889.67
445.267	937.8
445.641	930.79
446.016	948.42
446.39	937.35
446.764	940.29
447.139	962.88
447.513	968.08
447.887	948.2
448.262	939.38
448.636	920.17
449.01	937.12
449.384	956.78
449.758	948.87
450.132	980.74
450.506	997.91
450.88	1009.89
451.254	1030.68
451.628	1030
452.002	1027.97
452.376	1003.79
452.75	1032.04
453.123	1010.57
453.497	1002.21
453.871	1024.13
454.244	1024.58
454.618	1010.11
454.992	1056.22
455.365	1089.21
455.739	1090.56
456.112	1098.02
456.486	1095.99
456.859	1093.28
457.232	1117.91
457.606	1104.35
457.979	1089.89
458.352	1090.34
458.725	1106.38
459.099	1098.25
459.472	1113.84
459.845	1149.32
460.218	1158.81
460.591	1177.57
460.964	1207.85
461.337	1219.6
461.71	1208.75
462.083	1211.92
462.456	1195.42
462.829	1202.88
463.201	1213.05
463.574	1179.6
463.947	1223.44
464.32	1201.97
464.692	1241.97
465.065	1245.14
465.438	1306.6
465.81	1347.51
466.183	1305.93
466.555	1345.47
466.928	1334.85
467.3	1332.14
467.672	1317.45
468.045	1350.44
468.417	1311.58
468.789	1330.56
469.161	1356.55
469.534	1355.19
469.906	1380.73
470.278	1381.18
470.65	1449.2
471.022	1502.76
471.394	1525.58
471.766	1561.51
472.138	1545.92
472.51	1529.2
472.882	1528.07
473.253	1549.76
473.625	1510.21
473.997	1533.26
474.369	1510.67
474.74	1562.87
475.112	1589.08
475.484	1644.22
475.855	1667.72
476.227	1703.2
476.598	1758.8
476.97	1790.21
477.341	1789.53
477.713	1835.63
478.084	1828.62
478.455	1785.91
478.827	1816.42
479.198	1839.92
479.569	1820.71
479.94	1861.84
480.311	1869.53
480.682	1927.15
481.053	2002.18
481.424	2039.92
481.795	2109.29
482.166	2170.54
482.537	2178.22
482.908	2198.56
483.279	2218.9
483.65	2211.67
484.021	2224.55
484.391	2226.58
484.762	2234.72
485.133	2200.14
485.503	2224.55
485.874	2311.78
486.244	2346.12
486.615	2441.49
486.985	2501.37
487.356	2561.26
487.726	2619.11
488.097	2692.56
488.467	2684.87
488.837	2717.87
489.207	2678.09
489.578	2706.34
489.948	2681.94
490.318	2669.96
490.688	2685.55
491.058	2683.97
491.428	2756.51
491.798	2782.27
492.168	2898.65
492.538	2928.71
492.908	3038.99
493.278	3063.85
493.648	3131.41
494.017	3172.09
494.387	3187.68
494.757	3164.63
495.126	3166.22
495.496	3147.01
495.866	3120.79
496.235	3077.4
496.605	3088.48
496.974	3118.76
497.344	3107.69
497.713	3162.15
498.082	3297.29
498.452	3345.42
498.821	3425.87
499.19	3440.11
499.559	3542.25
499.928	3549.71
500.298	3600.33
500.667	3547.9
501.036	3527.56
501.405	3473.55
501.774	3423.38
502.143	3402.14
502.512	3384.74
502.88	3372.76
503.249	3396.04
503.618	3467.9
503.987	3527.11
504.356	3568.01
504.724	3671.97
505.093	3729.37
505.462	3829.48
505.83	3837.16
506.199	3861.11
506.567	3849.36
506.936	3789.48
507.304	3832.64
507.672	3751.06
508.041	3735.01
508.409	3658.41
508.777	3637.16
509.145	3615.7
509.514	3649.82
509.882	3708.12
510.25	3775.92
510.618	3872.19
510.986	3963.26
511.354	4044.84
511.722	4094.33
512.09	4117.6
512.458	4152.4
512.826	4151.95
513.193	4106.76
513.561	3997.83
513.929	3993.77
514.297	3955.35
514.664	3897.72
515.032	3891.62
515.4	3890.94
515.767	3902.92
516.135	3951.73
516.502	3963.03
516.869	4092.52
517.237	4173.87
517.604	4240.76
517.972	4315.34
518.339	4387.88
518.706	4440.53
519.073	4428.1
519.44	4347.43
519.808	4374.77
520.175	4273.08
520.542	4227.66
520.909	4176.81
521.276	4105.63
521.643	4122.35
522.009	4131.84
522.376	4208.22
522.743	4215.23
523.11	4285.51
523.477	4385.17
523.843	4501.32
524.21	4616.8
524.577	4719.62
524.943	4736.34
525.31	4814.53
525.676	4835.78
526.043	4883.01
526.409	4777.47
526.776	4730.69
527.142	4633.75
527.508	4593.07
527.874	4627.42
528.241	4544.49
528.607	4506.97
528.973	4577.48
529.339	4659.51
529.705	4784.93
530.071	4891.82
530.437	5016.79
530.803	5125.03
531.169	5223.79
531.535	5286.84
531.901	5322.32
532.267	5370.68
532.632	5433.5
532.998	5387.85
533.364	5313.96
533.73	5281.19
534.095	5211.36
534.461	5155.09
534.826	5134.07
535.192	5120.06
535.557	5139.72
535.923	5166.16
536.288	5225.82
536.653	5333.84
537.019	5429.66
537.384	5594.17
537.749	5702.87
538.114	5799.37
538.479	5902.42
538.845	5994.16
539.21	5940.83
539.575	5962.53
539.94	5919.59
540.305	5941.51
540.67	5805.24
541.034	5739.48
541.399	5634.85
541.764	5562.76
542.129	5587.4
542.494	5630.33
542.858	5639.37
543.223	5707.39
543.587	5807.28
543.952	5879.14
544.316	6022.41
544.681	6151.9
545.045	6261.5
545.41	6411.55
545.774	6482.74
546.138	6490.65
546.503	6520.48
546.867	6493.59
547.231	6495.62
547.595	6394.83
547.959	6253.37
548.324	6201.16
548.688	6106.03
549.052	6043.88
549.416	5941.74
549.779	5923.66
550.143	5951.23
550.507	6125.91
550.871	6173.59
551.235	6237.32
551.599	6403.19
551.962	6515.28
552.326	6679.57
552.689	6781.49
553.053	6807.02
553.417	6853.12
553.78	6926.8
554.143	6882.5
554.507	6830.98
554.87	6760.02
555.234	6698.1
555.597	6521.38
555.96	6400.93
556.323	6318.22
556.686	6317.55
557.05	6286.13
557.413	6227.6
557.776	6324.55
558.139	6386.24
558.502	6535.17
558.865	6683.64
559.228	6799.34
559.59	6975.38
559.953	7023.06
560.316	7243.4
560.679	7256.28
561.041	7356.84
561.404	7342.15
561.767	7308.48
562.129	7178.54
562.492	7202.04
562.854	7060.58
563.217	6928.15
563.579	6831.43
563.941	6741.72
564.304	6701.94
564.666	6741.04
565.028	6731.09
565.39	6732.22
565.753	6847.02
566.115	6956.4
566.477	7061.71
566.839	7233.45
567.201	7357.52
567.563	7517.06
567.925	7732.2
568.287	7794.34
568.648	7853.55
569.01	7901.01
569.372	7888.8
569.734	7857.62
570.095	7818.3
570.457	7659.43
570.819	7535.37
571.18	7484.97
571.542	7359.33
571.903	7275.49
572.265	7239.78
572.626	7258.09
572.987	7237.97
573.349	7360.23
573.71	7483.84
574.071	7538.08
574.432	7749.37
574.794	8032.3
575.155	8184.84
575.516	8350.26
575.877	8564.94
576.238	8703.25
576.599	8907.53
576.96	8978.94
577.32	9039.28
577.681	9055.1
578.042	9062.33
578.403	9002.9
578.763	8923.58
579.124	8942.34
579.485	8925.84
579.845	8948.89
580.206	9023.24
580.566	9030.24
580.927	9182.56
581.287	9335.55
581.648	9552.94
582.008	9872.71
582.368	10159.25
582.728	10600.6
583.089	10935.28
583.449	11303.4
583.809	11766.22
584.169	12151.97
584.529	12475.12
584.889	12925.73
585.249	13107.65
585.609	13343.58
585.969	13791.02
586.329	14023.33
586.688	14302.42
587.048	14550.78
587.408	14705.8
587.768	15029.63
588.127	15263.3
588.487	15567.47
588.846	15987.8
589.206	16255.36
589.565	16753.2
589.925	17324.26
590.284	17810.35
590.643	18328.98
591.003	19084.67
591.362	19697.76
591.721	20281.92
592.08	20942.25
592.44	21485.28
592.799	22219.73
593.158	22657.68
593.517	23281.39
593.876	23766.35
594.235	24129.96
594.593	24690.62
594.952	25147.79
595.311	25335.35
595.67	25812.17
596.029	26281.54
596.387	26677.01
596.746	27047.4
597.104	27376.43
597.463	27751.78
597.822	28561.03
598.18	28709.05
598.538	29199.43
598.897	29990.14
599.255	30295.67
599.613	31384.01
599.972	31727.05
600.33	32287.03
600.688	32964.75
601.046	33736.26
601.404	34247.66
601.762	34681.09
602.12	35363.34
602.478	35757.68
602.836	36093.26
603.194	36358.34
603.552	36799.68
603.91	36991.77
604.268	37517.86
604.625	37552.43
604.983	37958.52
605.341	38091.63
605.698	38443.71
606.056	38717.82
606.413	39032.17
606.771	39422.66
607.128	39846.83
607.485	39953.05
607.843	40483.88
608.2	40950.76
608.557	41522.27
608.914	41708.93
609.272	42313.89
609.629	42752.07
609.986	43258.04
610.343	43332.62
610.7	44080.39
611.057	44304.57
611.414	44533.72
611.771	44759.92
612.127	45152.91
612.484	45200.82
612.841	45465.89
613.198	45261.38
613.554	45337.99
613.911	45621.82
614.267	45794.93
614.624	45724.42
614.98	45895.26
615.337	46131.87
615.693	46227
616.05	46312.65
616.406	46617.96
616.762	46740.66
617.118	46873.77
617.475	47061.33
617.831	47343.59
618.187	47683.69
618.543	47811.14
618.899	48254.3
619.255	48354.63
619.611	48515.08
619.967	48732.7
620.323	48995.75
620.678	49026.93
621.034	48956.42
621.39	49025.35
621.746	49014.73
622.101	49478.22
622.457	49152.58
622.812	49215.4
623.168	49294.72
623.523	49301.27
623.879	49240.94
624.234	49005.91
624.589	49131.11
624.945	49177.21
625.3	49112.8
625.655	49308.51
626.01	49173.37
626.365	49476.64
626.72	49351.44
627.075	49490.87
627.43	49627.37
627.785	49810.41
628.14	49785.56
628.495	50004.76
628.85	50056.96
629.205	50224.87
629.559	50473.67
629.914	50270.06
630.269	50513.67
630.623	50410.85
630.978	50347.12
631.332	50575.37
631.687	50452.2
632.041	50287.01
632.396	50300.8
632.75	50034.81
633.104	50179.67
633.459	49813.13
633.813	49701.04
634.167	49701.26
634.521	49627.14
634.875	49644.09
635.229	49559.57
635.583	49448.39
635.937	49470.76
636.291	49590.08
636.645	49575.84
636.999	49605.45
637.352	49845.21
637.706	49801.37
638.06	49948.94
638.413	49896.51
638.767	49890.41
639.121	50040.46
639.474	49888.6
639.828	50043.85
640.181	50089.28
640.534	50133.57
640.888	49933.8
641.241	49834.59
641.594	49803.18
641.947	49842.95
642.301	49688.38
642.654	49618.55
643.007	49506.69
643.36	49444.32
643.713	49262.63
644.066	49268.51
644.419	49057.66
644.771	48787.84
645.124	48293.62
645.477	48307.4
645.83	48066.96
646.182	47879.16
646.535	47888.88
646.888	47999.84
647.24	47848.88
647.593	48250.68
647.945	48237.35
648.298	48103.11
648.65	48172.94
649.002	48038.71
649.355	48348.08
649.707	48297.01
650.059	48428.3
650.411	48949.42
650.763	48978.57
651.115	49320.71
651.467	49168.17
651.819	49031
652.171	48928.63
652.523	48715.75
652.875	48686.15
653.227	48508.98
653.578	48615.19
653.93	48492.71
654.282	48151.93
654.633	48028.77
654.985	48112.15
655.337	47958.71
655.688	47997.13
656.039	48135.43
656.391	47817.02
656.742	47883.68
657.094	48025.38
657.445	48210.46
657.796	48216.56
658.147	48169.78
658.498	48228.76
658.849	48594.17
659.2	48513.05
659.551	48409.55
659.902	48653.38
660.253	48525.25
660.604	48687.51
660.955	48600.05
661.306	48684.12
661.656	48570.45
662.007	48515.31
662.358	48502.43
662.708	48367.97
663.059	48489.77
663.409	48012.27
663.76	48264.24
664.11	48104.7
664.461	47906.96
664.811	47900.41
665.161	47725.95
665.511	47543.81
665.862	47667.19
666.212	47600.75
666.562	47621.54
666.912	47444.83
667.262	47465.84
667.612	47493.86
667.962	47666.06
668.312	47666.97
668.662	47810.24
669.011	47724.59
669.361	47793.52
669.711	47995.32
670.06	47927.3
670.41	47918.26
670.76	47938.37
671.109	48101.08
671.459	48092.04
671.808	48076
672.157	48180.4
672.507	47850.46
672.856	47792.16
673.205	47849.79
673.554	47972.5
673.904	47628.55
674.253	47836
674.602	47537.7
674.951	46906.99
675.3	46665.19
675.649	47211.61
675.998	47061.33
676.346	46966.42
676.695	46953.99
677.044	46668.58
677.393	46717.61
677.741	46844.62
678.09	46719.65
678.438	46636.94
678.787	46695.02
679.135	46636.26
679.484	46638.52
679.832	46894.33
680.181	46647.56
680.529	46748.57
680.877	46868.12
681.225	46794.22
681.573	47125.06
681.922	46859.98
682.27	46865.63
682.618	47021.79
682.966	46787.67
683.314	46919.19
683.661	46969.36
684.009	46761
684.357	46551.97
684.705	46524.4
685.053	46516.94
685.4	46316.04
685.748	46027.24
686.095	46028.37
686.443	45775.94
686.79	45574.14
687.138	45652.78
687.485	45448.27
687.832	45362.85
688.18	45203.53
688.527	45065.91
688.874	44884.89
689.221	44909.98
689.568	44525.35
689.915	44594.51
690.262	44714.05
690.609	44667.27
690.956	44485.36
691.303	44610.78
691.65	44417.79
691.997	44611.91
692.344	44535.52
692.69	44509.99
693.037	44570.1
693.383	44375.3
693.73	44491.46
694.077	44310.67
694.423	44357
694.769	44207.17
695.116	44142.09
695.462	44053.73
695.808	44030.45
696.155	44035.88
696.501	43528.09
696.847	43552.5
697.193	43093.53
697.539	43192.28
697.885	42776.93
698.231	42572.41
698.577	42597.5
698.923	42408.57
699.269	42064.4
699.614	41851.53
699.96	41676.84
700.306	41684.3
700.651	41521.82
700.997	41374.93
701.342	41326.34
701.688	41345.78
702.033	41178.32
702.379	41181.71
702.724	41183.07
703.069	41151.43
703.415	40892
703.76	41047.03
704.105	41059.23
704.45	41187.36
704.795	40830.54
705.14	40995.96
705.485	40891.55
705.83	40858.11
706.175	40994.6
706.52	40716.19
706.865	40649.75
707.209	40826.69
707.554	40559.36
707.899	40728.84
708.243	40330.89
708.588	40255.64
708.932	39915.31
709.277	39973.38
709.621	39852.03
709.966	39385.15
710.31	39373.4
710.654	38990.36
710.998	38948.1
711.342	39001.43
711.687	38702.23
712.031	38630.14
712.375	38536.36
712.719	38326.2
713.063	38216.14
713.407	38433.76
713.75	38115.13
714.094	38176.6
714.438	37998.52
714.782	38123.04
715.125	37915.36
715.469	37962.82
715.812	37947.9
716.156	37867
716.499	38014.79
716.843	38058.18
717.186	37978.18
717.53	38148.57
717.873	38103.15
718.216	38104.96
718.559	38079.87
718.902	37881.91
719.246	37941.8
719.589	37874.46
719.932	37627
720.275	37596.27
720.617	37628.81
720.96	37420
721.303	37434.47
721.646	37370.06
721.989	37105.44
722.331	37101.6
722.674	36919.68
723.016	36893.01
723.359	36591.78
723.701	36779.57
724.044	36384.1
724.386	36132.36
724.729	36147.27
725.071	35949.31
725.413	35966.26
725.755	35925.58
726.097	35729.2
726.439	35517
726.782	35509.55
727.124	35756.09
727.465	35671.8
727.807	35524.69
728.149	35514.74
728.491	35580.96
728.833	35688.52
729.175	35620.5
729.516	35592.26
729.858	35565.36
730.199	35704.57
730.541	35703.89
730.882	35809.2
731.224	35741.4
731.565	35680.39
731.906	35606.04
732.248	35703.44
732.589	35510
732.93	35589.32
733.271	35468.19
733.612	35510.9
733.953	35418.25
734.294	35214.64
734.635	35239.5
734.976	35084.47
735.317	34873.41
735.658	34762.9
735.999	34583.02
736.339	34526.75
736.68	34668.89
737.021	34405.39
737.361	34094.22
737.702	34234.55
738.042	34101.67
738.383	33930.15
738.723	34004.73
739.063	33802.02
739.404	33723.6
739.744	33685.41
740.084	33442.71
740.424	33694.45
740.764	33548.24
741.104	33809.7
741.444	33770.61
741.784	33633.89
742.124	33736.71
742.464	33602.03
742.804	33607.22
743.143	33696.49
743.483	33722.25
743.823	33667.34
744.162	33685.87
744.502	33825.97
744.841	33641.57
745.181	33979.64
745.52	33584.17
745.86	33767.67
746.199	33673.44
746.538	33615.36
746.877	33640.67
747.216	33474.57
747.556	33419.66
747.895	33329.49
748.234	33240.91
748.573	33113.68
748.911	32970.18
749.25	32940.8
749.589	32603.63
749.928	32804.08
750.267	32590.3
750.605	32311.44
750.944	32369.74
751.283	32031.22
751.621	32168.84
751.96	31786.48
752.298	31756.88
752.636	31840.94
752.975	31525.02
753.313	31465.36
753.651	31588.97
753.989	31455.87
754.327	31398.47
754.666	31304.91
755.004	31534.06
755.342	31540.61
755.679	31285.02
756.017	31239.38
756.355	31362.76
756.693	31280.96
757.031	31442.53
757.368	31242.77
757.706	31125.71
758.044	31226.95
758.381	31215.87
758.719	31200.51
759.056	31206.16
759.394	31222.43
759.731	30895.43
760.068	30865.83
760.405	30894.3
760.743	30760.29
761.08	30853.17
761.417	30439.4
761.754	30466.06
762.091	30349.23
762.428	30311.49
762.765	30049.13
763.102	30090.93
763.438	29854.55
763.775	29633.32
764.112	29466.77
764.449	29610.72
764.785	29276.26
765.122	29104.52
765.458	28880.57
765.795	28842.83
766.131	28740.68
766.467	28629.28
766.804	28507.92
767.14	28294.82
767.476	28339.11
767.812	28174.15
768.148	28247.36
768.485	28092.79
768.821	28036.97
769.157	27937.77
769.492	27886.7
769.828	27842.4
770.164	27710.2
770.5	27609.42
770.836	27747.49
771.171	27601.96
771.507	27671.11
771.842	27536.65
772.178	27486.25
772.513	27408.74
772.849	27457.55
773.184	27425.69
773.519	27376.88
773.855	27179.82
774.19	27107.06
774.525	27027.74
774.86	27084.91
775.195	27028.64
775.53	26793.39
775.865	26764.47
776.2	26506.62
776.535	26316.12
776.87	26258.26
777.205	26199.73
777.539	25859.4
777.874	25910.48
778.209	25756.58
778.543	25484.27
778.878	25495.57
779.212	25336.03
779.547	25135.13
779.881	25219.42
780.215	24943.04
780.55	24952.99
780.884	24709.6
781.218	24625.09
781.552	24614.47
781.886	24475.49
782.22	24246.11
782.554	24212.44
782.888	23964.77
783.222	24002.05
783.556	23771.55
783.889	23869.17
784.223	23668.5
784.557	23687.94
784.89	23854.94
785.224	23729.74
785.557	23615.85
785.891	23583.53
786.224	23547.83
786.558	23485.68
786.891	23354.16
787.224	23416.31
787.557	23384.44
787.891	23318.68
788.224	23334.95
788.557	23321.17
788.89	23325.01
789.223	23107.61
789.556	23040.95
789.888	22960.95
790.221	23002.3
790.554	22864
790.887	22744.01
791.219	22759.83
791.552	22623.11
791.884	22530
792.217	22361.19
792.549	22237.81
792.882	22156
793.214	21938.6
793.546	21912.84
793.879	21753.07
794.211	21530.48
794.543	21678.5
794.875	21499.52
795.207	21533.64
795.539	21336.81
795.871	21338.17
796.203	21027.67
796.535	21001
796.867	20742.03
797.198	20785.64
797.53	20787.22
797.862	20583.16
798.193	20699.99
798.525	20588.58
798.856	20633.1
799.188	20258.65
799.519	20260.23
799.85	20189.05
800.182	20305.65
800.513	20247.12
800.844	20118.76
801.175	20266.33
801.506	20211.87
801.837	20116.28
802.168	20140.91
802.499	20102.49
802.83	20024.76
803.161	20085.77
803.491	20027.69
803.822	20047.81
804.153	19937.07
804.483	19859.56
804.814	19836.29
805.145	19739.79
805.475	19804.87
805.805	19737.53
806.136	19714.03
806.466	19658.89
806.796	19715.39
807.126	19516.52
807.457	19325.57
807.787	19332.8
808.117	19186.59
808.447	19168.73
808.777	19214.83
809.107	19053.26
809.436	18942.52
809.766	18907.5
810.096	18810.1
810.426	18797.67
810.755	18667.28
811.085	18571.69
811.414	18562.2
811.744	18300.96
812.073	18194.3
812.403	18274.07
812.732	18036.56
813.061	18150.68
813.39	17914.98
813.719	17963.79
814.049	18006.73
814.378	18010.8
814.707	17898.48
815.036	17847.86
815.365	17764.93
815.693	17651.94
816.022	17644.71
816.351	17529.45
816.68	17533.3
817.008	17653.29
817.337	17515.44
817.665	17531.49
817.994	17590.24
818.322	17570.81
818.651	17470.7
818.979	17481.77
819.307	17609.9
819.636	17500.75
819.964	17443.13
820.292	17537.36
820.62	17538.27
820.948	17497.36
821.276	17518.38
821.604	17513.18
821.932	17510.25
822.259	17639.96
822.587	17451.26
822.915	17581.66
823.243	17573.52
823.57	17532.17
823.898	17522
824.225	17440.87
824.553	17307.54
824.88	17369.01
825.207	17328.1
825.535	17309.12
825.862	17310.93
826.189	17289.46
826.516	17307.31
826.843	17192.97
827.17	17194.77
827.497	17147.77
827.824	17157.49
828.151	17098.28
828.478	17104.15
828.805	17190.25
829.131	16939.41
829.458	16923.82
829.785	16922.92
830.111	16884.05
830.438	17004.72
830.764	16884.5
831.09	16963.14
831.417	16841.79
831.743	16944.61
832.069	16931.73
832.395	16801.11
832.722	16840.88
833.048	16858.96
833.374	16878.85
833.7	16816.7
834.026	16988.45
834.351	17004.04
834.677	16879.53
835.003	17053.76
835.329	16994.55
835.654	16990.94
835.98	16940.77
836.306	16926.76
836.631	16840.21
836.956	16998.62
837.282	16962.01
837.607	16882.24
837.932	16755.24
838.258	16791.85
838.583	16810.6
838.908	16800.43
839.233	16840.43
839.558	16792.75
839.883	16724.73
840.208	16630.49
840.533	16635.47
840.858	16698.06
841.182	16658.29
841.507	16613.32
841.832	16502.59
842.156	16511.4
842.481	16459.2
842.805	16375.36
843.13	16304.63
843.454	16261.24
843.778	16146.21
844.103	16137.4
844.427	16077.29
844.751	16058.31
845.075	16014.24
845.399	15921.59
845.723	15731.31
846.047	15792.55
846.371	15639.56
846.695	15616.06
847.019	15431.2
847.343	15430.75
847.666	15338.78
847.99	15339.68
848.313	15227.37
848.637	15065.79
848.96	15059.24
849.284	15003.87
849.607	14911.67
849.931	14958.45
850.254	14847.26
850.577	14756.19
850.9	14713.71
851.223	14755.29
851.546	14718.68
851.869	14606.82
852.192	14699.47
852.515	14589.19
852.838	14451.8
853.161	14575.18
853.483	14440.72
853.806	14454.73
854.129	14486.14
854.451	14362.08
854.774	14316.21
855.096	14283.21
855.419	14353.04
855.741	14270.78
856.063	14183.33
856.385	14115.98
856.708	14143.33
857.03	14144.68
857.352	14161.18
857.674	14049.32
857.996	14090.67
858.318	13988.98
858.64	13862.66
858.961	13925.71
859.283	13758.48
859.605	13819.04
859.926	13746.5
860.248	13846.39
860.57	13666.28
860.891	13748.08
861.212	13585.6
861.534	13527.3
861.855	13433.52
862.176	13367.76
862.498	13313.52
862.819	13327.3
863.14	13191.94
863.461	13151.04
863.782	13145.84
864.103	13154.2
864.424	13052.28
864.745	13094.32
865.065	12964.38
865.386	12959.63
865.707	12891.38
866.027	13006.18
866.348	12819.07
866.668	12852.29
866.989	12753.31
867.309	12761.9
867.63	12719.64
867.95	12858.16
868.27	12647.32
868.59	12667.89
868.91	12651.39
869.23	12647.32
869.55	12614.78
869.87	12685.29
870.19	12648.23
870.51	12672.86
870.83	12717.6
871.15	12678.28
871.469	12761.9
871.789	12687.1
872.109	12704.27
872.428	12614.33
872.748	12722.8
873.067	12653.42
873.386	12731.84
873.706	12718.06
874.025	12615.46
874.344	12610.94
874.663	12695.46
874.982	12601.67
875.301	12615.01
875.62	12537.72
875.939	12547.21
876.258	12594.89
876.577	12582.01
876.896	12430.83
877.214	12444.39
877.533	12379.99
877.852	12406.65
878.17	12403.94
878.489	12382.92
878.807	12341.12
879.125	12304.06
879.444	12253.89
879.762	12229.25
880.08	12218.63
880.398	12081.91
880.716	12167.11
881.034	12031.75
881.352	12028.36
881.67	11987.91
881.988	11856.61
882.306	11905.65
882.624	11831.98
882.941	11818.19
883.259	11713.34
883.577	11728.48
883.894	11760.34
884.212	11583.4
884.529	11602.83
884.846	11513.57
885.164	11538.43
885.481	11598.54
885.798	11537.75
886.115	11397.64
886.432	11414.59
886.75	11414.59
887.067	11347.92
887.383	11324.19
887.7	11324.65
888.017	11269.51
888.334	11349.05
888.651	11301.6
888.967	11280.35
889.284	11309.28
889.6	11266.12
889.917	11134.59
890.233	11188.15
890.55	11212.78
890.866	11198.32
891.182	11187.25
891.498	11210.98
891.815	11167.59
892.131	11085.56
892.447	11003.75
892.763	11055.73
893.079	10972.11
893.395	10988.61
893.71	10984.32
894.026	10986.35
894.342	10994.94
894.657	10831.78
894.973	10920.59
895.289	10880.59
895.604	10883.75
895.92	10819.57
896.235	10626.13
896.55	10674.27
896.865	10610.09
897.181	10679.46
897.496	10634.27
897.811	10615.29
898.126	10548.85
898.441	10529.41
898.756	10455.74
899.071	10361.73
899.386	10340.72
899.7	10289.19
900.015	10197.67
900.33	10072.25
900.644	10032.25
900.959	10101.18
901.273	10031.35
901.588	9950.22
901.902	9927.17
902.216	9827.51
902.531	9813.95
902.845	9741.86
903.159	9707.29
903.473	9628.42
903.787	9635.65
904.101	9520.63
904.415	9599.49
904.729	9479.72
905.042	9427.52
905.356	9408.54
905.67	9393.17
905.984	9416.22
906.297	9327.41
906.611	9308.88
906.924	9225.04
907.237	9201.54
907.551	9221.2
907.864	9126.29
908.177	9130.35
908.491	9116.34
908.804	9112.95
909.117	9084.48
909.43	9033.18
909.743	8945.73
910.056	9039.28
910.368	9006.06
910.681	8942.11
910.994	8858.04
911.307	8896.46
911.619	8910.47
911.932	8877.93
912.244	8820.76
912.557	8785.5
912.869	8779.4
913.181	8696.92
913.494	8678.84
913.806	8657.82
914.118	8624.15
914.43	8583.25
914.742	8583.93
915.054	8528.34
915.366	8488.79
915.678	8530.14
915.99	8437.04
916.302	8400.65
916.613	8373.54
916.925	8330.6
917.236	8381.22
917.548	8242.01
917.859	8314.33
918.171	8235.01
918.482	8154.33
918.794	8149.36
919.105	8128.8
919.416	7948.92
919.727	7950.95
920.038	8011.96
920.349	7915.24
920.66	7809.94
920.971	7856.04
921.282	7770.84
921.593	7731.52
921.903	7674.8
922.214	7619.21
922.525	7576.27
922.835	7542.37
923.146	7457.4
923.456	7459.44
923.767	7401.13
924.077	7411.75
924.387	7347.12
924.697	7283.4
925.008	7288.59
925.318	7256.73
925.628	7235.04
925.938	7136.06
926.248	7147.13
926.558	7067.36
926.867	7065.77
927.177	7033.69
927.487	6990.52
927.796	7012.22
928.106	6977.19
928.416	6878.21
928.725	6868.94
929.034	6883.18
929.344	6896.29
929.653	6829.17
929.962	6795.73
930.271	6751.66
930.581	6763.86
930.89	6735.61
931.199	6673.47
931.508	6691.55
931.817	6670.3
932.125	6638.89
932.434	6663.75
932.743	6635.96
933.051	6623.3
933.36	6639.35
933.669	6526.13
933.977	6496.52
934.286	6536.3
934.594	6484.55
934.902	6435.06
935.21	6436.64
935.519	6418.79
935.827	6406.13
936.135	6395.28
936.443	6347.83
936.751	6358.9
937.059	6283.65
937.367	6248.17
937.674	6323.42
937.982	6235.29
938.29	6211.79
938.597	6101.73
938.905	6116.65
939.213	6078.68
939.52	6066.25
939.827	6082.75
940.135	6053.15
940.442	6016.08
940.749	5995.07
941.056	5942.41
941.363	5867.84
941.67	5859.25
941.977	5868.07
942.284	5750.1
942.591	5775.64
942.898	5710.78
943.205	5722.76
943.511	5695.87
943.818	5694.74
944.125	5630.78
944.431	5623.1
944.738	5576.77
945.044	5548.53
945.35	5565.7
945.657	5469.88
945.963	5461.75
946.269	5443.67
946.575	5399.6
946.881	5337.91
947.187	5364.35
947.493	5288.87
947.799	5279.38
948.105	5296.1
948.41	5226.28
948.716	5185.15
949.022	5196.45
949.327	5172.27
949.633	5113.51
949.938	5067.64
950.244	5092.04
950.549	5084.36
950.854	5012.95
951.16	5030.35
951.465	5001.87
951.77	4974.3
952.075	5029.9
952.38	4963.68
952.685	4981.08
952.99	4903.8
953.294	4938.82
953.599	4958.49
953.904	4899.5
954.209	4884.36
954.513	4846.17
954.818	4817.92
955.122	4829.9
955.426	4824.93
955.731	4820.41
956.035	4779.73
956.339	4761.2
956.643	4732.05
956.948	4713.29
957.252	4721.43
957.556	4714.42
957.86	4662.22
958.163	4713.75
958.467	4661.32
958.771	4635.33
959.075	4631.49
959.378	4604.14
959.682	4601.43
959.985	4599.62
960.289	4530.47
960.592	4494.54
960.896	4483.7
961.199	4445.73
961.502	4459.74
961.805	4374.32
962.108	4372.29
962.411	4398.73
962.714	4408.9
963.017	4359.63
963.32	4334.55
963.623	4315.34
963.926	4309.01
964.228	4255.68
964.531	4254.78
964.833	4277.83
965.136	4169.13
965.438	4155.12
965.741	4129.58
966.043	4152.86
966.345	4091.62
966.648	4045.29
966.95	4054.55
967.252	4042.13
967.554	4029.02
967.856	3974.78
968.158	3961.9
968.46	3937.5
968.761	3939.98
969.063	3918.51
969.365	3874.9
969.666	3895.91
969.968	3819.08
970.269	3842.13
970.571	3849.36
970.872	3812.53
971.174	3740.89
971.475	3749.48
971.776	3741.12
972.077	3685.98
972.378	3732.75
972.679	3669.93
972.98	3687.78
973.281	3656.15
973.582	3649.37
973.883	3612.31
974.183	3607.11
974.484	3605.53
974.785	3599.2
975.085	3551.74
975.386	3597.17
975.686	3528.92
975.986	3580.67
976.287	3540.44
976.587	3457.51
976.887	3515.59
977.187	3500.9
977.487	3431.07
977.787	3448.47
978.087	3484.17
978.387	3395.59
978.687	3456.83
978.987	3418.19
979.286	3403.5
979.586	3417.28
979.885	3375.93
980.185	3361.92
980.484	3383.84
980.784	3368.24
981.083	3317.4
981.382	3318.75
981.682	3285.08
981.981	3314.91
982.28	3301.81
982.579	3239.21
982.878	3262.94
983.177	3244.63
983.475	3205.76
983.774	3184.29
984.073	3158.98
984.372	3195.59
984.67	3128.03
984.969	3187.91
985.267	3170.28
985.566	3114.47
985.864	3105.65
986.162	3096.61
986.461	3041.47
986.759	3091.87
987.057	3040.8
987.355	3001.47
987.653	3027.91
987.951	3015.94
988.249	2973.45
988.547	2947.46
988.844	2940.23
989.142	2969.61
989.44	2891.65
989.737	2867.02
990.035	2867.69
990.332	2870.86
990.63	2831.31
990.927	2834.47
991.224	2825.89
991.521	2797.19
991.819	2796.28
992.116	2755.15
992.413	2743.4
992.71	2718.09
993.006	2721.03
993.303	2737.75
993.6	2700.24
993.897	2698.43
994.193	2680.35
994.49	2670.18
994.787	2610.52
995.083	2628.6
995.379	2623.41
995.676	2591.77
995.972	2605.78
996.268	2559.45
996.565	2571.88
996.861	2568.49
997.157	2556.29
997.453	2501.83
997.749	2531.66
998.044	2476.97
998.34	2493.69
998.636	2469.74
998.932	2467.7
999.227	2449.62
999.523	2478.78
999.818	2449.85
1000.114	2437.2
1000.409	2425.67
1000.704	2399.46
1001	2385.22
1001.295	2387.48
1001.59	2373.47
1001.885	2369.4
1002.18	2368.95
1002.475	2360.81
1002.77	2361.27
1003.065	2299.12
1003.359	2286.24
1003.654	2297.76
1003.949	2266.58
1004.243	2285.34
1004.538	2259.12
1004.832	2267.03
1005.127	2235.85
1005.421	2248.73
1005.715	2221.61
1006.009	2222.74
1006.304	2200.82
1006.598	2217.99
1006.892	2180.03
1007.186	2133.47
1007.48	2144.1
1007.773	2146.58
1008.067	2130.76
1008.361	2098
1008.655	2101.16
1008.948	2080.37
1009.242	2079.47
1009.535	2114.04
1009.829	2047.38
1010.122	2030.43
1010.415	2036.53
1010.708	1999.92
1011.001	1998.34
1011.295	1988.17
1011.588	1943.65
1011.881	1964.21
1012.173	1941.39
1012.466	1947.49
1012.759	1918.57
1013.052	1928.06
1013.344	1906.14
1013.637	1862.97
1013.93	1860.49
1014.222	1820.04
1014.514	1818.68
1014.807	1810.55
1015.099	1805.35
1015.391	1776.87
1015.683	1813.71
1015.976	1780.04
1016.268	1755.41
1016.56	1761.96
1016.851	1752.47
1017.143	1715.63
1017.435	1716.08
1017.727	1741.39
1018.018	1705.92
1018.31	1697.78
1018.602	1676.54
1018.893	1639.93
1019.185	1663.2
1019.476	1638.57
1019.767	1639.48
1020.058	1640.15
1020.35	1629.99
1020.641	1563.55
1020.932	1602.64
1021.223	1568.52
1021.514	1573.94
1021.804	1560.83
1022.095	1550.21
1022.386	1522.64
1022.677	1526.03
1022.967	1524.68
1023.258	1505.92
1023.548	1492.81
1023.839	1468.63
1024.129	1483.1
1024.419	1476.77
1024.709	1464.57
1025	1452.36
1025.29	1412.36
1025.58	1443.78
1025.87	1415.53
1026.16	1430.89
1026.449	1408.3
1026.739	1382.99
1027.029	1366.72
1027.319	1372.14
1027.608	1368.98
1027.898	1373.95
1028.187	1338.47
1028.477	1366.94
1028.766	1357.9
1029.055	1347.73
1029.344	1334.85
1029.634	1321.07
1029.923	1305.47
1030.212	1292.14
1030.501	1294.18
1030.79	1263.44
1031.078	1294.85
1031.367	1294.85
1031.656	1236.32
1031.945	1253.27
1032.233	1245.36
1032.522	1266.83
1032.81	1238.13
1033.099	1217.11
1033.387	1215.76
1033.675	1223.89
1033.963	1183.67
1034.251	1181.41
1034.54	1162.65
1034.828	1156.33
1035.116	1188.87
1035.403	1130.11
1035.691	1127.17
1035.979	1150.9
1036.267	1110.23
1036.554	1133.28
1036.842	1128.3
1037.129	1114.52
1037.417	1078.81
1037.704	1075.42
1037.992	1080.17
1038.279	1085.14
1038.566	1051.02
1038.853	1051.02
1039.14	1051.02
