Data from tablewood_dark_bookshelf_FLMS001491_00054.txt Node
Date: Wed Feb 08 14:15:04 GMT 2017
User: dcchb
Spectrometer: FLMS00149
Trigger mode: 0
Integration Time (sec): 2.000000E-2
Scans to average: 10
Electric dark correction enabled: true
Nonlinearity correction enabled: false
Boxcar width: 0
XAxis mode: Wavelengths
Number of Pixels in Spectrum: 2048
>>>>>Begin Spectral Data<<<<<
341.393	-11.47
341.776	-11.47
342.16	-11.47
342.543	-77.68
342.927	-83.11
343.31	-55.76
343.693	-62.99
344.077	-59.38
344.46	-50.79
344.843	-63.9
345.226	-44.24
345.61	-28.42
345.993	-7.4
346.376	-24.35
346.759	13.39
347.142	4.8
347.525	46.83
347.908	42.77
348.291	86.38
348.674	97.23
349.057	105.82
349.44	120.96
349.823	156.44
350.206	166.15
350.588	178.36
350.971	200.73
351.354	219.49
351.737	231.01
352.119	246.38
352.502	261.74
352.884	269.65
353.267	258.35
353.65	297.45
354.032	279.37
354.414	313.95
354.797	294.96
355.179	296.55
355.562	313.95
355.944	306.94
356.326	318.92
356.709	323.21
357.091	339.03
357.473	322.76
357.855	312.82
358.238	346.49
358.62	343.1
359.002	322.99
359.384	340.16
359.766	331.12
360.148	329.99
360.53	313.95
360.912	324.57
361.294	326.38
361.676	327.28
362.057	330.22
362.439	326.83
362.821	314.4
363.203	354.4
363.584	332.93
363.966	353.27
364.348	348.07
364.729	314.17
365.111	303.33
365.493	323.89
365.874	310.56
366.256	320.73
366.637	312.36
367.019	310.78
367.4	311.91
367.781	298.58
368.163	318.24
368.544	311.01
368.925	311.69
369.306	334.96
369.688	320.73
370.069	307.85
370.45	322.31
370.831	320.73
371.212	314.17
371.593	308.75
371.974	320.5
372.355	331.12
372.736	307.17
373.117	344
373.498	319.6
373.879	322.76
374.26	320.27
374.641	337.67
375.021	330.9
375.402	335.41
375.783	349.88
376.163	345.81
376.544	335.87
376.925	347.84
377.305	323.89
377.686	331.12
378.066	345.81
378.447	326.38
378.827	327.96
379.208	339.71
379.588	337.9
379.968	337.45
380.349	356.66
380.729	332.7
381.109	334.96
381.489	346.94
381.87	350.78
382.25	370.67
382.63	334.51
383.01	358.24
383.39	366.83
383.77	362.08
384.15	347.84
384.53	360.95
384.91	353.27
385.29	365.7
385.67	345.36
386.049	372.02
386.429	372.02
386.809	349.88
387.189	368.18
387.568	371.12
387.948	375.19
388.328	380.84
388.707	384.68
389.087	385.13
389.466	384.68
389.846	388.29
390.225	387.16
390.605	383.1
390.984	402.76
391.363	390.55
391.743	391.46
392.122	384.45
392.501	403.89
392.881	397.56
393.26	405.92
393.639	409.09
394.018	392.81
394.397	400.05
394.776	423.32
395.155	410.22
395.534	418.58
395.913	440.5
396.292	435.53
396.671	432.36
397.05	426.03
397.429	456.77
397.808	444.34
398.186	419.25
398.565	430.78
398.944	436.66
399.323	416.54
399.701	425.81
400.08	442.98
400.458	450.21
400.837	457.9
401.215	431.23
401.594	447.95
401.972	464.23
402.351	462.42
402.729	461.29
403.107	462.87
403.486	462.87
403.864	464.45
404.242	469.87
404.62	482.53
404.999	477.78
405.377	460.38
405.755	466.71
406.133	487.28
406.511	492.47
406.889	504
407.267	513.26
407.645	481.63
408.023	506.48
408.401	503.32
408.779	519.82
409.156	522.75
409.534	525.92
409.912	517.33
410.29	551.23
410.667	559.82
411.045	557.78
411.422	548.52
411.8	568.4
412.178	567.5
412.555	560.95
412.933	569.99
413.31	565.47
413.687	562.98
414.065	574.28
414.442	611.79
414.819	595.97
415.197	584
415.574	628.29
415.951	599.59
416.328	598.01
416.705	630.32
417.082	619.7
417.46	616.76
417.837	642.07
418.214	622.41
418.591	637.55
418.967	663.32
419.344	635.07
419.721	635.29
420.098	663.77
420.475	634.62
420.852	659.47
421.228	670.77
421.605	696.54
421.982	665.35
422.358	683.88
422.735	686.14
423.111	666.48
423.488	700.15
423.864	689.76
424.241	706.7
424.617	699.47
424.994	719.13
425.37	722.3
425.746	708.29
426.123	739.7
426.499	739.25
426.875	731.56
427.251	749.19
427.627	755.06
428.003	760.94
428.379	783.54
428.756	779.47
429.132	801.39
429.507	793.26
429.883	772.24
430.259	803.43
430.635	807.94
431.011	798.45
431.387	851.11
431.763	854.05
432.138	843.65
432.514	840.49
432.89	871.9
433.265	843.2
433.641	892.69
434.016	921.16
434.392	898.56
434.767	919.81
435.143	911.22
435.518	934.95
435.894	957.09
436.269	957.55
436.644	935.85
437.02	962.97
437.395	978.56
437.77	963.2
438.145	999.58
438.52	1004.32
438.895	1017.88
439.271	1004.55
439.646	1010.65
440.021	1020.37
440.395	1033.48
440.77	1040.48
441.145	1058.56
441.52	1052.01
441.895	1044.1
442.27	1074.15
442.645	1082.51
443.019	1070.08
443.394	1078.67
443.769	1084.77
444.143	1079.8
444.518	1129.52
444.892	1126.58
445.267	1121.61
445.641	1120.93
446.016	1109.18
446.39	1140.14
446.764	1175.39
447.139	1155.96
447.513	1174.49
447.887	1169.97
448.262	1180.14
448.636	1158.22
449.01	1185.34
449.384	1181.04
449.758	1211.1
450.132	1217.43
450.506	1206.8
450.88	1219.01
451.254	1225.34
451.628	1232.79
452.002	1273.02
452.376	1258.78
452.75	1283.64
453.123	1268.27
453.497	1286.35
453.871	1317.76
454.244	1342.85
454.618	1332.68
454.992	1334.26
455.365	1377.65
455.739	1388.27
456.112	1419.91
456.486	1446.8
456.859	1428.49
457.232	1444.76
457.606	1476.85
457.979	1460.58
458.352	1493.58
458.725	1492.22
459.099	1532.22
459.472	1538.55
459.845	1560.24
460.218	1590.07
460.591	1580.35
460.964	1576.06
461.337	1643.86
461.71	1658.54
462.083	1669.62
462.456	1679.33
462.829	1669.17
463.201	1721.59
463.574	1716.4
463.947	1715.04
464.32	1750.07
464.692	1787.81
465.065	1795.94
465.438	1805.88
465.81	1803.85
466.183	1838.88
466.555	1871.42
466.928	1915.71
467.3	1877.97
467.672	1904.19
468.045	2000.46
468.417	1976.28
468.789	2006.78
469.161	2005.65
469.534	2068.93
469.906	2081.58
470.278	2128.59
470.65	2122.94
471.022	2137.4
471.394	2206.78
471.766	2223.5
472.138	2242.26
472.51	2279.09
472.882	2329.26
473.253	2355.93
473.625	2347.57
473.997	2438.41
474.369	2448.13
474.74	2456.26
475.112	2447
475.484	2541.46
475.855	2558.18
476.227	2567.67
476.598	2653.09
476.97	2657.39
477.341	2713.66
477.713	2773.09
478.084	2795.01
478.455	2832.3
478.827	2852.41
479.198	2929.7
479.569	2937.61
479.94	3049.47
480.311	3073.65
480.682	3144.61
481.053	3221.44
481.424	3260.99
481.795	3302.57
482.166	3331.04
482.537	3388.67
482.908	3449.91
483.279	3439.29
483.65	3477.03
484.021	3594.54
484.391	3591.15
484.762	3654.42
485.133	3666.85
485.503	3714.99
485.874	3817.81
486.244	3833.63
486.615	3907.75
486.985	3955.66
487.356	4020.52
487.726	4039.5
488.097	4124.92
488.467	4154.98
488.837	4248.76
489.207	4307.29
489.578	4339.38
489.948	4388.19
490.318	4434.74
490.688	4434.74
491.058	4497.34
491.428	4550.45
491.798	4654.4
492.168	4669.99
492.538	4723.32
492.908	4742.08
493.278	4834.96
493.648	4832.7
494.017	4891.68
494.387	4916.31
494.757	4979.36
495.126	5070.88
495.496	5056.19
495.866	5127.61
496.235	5135.74
496.605	5215.29
496.974	5262.97
497.344	5280.82
497.713	5271.1
498.082	5334.61
498.452	5417.54
498.821	5456.86
499.19	5468.84
499.559	5537.31
499.928	5558.55
500.298	5583.41
500.667	5613.92
501.036	5607.82
501.405	5711.32
501.774	5738.89
502.143	5828.83
502.512	5758.78
502.88	5886.46
503.249	5862.95
503.618	5923.97
503.987	5977.07
504.356	6037.41
504.724	6024.08
505.093	5991.76
505.462	6128.03
505.83	6125.09
506.199	6177.07
506.567	6210.06
506.936	6240.57
507.304	6327.8
507.672	6340.45
508.041	6370.74
508.409	6430.17
508.777	6480.34
509.145	6550.62
509.514	6586.32
509.882	6636.27
510.25	6610.73
510.618	6683.04
510.986	6718.98
511.354	6788.13
511.722	6807.56
512.09	6870.84
512.458	6885.98
512.826	6969.36
513.193	6982.92
513.561	7050.72
513.929	7089.14
514.297	7209.13
514.664	7259.07
515.032	7218.85
515.4	7270.37
515.767	7390.14
516.135	7353.31
516.502	7322.35
516.869	7496.36
517.237	7566.64
517.604	7540.2
517.972	7608.67
518.339	7681.44
518.706	7679.18
519.073	7741.55
519.44	7822.68
519.808	7916.68
520.175	7893.86
520.542	8018.83
520.909	8074.19
521.276	8113.06
521.643	8123.23
522.009	8220.18
522.376	8277.8
522.743	8344.02
523.11	8364.81
523.477	8468.53
523.843	8525.71
524.21	8610.45
524.577	8686.61
524.943	8710.56
525.31	8804.12
525.676	8835.3
526.043	8926.83
526.409	8987.16
526.776	8985.13
527.142	9105.58
527.508	9175.86
527.874	9198.01
528.241	9303.09
528.607	9317.55
528.973	9405.91
529.339	9343.31
529.705	9523.65
530.071	9626.7
530.437	9643.64
530.803	9736.3
531.169	9770.87
531.535	9767.26
531.901	9739.69
532.267	9868.72
532.632	9859.68
532.998	9971.55
533.364	10007.03
533.73	9953.02
534.095	10087.47
534.461	10143.29
534.826	10240.69
535.192	10248.37
535.557	10279.56
535.923	10334.02
536.288	10409.5
536.653	10451.31
537.019	10491.31
537.384	10492.21
537.749	10508.93
538.114	10477.97
538.479	10559.33
538.845	10618.08
539.21	10643.17
539.575	10659.21
539.94	10784.41
540.305	10798.42
540.67	10821.47
541.034	10880.45
541.399	10849.26
541.764	10943.05
542.129	11015.36
542.494	11038.41
542.858	11039.31
543.223	11067.56
543.587	11100.78
543.952	11136.94
544.316	11220.55
544.681	11202.7
545.045	11308.91
545.41	11321.57
545.774	11346.65
546.138	11377.38
546.503	11498.06
546.867	11436.59
547.231	11527.89
547.595	11616.25
547.959	11582.8
548.324	11672.07
548.688	11651.95
549.052	11762.91
549.416	11813.08
549.779	11750.48
550.143	11895.79
550.507	11936.92
550.871	11944.38
551.235	11945.51
551.599	12041.1
551.962	12145.95
552.326	12085.61
552.689	12208.55
553.053	12097.82
553.417	12203.13
553.78	12334.65
554.143	12257.81
554.507	12430.46
554.87	12419.39
555.234	12651.7
555.597	12402.44
555.96	12547.98
556.323	12674.75
556.686	12637.69
557.05	12823.22
557.413	12857.35
557.776	12790
558.139	12860.51
558.502	12915.2
558.865	13021.41
559.228	13064.35
559.59	13125.59
559.953	13199.94
560.316	13350.44
560.679	13431.57
561.041	13499.36
561.404	13559.25
561.767	13551.56
562.129	13569.19
562.492	13697.1
562.854	13703.2
563.217	13625.46
563.579	13799.69
563.941	14005.56
564.304	14007.15
564.666	14110.42
565.028	14116.97
565.39	14229.51
565.753	14258.89
566.115	14330.98
566.477	14384.99
566.839	14502.05
567.201	14633.12
567.563	14576.85
567.925	14673.79
568.287	14748.37
568.648	14835.15
569.01	14762.15
569.372	14926.9
569.734	14908.14
570.095	15050.96
570.457	15144.29
570.819	15218.64
571.18	15215.02
571.542	15347.68
571.903	15331.4
572.265	15403.04
572.626	15508.8
572.987	15522.81
573.349	15568.23
573.71	15626.31
574.071	15741.11
574.432	15827.21
574.794	15992.18
575.155	15899.3
575.516	15902.01
575.877	16138.16
576.238	16171.16
576.599	16251.38
576.96	16224.26
577.32	16267.43
577.681	16386.07
578.042	16346.07
578.403	16426.97
578.763	16408.89
579.124	16521.43
579.485	16680.07
579.845	16586.74
580.206	16645.27
580.566	16773.85
580.927	16791.48
581.287	16907.18
581.648	16831.48
582.008	16971.59
582.368	16900.63
582.728	16938.37
583.089	16898.37
583.449	17025.6
583.809	17097.23
584.169	17146.27
584.529	17119.38
584.889	17297.68
585.249	17207.06
585.609	17216.1
585.969	17361.86
586.329	17420.84
586.688	17435.53
587.048	17443.44
587.408	17329.09
587.768	17360.5
588.127	17384.68
588.487	17418.81
588.846	17626.94
589.206	17469.43
589.565	17644.34
589.925	17586.03
590.284	17647.5
590.643	17695.86
591.003	17727.73
591.362	17814.28
591.721	17751.45
592.08	17855.86
592.44	17888.4
592.799	17905.12
593.158	17948.06
593.517	17967.27
593.876	17984.89
594.235	17983.09
594.593	18052.01
594.952	18048.85
595.311	18108.73
595.67	18173.82
596.029	18237.09
596.387	18313.25
596.746	18270.76
597.104	18194.38
597.463	18252.46
597.822	18353.02
598.18	18228.5
598.538	18301.72
598.897	18384.66
599.255	18247.03
599.613	18609.96
599.972	18448.84
600.33	18556.63
600.688	18569.74
601.046	18609.06
601.404	18682.05
601.762	18653.13
602.12	18765.66
602.478	18770.18
602.836	18729.96
603.194	18771.77
603.552	18804.08
603.91	18801.82
604.268	18858.77
604.625	18830.3
604.983	18964.98
605.341	18870.07
605.698	18928.6
606.056	19028.26
606.413	19022.61
606.771	19096.73
607.128	19114.81
607.485	18990.07
607.843	19136.05
608.2	19146.45
608.557	19289.27
608.914	19109.16
609.272	19304.41
609.629	19336.5
609.986	19287.23
610.343	19265.31
610.7	19472.76
611.057	19503.27
611.414	19449.71
611.771	19391.41
612.127	19526.32
612.484	19461.92
612.841	19590.73
613.198	19630.05
613.554	19552.54
613.911	19540.11
614.267	19781.68
614.624	19724.96
614.98	19759.08
615.337	19711.85
615.693	19835.69
616.05	19694.23
616.406	19814
616.762	19805.19
617.118	19897.39
617.475	19847.22
617.831	19997.5
618.187	19915.92
618.543	19886.54
618.899	20067.1
619.255	20027.33
619.611	19973.09
619.967	20119.98
620.323	20005.63
620.678	20030.94
621.034	20098.06
621.39	20043.82
621.746	20080.66
622.101	20302.8
622.457	20034.33
622.812	20176.7
623.168	20189.36
623.523	20156.59
623.879	20287.43
624.234	20185.06
624.589	20274.33
624.945	20104.39
625.3	20294.66
625.655	20291.95
626.01	20158.85
626.365	20149.36
626.72	20238.85
627.075	20210.15
627.43	20185.74
627.785	20175.57
628.14	20217.6
628.495	20145.74
628.85	20187.1
629.205	20233.65
629.559	20265.06
629.914	20099.64
630.269	20244.72
630.623	20135.12
630.978	20056.7
631.332	20103.03
631.687	20176.48
632.041	20131.5
632.396	20136.48
632.75	20030.04
633.104	20037.5
633.459	20020.55
633.813	20027.1
634.167	19988.68
634.521	20018.06
634.875	20057.83
635.229	20026.65
635.583	19964.96
635.937	19920.89
636.291	19933.09
636.645	19913.66
636.999	19775.81
637.352	19841.57
637.706	19792.53
638.06	19854.9
638.413	19761.34
638.767	19734.9
639.121	19770.38
639.474	19678.18
639.828	19693.55
640.181	19750.72
640.534	19669.82
640.888	19679.31
641.241	19611.29
641.594	19607.22
641.947	19696.04
642.301	19558.86
642.654	19681.12
643.007	19611.97
643.36	19633.89
643.713	19544.63
644.066	19693.78
644.419	19439.09
644.771	19364.29
645.124	19231.19
645.477	19186.22
645.83	18996.39
646.182	18914.36
646.535	18833.46
646.888	18971.54
647.24	18860.8
647.593	18899.9
647.945	18755.27
648.298	18818.54
648.65	18762.05
649.002	18724.54
649.355	18816.28
649.707	18765.44
650.059	18933.12
650.411	19087.92
650.763	19193
651.115	19368.81
651.467	19305.99
651.819	19238.19
652.171	19169.5
652.523	19108.93
652.875	19200.46
653.227	19185.54
653.578	19219.66
653.93	19113.9
654.282	19107.35
654.633	19071.87
654.985	19025.09
655.337	19127.46
655.688	19112.32
656.039	19261.92
656.391	19075.94
656.742	19062.83
657.094	19073.23
657.445	19052.21
657.796	18991.2
658.147	19108.93
658.498	19003.62
658.849	19083.62
659.2	19037.75
659.551	19055.15
659.902	19083.17
660.253	18974.7
660.604	19089.27
660.955	19021.03
661.306	19037.97
661.656	19023.29
662.007	19163.62
662.358	19092.66
662.708	18973.57
663.059	19090.18
663.409	18898.99
663.76	19131.53
664.11	18996.39
664.461	19047.24
664.811	19027.35
665.161	18986.68
665.511	19019.22
665.862	18929.95
666.212	19096.5
666.562	19087.46
666.912	19105.99
667.262	19034.36
667.612	18995.49
667.962	19115.49
668.312	18999.78
668.662	19099.67
669.011	19118.88
669.361	19079.55
669.711	19058.54
670.06	19084.53
670.41	18922.27
670.76	18970.86
671.109	19007.92
671.459	18817.64
671.808	18977.64
672.157	19013.12
672.507	18860.13
672.856	18927.92
673.205	18834.14
673.554	18937.86
673.904	18905.55
674.253	18894.25
674.602	18864.65
674.951	18569.51
675.3	18515.28
675.649	18729.73
675.998	18822.61
676.346	18806.34
676.695	18932.89
677.044	18802.27
677.393	18849.5
677.741	18832.33
678.09	18854.93
678.438	18702.16
678.787	18871.42
679.135	18740.81
679.484	18684.08
679.832	18781.03
680.181	18609.51
680.529	18741.03
680.877	18609.96
681.225	18590.53
681.573	18813.57
681.922	18590.08
682.27	18566.57
682.618	18574.03
682.966	18578.55
683.314	18573.58
683.661	18451.77
684.009	18415.62
684.357	18410.42
684.705	18284.55
685.053	18318.22
685.4	18319.12
685.748	18381.95
686.095	18249.75
686.443	18234.61
686.79	18273.93
687.138	18228.05
687.485	18181.5
687.832	18073.71
688.18	18092.46
688.527	18018.57
688.874	18016.53
689.221	17998.68
689.568	17979.47
689.915	17866.03
690.262	17872.81
690.609	17863.09
690.956	17838.68
691.303	17835.52
691.65	17745.58
691.997	17808.18
692.344	17574.96
692.69	17610.44
693.037	17641.4
693.383	17479.82
693.73	17532.25
694.077	17486.38
694.423	17409.54
694.769	17395.53
695.116	17351.92
695.462	17264.46
695.808	17233.28
696.155	17311.24
696.501	17085.26
696.847	17188.76
697.193	17000.74
697.539	17160.06
697.885	16989.89
698.231	16937.92
698.577	16918.03
698.923	16944.24
699.269	16836.9
699.614	16807.75
699.96	16806.85
700.306	16766.4
700.651	16565.27
700.997	16669
701.342	16594.65
701.688	16611.37
702.033	16494.99
702.379	16501.77
702.724	16430.36
703.069	16515.1
703.415	16258.39
703.76	16311.72
704.105	16337.71
704.45	16221.55
704.795	16259.29
705.14	16119.86
705.485	16087.54
705.83	16124.6
706.175	16075.11
706.52	16072.18
706.865	16052.06
707.209	15932.52
707.554	15924.84
707.899	15868.79
708.243	15850.04
708.588	15866.98
708.932	15787.44
709.277	15695.69
709.621	15741.34
709.966	15616.82
710.31	15598.29
710.654	15596.03
710.998	15573.43
711.342	15644.39
711.687	15502.93
712.031	15482.59
712.375	15290.28
712.719	15394.23
713.063	15417.96
713.407	15459.76
713.75	15394.68
714.094	15439.42
714.438	15339.31
714.782	15341.12
715.125	15209.37
715.469	15297.28
715.812	15140
716.156	15163.73
716.499	15044.41
716.843	15160.34
717.186	15079.21
717.53	15129.15
717.873	15160.79
718.216	15134.12
718.559	15095.93
718.902	14962.15
719.246	14978.42
719.589	14925.54
719.932	14930.29
720.275	14880.12
720.617	14884.41
720.96	14850.51
721.303	14845.99
721.646	14841.25
721.989	14846.67
722.331	14841.25
722.674	14791.31
723.016	14729.84
723.359	14768.71
723.701	14777.75
724.044	14713.79
724.386	14716.73
724.729	14773.23
725.071	14725.55
725.413	14718.54
725.755	14641.03
726.097	14658.2
726.439	14573.23
726.782	14611.65
727.124	14618.66
727.465	14553.35
727.807	14523.97
728.149	14557.19
728.491	14485.1
728.833	14531.2
729.175	14424.99
729.516	14445.33
729.858	14409.17
730.199	14440.35
730.541	14508.6
730.882	14505.44
731.224	14386.8
731.565	14348.15
731.906	14380.92
732.248	14348.83
732.589	14316.74
732.93	14170.31
733.271	14254.6
733.612	14259.34
733.953	14273.58
734.294	14249.4
734.635	14249.63
734.976	14394.93
735.317	14245.78
735.658	14295.95
735.999	14250.3
736.339	14195.62
736.68	14260.02
737.021	14287.36
737.361	14186.12
737.702	14251.21
738.042	14214.15
738.383	14276.97
738.723	14311.09
739.063	14226.35
739.404	14245.11
739.744	14140.48
740.084	14158.78
740.424	14217.76
740.764	14166.46
741.104	14160.36
741.444	14132.11
741.784	14090.53
742.124	14045.79
742.464	14034.94
742.804	14024.77
743.143	14021.83
743.483	14000.82
743.823	13988.16
744.162	13951.33
744.502	13991.78
744.841	13973.25
745.181	14040.37
745.52	13972.8
745.86	14000.82
746.199	14036.75
746.538	14039.24
746.877	14036.75
747.216	13983.42
747.556	13935.51
747.895	13982.06
748.234	13855.06
748.573	13891.67
748.911	13861.84
749.25	13948.39
749.589	13808.96
749.928	13894.15
750.267	13887.15
750.605	13871.56
750.944	13858.68
751.283	13779.81
751.621	13843.08
751.96	13781.16
752.298	13806.93
752.636	13820.94
752.975	13768.51
753.313	13670.88
753.651	13693.93
753.989	13663.2
754.327	13661.17
754.666	13513.15
755.004	13620.04
755.342	13641.96
755.679	13552.92
756.017	13516.76
756.355	13491.45
756.693	13545.46
757.031	13495.07
757.368	13449.65
757.706	13408.52
758.044	13416.2
758.381	13436.99
758.719	13319.03
759.056	13337.78
759.394	13336.65
759.731	13185.92
760.068	13237.45
760.405	13148.86
760.743	13072.48
761.08	13134.85
761.417	13127.17
761.754	13068.64
762.091	13072.48
762.428	12975.99
762.765	12888.76
763.102	12968.08
763.438	12862.09
763.775	12860.51
764.112	12855.76
764.449	12810.34
764.785	12675.43
765.122	12737.12
765.458	12632.94
765.795	12674.75
766.131	12594.75
766.467	12598.6
766.804	12516.56
767.14	12431.82
767.476	12406.74
767.812	12339.17
768.148	12400.86
768.485	12233.63
768.821	12300.52
769.157	12284.48
769.492	12159.96
769.828	12245.61
770.164	12103.47
770.5	12036.58
770.836	12070.47
771.171	11997.93
771.507	11925.62
771.842	11816.24
772.178	11865.06
772.513	11815.79
772.849	11733.99
773.184	11751.16
773.519	11671.39
773.855	11626.19
774.19	11615.8
774.525	11630.49
774.86	11487.21
775.195	11552.3
775.53	11498.51
775.865	11405.18
776.2	11330.83
776.535	11315.47
776.87	11249.25
777.205	11242.7
777.539	11169.48
777.874	11212.64
778.209	11083.61
778.543	11047.9
778.878	11001.35
779.212	11002.25
779.547	10878.64
779.881	10945.53
780.215	10871.41
780.55	10871.86
780.884	10807
781.218	10763.16
781.552	10729.72
781.886	10699.89
782.22	10655.6
782.554	10607.69
782.888	10547.35
783.222	10471.65
783.556	10423.06
783.889	10405.43
784.223	10324.53
784.557	10278.88
784.89	10291.99
785.224	10264.87
785.557	10191.2
785.891	10216.96
786.224	10195.04
786.558	10137.87
786.891	10078.89
787.224	10045.89
787.557	9958.21
787.891	10072.33
788.224	9974.03
788.557	9931.09
788.89	9911.66
789.223	9837.76
789.556	9811.55
789.888	9819.23
790.221	9818.56
790.554	9660.59
790.887	9677.54
791.219	9661.05
791.552	9620.59
791.884	9588.28
792.217	9516.42
792.549	9510.99
792.882	9467.6
793.214	9456.76
793.546	9455.63
793.879	9365.91
794.211	9312.35
794.543	9379.02
794.875	9263.99
795.207	9303.31
795.539	9244.79
795.871	9200.49
796.203	9149.65
796.535	9101.29
796.867	9127.95
797.198	9124.79
797.53	9059.25
797.862	9056.32
798.193	8991.46
798.525	8999.14
798.856	8943.1
799.188	8809.77
799.519	8774.74
799.85	8701.75
800.182	8749.43
800.513	8731.35
800.844	8724.8
801.175	8753.5
801.506	8717.12
801.837	8668.3
802.168	8638.47
802.499	8549.21
802.83	8565.93
803.161	8553.5
803.491	8572.71
803.822	8540.85
804.153	8448.2
804.483	8467.86
804.814	8321.42
805.145	8383.11
805.475	8367.52
805.805	8380.18
806.136	8299.05
806.466	8307.86
806.796	8288.65
807.126	8289.33
807.457	8257.92
807.787	8213.4
808.117	8172.27
808.447	8159.62
808.777	8148.54
809.107	8143.35
809.436	8152.61
809.766	8113.29
810.096	8068.09
810.426	8067.87
810.755	8069.22
811.085	8056.34
811.414	7985.16
811.744	7939.06
812.073	7947.42
812.403	7876.23
812.732	7867.65
813.061	7842.34
813.39	7750.59
813.719	7775.9
814.049	7782.45
814.378	7796.01
814.707	7736.35
815.036	7743.58
815.365	7709.01
815.693	7677.59
816.022	7622.91
816.351	7597.82
816.68	7545.62
817.008	7583.36
817.337	7495.45
817.665	7464.72
817.994	7519.86
818.322	7525.06
818.651	7497.94
818.979	7437.38
819.307	7492.51
819.636	7374.1
819.964	7445.96
820.292	7473.31
820.62	7420.2
820.948	7436.92
821.276	7389.69
821.604	7432.63
821.932	7395.12
822.259	7411.61
822.587	7343.59
822.915	7365.06
823.243	7432.4
823.57	7300.43
823.898	7366.42
824.225	7355.8
824.553	7323.25
824.88	7337.04
825.207	7363.48
825.535	7320.09
825.862	7325.97
826.189	7349.02
826.516	7350.15
826.843	7388.11
827.17	7427.43
827.497	7343.14
827.824	7323.03
828.151	7361.44
828.478	7351.5
828.805	7365.29
829.131	7325.97
829.458	7250.94
829.785	7278.74
830.111	7319.19
830.438	7314.44
830.764	7342.24
831.09	7372.74
831.417	7299.75
831.743	7315.57
832.069	7321.67
832.395	7259.75
832.722	7307.66
833.048	7279.87
833.374	7233.99
833.7	7188.57
834.026	7226.08
834.351	7258.62
834.677	7240.09
835.003	7282.35
835.329	7284.61
835.654	7194.44
835.98	7195.35
836.306	7209.36
836.631	7192.64
836.956	7238.74
837.282	7144.05
837.607	7151.96
837.932	7135.69
838.258	7138.85
838.583	7085.52
838.908	7105.18
839.233	7067.22
839.558	7056.59
839.883	7082.81
840.208	6987.44
840.533	7036.93
840.858	6994.67
841.182	7046.42
841.507	7004.62
841.832	6938.41
842.156	6993.32
842.481	6949.93
842.805	6960.55
843.13	6946.77
843.454	6918.74
843.778	6891.85
844.103	6868.35
844.427	6796.26
844.751	6808.24
845.075	6824.96
845.399	6800.78
845.723	6815.92
846.047	6783.61
846.371	6745.64
846.695	6749.94
847.019	6680.56
847.343	6638.53
847.666	6620.45
847.99	6578.19
848.313	6545.42
848.637	6578.41
848.96	6573.44
849.284	6534.57
849.607	6485.54
849.931	6470.62
850.254	6451.64
850.577	6377.52
850.9	6351.75
851.223	6332.55
851.546	6362.15
851.869	6254.58
852.192	6330.51
852.515	6215.26
852.838	6239.21
853.161	6222.72
853.483	6205.77
853.806	6165.09
854.129	6151.99
854.451	6133.91
854.774	6095.72
855.096	6067.69
855.419	6053
855.741	6020.01
856.063	6041.93
856.385	6003.74
856.708	6044.19
857.03	5990.41
857.352	5921.71
857.674	5924.19
857.996	5956.28
858.318	5868.83
858.64	5912.9
858.961	5953.57
859.283	5909.05
859.605	5854.14
859.926	5790.41
860.248	5861.6
860.57	5826.12
860.891	5877.19
861.212	5830.86
861.534	5778.66
861.855	5750.87
862.176	5773.01
862.498	5729.4
862.819	5734.14
863.14	5719.91
863.461	5750.64
863.782	5707.48
864.103	5730.3
864.424	5637.87
864.745	5659.57
865.065	5636.52
865.386	5681.49
865.707	5654.82
866.027	5723.97
866.348	5654.82
866.668	5658.89
866.989	5628.16
867.309	5634.94
867.63	5604.65
867.95	5596.97
868.27	5547.26
868.59	5575.73
868.91	5587.71
869.23	5572.11
869.55	5534.15
869.87	5552.23
870.19	5521.72
870.51	5558.1
870.83	5522.85
871.15	5474.94
871.469	5552.9
871.789	5522.85
872.109	5558.78
872.428	5453.92
872.748	5464.77
873.067	5506.35
873.386	5442.85
873.706	5433.36
874.025	5426.58
874.344	5396.3
874.663	5431.55
874.982	5391.33
875.301	5401.27
875.62	5378.67
875.939	5386.58
876.258	5373.7
876.577	5375.06
876.896	5358.56
877.214	5332.35
877.533	5319.46
877.852	5332.12
878.17	5324.66
878.489	5318.79
878.807	5335.74
879.125	5312.46
879.444	5296.87
879.762	5284.44
880.08	5309.07
880.398	5267.26
880.716	5282.18
881.034	5263.65
881.352	5263.42
881.67	5234.5
881.988	5225
882.306	5210.09
882.624	5201.05
882.941	5197.66
883.259	5179.81
883.577	5171.67
883.894	5159.92
884.212	5160.15
884.529	5202.86
884.846	5135.74
885.164	5121.96
885.481	5134.38
885.798	5121.05
886.115	5085.8
886.432	5103.2
886.75	5047.16
887.067	5103.2
887.383	5048.96
887.7	5042.86
888.017	5059.36
888.334	5054.84
888.651	4967.61
888.967	4984.33
889.284	4968.29
889.6	4976.87
889.917	4957.21
890.233	4960.15
890.55	4948.85
890.866	4913.37
891.182	4899.81
891.498	4915.86
891.815	4891.68
892.131	4880.83
892.447	4854.62
892.763	4886.71
893.079	4819.59
893.395	4801.51
893.71	4831.12
894.026	4768.29
894.342	4835.41
894.657	4746.15
894.973	4758.12
895.289	4745.47
895.604	4729.42
895.92	4726.49
896.235	4690.1
896.55	4706.83
896.865	4651.91
897.181	4634.74
897.496	4685.36
897.811	4679.93
898.126	4654.4
898.441	4647.84
898.756	4611.69
899.071	4557
899.386	4575.76
899.7	4539.37
900.015	4541.41
900.33	4549.09
900.644	4547.96
900.959	4553.61
901.273	4517.23
901.588	4490.11
901.902	4465.93
902.216	4468.87
902.531	4453.05
902.845	4419.6
903.159	4413.95
903.473	4398.81
903.787	4385.25
904.101	4345.25
904.415	4348.87
904.729	4308.87
905.042	4330.34
905.356	4291.24
905.67	4285.82
905.984	4315.88
906.297	4310.45
906.611	4256.89
906.924	4258.02
907.237	4245.59
907.551	4223.45
907.864	4190
908.177	4197.01
908.491	4169.66
908.804	4101.87
909.117	4147.97
909.43	4143.9
909.743	4100.74
910.056	4102.55
910.368	4116.33
910.681	4049.89
910.994	4073.4
911.307	4018.93
911.619	3997.01
911.932	3994.75
912.244	3974.19
912.557	3997.47
912.869	3983.45
913.181	3982.78
913.494	3959.5
913.806	3951.37
914.118	3893.74
914.43	3888.54
914.742	3884.7
915.054	3893.29
915.366	3861.42
915.678	3867.3
915.99	3855.77
916.302	3821.2
916.613	3787.53
916.925	3865.27
917.236	3777.36
917.548	3779.84
917.859	3778.49
918.171	3755.44
918.482	3678.83
918.794	3704.59
919.105	3680.64
919.416	3666.63
919.727	3696
920.038	3702.33
920.349	3606.06
920.66	3652.62
920.971	3637.25
921.282	3642.67
921.593	3597.25
921.903	3532.84
922.214	3572.17
922.525	3550.7
922.835	3535.56
923.146	3552.28
923.456	3529
923.767	3498.04
924.077	3503.92
924.387	3477.71
924.697	3474.99
925.008	3474.77
925.318	3434.54
925.628	3454.88
925.938	3466.18
926.248	3374.66
926.558	3369.69
926.867	3380.98
927.177	3351.61
927.487	3367.43
927.796	3322.23
928.106	3305.51
928.416	3337.37
928.725	3303.25
929.034	3306.41
929.344	3345.28
929.653	3275.68
929.962	3242.68
930.271	3251.27
930.581	3228.67
930.89	3194.77
931.199	3235.23
931.508	3222.34
931.817	3177.83
932.125	3214.44
932.434	3183.7
932.743	3160.43
933.051	3149.8
933.36	3142.57
933.669	3128.56
933.977	3083.59
934.286	3082.69
934.594	3089.01
934.902	3061.9
935.21	3047.21
935.519	3052.86
935.827	3068.68
936.135	3036.81
936.443	3019.41
936.751	3021.22
937.059	2995.91
937.367	2980.54
937.674	2990.49
937.982	2952.75
938.29	2917.72
938.597	2937.38
938.905	2916.82
939.213	2902.13
939.52	2896.7
939.827	2916.36
940.135	2901.9
940.442	2894.44
940.749	2865.97
941.056	2834.78
941.363	2836.59
941.67	2829.13
941.977	2804.05
942.284	2814.22
942.591	2821
942.898	2748.68
943.205	2840.43
943.511	2779.87
943.818	2768.8
944.125	2743.71
944.431	2763.6
944.738	2739.87
945.044	2758.63
945.35	2712.3
945.657	2691.51
945.963	2705.07
946.269	2664.17
946.575	2668.69
946.881	2644.51
947.187	2642.47
947.493	2642.25
947.799	2609.25
948.105	2596.37
948.41	2626.88
948.716	2630.27
949.022	2635.02
949.327	2594.11
949.633	2571.29
949.938	2565.19
950.244	2553.89
950.549	2581.68
950.854	2541.23
951.16	2540.78
951.465	2508.69
951.77	2530.84
952.075	2498.52
952.38	2483.83
952.685	2512.98
952.99	2496.71
953.294	2436.6
953.599	2484.28
953.904	2457.17
954.209	2439.77
954.513	2431.86
954.818	2430.5
955.122	2419.2
955.426	2423.5
955.731	2389.6
956.035	2395.93
956.339	2399.54
956.643	2378.3
956.948	2378.07
957.252	2379.88
957.556	2360.45
957.86	2343.72
958.163	2348.92
958.467	2318.87
958.771	2336.27
959.075	2326.55
959.378	2296.04
959.682	2286.32
959.985	2293.33
960.289	2285.65
960.592	2264.4
960.896	2266.89
961.199	2259.21
961.502	2207.68
961.805	2213.33
962.108	2207.91
962.411	2185.31
962.714	2195.7
963.017	2208.59
963.32	2222.6
963.623	2168.14
963.926	2161.81
964.228	2153.67
964.531	2162.49
964.833	2163.16
965.136	2149.83
965.438	2136.05
965.741	2126.1
966.043	2101.24
966.345	2099.89
966.648	2100.79
966.95	2105.54
967.252	2078.65
967.554	2070.51
967.856	2059.21
968.158	2075.48
968.46	2031.19
968.761	2038.87
969.063	2018.08
969.365	2042.26
969.666	2014.92
969.968	2025.31
970.269	2016.5
970.571	1991.87
970.872	1994.13
971.174	2006.33
971.475	1993.45
971.776	1975.6
972.077	1990.06
972.378	1951.87
972.679	1984.19
972.98	1948.71
973.281	1945.09
973.582	1926.79
973.883	1934.24
974.183	1886.79
974.484	1924.98
974.785	1873.68
975.085	1899.44
975.386	1884.98
975.686	1891.31
975.986	1867.58
976.287	1884.53
976.587	1826.68
976.887	1841.59
977.187	1833.45
977.487	1837.07
977.787	1835.94
978.087	1828.26
978.387	1851.08
978.687	1829.39
978.987	1803.62
979.286	1824.87
979.586	1791.2
979.885	1774.7
980.185	1770.18
980.484	1754.81
980.784	1765.66
981.083	1717.3
981.382	1725.89
981.682	1729.95
981.981	1739.22
982.28	1743.97
982.579	1719.79
982.878	1682.05
983.177	1708.26
983.475	1721.59
983.774	1710.52
984.073	1686.11
984.372	1679.56
984.67	1673.68
984.969	1681.14
985.267	1689.96
985.566	1661.03
985.864	1647.7
986.162	1660.58
986.461	1618.77
986.759	1672.55
987.057	1600.92
987.355	1597.53
987.653	1603.4
987.951	1607.02
988.249	1626.45
988.547	1589.17
988.844	1609.28
989.142	1598.21
989.44	1597.3
989.737	1564.08
990.035	1535.61
990.332	1544.2
990.63	1555.04
990.927	1549.17
991.224	1527.7
991.521	1537.87
991.819	1504.88
992.116	1541.03
992.413	1550.07
992.71	1526.57
993.006	1489.28
993.303	1505.33
993.6	1494.48
993.897	1490.41
994.193	1480.02
994.49	1480.24
994.787	1480.47
995.083	1470.75
995.379	1486.35
995.676	1446.8
995.972	1453.8
996.268	1412.22
996.565	1441.37
996.861	1415.61
997.157	1407.7
997.453	1424.43
997.749	1444.54
998.044	1417.65
998.34	1409.06
998.636	1394.82
998.932	1386.46
999.227	1368.83
999.523	1385.78
999.818	1352.56
1000.114	1356.18
1000.409	1333.81
1000.704	1355.73
1001	1349.63
1001.295	1309.17
1001.59	1340.59
1001.885	1326.12
1002.18	1325.22
1002.475	1294.49
1002.77	1319.57
1003.065	1318.67
1003.359	1284.09
1003.654	1300.59
1003.949	1283.64
1004.243	1258.1
1004.538	1257.65
1004.832	1284.77
1005.127	1238.67
1005.421	1238.67
1005.715	1240.93
1006.009	1219.23
1006.304	1246.35
1006.598	1221.04
1006.892	1211.55
1007.186	1213.81
1007.48	1191.44
1007.773	1192.34
1008.067	1183.3
1008.361	1203.87
1008.655	1202.74
1008.948	1211.1
1009.242	1171.55
1009.535	1161.61
1009.829	1157.31
1010.122	1155.51
1010.415	1169.74
1010.708	1120.48
1011.001	1118.9
1011.295	1131.78
1011.588	1126.58
1011.881	1136.07
1012.173	1113.93
1012.466	1108.5
1012.759	1106.69
1013.052	1080.93
1013.344	1095.85
1013.637	1093.14
1013.93	1074.83
1014.222	1058.11
1014.514	1059.01
1014.807	1071.67
1015.099	1046.58
1015.391	1060.37
1015.683	1041.84
1015.976	1054.72
1016.268	1031.22
1016.56	1035.06
1016.851	1044.77
1017.143	1011.1
1017.435	992.8
1017.727	1026.7
1018.018	977.66
1018.31	996.87
1018.602	1014.72
1018.893	986.92
1019.185	967.94
1019.476	993.25
1019.767	962.52
1020.058	975.17
1020.35	970.43
1020.641	949.18
1020.932	971.33
1021.223	948.51
1021.514	974.04
1021.804	961.16
1022.095	958.9
1022.386	929.52
1022.677	925.23
1022.967	915.96
1023.258	925.46
1023.548	901.28
1023.839	927.04
1024.129	888.85
1024.419	867.6
1024.709	883.88
1025	878.68
1025.29	897.66
1025.58	847.27
1025.87	854.27
1026.16	869.86
1026.449	858.11
1026.739	890.88
1027.029	842.07
1027.319	826.7
1027.608	838.45
1027.898	821.5
1028.187	812.24
1028.477	829.19
1028.766	841.62
1029.055	813.14
1029.344	821.5
1029.634	819.24
1029.923	775.4
1030.212	804.1
1030.501	803.43
1030.79	804.56
1031.078	785.57
1031.367	797.78
1031.656	777.89
1031.945	766.36
1032.233	763.2
1032.522	765.69
1032.81	754.16
1033.099	765.91
1033.387	750.77
1033.675	751.22
1033.963	739.7
1034.251	748.51
1034.54	747.38
1034.828	729.98
1035.116	737.66
1035.403	723.43
1035.691	728.85
1035.979	704.22
1036.267	714.16
1036.554	720.04
1036.842	706.25
1037.129	703.31
1037.417	713.03
1037.704	701.96
1037.992	692.24
1038.279	697.44
1038.566	681.17
1038.853	681.17
1039.14	681.17
