Data from tablewood_dark_bookshelf_FLMS001491_00017.txt Node
Date: Wed Feb 08 14:13:44 GMT 2017
User: dcchb
Spectrometer: FLMS00149
Trigger mode: 0
Integration Time (sec): 2.000000E-2
Scans to average: 10
Electric dark correction enabled: true
Nonlinearity correction enabled: false
Boxcar width: 0
XAxis mode: Wavelengths
Number of Pixels in Spectrum: 2048
>>>>>Begin Spectral Data<<<<<
341.393	-3.14
341.776	-3.14
342.16	-3.14
342.543	-55.11
342.927	-45.85
343.31	-69.35
343.693	-79.74
344.077	-46.3
344.46	-41.33
344.843	-44.26
345.226	-53.53
345.61	-28.9
345.993	-21.44
346.376	-0.65
346.759	6.36
347.142	30.99
347.525	34.38
347.908	62.85
348.291	53.81
348.674	80.7
349.057	116.41
349.44	127.93
349.823	155.96
350.206	167.71
350.588	146.47
350.971	193.47
351.354	201.83
351.737	223.98
352.119	223.53
352.502	263.07
352.884	274.82
353.267	257.87
353.65	283.41
354.032	275.95
354.414	294.94
354.797	291.09
355.179	283.41
355.562	307.82
355.944	327.93
356.326	329.96
356.709	302.62
357.091	341.04
357.473	343.3
357.855	329.51
358.238	323.86
358.62	333.35
359.002	334.03
359.384	333.13
359.766	335.61
360.148	322.05
360.53	343.3
360.912	310.75
361.294	333.35
361.676	315.05
362.057	324.09
362.439	317.99
362.821	324.99
363.203	311.88
363.584	305.78
363.966	317.53
364.348	345.1
364.729	297.42
365.111	301.26
365.493	313.69
365.874	346.91
366.256	313.01
366.637	309.17
367.019	300.13
367.4	315.95
367.781	316.63
368.163	315.05
368.544	308.49
368.925	330.64
369.306	338.1
369.688	292
370.069	306.23
370.45	302.17
370.831	324.99
371.212	326.35
371.593	313.24
371.974	314.14
372.355	310.3
372.736	304.88
373.117	318.89
373.498	334.93
373.879	296.29
374.26	311.21
374.641	320.92
375.021	322.73
375.402	322.51
375.783	319.34
376.163	331.09
376.544	323.64
376.925	332.9
377.305	317.76
377.686	330.42
378.066	332.9
378.447	346.23
378.827	347.82
379.208	340.36
379.588	336.06
379.968	336.52
380.349	350.3
380.729	338.32
381.109	360.02
381.489	337.42
381.87	347.82
382.25	336.74
382.63	347.59
383.01	348.49
383.39	357.31
383.77	364.31
384.15	358.66
384.53	362.73
384.91	332.9
385.29	353.92
385.67	360.47
386.049	362.05
386.429	378.32
386.809	369.74
387.189	381.26
387.568	360.92
387.948	379.91
388.328	386.46
388.707	372.45
389.087	367.02
389.466	391.43
389.846	381.71
390.225	400.47
390.605	381.71
390.984	400.7
391.363	364.09
391.743	402.05
392.122	389.17
392.501	386.23
392.881	381.04
393.26	397.08
393.639	406.12
394.018	412.67
394.397	398.44
394.776	409.51
395.155	423.75
395.534	411.54
395.913	431.88
396.292	403.86
396.671	407.02
397.05	413.8
397.429	417.87
397.808	409.51
398.186	439.56
398.565	423.07
398.944	422.39
399.323	427.59
399.701	430.53
400.08	457.42
400.458	439.56
400.837	462.84
401.215	428.72
401.594	448.15
401.972	449.73
402.351	466
402.729	480.02
403.107	440.92
403.486	448.6
403.864	457.87
404.242	463.97
404.62	459.23
404.999	460.13
405.377	479.11
405.755	470.52
406.133	502.84
406.511	471.88
406.889	492.44
407.267	473.01
407.645	478.89
408.023	493.8
408.401	502.39
408.779	491.99
409.156	511.88
409.534	510.07
409.912	522.5
410.29	520.69
410.667	526.34
411.045	549.84
411.422	541.71
411.8	552.56
412.178	552.33
412.555	550.52
412.933	552.1
413.31	573.12
413.687	560.69
414.065	561.37
414.442	590.07
414.819	599.79
415.197	608.15
415.574	581.26
415.951	582.84
416.328	583.06
416.705	580.8
417.082	604.31
417.46	599.33
417.837	621.48
418.214	617.19
418.591	626.68
418.967	611.54
419.344	625.77
419.721	652.44
420.098	641.82
420.475	626.23
420.852	657.41
421.228	620.12
421.605	659.45
421.982	646.11
422.358	649.73
422.735	676.85
423.111	677.3
423.488	679.56
423.864	677.3
424.241	689.95
424.617	687.69
424.994	697.86
425.37	717.98
425.746	694.25
426.123	701.93
426.499	723.85
426.875	697.19
427.251	725.43
427.627	729.5
428.003	754.36
428.379	761.14
428.756	750.29
429.132	755.26
429.507	754.81
429.883	793
430.259	771.99
430.635	792.1
431.011	795.71
431.387	836.16
431.763	809.5
432.138	817.63
432.514	850.63
432.89	834.36
433.265	857.63
433.641	867.8
434.016	864.86
434.392	843.4
434.767	880.01
435.143	909.16
435.518	908.03
435.894	883.85
436.269	886.11
436.644	929.27
437.02	915.26
437.395	948.7
437.77	932.89
438.145	956.16
438.52	949.16
438.895	967.91
439.271	966.78
439.646	970.4
440.021	968.36
440.395	978.76
440.77	997.97
441.145	989.83
441.52	999.1
441.895	999.78
442.27	1022.6
442.645	1016.27
443.019	1029.61
443.394	1043.16
443.769	1066.67
444.143	1045.2
444.518	1079.32
444.892	1045.88
445.267	1060.57
445.641	1087.23
446.016	1073.45
446.39	1075.48
446.764	1105.99
447.139	1065.08
447.513	1096.72
447.887	1120.9
448.262	1124.07
448.636	1105.31
449.01	1119.55
449.384	1122.94
449.758	1133.11
450.132	1154.35
450.506	1172.2
450.88	1171.97
451.254	1161.13
451.628	1207.91
452.002	1194.8
452.376	1190.73
452.75	1235.25
453.123	1241.13
453.497	1214.46
453.871	1257.17
454.244	1301.69
454.618	1295.36
454.992	1275.7
455.365	1281.58
455.739	1296.72
456.112	1331.52
456.486	1343.04
456.859	1342.37
457.232	1388.01
457.606	1390.05
457.979	1400.44
458.352	1415.13
458.725	1420.1
459.099	1444.51
459.472	1465.3
459.845	1495.13
460.218	1499.88
460.591	1505.3
460.964	1512.08
461.337	1525.64
461.71	1554.56
462.083	1587.11
462.456	1562.93
462.829	1557.05
463.201	1612.19
463.574	1652.64
463.947	1626.2
464.32	1666.65
464.692	1667.78
465.065	1681.34
465.438	1707.1
465.81	1718.85
466.183	1750.26
466.555	1745.52
466.928	1791.85
467.3	1803.6
467.672	1812.41
468.045	1859.87
468.417	1864.61
468.789	1834.78
469.161	1896.25
469.534	1920.88
469.906	1980.99
470.278	1977.83
470.65	1985.74
471.022	2023.25
471.394	2062.12
471.766	2068
472.138	2076.36
472.51	2128.11
472.882	2153.42
473.253	2185.73
473.625	2206.75
473.997	2253.08
474.369	2271.83
474.74	2281.55
475.112	2338.27
475.484	2330.81
475.855	2402.22
476.227	2414.2
476.598	2502.56
476.97	2491.49
477.341	2531.71
477.713	2584.14
478.084	2654.2
478.455	2667.3
478.827	2700.75
479.198	2782.1
479.569	2745.49
479.94	2865.94
480.311	2841.76
480.682	2910.69
481.053	2972.15
481.424	2990.23
481.795	3033.62
482.166	3098.48
482.537	3124.24
482.908	3214.63
483.279	3221.86
483.65	3267.06
484.021	3283.56
484.391	3384.8
484.762	3398.36
485.133	3410.79
485.503	3465.7
485.874	3501.63
486.244	3566.94
486.615	3628.86
486.985	3678.58
487.356	3730.55
487.726	3759.03
488.097	3809.87
488.467	3851.23
488.837	3947.72
489.207	3937.1
489.578	3993.82
489.948	4042.41
490.318	4114.5
490.688	4085.12
491.058	4201.27
491.428	4262.06
491.798	4284.66
492.168	4339.58
492.538	4338.67
492.908	4398.78
493.278	4483.75
493.648	4442.85
494.017	4505.9
494.387	4596.29
494.757	4629.06
495.126	4641.04
495.496	4673.8
495.866	4726.23
496.235	4788.83
496.605	4776.85
496.974	4812.33
497.344	4845.78
497.713	4880.58
498.082	4957.86
498.452	4956.96
498.821	4944.08
499.19	5024.3
499.559	5089.84
499.928	5087.58
500.298	5085.54
500.667	5182.49
501.036	5134.13
501.405	5275.82
501.774	5233.56
502.143	5297.52
502.512	5310.62
502.88	5362.15
503.249	5389.27
503.618	5463.61
503.987	5495.03
504.356	5501.35
504.724	5550.16
505.093	5569.83
505.462	5617.96
505.83	5594.23
506.199	5639.65
506.567	5727.34
506.936	5774.11
507.304	5846.65
507.672	5843.04
508.041	5898.4
508.409	5863.15
508.777	5965.97
509.145	5988.12
509.514	6005.29
509.882	6038.29
510.25	6046.2
510.618	6128.23
510.986	6165.06
511.354	6182.46
511.722	6236.93
512.09	6338.39
512.458	6342.91
512.826	6410.93
513.193	6429.46
513.561	6406.19
513.929	6468.78
514.297	6590.82
514.664	6548.1
515.032	6642.57
515.4	6661.55
515.767	6724.37
516.135	6779.51
516.502	6786.97
516.869	6838.72
517.237	6957.36
517.604	6881.43
517.972	6980.64
518.339	7005.27
518.706	7057.02
519.073	7100.18
519.44	7115.55
519.808	7205.49
520.175	7180.63
520.542	7299.72
520.909	7335.43
521.276	7373.17
521.643	7466.5
522.009	7551.02
522.376	7645.48
522.743	7700.62
523.11	7718.47
523.477	7834.17
523.843	7786.04
524.21	7831.23
524.577	7966.6
524.943	8036.43
525.31	8070.1
525.676	8182.86
526.043	8187.38
526.409	8268.74
526.776	8333.59
527.142	8367.49
527.508	8475.74
527.874	8484.1
528.241	8503.31
528.607	8506.25
528.973	8646.81
529.339	8640.25
529.705	8687.26
530.071	8831.43
530.437	8822.17
530.803	8903.3
531.169	8933.35
531.535	8879.57
531.901	8989.17
532.267	9051.32
532.632	9123.86
532.998	9197.53
533.364	9210.41
533.73	9202.27
534.095	9286.11
534.461	9337.41
534.826	9376.28
535.192	9423.28
535.557	9437.52
535.923	9494.92
536.288	9518.65
536.653	9660.11
537.019	9621.92
537.384	9637.29
537.749	9719.77
538.114	9731.07
538.479	9792.09
538.845	9867.79
539.21	9905.08
539.575	9894.01
539.94	9936.94
540.305	10011.52
540.67	10008.13
541.034	10002.03
541.399	10096.49
541.764	10105.3
542.129	10202.7
542.494	10166.54
542.858	10233.43
543.223	10249.48
543.587	10311.85
543.952	10344.84
544.316	10353.2
544.681	10395.01
545.045	10405.63
545.41	10479.53
545.774	10560.2
546.138	10544.61
546.503	10513.42
546.867	10551.84
547.231	10693.08
547.595	10723.14
547.959	10714.77
548.324	10746.64
548.688	10825.73
549.052	10878.39
549.416	10845.39
549.779	10928.55
550.143	10982.34
550.507	10993.19
550.871	11127.19
551.235	11018.72
551.599	11156.57
551.962	11152.5
552.326	11196.8
552.689	11358.83
553.053	11216.68
553.417	11316.57
553.78	11428.2
554.143	11466.62
554.507	11491.7
554.87	11482.89
555.234	11681.75
555.597	11605.15
555.96	11682.66
556.323	11909.09
556.686	11740.74
557.05	11934.63
557.413	11957
557.776	12014.85
558.139	12041.75
558.502	12075.64
558.865	12162.65
559.228	12167.62
559.59	12291.91
559.953	12263.21
560.316	12512.69
560.679	12450.1
561.041	12560.15
561.404	12589.98
561.767	12711.33
562.129	12641.5
562.492	12851.44
562.854	12802.86
563.217	12857.54
563.579	12968.73
563.941	13069.52
564.304	13045.56
564.666	13210.98
565.028	13187.25
565.39	13347.47
565.753	13409.62
566.115	13393.12
566.477	13481.48
566.839	13604.64
567.201	13637.86
567.563	13668.6
567.925	13814.13
568.287	13759.44
568.648	13825.65
569.01	13986.55
569.372	14071.52
569.734	14042.6
570.095	14136.61
570.457	14244.4
570.819	14247.11
571.18	14332.76
571.542	14447.78
571.903	14433.55
572.265	14504.05
572.626	14595.8
572.987	14741.11
573.349	14671.73
573.71	14781.79
574.071	14821.56
574.432	14944.95
574.794	15042.57
575.155	15033.53
575.516	15045.96
575.877	15195.33
576.238	15134.55
576.599	15280.3
576.96	15258.16
577.32	15363.47
577.681	15379.51
578.042	15492.95
578.403	15462.9
578.763	15587.64
579.124	15531.82
579.485	15643.46
579.845	15772.49
580.206	15689.56
580.566	15777.92
580.927	15758.48
581.287	15887.52
581.648	15783.34
582.008	15988.31
582.368	16003.9
582.728	16053.39
583.089	16010.91
583.449	16003.9
583.809	16174.97
584.169	16224.01
584.529	16204.57
584.889	16216.55
585.249	16226.72
585.609	16252.93
585.969	16357.79
586.329	16355.3
586.688	16349.65
587.048	16393.27
587.408	16434.17
587.768	16407.73
588.127	16464.23
588.487	16443.66
588.846	16577.67
589.206	16551.01
589.565	16559.14
589.925	16662.41
590.284	16584.68
590.643	16653.38
591.003	16739.48
591.362	16845.69
591.721	16713.71
592.08	16846.36
592.44	16899.92
592.799	16899.02
593.158	16817.67
593.517	16941.05
593.876	16930.43
594.235	16928.62
594.593	16958.23
594.952	17034.83
595.311	17048.85
595.67	16986.93
596.029	17189.63
596.387	17275.05
596.746	17337.88
597.104	17151.67
597.463	17195.73
597.822	17397.76
598.18	17241.83
598.538	17277.54
598.897	17471.43
599.255	17318.67
599.613	17567.25
599.972	17485.44
600.33	17524.09
600.688	17529.06
601.046	17540.58
601.404	17537.65
601.762	17528.83
602.12	17715.04
602.478	17679.11
602.836	17773.57
603.194	17680.02
603.552	17784.65
603.91	17737.64
604.268	17809.5
604.625	17804.08
604.983	17873
605.341	17827.13
605.698	17974.47
606.056	18002.04
606.413	17962.95
606.771	18098.54
607.128	18108.03
607.485	18091.76
607.843	18148.7
608.2	18211.75
608.557	18237.06
608.914	18228.7
609.272	18310.51
609.629	18335.14
609.986	18376.04
610.343	18297.4
610.7	18504.17
611.057	18519.09
611.414	18393.89
611.771	18504.17
612.127	18499.65
612.484	18572.65
612.841	18543.04
613.198	18572.2
613.554	18605.19
613.911	18686.32
614.267	18704.4
614.624	18776.71
614.98	18765.86
615.337	18795.47
615.693	18791.85
616.05	18808.35
616.406	19007.66
616.762	18883.6
617.118	18821.45
617.475	18931.06
617.831	18977.16
618.187	18990.72
618.543	18996.59
618.899	18995.01
619.255	19016.7
619.611	19002.92
619.967	19087.44
620.323	19102.12
620.678	19086.53
621.034	18984.61
621.39	19069.36
621.746	19080.2
622.101	19276.58
622.457	19256.7
622.812	19223.48
623.168	19232.74
623.523	19253.08
623.879	19306.19
624.234	19139.19
624.589	19322.01
624.945	19282.23
625.3	19343.93
625.655	19206.3
626.01	19235
626.365	19206.3
626.72	19209.24
627.075	19212.4
627.43	19196.36
627.785	19082.69
628.14	19261.44
628.495	19218.51
628.85	19252.18
629.205	19083.14
629.559	19205.4
629.914	19107.32
630.269	19204.72
630.623	19136.25
630.978	19016.48
631.332	19193.65
631.687	19284.49
632.041	19136.25
632.396	19243.14
632.75	19072.97
633.104	19171.95
633.459	18951.85
633.813	19074.55
634.167	18981.45
634.521	19010.38
634.875	19012.41
635.229	19054.89
635.583	18922.47
635.937	18938.51
636.291	18960.89
636.645	19019.64
636.999	18873.88
637.352	18983.94
637.706	18806.54
638.06	18956.37
638.413	18849.7
638.767	18890.38
639.121	18862.58
639.474	18814.45
639.828	18724.06
640.181	18809.7
640.534	18814.9
640.888	18715.92
641.241	18702.14
641.594	18681.8
641.947	18806.09
642.301	18656.94
642.654	18709.82
643.007	18801.57
643.36	18608.58
643.713	18623.49
644.066	18809.48
644.419	18534.23
644.771	18448.81
645.124	18279.77
645.477	18367.68
645.83	18096.05
646.182	18075.94
646.535	17963.17
646.888	18093.34
647.24	17985.54
647.593	18077.75
647.945	17919.56
648.298	17943.96
648.65	17976.05
649.002	17841.82
649.355	18087.91
649.707	17824.87
650.059	18002.72
650.411	18251.75
650.763	18258.53
651.115	18367.45
651.467	18320
651.819	18285.88
652.171	18410.17
652.523	18385.31
652.875	18438.87
653.227	18284.97
653.578	18322.03
653.93	18240.9
654.282	18230.06
654.633	18167.69
654.985	18193.9
655.337	18254.69
655.688	18232.09
656.039	18382.37
656.391	18138.76
656.742	18253.11
657.094	18190.06
657.445	18257.85
657.796	18193.45
658.147	18251.53
658.498	18134.47
658.849	18258.98
659.2	18181.7
659.551	18086.11
659.902	18207.69
660.253	18180.12
660.604	18124.52
660.955	18128.37
661.306	18139.66
661.656	18109.38
662.007	18058.54
662.358	18262.37
662.708	18193
663.059	18141.25
663.409	18006.56
663.76	18179.44
664.11	18243.39
664.461	18184.63
664.811	18146.67
665.161	18149.83
665.511	18082.26
665.862	18091.76
666.212	18140.57
666.562	18070.51
666.912	18128.59
667.262	18153.68
667.612	18122.26
667.962	18158.42
668.312	18158.65
668.662	18240.23
669.011	18134.47
669.361	18200.91
669.711	18162.04
670.06	18016.96
670.41	18151.87
670.76	18169.95
671.109	18080
671.459	18174.47
671.808	18093.56
672.157	18092.66
672.507	18045.88
672.856	18019.89
673.205	18017.86
673.554	18177.4
673.904	18185.99
674.253	18211.53
674.602	18076.62
674.951	17801.14
675.3	17757.98
675.649	18047.01
675.998	18030.29
676.346	18017.18
676.695	18069.61
677.044	18009.72
677.393	17986.9
677.741	18072.77
678.09	17868.26
678.438	17900.8
678.787	17970.4
679.135	17989.16
679.484	17958.88
679.832	17905.55
680.181	17844.3
680.529	17936.28
680.877	17902.61
681.225	17814.25
681.573	18010.63
681.922	17846.56
682.27	17798.88
682.618	17812.22
682.966	17780.58
683.314	17682.5
683.661	17722.5
684.009	17670.3
684.357	17551.21
684.705	17571.32
685.053	17615.84
685.4	17544.88
685.748	17495.61
686.095	17541.49
686.443	17479.12
686.79	17477.76
687.138	17498.1
687.485	17522.05
687.832	17455.61
688.18	17385.79
688.527	17302.85
688.874	17367.03
689.221	17261.27
689.568	17255.17
689.915	17265.11
690.262	17161.16
690.609	17141.27
690.956	17120.71
691.303	17120.26
691.65	17072.12
691.997	17014.95
692.344	16874.39
692.69	16893.37
693.037	16978.11
693.383	16840.49
693.73	16872.58
694.077	16773.15
694.423	16785.8
694.769	16697.44
695.116	16693.83
695.462	16691.11
695.808	16541.29
696.155	16641.85
696.501	16509.42
696.847	16588.29
697.193	16516.43
697.539	16440.95
697.885	16386.26
698.231	16317.79
698.577	16246.61
698.923	16266.95
699.269	16264.01
699.614	16226.95
699.96	16194.4
700.306	16195.53
700.651	16006.16
700.997	16087.74
701.342	16016.33
701.688	15950.57
702.033	15957.57
702.379	15997.12
702.724	15903.56
703.069	15908.99
703.415	15747.64
703.76	15797.13
704.105	15880.74
704.45	15760.07
704.795	15712.38
705.14	15658.15
705.485	15537.25
705.83	15572.27
706.175	15565.27
706.52	15547.19
706.865	15478.49
707.209	15437.59
707.554	15506.29
707.899	15465.61
708.243	15479.17
708.588	15344.71
708.932	15280.76
709.277	15304.03
709.621	15364.14
709.966	15187.2
710.31	15217.71
710.654	15134.77
710.998	15169.8
711.342	15167.77
711.687	15027.66
712.031	15005.06
712.375	15081.44
712.719	15071.04
713.063	14993.98
713.407	15064.94
713.75	14897.04
714.094	14953.76
714.438	14870.37
714.782	14953.53
715.125	14791.28
715.469	14859.07
715.812	14768
716.156	14752.41
716.499	14792.86
716.843	14779.98
717.186	14731.84
717.53	14729.58
717.873	14731.39
718.216	14740.66
718.559	14721.68
718.902	14552.19
719.246	14619.3
719.589	14527.78
719.932	14459.31
720.275	14457.05
720.617	14502.92
720.96	14556.26
721.303	14523.04
721.646	14494.11
721.989	14399.88
722.331	14417.73
722.674	14436.03
723.016	14462.02
723.359	14445.98
723.701	14400.55
724.044	14314.91
724.386	14278.75
724.729	14384.96
725.071	14276.26
725.413	14296.83
725.755	14313.55
726.097	14250.28
726.439	14055.03
726.782	14184.29
727.124	14262.25
727.465	14156.27
727.807	14170.96
728.149	14119.43
728.491	14137.28
728.833	14139.77
729.175	14012.09
729.516	14051.18
729.858	14003.28
730.199	14047.79
730.541	13989.49
730.882	13992.65
731.224	14048.25
731.565	13939.77
731.906	14033.11
732.248	14022.03
732.589	14005.31
732.93	13950.85
733.271	14004.63
733.612	13886.89
733.953	13848.7
734.294	13876.27
734.635	13871.53
734.976	13791.3
735.317	13890.51
735.658	13833.34
735.999	13920.57
736.339	13758.31
736.68	13874.69
737.021	13801.02
737.361	13772.77
737.702	13781.81
738.042	13774.36
738.383	13783.85
738.723	13751.08
739.063	13726.22
739.404	13749.5
739.744	13687.8
740.084	13608.71
740.424	13588.82
740.764	13627.01
741.104	13713.11
741.444	13652.55
741.784	13642.16
742.124	13600.12
742.464	13615.04
742.804	13518.54
743.143	13471.54
743.483	13560.35
743.823	13545.66
744.162	13500.46
744.502	13551.99
744.841	13430.64
745.181	13453.01
745.52	13412.56
745.86	13442.16
746.199	13343.41
746.538	13394.7
746.877	13426.57
747.216	13478.54
747.556	13399.45
747.895	13431.31
748.234	13347.25
748.573	13311.77
748.911	13246.69
749.25	13296.18
749.589	13223.18
749.928	13266.57
750.267	13199.91
750.605	13173.69
750.944	13160.36
751.283	13138.21
751.621	13159.91
751.96	13099.12
752.298	13073.81
752.636	13086.24
752.975	12957.65
753.313	12968.5
753.651	13027.71
753.989	12970.76
754.327	12946.81
754.666	12899.58
755.004	12900.71
755.342	12923.76
755.679	12919.69
756.017	12873.81
756.355	12834.72
756.693	12798.79
757.031	12754.95
757.368	12697.1
757.706	12694.38
758.044	12652.58
758.381	12568.29
758.719	12601.05
759.056	12663.88
759.394	12528.29
759.731	12463.66
760.068	12457.1
760.405	12430.89
760.743	12336.88
761.08	12410.32
761.417	12366.26
761.754	12333.26
762.091	12291.91
762.428	12229.31
762.765	12147.96
763.102	12248.07
763.438	12162.19
763.775	12105.47
764.112	12100.73
764.449	12029.09
764.785	12013.05
765.122	11925.14
765.458	11826.84
765.795	11889.43
766.131	11856.21
766.467	11745.71
766.804	11798.36
767.14	11719.49
767.476	11665.48
767.812	11628.88
768.148	11635.2
768.485	11585.03
768.821	11488.99
769.157	11502.1
769.492	11432.5
769.828	11476.79
770.164	11393.18
770.5	11319.96
770.836	11332.84
771.171	11283.8
771.507	11275.66
771.842	11101.43
772.178	11184.14
772.513	11078.83
772.849	11078.38
773.184	10972.62
773.519	11026.4
773.855	10969.46
774.19	10926.07
774.525	10849.23
774.86	10842.91
775.195	10805.17
775.53	10765.62
775.865	10708.45
776.2	10640.88
776.535	10595.23
776.87	10551.84
777.205	10577.83
777.539	10378.51
777.874	10505.51
778.209	10354.33
778.543	10339.64
778.878	10359.98
779.212	10318.4
779.547	10272.07
779.881	10263.04
780.215	10232.98
780.55	10228.01
780.884	10129.03
781.218	10121.8
781.552	10067.11
781.886	10055.81
782.22	9970.84
782.554	9957.05
782.888	9844.74
783.222	9905.53
783.556	9853.1
783.889	9865.08
784.223	9734.69
784.557	9686.78
784.89	9724.74
785.224	9694.46
785.557	9668.7
785.891	9653.56
786.224	9581.25
786.558	9555.71
786.891	9470.29
787.224	9383.96
787.557	9479.1
787.891	9432.32
788.224	9374.02
788.557	9330.86
788.89	9303.74
789.223	9296.06
789.556	9229.62
789.888	9167.92
790.221	9204.31
790.554	9149.39
790.887	9131.99
791.219	9089.51
791.552	9080.02
791.884	9030.75
792.217	8977.19
792.549	8996.85
792.882	8889.29
793.214	8888.61
793.546	8914.37
793.879	8788.05
794.211	8796.86
794.543	8781.94
794.875	8742.17
795.207	8765
795.539	8691.78
795.871	8661.5
796.203	8630.08
796.535	8510.76
796.867	8511.89
797.198	8496.75
797.53	8510.99
797.862	8478.68
798.193	8398.23
798.525	8391.22
798.856	8392.35
799.188	8350.09
799.519	8315.52
799.85	8280.04
800.182	8244.78
800.513	8230.77
800.844	8140.61
801.175	8188.74
801.506	8132.24
801.837	8109.19
802.168	8139.25
802.499	8025.35
802.83	8039.82
803.161	8008.18
803.491	8040.27
803.822	7993.26
804.153	7998.46
804.483	7903.1
804.814	7899.26
805.145	7869.43
805.475	7899.48
805.805	7828.07
806.136	7837.56
806.466	7782.2
806.796	7786.26
807.126	7685.02
807.457	7746.27
807.787	7749.2
808.117	7677.79
808.447	7671.24
808.777	7695.65
809.107	7612.71
809.436	7592.82
809.766	7535.42
810.096	7568.42
810.426	7504.46
810.755	7540.17
811.085	7535.2
811.414	7476.67
811.744	7414.3
812.073	7402.32
812.403	7412.04
812.732	7345.82
813.061	7341.08
813.39	7279.16
813.719	7308.54
814.049	7329.78
814.378	7286.84
814.707	7304.02
815.036	7236
815.365	7219.73
815.693	7169.56
816.022	7157.13
816.351	7127.98
816.68	7083.91
817.008	7155.32
817.337	6999.17
817.665	7030.58
817.994	7029.22
818.322	7035.1
818.651	7018.83
818.979	6984.93
819.307	7023.57
819.636	6996.91
819.964	6993.06
820.292	6961.88
820.62	6923.69
820.948	6937.92
821.276	6981.99
821.604	6900.64
821.932	6896.12
822.259	6881.88
822.587	6905.84
822.915	6907.64
823.243	6894.54
823.57	6866.74
823.898	6930.69
824.225	6846.85
824.553	6887.98
824.88	6924.14
825.207	6860.41
825.535	6917.59
825.862	6925.04
826.189	6906.51
826.516	6923.01
826.843	6894.08
827.17	6861.32
827.497	6873.29
827.824	6831.49
828.151	6856.35
828.478	6838.04
828.805	6898.83
829.131	6824.03
829.458	6793.75
829.785	6838.04
830.111	6851.6
830.438	6853.18
830.764	6822.22
831.09	6840.07
831.417	6819.51
831.743	6860.86
832.069	6852.5
832.395	6802.56
832.722	6802.79
833.048	6787.65
833.374	6787.65
833.7	6772.73
834.026	6788.78
834.351	6822.9
834.677	6770.47
835.003	6823.13
835.329	6732.05
835.654	6729.79
835.98	6752.85
836.306	6761.66
836.631	6661.55
836.956	6772.96
837.282	6703.13
837.607	6682.56
837.932	6628.55
838.258	6676.24
838.583	6683.02
838.908	6587.2
839.233	6617.03
839.558	6652.73
839.883	6623.36
840.208	6593.53
840.533	6538.61
840.858	6614.32
841.182	6554.21
841.507	6559.4
841.832	6504.72
842.156	6548.1
842.481	6467.2
842.805	6506.98
843.13	6443.02
843.454	6444.38
843.778	6460.88
844.103	6413.19
844.427	6404.61
844.751	6428.11
845.075	6385.62
845.399	6387.43
845.723	6316.25
846.047	6351.27
846.371	6248
846.695	6244.84
847.019	6201.45
847.343	6174.78
847.666	6187.21
847.99	6190.6
848.313	6167.1
848.637	6124.61
848.96	6080.09
849.284	6084.61
849.607	6014.33
849.931	5997.61
850.254	5958.52
850.577	5987.44
850.9	5941.57
851.223	5979.98
851.546	5895.92
851.869	5869.93
852.192	5868.8
852.515	5862.02
852.838	5789.93
853.161	5874.68
853.483	5843.26
853.806	5763.94
854.129	5781.35
854.451	5711.06
854.774	5742.93
855.096	5705.19
855.419	5697.51
855.741	5718.52
856.063	5644.85
856.385	5628.13
856.708	5578.64
857.03	5629.94
857.352	5571.86
857.674	5577.96
857.996	5547.45
858.318	5525.98
858.64	5515.59
858.961	5537.74
859.283	5536.61
859.605	5449.38
859.926	5518.98
860.248	5481.01
860.57	5401.69
860.891	5456.83
861.212	5437.85
861.534	5433.78
861.855	5412.09
862.176	5422.03
862.498	5429.49
862.819	5410.06
863.14	5394.46
863.461	5394.46
863.782	5326.67
864.103	5341.36
864.424	5361.47
864.745	5343.39
865.065	5346.55
865.386	5324.86
865.707	5318.76
866.027	5308.59
866.348	5322.15
866.668	5277.4
866.989	5273.34
867.309	5202.6
867.63	5223.17
867.95	5258.87
868.27	5208.25
868.59	5213.9
868.91	5221.59
869.23	5168.25
869.55	5204.64
869.87	5208.7
870.19	5183.62
870.51	5154.92
870.83	5157.18
871.15	5147.69
871.469	5119.89
871.789	5159.21
872.109	5122.83
872.428	5134.36
872.748	5080.8
873.067	5067.92
873.386	5096.84
873.706	5094.36
874.025	5083.74
874.344	5031.99
874.663	5084.19
874.982	5072.44
875.301	5069.05
875.62	5045.09
875.939	5045.09
876.258	5035.15
876.577	4988.15
876.896	5042.83
877.214	4964.42
877.533	5015.04
877.852	5030.86
878.17	5026.56
878.489	5007.58
878.807	4974.59
879.125	4977.52
879.444	4996.96
879.762	4969.62
880.08	4964.19
880.398	4914.7
880.716	4964.42
881.034	4967.58
881.352	4919.45
881.67	4950.63
881.988	4931.42
882.306	4915.61
882.624	4896.4
882.941	4898.2
883.259	4881.71
883.577	4870.86
883.894	4816.62
884.212	4798.77
884.529	4805.1
884.846	4806.91
885.164	4820.92
885.481	4784.76
885.798	4775.27
886.115	4772.11
886.432	4772.11
886.75	4771.43
887.067	4773.91
887.383	4711.32
887.7	4734.59
888.017	4701.15
888.334	4720.13
888.651	4735.95
888.967	4629.51
889.284	4689.85
889.6	4660.24
889.917	4636.06
890.233	4672
890.55	4630.19
890.866	4667.7
891.182	4566.46
891.498	4622.51
891.815	4584.09
892.131	4600.59
892.447	4542.73
892.763	4540.02
893.079	4585.22
893.395	4507.48
893.71	4509.51
894.026	4536.41
894.342	4548.84
894.657	4487.37
894.973	4479.46
895.289	4453.92
895.604	4510.64
895.92	4462.06
896.235	4405.79
896.55	4437.2
896.865	4404.66
897.181	4350.87
897.496	4375.73
897.811	4380.03
898.126	4380.7
898.441	4334.83
898.756	4344.32
899.071	4319.24
899.386	4291.21
899.7	4306.58
900.015	4258.9
900.33	4237.66
900.644	4238.33
900.959	4219.58
901.273	4186.36
901.588	4220.48
901.902	4148.62
902.216	4172.57
902.531	4189.52
902.845	4156.98
903.159	4105.91
903.473	4092.35
903.787	4119.69
904.101	4095.97
904.415	4083.99
904.729	4061.16
905.042	4051
905.356	4007.38
905.67	3997.66
905.984	4005.35
906.297	4058.45
906.611	3977.1
906.924	3959.92
907.237	3998.34
907.551	3972.35
907.864	3918.57
908.177	3928.74
908.491	3920.6
908.804	3919.47
909.117	3888.97
909.43	3864.56
909.743	3889.42
910.056	3848.74
910.368	3862.98
910.681	3844.22
910.994	3842.64
911.307	3799.93
911.619	3796.31
911.932	3766.03
912.244	3761.96
912.557	3783.21
912.869	3726.03
913.181	3735.98
913.494	3716.77
913.806	3709.54
914.118	3689.42
914.43	3665.69
914.742	3624.57
915.054	3636.54
915.366	3593.38
915.678	3638.35
915.99	3574.62
916.302	3578.69
916.613	3561.29
916.925	3561.97
917.236	3548.64
917.548	3518.58
917.859	3545.92
918.171	3502.54
918.482	3520.39
918.794	3520.16
919.105	3478.81
919.416	3420.5
919.727	3435.19
920.038	3452.37
920.349	3428.19
920.66	3422.99
920.971	3406.04
921.282	3406.04
921.593	3370.34
921.903	3344.12
922.214	3323.78
922.525	3364.69
922.835	3369.43
923.146	3330.34
923.456	3346.15
923.767	3276.33
924.077	3304.57
924.387	3264.35
924.697	3262.09
925.008	3246.95
925.318	3260.51
925.628	3237.01
925.938	3212.37
926.248	3185.93
926.558	3163.79
926.867	3162.66
927.177	3158.36
927.487	3185.93
927.796	3149.1
928.106	3129.44
928.416	3116.1
928.725	3106.84
929.034	3102.32
929.344	3068.2
929.653	3110
929.962	3061.42
930.271	3033.62
930.581	3052.15
930.89	3019.16
931.199	3006.05
931.508	2988.65
931.817	3034.75
932.125	3033.39
932.434	2980.97
932.743	2952.04
933.051	2926.05
933.36	2951.36
933.669	2968.09
933.977	2926.5
934.286	2893.96
934.594	2945.49
934.902	2911.59
935.21	2869.78
935.519	2877.01
935.827	2890.8
936.135	2850.57
936.443	2832.5
936.751	2825.04
937.059	2839.95
937.367	2835.66
937.674	2781.65
937.982	2796.79
938.29	2782.55
938.597	2832.27
938.905	2742.78
939.213	2759.73
939.52	2733.52
939.827	2765.83
940.135	2719.28
940.442	2709.34
940.749	2733.52
941.056	2681.54
941.363	2698.26
941.67	2656.68
941.977	2667.3
942.284	2659.62
942.591	2673.4
942.898	2645.61
943.205	2635.67
943.511	2601.32
943.818	2615.33
944.125	2583.46
944.431	2589.34
944.738	2590.47
945.044	2547.53
945.35	2546.85
945.657	2555.67
945.963	2525.84
946.269	2538.94
946.575	2550.02
946.881	2515.89
947.187	2504.6
947.493	2495.1
947.799	2463.47
948.105	2467.99
948.41	2480.42
948.716	2472.05
949.022	2429.12
949.327	2460.53
949.633	2402.68
949.938	2437.48
950.244	2449.46
950.549	2390.02
950.854	2350.93
951.16	2401.1
951.465	2363.36
951.77	2388.89
952.075	2372.85
952.38	2341.21
952.685	2391.83
952.99	2334.66
953.294	2329.23
953.599	2340.76
953.904	2292.85
954.209	2308.89
954.513	2311.38
954.818	2253.53
955.122	2271.83
955.426	2263.47
955.731	2272.96
956.035	2233.64
956.339	2215.34
956.643	2253.75
956.948	2196.81
957.252	2221.89
957.556	2193.19
957.86	2195.68
958.163	2214.21
958.467	2179.86
958.771	2181.89
959.075	2192.06
959.378	2161.1
959.682	2196.81
959.985	2155.68
960.289	2161.33
960.592	2092.4
960.896	2123.81
961.199	2132.85
961.502	2126.98
961.805	2120.2
962.108	2097.6
962.411	2112.06
962.714	2104.61
963.017	2041.33
963.32	2061.22
963.623	2064.83
963.926	2016.47
964.228	2046.53
964.531	2052.18
964.833	2050.14
965.136	2000.65
965.438	1998.85
965.741	2012.18
966.043	2025.51
966.345	1973.31
966.648	1988.45
966.95	1980.77
967.252	1976.47
967.554	1953.2
967.856	1994.1
968.158	1959.52
968.46	1929.92
968.761	1929.92
969.063	1959.3
969.365	1901.67
969.666	1946.42
969.968	1886.31
970.269	1929.92
970.571	1912.29
970.872	1911.62
971.174	1876.59
971.475	1858.74
971.776	1863.26
972.077	1883.37
972.378	1849.02
972.679	1848.12
972.98	1849.25
973.281	1833.43
973.582	1840.43
973.883	1809.7
974.183	1808.34
974.484	1771.96
974.785	1801.79
975.085	1815.8
975.386	1759.08
975.686	1795.01
975.986	1772.41
976.287	1751.17
976.587	1742.13
976.887	1754.33
977.187	1765.63
977.487	1744.16
977.787	1748.68
978.087	1705.52
978.387	1700.32
978.687	1738.29
978.987	1710.49
979.286	1699.19
979.586	1683.83
979.885	1708.68
980.185	1703.03
980.484	1654.9
980.784	1701.45
981.083	1653.09
981.382	1676.14
981.682	1653.54
981.981	1652.19
982.28	1654.22
982.579	1633.88
982.878	1643.15
983.177	1621.68
983.475	1619.42
983.774	1621.68
984.073	1609.7
984.372	1603.83
984.67	1574.68
984.969	1585.07
985.267	1576.48
985.566	1605.41
985.864	1544.17
986.162	1550.95
986.461	1569.25
986.759	1545.98
987.057	1530.38
987.355	1542.13
987.653	1550.5
987.951	1514.11
988.249	1509.14
988.547	1522.7
988.844	1506.66
989.142	1522.93
989.44	1485.64
989.737	1511.4
990.035	1489.71
990.332	1463.27
990.63	1453.78
990.927	1483.15
991.224	1468.01
991.521	1450.61
991.819	1473.66
992.116	1461.68
992.413	1431.18
992.71	1426.66
993.006	1419.65
993.303	1426.88
993.6	1384.17
993.897	1435.47
994.193	1419.65
994.49	1408.8
994.787	1398.41
995.083	1388.69
995.379	1377.85
995.676	1353.44
995.972	1380.78
996.268	1385.98
996.565	1379.65
996.861	1354.34
997.157	1359.31
997.453	1338.52
997.749	1350.73
998.044	1317.96
998.34	1303.04
998.636	1305.76
998.932	1316.15
999.227	1322.03
999.523	1289.49
999.818	1269.83
1000.114	1287.68
1000.409	1287.23
1000.704	1284.06
1001	1261.24
1001.295	1253.78
1001.59	1292.88
1001.885	1270.28
1002.18	1259.43
1002.475	1239.54
1002.77	1237.51
1003.065	1241.13
1003.359	1260.79
1003.654	1227.11
1003.949	1235.7
1004.243	1204.06
1004.538	1196.61
1004.832	1211.52
1005.127	1185.31
1005.421	1185.08
1005.715	1204.52
1006.009	1202.26
1006.304	1165.42
1006.598	1162.03
1006.892	1160.68
1007.186	1158.64
1007.48	1176.72
1007.773	1149.38
1008.067	1155.03
1008.361	1115.03
1008.655	1118.42
1008.948	1109.15
1009.242	1102.6
1009.535	1121.13
1009.829	1120.45
1010.122	1099.21
1010.415	1109.15
1010.708	1085.42
1011.001	1085.42
1011.295	1058.76
1011.588	1075.93
1011.881	1062.83
1012.173	1079.1
1012.466	1041.13
1012.759	1092.65
1013.052	1048.59
1013.344	1047.68
1013.637	1055.82
1013.93	1022.15
1014.222	1017.4
1014.514	1025.09
1014.807	1042.94
1015.099	1010.85
1015.391	1012.66
1015.683	1008.59
1015.976	1021.47
1016.268	994.35
1016.56	1001.81
1016.851	974.69
1017.143	991.87
1017.435	989.61
1017.727	967.91
1018.018	992.09
1018.31	972.66
1018.602	955.94
1018.893	951.42
1019.185	935.14
1019.476	937.18
1019.767	931.76
1020.058	909.16
1020.35	939.89
1020.641	941.47
1020.932	891.76
1021.223	903.51
1021.514	914.58
1021.804	885.2
1022.095	878.65
1022.386	896.5
1022.677	865.32
1022.967	893.56
1023.258	864.86
1023.548	888.37
1023.839	879.55
1024.129	854.7
1024.419	847.69
1024.709	835.49
1025	849.5
1025.29	844.75
1025.58	853.79
1025.87	826
1026.16	824.64
1026.449	830.51
1026.739	819.89
1027.029	788.48
1027.319	797.97
1027.608	805.66
1027.898	807.92
1028.187	801.14
1028.477	811.76
1028.766	796.39
1029.055	769.27
1029.344	790.06
1029.634	765.21
1029.923	794.58
1030.212	760.23
1030.501	755.04
1030.79	757.97
1031.078	749.61
1031.367	753.23
1031.656	740.57
1031.945	730.63
1032.233	747.58
1032.522	756.39
1032.81	730.63
1033.099	751.42
1033.387	742.16
1033.675	704.19
1033.963	732.89
1034.251	720.01
1034.54	722.27
1034.828	698.09
1035.116	727.47
1035.403	700.8
1035.691	726.34
1035.979	715.04
1036.267	705.55
1036.554	667.58
1036.842	694.93
1037.129	680.69
1037.417	662.38
1037.704	679.78
1037.992	670.07
1038.279	670.29
1038.566	650.18
1038.853	650.18
1039.14	650.18
