Data from tablewood_brown_FLMS001491_043.txt Node
Date: Tue Feb 07 11:10:30 GMT 2017
User: dcchb
Spectrometer: FLMS00149
Trigger mode: 0
Integration Time (sec): 2.000000E-2
Scans to average: 10
Electric dark correction enabled: true
Nonlinearity correction enabled: false
Boxcar width: 0
XAxis mode: Wavelengths
Number of Pixels in Spectrum: 2048
>>>>>Begin Spectral Data<<<<<
341.393	1.55
341.776	1.55
342.16	1.55
342.543	-64.43
342.927	-64.89
343.31	-79.8
343.693	-70.53
344.077	-54.49
344.46	-55.62
344.843	-48.16
345.226	-50.42
345.61	-48.39
345.993	-28.5
346.376	5.62
346.759	15.11
347.142	35
347.525	30.93
347.908	69.12
348.291	79.52
348.674	85.62
349.057	115
349.44	103.92
349.823	135.34
350.206	178.72
350.588	186.86
350.971	216.92
351.354	212.4
351.737	222.79
352.119	245.62
352.502	255.78
352.884	269.12
353.267	276.35
353.65	303.24
354.032	313.18
354.414	317.48
354.797	294.2
355.179	321.55
355.562	328.32
355.944	329
356.326	352.28
356.709	349.57
357.091	332.62
357.473	322
357.855	338.95
358.238	345.73
358.62	348.89
359.002	342.79
359.384	338.27
359.766	326.97
360.148	342.79
360.53	332.39
360.912	336.23
361.294	351.37
361.676	339.85
362.057	350.7
362.439	330.58
362.821	339.85
363.203	326.74
363.584	344.6
363.966	319.51
364.348	302.34
364.729	319.06
365.111	324.48
365.493	313.18
365.874	314.99
366.256	306.18
366.637	334.43
367.019	303.01
367.4	303.92
367.781	318.83
368.163	306.63
368.544	330.81
368.925	313.18
369.306	328.78
369.688	315.9
370.069	336.46
370.45	323.58
370.831	342.56
371.212	335.78
371.593	330.81
371.974	318.16
372.355	312.28
372.736	332.62
373.117	317.93
373.498	351.15
373.879	316.8
374.26	342.11
374.641	326.52
375.021	310.92
375.402	307.99
375.783	329
376.163	353.18
376.544	335.78
376.925	341.43
377.305	348.21
377.686	344.82
378.066	344.82
378.447	335.1
378.827	338.72
379.208	330.36
379.588	351.37
379.968	335.78
380.349	362
380.729	363.35
381.109	351.6
381.489	356.8
381.87	352.96
382.25	362
382.63	349.57
383.01	381.66
383.39	377.36
383.77	377.59
384.15	383.46
384.53	368.1
384.91	359.96
385.29	376.23
385.67	354.76
386.049	371.04
386.429	384.37
386.809	362.9
387.189	392.05
387.568	394.09
387.948	392.73
388.328	401.54
388.707	377.36
389.087	397.02
389.466	415.78
389.846	416.46
390.225	400.41
390.605	434.31
390.984	419.4
391.363	399.28
391.743	426.63
392.122	420.3
392.501	425.72
392.881	430.47
393.26	418.94
393.639	437.93
394.018	421.88
394.397	455.33
394.776	432.05
395.155	453.75
395.534	444.48
395.913	449.45
396.292	438.83
396.671	450.58
397.05	437.93
397.429	466.63
397.808	433.63
398.186	458.94
398.565	447.64
398.944	465.5
399.323	470.69
399.701	476.12
400.08	472.73
400.458	481.32
400.837	481.54
401.215	478.83
401.594	504.82
401.972	472.73
402.351	487.64
402.729	507.76
403.107	507.98
403.486	501.88
403.864	529.68
404.242	532.16
404.62	499.85
404.999	533.07
405.377	521.31
405.755	535.78
406.133	519.96
406.511	541.65
406.889	551.37
407.267	562.89
407.645	538.26
408.023	552.73
408.401	570.35
408.779	576.91
409.156	586.62
409.534	544.36
409.912	582.56
410.29	603.57
410.667	578.71
411.045	610.35
411.422	591.14
411.8	621.2
412.178	607.64
412.555	631.59
412.933	628.88
413.31	633.85
413.687	652.61
414.065	631.59
414.442	638.15
414.819	631.82
415.197	669.56
415.574	655.77
415.951	658.71
416.328	701.42
416.705	686.28
417.082	687.64
417.46	685.15
417.837	670.46
418.214	703.91
418.591	693.06
418.967	690.12
419.344	696.22
419.721	717.47
420.098	720.86
420.475	688.32
420.852	710.69
421.228	739.39
421.605	716.79
421.982	732.83
422.358	740.74
422.735	759.05
423.111	738.94
423.488	745.26
423.864	751.59
424.241	756.79
424.617	775.32
424.994	787.52
425.37	793.17
425.746	780.97
426.123	790.91
426.499	769.22
426.875	795.21
427.251	800.63
427.627	817.13
428.003	845.6
428.379	839.72
428.756	853.96
429.132	841.08
429.507	853.73
429.883	882.66
430.259	903.45
430.635	898.93
431.011	900.97
431.387	935.31
431.763	929.66
432.138	930.34
432.514	937.12
432.89	942.55
433.265	944.35
433.641	983.22
434.016	987.74
434.392	994.52
434.767	1011.47
435.143	994.52
435.518	1023
435.894	984.8
436.269	1027.97
436.644	1061.86
437.02	1042.43
437.395	1049.44
437.77	1088.76
438.145	1100.73
438.52	1095.54
438.895	1086.04
439.271	1126.5
439.646	1109.32
440.021	1135.31
440.395	1152.03
440.77	1137.57
441.145	1153.16
441.52	1183.67
441.895	1169.66
442.27	1168.75
442.645	1194.97
443.019	1176.66
443.394	1202.2
443.769	1198.58
444.143	1200.39
444.518	1227.51
444.892	1208.53
445.267	1228.64
445.641	1264.8
446.016	1226.38
446.39	1244.68
446.764	1279.49
447.139	1284.46
447.513	1278.58
447.887	1298.24
448.262	1293.5
448.636	1298.24
449.01	1292.82
449.384	1345.7
449.758	1354.96
450.132	1335.98
450.506	1326.72
450.88	1338.24
451.254	1367.39
451.628	1369.88
452.002	1379.37
452.376	1387.28
452.75	1381.18
453.123	1419.6
453.497	1427.05
453.871	1414.85
454.244	1455.53
454.618	1483.1
454.992	1485.36
455.365	1494.4
455.739	1510.44
456.112	1527.39
456.486	1541.63
456.859	1531.91
457.232	1591.79
457.606	1582.98
457.979	1620.49
458.352	1626.37
458.725	1639.25
459.099	1642.87
459.472	1711.34
459.845	1689.19
460.218	1712.02
460.591	1716.54
460.964	1757.21
461.337	1780.26
461.71	1782.52
462.083	1823.88
462.456	1843.31
462.829	1846.25
463.201	1865.23
463.574	1905.46
463.947	1905.68
464.32	1932.12
464.692	1963.08
465.065	2022.74
465.438	2012.35
465.81	2065.23
466.183	2069.52
466.555	2092.35
466.928	2122.18
467.3	2141.16
467.672	2164.89
468.045	2237.43
468.417	2232.23
468.789	2252.79
469.161	2289.86
469.534	2317.2
469.906	2365.56
470.278	2388.84
470.65	2366.69
471.022	2457.31
471.394	2529.4
471.766	2536.63
472.138	2544.76
472.51	2634.48
472.882	2689.84
473.253	2728.94
473.625	2737.3
473.997	2814.81
474.369	2821.82
474.74	2895.71
475.112	2944.08
475.484	2984.98
475.855	3068.59
476.227	3098.65
476.598	3176.16
476.97	3218.19
477.341	3306.55
477.713	3361.69
478.084	3384.52
478.455	3511.74
478.827	3567.56
479.198	3621.12
479.569	3626.09
479.94	3777.05
480.311	3800.78
480.682	3919.19
481.053	4022.92
481.424	4068.79
481.795	4122.58
482.166	4194.89
482.537	4282.57
482.908	4337.26
483.279	4438.27
483.65	4525.95
484.021	4625.61
484.391	4638.95
484.762	4707.64
485.133	4727.53
485.503	4857.25
485.874	4959.62
486.244	4989.22
486.615	5073.74
486.985	5224.47
487.356	5269.66
487.726	5291.58
488.097	5413.84
488.467	5454.97
488.837	5562.99
489.207	5671.69
489.578	5739.48
489.948	5787.84
490.318	5813.38
490.688	5909.42
491.058	6032.36
491.428	6082.3
491.798	6138.34
492.168	6280.94
492.538	6302.63
492.908	6369.97
493.278	6433.93
493.648	6486.13
494.017	6569.97
494.387	6637.99
494.757	6677.31
495.126	6821.94
495.496	6814.48
495.866	6870.75
496.235	6947.59
496.605	6971.99
496.974	7002.5
497.344	7137.64
497.713	7162.95
498.082	7247.46
498.452	7290.85
498.821	7356.61
499.19	7374.24
499.559	7453.34
499.928	7513.67
500.298	7511.19
500.667	7604.07
501.036	7611.3
501.405	7764.97
501.774	7724.51
502.143	7816.49
502.512	7873.89
502.88	7995.24
503.249	7948.46
503.618	7999.99
503.987	8068.46
504.356	8156.14
504.724	8162.69
505.093	8257.16
505.462	8294.67
505.83	8375.12
506.199	8447.21
506.567	8533.08
506.936	8535.57
507.304	8624.15
507.672	8729.91
508.041	8762.91
508.409	8837.25
508.777	8901.66
509.145	8953.86
509.514	9032.73
509.882	9066.63
510.25	9114.31
510.618	9246.73
510.986	9263.46
511.354	9337.58
511.722	9423.9
512.09	9513.39
512.458	9542.55
512.826	9603.34
513.193	9680.4
513.561	9761.3
513.929	9812.6
514.297	9963.78
514.664	10014.4
515.032	10085.58
515.4	10110.67
515.767	10212.81
516.135	10288.06
516.502	10320.38
516.869	10495.51
517.237	10521.05
517.604	10563.54
517.972	10618.45
518.339	10754.04
518.706	10793.59
519.073	10853.7
519.44	10970.98
519.808	11023.41
520.175	11080.36
520.542	11313.35
520.909	11304.08
521.276	11324.19
521.643	11508.82
522.009	11589.72
522.376	11648.93
522.743	11712.21
523.11	11905.65
523.477	11991.07
523.843	12064.29
524.21	12174.57
524.577	12327.78
524.943	12322.59
525.31	12412.07
525.676	12582.69
526.043	12654.55
526.409	12765.96
526.776	12848.45
527.142	12925.51
527.508	13044.15
527.874	13148.33
528.241	13236.46
528.607	13229.23
528.973	13398.04
529.339	13381.54
529.705	13566.85
530.071	13648.43
530.437	13708.76
530.803	13856.78
531.169	13944.01
531.535	13939.94
531.901	13993.73
532.267	14082.31
532.632	14230.11
532.998	14276.43
533.364	14382.19
533.73	14411.8
534.095	14440.04
534.461	14588.97
534.826	14662.19
535.192	14655.63
535.557	14778.11
535.923	14825.12
536.288	14838.45
536.653	14891.56
537.019	14946.7
537.384	15138.56
537.749	15105.56
538.114	15216.75
538.479	15181.95
538.845	15363.41
539.21	15305.78
539.575	15436.63
539.94	15391.21
540.305	15598.21
540.67	15543.07
541.034	15616.51
541.399	15744.87
541.764	15749.16
542.129	15827.8
542.494	15834.81
542.858	15965.2
543.223	15908.25
543.587	16039.55
543.952	16050.85
544.316	16078.87
544.681	16105.31
545.045	16145.99
545.41	16308.7
545.774	16342.82
546.138	16397.96
546.503	16449.71
546.867	16516.37
547.231	16609.7
547.595	16610.83
547.959	16706.2
548.324	16746.65
548.688	16795.69
549.052	16820.09
549.416	16932.18
549.779	17056.7
550.143	17183.47
550.507	17199.52
550.871	17331.04
551.235	17424.15
551.599	17648.77
551.962	17616.46
552.326	17630.92
552.689	17933.29
553.053	17756.12
553.417	17862.33
553.78	18128.08
554.143	18073.85
554.507	18254.86
554.87	18252.6
555.234	18467.06
555.597	18467.51
555.96	18686.94
556.323	18768.29
556.686	18730.33
557.05	19028.62
557.413	19008.51
557.776	19148.17
558.139	19326.02
558.502	19325.34
558.865	19396.98
559.228	19670.64
559.59	19678.55
559.953	19861.37
560.316	20082.38
560.679	20136.62
561.041	20251.19
561.404	20346.56
561.767	20550.84
562.129	20560.34
562.492	20777.5
562.854	20883.26
563.217	20996.48
563.579	21162.58
563.941	21372.97
564.304	21571.16
564.666	21685.05
565.028	21807.76
565.39	21962.11
565.753	22156
566.115	22214.98
566.477	22480.28
566.839	22559.15
567.201	22812.25
567.563	22917.11
567.925	23036.88
568.287	23118.01
568.648	23243.43
569.01	23481.61
569.372	23719.8
569.734	23715.73
570.095	23984.43
570.457	24258.09
570.819	24367.47
571.18	24361.82
571.542	24607.23
571.903	24721.36
572.265	24922.03
572.626	25036.15
572.987	25118.41
573.349	25301.45
573.71	25521.11
574.071	25705.06
574.432	25726.07
574.794	26138.95
575.155	26074.54
575.516	26140.08
575.877	26502.78
576.238	26439.73
576.599	26687.63
576.96	26768.53
577.32	26820.28
577.681	27117.9
578.042	27193.61
578.403	27204.23
578.763	27381.4
579.124	27446.48
579.485	27552.92
579.845	27826.58
580.206	27759.02
580.566	27810.31
580.927	28017.54
581.287	28140.93
581.648	28156.52
582.008	28445.78
582.368	28384.99
582.728	28474.25
583.089	28604.19
583.449	28666.79
583.809	28722.83
584.169	28825.43
584.529	28730.74
584.889	29103.39
585.249	28867.91
585.609	28900.91
585.969	29130.28
586.329	29009.15
586.688	29161.69
587.048	29203.95
587.408	29221.12
587.768	29271.07
588.127	29241.91
588.487	29305.64
588.846	29481.46
589.206	29347.9
589.565	29418.41
589.925	29652.75
590.284	29664.73
590.643	29526.88
591.003	29641
591.362	29754.44
591.721	29738.4
592.08	29660.89
592.44	29780.66
592.799	29847.77
593.158	29798.06
593.517	29738.62
593.876	29807.78
594.235	29845.74
594.593	29892.97
594.952	29966.19
595.311	29920.99
595.67	29949.92
596.029	30132.51
596.387	30170.93
596.746	30144.94
597.104	30265.16
597.463	30074.89
597.822	30215.22
598.18	30100.88
598.538	30076.47
598.897	30297.93
599.255	30057.71
599.613	30552.84
599.972	30331.83
600.33	30443.01
600.688	30325.05
601.046	30484.82
601.404	30633.74
601.762	30403.92
602.12	30632.16
602.478	30675.55
602.836	30658.37
603.194	30562.11
603.552	30570.02
603.91	30487.76
604.268	30693.85
604.625	30580.64
604.983	30690.01
605.341	30601.43
605.698	30831.48
606.056	30671.48
606.413	30769.56
606.771	30906.28
607.128	30887.07
607.485	30757.13
607.843	30806.85
608.2	31015.88
608.557	31136.78
608.914	31052.04
609.272	31196.89
609.629	31154.18
609.986	31313.05
610.343	31117.57
610.7	31390.78
611.057	31412.48
611.414	31254.52
611.771	31357.11
612.127	31421.29
612.484	31538.35
612.841	31595.3
613.198	31320.96
613.554	31472.14
613.911	31816.99
614.267	31607.73
614.624	31780.15
614.98	31682.75
615.337	31731.79
615.693	31848.63
616.05	31718.46
616.406	31874.84
616.762	31819.02
617.118	31822.64
617.475	31897.66
617.831	31985.35
618.187	31937.89
618.543	31977.21
618.899	32191.67
619.255	32050.65
619.611	32093.37
619.967	32252.01
620.323	32373.36
620.678	32120.71
621.034	31930.88
621.39	31967.72
621.746	31940.6
622.101	32459.91
622.457	32073.93
622.812	32166.36
623.168	32248.39
623.523	32222.18
623.879	32407.26
624.234	32221.72
624.589	32281.38
624.945	32305.79
625.3	32294.04
625.655	32386.46
626.01	32354.83
626.365	32295.17
626.72	32268.73
627.075	32329.29
627.43	32302.4
627.785	32343.75
628.14	32326.81
628.495	32301.27
628.85	32308.5
629.205	32236.64
629.559	32329.29
629.914	32228.05
630.269	32189.86
630.623	32210.88
630.978	32238.67
631.332	32139.24
631.687	32286.58
632.041	31986.02
632.396	31988.74
632.75	31993.93
633.104	31950.32
633.459	31858.34
633.813	31886.36
634.167	31927.95
634.521	32021.95
634.875	31920.71
635.229	31897.44
635.583	31807.95
635.937	31699.7
636.291	31697.44
636.645	31642.53
636.999	31472.82
637.352	31690.44
637.706	31489.77
638.06	31679.82
638.413	31517.79
638.767	31449.77
639.121	31482.99
639.474	31290.67
639.828	31313.95
640.181	31318.02
640.534	31349.88
640.888	31295.42
641.241	31145.59
641.594	31259.26
641.947	31198.47
642.301	31246.61
642.654	31196.44
643.007	31131.58
643.36	31211.13
643.713	31076.67
644.066	31093.17
644.419	31010.23
644.771	30875.54
645.124	30426.97
645.477	30383.35
645.83	30255.9
646.182	30162.34
646.535	30064.49
646.888	30190.59
647.24	29973.19
647.593	30276.01
647.945	29979.3
648.298	30100.88
648.65	30030.82
649.002	29843.93
649.355	30068.11
649.707	30026.07
650.059	30114.21
650.411	30487.76
650.763	30522.56
651.115	30764.59
651.467	30650.92
651.819	30646.85
652.171	30606.85
652.523	30561.43
652.875	30478.27
653.227	30509.45
653.578	30671.71
653.93	30561.65
654.282	30481.2
654.633	30498.83
654.985	30478.49
655.337	30446.63
655.688	30532.73
656.039	30556.68
656.391	30372.28
656.742	30352.39
657.094	30384.94
657.445	30563.91
657.796	30428.55
658.147	30399.4
658.498	30511.03
658.849	30491.37
659.2	30416.35
659.551	30330.47
659.902	30418.61
660.253	30378.38
660.604	30429.91
660.955	30324.82
661.306	30490.47
661.656	30376.8
662.007	30357.37
662.358	30325.28
662.708	30285.73
663.059	30418.38
663.409	30339.96
663.76	30415.44
664.11	30380.42
664.461	30328.67
664.811	30441.66
665.161	30430.81
665.511	30331.15
665.862	30316.46
666.212	30401.43
666.562	30415.9
666.912	30388.55
667.262	30383.13
667.612	30274.88
667.962	30367.08
668.312	30406.4
668.662	30579.28
669.011	30304.71
669.361	30196.01
669.711	30304.71
670.06	30230.36
670.41	30158.05
670.76	30130.7
671.109	30121.89
671.459	30194.43
671.808	30058.84
672.157	30037.6
672.507	29985.62
672.856	29945.63
673.205	30066.75
673.554	30117.15
673.904	29930.03
674.253	30192.4
674.602	30005.28
674.951	29654.11
675.3	29450.5
675.649	29934.33
675.998	29855.23
676.346	29850.26
676.695	29938.17
677.044	29712.41
677.393	29888.23
677.741	29798.28
678.09	29761.45
678.438	29683.26
678.787	29751.05
679.135	29680.77
679.484	29519.65
679.832	29729.59
680.181	29488.91
680.529	29503.6
680.877	29386.54
681.225	29347
681.573	29532.08
681.922	29347
682.27	29242.37
682.618	29131.64
682.966	29132.99
683.314	29231.75
683.661	29158.08
684.009	29035.37
684.357	28954.01
684.705	28849.38
685.053	29009.38
685.4	28952.66
685.748	28751.53
686.095	28594.25
686.443	28590.63
686.79	28630.41
687.138	28553.35
687.485	28568.03
687.832	28601.93
688.18	28437.42
688.527	28329.17
688.874	28141.15
689.221	28220.25
689.568	28064.54
689.915	28032.91
690.262	27911.1
690.609	27904.1
690.956	27802.86
691.303	27809.64
691.65	27589.75
691.997	27515.86
692.344	27349.76
692.69	27390.21
693.037	27412.13
693.383	27163.33
693.73	27307.05
694.077	27140.5
694.423	27012.14
694.769	26992.93
695.116	26871.13
695.462	26834.07
695.808	26750.68
696.155	26765.6
696.501	26514.3
696.847	26595.2
697.193	26369.67
697.539	26357.47
697.885	26173.29
698.231	26176.46
698.577	26028.21
698.923	26164.48
699.269	25918.16
699.614	25848.33
699.96	25727.43
700.306	25659.18
700.651	25491.96
700.997	25648.79
701.342	25459.19
701.688	25423.94
702.033	25398.4
702.379	25373.77
702.724	25285.63
703.069	25276.14
703.415	24962.48
703.76	25050.39
704.105	24892.2
704.45	24853.56
704.795	24727.91
705.14	24533.11
705.485	24556.84
705.83	24449.27
706.175	24526.56
706.52	24530.63
706.865	24352.1
707.209	24286.34
707.554	24209.05
707.899	24228.49
708.243	24108.04
708.588	24027.36
708.932	23847.25
709.277	23851.77
709.621	23916.18
709.966	23670.31
710.31	23842.51
710.654	23614.94
710.998	23592.12
711.342	23587.83
711.687	23566.13
712.031	23401.84
712.375	23322.52
712.719	23490.65
713.063	23269.64
713.407	23439.13
713.75	23240.72
714.094	23232.81
714.438	23102.64
714.782	23112.81
715.125	23036.43
715.469	23096.54
715.812	22983.55
716.156	22925.02
716.499	22854.74
716.843	22902.42
717.186	22792.59
717.53	22886.83
717.873	22758.92
718.216	22760.28
718.559	22637.12
718.902	22463.79
719.246	22665.59
719.589	22630.34
719.932	22439.16
720.275	22500.62
720.617	22563.22
720.96	22368.2
721.303	22425.14
721.646	22358.48
721.989	22278.48
722.331	22348.76
722.674	22303.34
723.016	22324.58
723.359	22287.3
723.701	22285.71
724.044	22265.15
724.386	22095.44
724.729	22259.73
725.071	22235.32
725.413	22293.4
725.755	22220.18
726.097	22141.99
726.439	22114.64
726.782	22076.91
727.124	22202.33
727.465	22033.97
727.807	22108.77
728.149	21909.23
728.491	21885.05
728.833	22077.58
729.175	21948.77
729.516	21934.54
729.858	21881.88
730.199	21919.4
730.541	21886.85
730.882	21877.81
731.224	21918.94
731.565	21663.36
731.906	21780.87
732.248	21881.66
732.589	21814.54
732.93	21697.48
733.271	21743.81
733.612	21840.08
733.953	21840.98
734.294	21732.28
734.635	21690.02
734.976	21733.41
735.317	21623.58
735.658	21701.77
735.999	21722.11
736.339	21755.33
736.68	21765.5
737.021	21734.77
737.361	21707.88
737.702	21766.18
738.042	21759.63
738.383	21613.87
738.723	21703.81
739.063	21659.74
739.404	21613.19
739.744	21618.61
740.084	21643.92
740.424	21642.11
740.764	21502.68
741.104	21711.27
741.444	21655.67
741.784	21597.82
742.124	21663.13
742.464	21536.13
742.804	21581.1
743.143	21490.93
743.483	21637.37
743.823	21515.11
744.162	21536.58
744.502	21482.8
744.841	21536.58
745.181	21544.94
745.52	21456.58
745.86	21542.46
746.199	21598.95
746.538	21475.11
746.877	21560.76
747.216	21521.89
747.556	21377.94
747.895	21539.29
748.234	21483.93
748.573	21466.98
748.911	21520.76
749.25	21523.25
749.589	21449.58
749.928	21436.47
750.267	21458.39
750.605	21379.3
750.944	21374.32
751.283	21348.11
751.621	21277.15
751.96	21270.37
752.298	21294.55
752.636	21400.31
752.975	21249.13
753.313	21212.52
753.651	21199.19
753.989	21134.33
754.327	21176.59
754.666	21099.3
755.004	21116.25
755.342	21126.42
755.679	21057.95
756.017	20966.2
756.355	21054.33
756.693	20978.4
757.031	20953.32
757.368	20848.92
757.706	20820.44
758.044	20757.17
758.381	20868.35
758.719	20593.33
759.056	20777.28
759.394	20691.86
759.731	20556.49
760.068	20504.07
760.405	20507.91
760.743	20349.49
761.08	20530.96
761.417	20316.73
761.754	20318.31
762.091	20229.95
762.428	20177.07
762.765	20051.42
763.102	20130.29
763.438	20110.63
763.775	19981.59
764.112	19977.3
764.449	20038.09
764.785	19923.29
765.122	19778.21
765.458	19763.07
765.795	19702.05
766.131	19713.13
766.467	19629.96
766.804	19544.99
767.14	19437.43
767.476	19445.56
767.812	19340.48
768.148	19316.98
768.485	19229.52
768.821	19208.96
769.157	19169.19
769.492	19098.68
769.828	18993.82
770.164	18921.73
770.5	18852.13
770.836	18919.7
771.171	18744.11
771.507	18670.89
771.842	18541.63
772.178	18497.56
772.513	18548.86
772.849	18426.83
773.184	18403.78
773.519	18432.48
773.855	18337.79
774.19	18255.99
774.525	18125.14
774.86	18141.42
775.195	18090.12
775.53	18067.52
775.865	17881.99
776.2	17816
776.535	17699.39
776.87	17785.04
777.205	17633.86
777.539	17546.86
777.874	17530.13
778.209	17455.78
778.543	17368.55
778.878	17341.44
779.212	17260.76
779.547	17270.7
779.881	17239.29
780.215	17080.65
780.55	17030.71
780.884	16928.11
781.218	16970.82
781.552	16959.07
781.886	16795.01
782.22	16698.52
782.554	16701
782.888	16444.06
783.222	16461.91
783.556	16490.16
783.889	16398.86
784.223	16311.63
784.557	16194.8
784.89	16272.76
785.224	16152.32
785.557	16138.3
785.891	16047.23
786.224	16046.33
786.558	16008.36
786.891	15831.19
787.224	15890.63
787.557	15784.64
787.891	15718.43
788.224	15768.82
788.557	15631.2
788.89	15673.91
789.223	15675.27
789.556	15482.28
789.888	15451.32
790.221	15410.87
790.554	15255.39
790.887	15216.52
791.219	15261.49
791.552	15210.19
791.884	15053.81
792.217	15050.88
792.549	15023.53
792.882	14885
793.214	14804.55
793.546	14924.55
793.879	14827.83
794.211	14750.77
794.543	14756.42
794.875	14698.79
795.207	14714.39
795.539	14631.23
795.871	14609.98
796.203	14541.28
796.535	14360.72
796.867	14410.67
797.198	14431.46
797.53	14302.42
797.862	14212.03
798.193	14249.31
798.525	14171.58
798.856	14135.19
799.188	14029.43
799.519	13961.19
799.85	13944.46
800.182	13943.79
800.513	13899.27
800.844	13815.65
801.175	13828.99
801.506	13822.43
801.837	13758.25
802.168	13800.96
802.499	13702.44
802.83	13685.49
803.161	13578.6
803.491	13558.49
803.822	13487.75
804.153	13480.75
804.483	13349.23
804.814	13337.93
805.145	13330.02
805.475	13341.09
805.805	13255.44
806.136	13244.37
806.466	13241.88
806.796	13219.29
807.126	13106.07
807.457	13047.09
807.787	13003.02
808.117	12965.51
808.447	12999.4
808.777	13007.54
809.107	12970.03
809.436	12817.71
809.766	12844.61
810.096	12874.66
810.426	12800.09
810.755	12758.73
811.085	12729.81
811.414	12692.29
811.744	12549.25
812.073	12575.69
812.403	12597.38
812.732	12551.51
813.061	12459.08
813.39	12380.89
813.719	12420.21
814.049	12467.44
814.378	12415.01
814.707	12343.6
815.036	12323.49
815.365	12296.6
815.693	12179.31
816.022	12149.71
816.351	12105.87
816.68	12093.67
817.008	12136.83
817.337	12057.06
817.665	11996.94
817.994	12116.26
818.322	12041.01
818.651	11952.43
818.979	11906.78
819.307	11982.48
819.636	11911.97
819.964	11789.94
820.292	11893.44
820.62	11880.79
820.948	11842.15
821.276	11837.17
821.604	11828.14
821.932	11834.91
822.259	11834.46
822.587	11700.91
822.915	11790.62
823.243	11859.32
823.57	11729.83
823.898	11740.91
824.225	11725.09
824.553	11756.05
824.88	11783.62
825.207	11816.84
825.535	11726.44
825.862	11904.07
826.189	11731.87
826.516	11821.36
826.843	11864.74
827.17	11862.94
827.497	11855.48
827.824	11774.13
828.151	11810.51
828.478	11757.18
828.805	11755.82
829.131	11672.89
829.458	11683.28
829.785	11743.62
830.111	11689.16
830.438	11792.2
830.764	11734.35
831.09	11711.3
831.417	11662.04
831.743	11736.61
832.069	11687.12
832.395	11700.46
832.722	11701.13
833.048	11711.08
833.374	11683.73
833.7	11637.18
834.026	11553.57
834.351	11774.58
834.677	11582.27
835.003	11567.8
835.329	11563.06
835.654	11533
835.98	11525.32
836.306	11518.54
836.631	11458.88
836.956	11605.09
837.282	11531.87
837.607	11446.9
837.932	11391.54
838.258	11408.49
838.583	11463.63
838.908	11358.32
839.233	11343.63
839.558	11407.58
839.883	11344.98
840.208	11366.9
840.533	11314.48
840.858	11311.54
841.182	11325.55
841.507	11293.69
841.832	11212.11
842.156	11203.97
842.481	11245.78
842.805	11183.86
843.13	11173.01
843.454	11148.83
843.778	11077.65
844.103	11020.92
844.427	11027.7
844.751	11024.09
845.075	10966.69
845.399	10995.39
845.723	10872.45
846.047	10926.92
846.371	10777.77
846.695	10819.57
847.019	10724.44
847.343	10737.99
847.666	10678.56
847.99	10613.48
848.313	10615.06
848.637	10465.69
848.96	10516.76
849.284	10475.18
849.607	10401.96
849.931	10402.18
850.254	10322.64
850.577	10294.62
850.9	10217.1
851.223	10179.82
851.546	10170.1
851.869	10085.81
852.192	10169.65
852.515	10066.37
852.838	10051.91
853.161	9997.45
853.483	9985.47
853.806	9878.13
854.129	9871.35
854.451	9809.43
854.774	9828.41
855.096	9762.2
855.419	9780.05
855.741	9709.09
856.063	9646.72
856.385	9593.62
856.708	9655.31
857.03	9614.41
857.352	9575.09
857.674	9519.95
857.996	9523.56
858.318	9433.85
858.64	9462.1
858.961	9419.16
859.283	9378.93
859.605	9385.26
859.926	9365.6
860.248	9275.21
860.57	9252.61
860.891	9342.32
861.212	9199.73
861.534	9304.81
861.855	9215.1
862.176	9252.38
862.498	9211.93
862.819	9210.13
863.14	9210.8
863.461	9172.39
863.782	9137.36
864.103	9170.13
864.424	9068.66
864.745	9100.98
865.065	9107.08
865.386	9029.56
865.707	9008.1
866.027	9105.72
866.348	9052.16
866.668	8999.51
866.989	8949.57
867.309	8917.93
867.63	8905.73
867.95	8892.17
868.27	8843.13
868.59	8911.15
868.91	8865.5
869.23	8858.72
869.55	8789.57
869.87	8828.21
870.19	8751.83
870.51	8729.46
870.83	8819.63
871.15	8777.59
871.469	8792.73
871.789	8795.45
872.109	8732.62
872.428	8744.37
872.748	8741.21
873.067	8696.69
873.386	8700.31
873.706	8656.92
874.025	8635.45
874.344	8624.83
874.663	8669.35
874.982	8601.78
875.301	8638.61
875.62	8530.82
875.939	8573.31
876.258	8620.99
876.577	8561.55
876.896	8469.58
877.214	8489.47
877.533	8502.8
877.852	8483.36
878.17	8496.02
878.489	8457.15
878.807	8447.89
879.125	8369.7
879.444	8440.43
879.762	8418.28
880.08	8399.52
880.398	8329.92
880.716	8366.98
881.034	8348.9
881.352	8301.22
881.67	8280.21
881.988	8276.14
882.306	8283.37
882.624	8258.06
882.941	8181.9
883.259	8186.42
883.577	8188.68
883.894	8188.91
884.212	8152.53
884.529	8099.65
884.846	8099.42
885.164	8072.75
885.481	8081.12
885.798	8034.34
886.115	8029.82
886.432	7995.69
886.75	7972.87
887.067	7969.03
887.383	7961.57
887.7	7931.74
888.017	7945.53
888.334	7927.22
888.651	7925.64
888.967	7907.56
889.284	7875.7
889.6	7861.01
889.917	7757.73
890.233	7778.07
890.55	7755.93
890.866	7770.84
891.182	7740.79
891.498	7698.3
891.815	7575.82
892.131	7608.13
892.447	7658.98
892.763	7591.18
893.079	7541.02
893.395	7576.72
893.71	7498.98
894.026	7523.62
894.342	7556.16
894.657	7446.56
894.973	7432.54
895.289	7431.64
895.604	7393.9
895.92	7353.9
896.235	7332.66
896.55	7358.42
896.865	7268.26
897.181	7283.85
897.496	7230.74
897.811	7275.26
898.126	7233
898.441	7245.2
898.756	7124.53
899.071	7168.82
899.386	7131.54
899.7	7127.92
900.015	7036.4
900.33	6999.56
900.644	6993.23
900.959	7006.57
901.273	6934.7
901.588	6968.38
901.902	6895.84
902.216	6821.71
902.531	6893.12
902.845	6891.99
903.159	6788.04
903.473	6748.49
903.787	6756.18
904.101	6690.87
904.415	6722.73
904.729	6688.38
905.042	6724.54
905.356	6637.99
905.67	6613.81
905.984	6610.87
906.297	6607.48
906.611	6533.81
906.924	6511.89
907.237	6561.61
907.551	6471.67
907.864	6458.56
908.177	6458.78
908.491	6444.55
908.804	6351.9
909.117	6397.54
909.43	6291.11
909.743	6291.11
910.056	6292.46
910.368	6294.95
910.681	6207.04
910.994	6139.47
911.307	6153.93
911.619	6139.02
911.932	6153.26
912.244	6124.33
912.557	6137.66
912.869	6104.44
913.181	6002.75
913.494	5999.36
913.806	6030.55
914.118	5950.32
914.43	5931.34
914.742	5913.04
915.054	5913.26
915.366	5881.4
915.678	5838.01
915.99	5821.51
916.302	5791.23
916.613	5792.14
916.925	5747.39
917.236	5704
917.548	5748.52
917.859	5698.13
918.171	5684.79
918.482	5577
918.794	5643.44
919.105	5588.3
919.416	5580.39
919.727	5587.17
920.038	5487.29
920.349	5503.56
920.66	5492.93
920.971	5438.92
921.282	5414.74
921.593	5377.91
921.903	5412.71
922.214	5356.89
922.525	5343.11
922.835	5290.23
923.146	5275.54
923.456	5273.73
923.767	5287.97
924.077	5225.6
924.387	5202.77
924.697	5177.24
925.008	5202.32
925.318	5131.36
925.628	5132.04
925.938	5101.08
926.248	5059.95
926.558	5007.52
926.867	5073.06
927.177	5018.14
927.487	5027.41
927.796	4962.1
928.106	4962.33
928.416	4953.74
928.725	4921.42
929.034	4946.73
929.344	4873.97
929.653	4873.06
929.962	4816.57
930.271	4800.52
930.581	4819.28
930.89	4767.53
931.199	4726.18
931.508	4703.58
931.817	4744.48
932.125	4755.55
932.434	4633.97
932.743	4628.55
933.051	4618.16
933.36	4646.4
933.669	4576.57
933.977	4588.55
934.286	4558.04
934.594	4593.07
934.902	4458.39
935.21	4505.16
935.519	4462.23
935.827	4515.33
936.135	4457.03
936.443	4382.23
936.751	4389.01
937.059	4381.55
937.367	4384.49
937.674	4363.92
937.982	4386.52
938.29	4270.59
938.597	4323.47
938.905	4238.05
939.213	4226.3
939.52	4209.8
939.827	4196.47
940.135	4202.57
940.442	4171.61
940.749	4195.79
941.056	4138.85
941.363	4115.8
941.67	4149.02
941.977	4107.89
942.284	4080.99
942.591	4062.69
942.898	4090.49
943.205	4052.29
943.511	4052.52
943.818	4036.02
944.125	3965.07
944.431	4048.9
944.738	3971.39
945.044	3939.76
945.35	3885.75
945.657	3917.83
945.963	3886.42
946.269	3869.93
946.575	3866.99
946.881	3859.08
947.187	3833.77
947.493	3794.9
947.799	3747.67
948.105	3779.99
948.41	3748.35
948.716	3748.8
949.022	3700.67
949.327	3715.58
949.633	3718.97
949.938	3658.86
950.244	3698.18
950.549	3629.48
950.854	3648.69
951.16	3649.14
951.465	3574.57
951.77	3563.72
952.075	3569.14
952.38	3548.13
952.685	3564.17
952.99	3532.08
953.294	3539.99
953.599	3501.57
953.904	3511.74
954.209	3463.61
954.513	3469.94
954.818	3462.03
955.122	3429.03
955.426	3412.54
955.731	3394.01
956.035	3407.57
956.339	3365.76
956.643	3376.83
956.948	3351.52
957.252	3295.25
957.556	3304.97
957.86	3327.57
958.163	3249.83
958.467	3295.25
958.771	3296.61
959.075	3232.2
959.378	3208.93
959.682	3234.24
959.985	3242.82
960.289	3198.76
960.592	3134.35
960.896	3145.65
961.199	3177.74
961.502	3127.57
961.805	3135.03
962.108	3075.15
962.411	3130.06
962.714	3021.59
963.017	3033.34
963.32	3069.72
963.623	3048.93
963.926	3043.96
964.228	2992.89
964.531	2989.27
964.833	3011.19
965.136	2961.93
965.438	2953.79
965.741	2960.8
966.043	2958.99
966.345	2939.1
966.648	2914.92
966.95	2900.46
967.252	2893
967.554	2907.01
967.856	2887.35
968.158	2869.95
968.46	2852.1
968.761	2840.58
969.063	2848.94
969.365	2802.61
969.666	2771.2
969.968	2777.07
970.269	2766.23
970.571	2738.66
970.872	2726.68
971.174	2696.4
971.475	2734.59
971.776	2721.48
972.077	2733.23
972.378	2707.47
972.679	2681.26
972.98	2699.34
973.281	2608.04
973.582	2641.94
973.883	2616.85
974.183	2615.27
974.484	2618.66
974.785	2608.26
975.085	2617.98
975.386	2607.59
975.686	2577.31
975.986	2571.88
976.287	2530.3
976.587	2530.98
976.887	2495.95
977.187	2511.09
977.487	2495.95
977.787	2519
978.087	2479
978.387	2487.82
978.687	2461.15
978.987	2460.92
979.286	2441.49
979.586	2452.34
979.885	2399.91
980.185	2391.77
980.484	2384.77
980.784	2385.9
981.083	2375.28
981.382	2401.72
981.682	2348.84
981.981	2370.76
982.28	2311.55
982.579	2347.03
982.878	2330.31
983.177	2340.02
983.475	2310.87
983.774	2279.46
984.073	2307.48
984.372	2244.88
984.67	2240.36
984.969	2221.83
985.267	2263.87
985.566	2227.71
985.864	2231.55
986.162	2209.86
986.461	2194.72
986.759	2175.73
987.057	2182.74
987.355	2167.6
987.653	2170.08
987.951	2173.25
988.249	2139.58
988.547	2139.12
988.844	2141.61
989.142	2115.17
989.44	2108.62
989.737	2079.01
990.035	2082.18
990.332	2072.91
990.63	2071.33
990.927	2083.53
991.224	2056.64
991.521	2057.54
991.819	2042.86
992.116	2033.82
992.413	2006.47
992.71	2003.76
993.006	1996.3
993.303	1940.94
993.6	1987.26
993.897	1984.1
994.193	1967.15
994.49	1982.29
994.787	1938.9
995.083	1885.8
995.379	1908.17
995.676	1927.6
995.972	1938.23
996.268	1879.47
996.565	1864.33
996.861	1845.8
997.157	1855.74
997.453	1881.05
997.749	1875.18
998.044	1843.31
998.34	1852.13
998.636	1835.18
998.932	1808.74
999.227	1782.3
999.523	1803.31
999.818	1802.86
1000.114	1791.79
1000.409	1781.17
1000.704	1775.74
1001	1771.68
1001.295	1730.1
1001.59	1734.16
1001.885	1754.5
1002.18	1707.05
1002.475	1699.36
1002.77	1691
1003.065	1650.1
1003.359	1681.96
1003.654	1686.48
1003.949	1660.04
1004.243	1664.56
1004.538	1653.94
1004.832	1633.38
1005.127	1625.47
1005.421	1619.59
1005.715	1617.78
1006.009	1609.65
1006.304	1593.6
1006.598	1577.78
1006.892	1569.65
1007.186	1587.73
1007.48	1574.85
1007.773	1567.39
1008.067	1532.59
1008.361	1542.98
1008.655	1524
1008.948	1526.26
1009.242	1514.73
1009.535	1496.88
1009.829	1494.4
1010.122	1504.11
1010.415	1503.66
1010.708	1502.08
1011.001	1462.08
1011.295	1444.91
1011.588	1476.77
1011.881	1445.36
1012.173	1442.87
1012.466	1434.96
1012.759	1421.18
1013.052	1423.44
1013.344	1426.15
1013.637	1411.91
1013.93	1396.32
1014.222	1392.93
1014.514	1391.12
1014.807	1363.33
1015.099	1345.47
1015.391	1341.86
1015.683	1353.83
1015.976	1326.49
1016.268	1324.46
1016.56	1318.13
1016.851	1327.85
1017.143	1313.84
1017.435	1303.44
1017.727	1302.99
1018.018	1284.01
1018.31	1280.84
1018.602	1267.96
1018.893	1239.49
1019.185	1252.59
1019.476	1225.7
1019.767	1238.13
1020.058	1250.33
1020.35	1240.62
1020.641	1184.35
1020.932	1216.66
1021.223	1216.66
1021.514	1175.99
1021.804	1171.47
1022.095	1200.39
1022.386	1172.82
1022.677	1157.23
1022.967	1161.98
1023.258	1147.96
1023.548	1121.98
1023.839	1144.57
1024.129	1142.99
1024.419	1120.85
1024.709	1093.28
1025	1100.28
1025.29	1105.71
1025.58	1080.85
1025.87	1094.86
1026.16	1105.03
1026.449	1076.55
1026.739	1083.33
1027.029	1020.96
1027.319	1059.6
1027.608	1046.72
1027.898	1022.54
1028.187	1042.2
1028.477	1029.55
1028.766	1042.2
1029.055	1006.27
1029.344	1024.13
1029.634	1014.18
1029.923	1003.34
1030.212	1018.02
1030.501	979.38
1030.79	1005.82
1031.078	986.84
1031.367	977.35
1031.656	963.34
1031.945	979.16
1032.233	935.54
1032.522	933.96
1032.81	933.51
1033.099	932.6
1033.387	912.49
1033.675	930.79
1033.963	941.87
1034.251	933.51
1034.54	904.13
1034.828	888.08
1035.116	900.97
1035.403	870.23
1035.691	871.36
1035.979	878.14
1036.267	874.75
1036.554	881.53
1036.842	886.28
1037.129	858.93
1037.417	879.04
1037.704	859.84
1037.992	840.63
1038.279	846.96
1038.566	837.24
1038.853	837.24
1039.14	837.24
