Data from tablewood_dark_bookshelf_FLMS001491_00051.txt Node
Date: Wed Feb 08 14:15:03 GMT 2017
User: dcchb
Spectrometer: FLMS00149
Trigger mode: 0
Integration Time (sec): 2.000000E-2
Scans to average: 10
Electric dark correction enabled: true
Nonlinearity correction enabled: false
Boxcar width: 0
XAxis mode: Wavelengths
Number of Pixels in Spectrum: 2048
>>>>>Begin Spectral Data<<<<<
341.393	-8.94
341.776	-8.94
342.16	-8.94
342.543	-54.36
342.927	-57.75
343.31	-64.53
343.693	-81.03
344.077	-70.41
344.46	-34.25
344.843	-58.2
345.226	-35.61
345.61	-34.93
345.993	-23.63
346.376	-3.52
346.759	-3.52
347.142	11.17
347.525	45.97
347.908	76.71
348.291	83.26
348.674	85.29
349.057	107.21
349.44	122.13
349.823	147.44
350.206	172.07
350.588	163.71
350.971	202.81
351.354	211.62
351.737	213.65
352.119	271.73
352.502	251.84
352.884	255.01
353.267	265.63
353.65	282.58
354.032	305.4
354.414	296.36
354.797	312.41
355.179	282.35
355.562	309.24
355.944	309.02
356.326	339.75
356.709	309.92
357.091	321.9
357.473	332.07
357.855	349.92
358.238	333.42
358.62	329.81
359.002	346.76
359.384	347.43
359.766	328.9
360.148	327.55
360.53	323.93
360.912	329.58
361.294	355.12
361.676	326.64
362.057	325.06
362.439	336.14
362.821	315.12
363.203	319.19
363.584	339.07
363.966	300.43
364.348	328
364.729	329.58
365.111	310.83
365.493	326.19
365.874	325.97
366.256	302.24
366.637	319.41
367.019	307.89
367.4	322.35
367.781	314.21
368.163	318.28
368.544	310.37
368.925	282.13
369.306	323.03
369.688	319.19
370.069	336.36
370.45	309.7
370.831	315.12
371.212	322.58
371.593	311.96
371.974	322.12
372.355	333.42
372.736	307.66
373.117	310.15
373.498	330.03
373.879	322.35
374.26	306.53
374.641	315.12
375.021	322.8
375.402	313.31
375.783	321.22
376.163	335.23
376.544	324.16
376.925	334.33
377.305	333.65
377.686	339.75
378.066	325.74
378.447	341.78
378.827	323.93
379.208	349.47
379.588	343.82
379.968	349.02
380.349	350.15
380.729	320.09
381.109	346.98
381.489	345.17
381.87	354.67
382.25	352.41
382.63	326.87
383.01	360.77
383.39	353.54
383.77	368
384.15	373.65
384.53	368.22
384.91	368
385.29	347.66
385.67	370.94
386.049	387.66
386.429	369.35
386.809	369.81
387.189	360.77
387.568	377.72
387.948	394.44
388.328	370.48
388.707	370.03
389.087	359.19
389.466	385.4
389.846	387.89
390.225	382.69
390.605	401.9
390.984	387.21
391.363	397.6
391.743	402.57
392.122	388.34
392.501	410.26
392.881	411.16
393.26	414.55
393.639	417.04
394.018	442.12
394.397	400.31
394.776	404.16
395.155	432.86
395.534	413.87
395.913	407.55
396.292	431.05
396.671	433.76
397.05	435.34
397.429	436.25
397.808	423.14
398.186	433.76
398.565	443.48
398.944	447.32
399.323	442.8
399.701	448.9
400.08	430.6
400.458	446.87
400.837	452.97
401.215	476.47
401.594	452.06
401.972	452.06
402.351	442.35
402.729	450.93
403.107	477.6
403.486	492.06
403.864	485.96
404.242	490.26
404.62	476.47
404.999	483.25
405.377	483.93
405.755	478.96
406.133	489.35
406.511	495.68
406.889	490.03
407.267	520.09
407.645	491.39
408.023	518.5
408.401	505.4
408.779	533.87
409.156	530.25
409.534	501.55
409.912	516.92
410.29	557.82
410.667	536.36
411.045	553.98
411.422	539.97
411.8	540.65
412.178	540.88
412.555	564.15
412.933	579.29
413.31	595.34
413.687	583.13
414.065	575.68
414.442	582
414.819	584.94
415.197	578.39
415.574	560.99
415.951	602.34
416.328	624.72
416.705	610.03
417.082	610.7
417.46	612.06
417.837	620.42
418.214	632.17
418.591	628.78
418.967	634.21
419.344	640.99
419.721	647.54
420.098	636.69
420.475	652.74
420.852	648.44
421.228	665.17
421.605	658.84
421.982	661.78
422.358	663.58
422.735	697.26
423.111	693.41
423.488	683.92
423.864	711.72
424.241	712.17
424.617	677.37
424.994	719.85
425.37	723.92
425.746	759.85
426.123	740.87
426.499	730.7
426.875	743.13
427.251	769.57
427.627	753.3
428.003	766.86
428.379	779.06
428.756	768.89
429.132	776.58
429.507	820.87
429.883	809.8
430.259	813.86
430.635	824.71
431.011	834.88
431.387	845.27
431.763	840.75
432.138	864.26
432.514	873.97
432.89	882.11
433.265	868.32
433.641	880.98
434.016	878.95
434.392	886.63
434.767	914.43
435.143	903.13
435.518	920.07
435.894	932.05
436.269	936.8
436.644	941.09
437.02	976.12
437.395	970.69
437.77	986.51
438.145	973.41
438.52	1000.98
438.895	993.29
439.271	977.93
439.646	1015.44
440.021	1039.39
440.395	1017.93
440.77	1016.34
441.145	1028.55
441.52	1031.03
441.895	1061.99
442.27	1076.68
442.645	1064.25
443.019	1083.46
443.394	1062.44
443.769	1093.4
444.143	1092.5
444.518	1100.41
444.892	1099.5
445.267	1121.65
445.641	1108.77
446.016	1133.4
446.39	1147.19
446.764	1167.07
447.139	1126.85
447.513	1148.54
447.887	1137.24
448.262	1167.07
448.636	1172.27
449.01	1183.8
449.384	1187.41
449.758	1212.27
450.132	1222.67
450.506	1223.34
450.88	1220.63
451.254	1237.81
451.628	1231.48
452.002	1252.72
452.376	1276.9
452.75	1274.19
453.123	1257.69
453.497	1318.26
453.871	1294.3
454.244	1318.93
454.618	1348.54
454.992	1366.39
455.365	1342.66
455.739	1399.38
456.112	1413.85
456.486	1381.31
456.859	1423.56
457.232	1425.15
457.606	1455.88
457.979	1472.38
458.352	1516.9
458.725	1518.93
459.099	1505.37
459.472	1526.61
459.845	1527.29
460.218	1563
460.591	1582.66
460.964	1602.09
461.337	1612.26
461.71	1626.95
462.083	1660.85
462.456	1670.34
462.829	1663.78
463.201	1719.15
463.574	1713.27
463.947	1723.67
464.32	1771.35
464.692	1797.79
465.065	1790.11
465.438	1809.32
465.81	1835.53
466.183	1831.92
466.555	1882.54
466.928	1884.12
467.3	1898.81
467.672	1948.3
468.045	1960.05
468.417	1991.68
468.789	1974.74
469.161	2024.68
469.534	2044.34
469.906	2104
470.278	2127.05
470.65	2124.11
471.022	2163.43
471.394	2219.25
471.766	2209.76
472.138	2201.85
472.51	2303.99
472.882	2315.97
473.253	2326.37
473.625	2382.86
473.997	2394.39
474.369	2444.1
474.74	2468.73
475.112	2520.03
475.484	2557.77
475.855	2565.68
476.227	2562.29
476.598	2617.21
476.97	2691.78
477.341	2745.34
477.713	2806.13
478.084	2752.12
478.455	2840.48
478.827	2881.15
479.198	2956.18
479.569	2968.61
479.94	3042.5
480.311	3045.44
480.682	3155.5
481.053	3207.7
481.424	3210.64
481.795	3271.65
482.166	3353.46
482.537	3383.29
482.908	3433.68
483.279	3497.41
483.65	3500.35
484.021	3593.45
484.391	3582.6
484.762	3659.44
485.133	3665.09
485.503	3757.74
485.874	3846.33
486.244	3855.59
486.615	3903.95
486.985	3968.81
487.356	4041.35
487.726	3996.6
488.097	4126.09
488.467	4151.63
488.837	4199.08
489.207	4274.11
489.578	4336.48
489.948	4353.43
490.318	4440.43
490.688	4389.14
491.058	4485.63
491.428	4561.11
491.798	4609.24
492.168	4702.12
492.538	4720.65
492.908	4748.9
493.278	4828.67
493.648	4823.7
494.017	4893.3
494.387	4943.47
494.757	4960.19
495.126	5023.7
495.496	5101.89
495.866	5077.93
496.235	5121.32
496.605	5197.7
496.974	5152.51
497.344	5267.98
497.713	5297.13
498.082	5312.73
498.452	5345.95
498.821	5430.69
499.19	5503.91
499.559	5428.2
499.928	5533.96
500.298	5567.41
500.667	5637.92
501.036	5659.61
501.405	5696.22
501.774	5711.59
502.143	5747.97
502.512	5797.01
502.88	5859.38
503.249	5816.67
503.618	5904.8
503.987	5964.91
504.356	6005.36
504.724	5975.53
505.093	6043.78
505.462	6030.9
505.83	6066.38
506.199	6179.15
506.567	6252.36
506.936	6260.5
507.304	6302.76
507.672	6344.34
508.041	6391.57
508.409	6429.99
508.777	6507.95
509.145	6529.19
509.514	6554.5
509.882	6634.05
510.25	6583.65
510.618	6657.1
510.986	6685.12
511.354	6704.1
511.722	6836.76
512.09	6876.53
512.458	6837.66
512.826	6984.55
513.193	6985.9
513.561	6981.38
513.929	7052.12
514.297	7110.19
514.664	7212.11
515.032	7222.28
515.4	7285.56
515.767	7393.58
516.135	7404.2
516.502	7339.79
516.869	7436.29
517.237	7539.56
517.604	7483.97
517.972	7664.08
518.339	7681.03
518.706	7677.19
519.073	7749.05
519.44	7844.19
519.808	7873.11
520.175	7911.53
520.542	8024.52
520.909	8021.13
521.276	8054.12
521.643	8111.07
522.009	8263.16
522.376	8266.1
522.743	8386.09
523.11	8325.08
523.477	8474
523.843	8470.61
524.21	8626.99
524.577	8646.2
524.943	8718.29
525.31	8760.77
525.676	8904.27
526.043	8927.77
526.409	9034.89
526.776	9087.09
527.142	9154.66
527.508	9137.03
527.874	9273.3
528.241	9291.38
528.607	9286.63
528.973	9370.93
529.339	9398.95
529.705	9497.02
530.071	9500.19
530.437	9593.52
530.803	9672.84
531.169	9763.91
531.535	9768.88
531.901	9791.48
532.267	9846.17
532.632	9896.79
532.998	10017.46
533.364	9980.85
533.73	10109.21
534.095	10099.04
534.461	10127.52
534.826	10248.19
535.192	10293.61
535.557	10309.88
535.923	10355.53
536.288	10374.74
536.653	10477.11
537.019	10423.78
537.384	10514.17
537.749	10573.61
538.114	10514.62
538.479	10602.53
538.845	10619.48
539.21	10629.65
539.575	10640.27
539.94	10814.96
540.305	10845.01
540.67	10794.39
541.034	10836.42
541.399	10932.24
541.764	10967.04
542.129	11061.73
542.494	10984.89
542.858	11056.31
543.223	11106.93
543.587	11140.37
543.952	11179.69
544.316	11224.44
544.681	11278.9
545.045	11239.58
545.41	11344.21
545.774	11322.96
546.138	11364.32
546.503	11396.18
546.867	11470.76
547.231	11567.48
547.595	11600.47
547.959	11608.61
548.324	11614.93
548.688	11669.85
549.052	11737.42
549.416	11771.54
549.779	11792.33
550.143	11871.65
550.507	11887.92
550.871	11915.49
551.235	11917.53
551.599	11978.99
551.962	12078.88
552.326	12110.51
552.689	12197.52
553.053	12124.75
553.417	12215.37
553.78	12322.71
554.143	12383.5
554.507	12368.59
554.87	12421.02
555.234	12548.7
555.597	12477.51
555.96	12553.44
556.323	12590.5
556.686	12663.04
557.05	12758.18
557.413	12811.29
557.776	12741.01
558.139	12877.05
558.502	12937.39
558.865	12976.71
559.228	13150.26
559.59	13110.94
559.953	13190.49
560.316	13363.36
560.679	13447.2
561.041	13374.44
561.404	13558.61
561.767	13597.48
562.129	13605.39
562.492	13687.42
562.854	13714.31
563.217	13691.26
563.579	13834.31
563.941	13938.72
564.304	13974.19
564.666	14104.81
565.028	14123.12
565.39	14140.07
565.753	14277.92
566.115	14303.45
566.477	14426.84
566.839	14478.59
567.201	14527.85
567.563	14446.27
567.925	14627.96
568.287	14784.57
568.648	14820.05
569.01	14862.08
569.372	14905.02
569.734	14968.07
570.095	15026.6
570.457	15149.53
570.819	15250.55
571.18	15192.47
571.542	15256.65
571.903	15382.07
572.265	15390.43
572.626	15446.25
572.987	15533.25
573.349	15582.97
573.71	15708.61
574.071	15681.04
574.432	15836.29
574.794	15956.74
575.155	15942.05
575.516	15879
575.877	16066.34
576.238	16086.46
576.599	16187.24
576.96	16161.03
577.32	16286.9
577.681	16366
578.042	16328.71
578.403	16384.75
578.763	16540.68
579.124	16565.09
579.485	16716.95
579.845	16626.1
580.206	16680.34
580.566	16708.59
580.927	16811.18
581.287	16801.92
581.648	16833.78
582.008	16918.07
582.368	16897.51
582.728	16908.58
583.089	16934.57
583.449	17048.92
583.809	17153.77
584.169	17200.78
584.529	17099.76
584.889	17292.53
585.249	17273.09
585.609	17201.23
585.969	17416.14
586.329	17231.96
586.688	17338.63
587.048	17398.96
587.408	17318.06
587.768	17421.56
588.127	17383.14
588.487	17386.08
588.846	17597.15
589.206	17446.87
589.565	17486.19
589.925	17579.52
590.284	17608.45
590.643	17668.11
591.003	17729.12
591.362	17776.35
591.721	17809.12
592.08	17802.12
592.44	17848.44
592.799	17906.52
593.158	17876.69
593.517	17894.09
593.876	18083.47
594.235	17934.09
594.593	17978.38
594.952	18104.03
595.311	18022
595.67	18106.52
596.029	18200.75
596.387	18246.62
596.746	18351.03
597.104	18286.17
597.463	18215.89
597.822	18297.47
598.18	18255.21
598.538	18235.78
598.897	18500.86
599.255	18204.59
599.613	18529.78
599.972	18474.42
600.33	18540.85
600.688	18487.52
601.046	18552.38
601.404	18693.84
601.762	18665.6
602.12	18831.24
602.478	18770.9
602.836	18789.89
603.194	18673.73
603.552	18788.98
603.91	18634.64
604.268	18772.94
604.625	18727.29
604.983	18944.69
605.341	18861.07
605.698	19008.19
606.056	18920.96
606.413	18959.6
606.771	19064.91
607.128	19084.79
607.485	19023.1
607.843	19081.86
608.2	19185.58
608.557	19278.91
608.914	19225.58
609.272	19282.98
609.629	19295.86
609.986	19431.9
610.343	19341.29
610.7	19536.76
611.057	19433.03
611.414	19415.63
611.771	19495.86
612.127	19494.05
612.484	19534.27
612.841	19619.02
613.198	19572.92
613.554	19589.41
613.911	19640.94
614.267	19619.92
614.624	19586.25
614.98	19719.13
615.337	19795.96
615.693	19738.11
616.05	19802.06
616.406	19900.14
616.762	19815.17
617.118	19857.43
617.475	19857.43
617.831	19938.78
618.187	19883.42
618.543	19939.46
618.899	20048.61
619.255	19993.02
619.611	20113.24
619.967	20074.15
620.323	20025.56
620.678	20076.18
621.034	19974.49
621.39	20012.68
621.746	20062.17
622.101	20259.91
622.457	20114.82
622.812	20234.6
623.168	20130.42
623.523	20139.23
623.879	20261.04
624.234	20071.66
624.589	20313.46
624.945	20332.45
625.3	20215.84
625.655	20242.05
626.01	20213.13
626.365	20171.09
626.72	20125.22
627.075	20077.99
627.43	20199.57
627.785	20078.89
628.14	20094.49
628.495	20197.99
628.85	20238.44
629.205	20178.33
629.559	20216.06
629.914	20208.61
630.269	20050.19
630.623	20111.89
630.978	20082.51
631.332	20146.01
631.687	20200.92
632.041	20065.56
632.396	20090.64
632.75	20085.45
633.104	20105.78
633.459	19962.06
633.813	19983.75
634.167	19996.41
634.521	19946.92
634.875	19954.38
635.229	19938.56
635.583	19911.21
635.937	19937.88
636.291	19917.54
636.645	19949.4
636.999	19847.94
637.352	19990.99
637.706	19712.57
638.06	19819.01
638.413	19746.7
638.767	19741.05
639.121	19758.68
639.474	19602.75
639.828	19693.82
640.181	19791.44
640.534	19652.69
640.888	19697.66
641.241	19525.24
641.594	19670.54
641.947	19745.12
642.301	19621.5
642.654	19555.74
643.007	19621.73
643.36	19607.72
643.713	19501.73
644.066	19549.19
644.419	19405.92
644.771	19445.01
645.124	19212.48
645.477	19194.62
645.83	19081.18
646.182	19041.63
646.535	18846.61
646.888	18960.28
647.24	18842.32
647.593	18931.35
647.945	18875.31
648.298	18749.66
648.65	18775.42
649.002	18683.45
649.355	18760.06
649.707	18775.65
650.059	18871.47
650.411	19084.79
650.763	19172.48
651.115	19406.37
651.467	19326.82
651.819	19147.39
652.171	19184.45
652.523	19080.05
652.875	19251.12
653.227	19055.64
653.578	19186.04
653.93	19113.72
654.282	19081.63
654.633	19039.37
654.985	19119.14
655.337	19080.05
655.688	19170.22
656.039	19132.7
656.391	18956.89
656.742	19068.3
657.094	19067.17
657.445	19123.44
657.796	19022.88
658.147	19049.32
658.498	19063.55
658.849	19113.04
659.2	19106.26
659.551	18995.98
659.902	19070.78
660.253	18984.01
660.604	19071.46
660.955	18993.05
661.306	19129.77
661.656	19009.32
662.007	19045.25
662.358	19042.99
662.708	19030.11
663.059	19021.29
663.409	19009.09
663.76	19046.83
664.11	19054.29
664.461	19036.21
664.811	18998.47
665.161	19002.76
665.511	19088.64
665.862	18943.1
666.212	19136.09
666.562	19094.96
666.912	19034.17
667.262	19004.12
667.612	19022.2
667.962	19108.07
668.312	19024.68
668.662	19169.31
669.011	19000.05
669.361	19050.22
669.711	19072.82
670.06	18956.44
670.41	18902.65
670.76	18959.15
671.109	19083.89
671.459	18971.35
671.808	18892.71
672.157	18964.12
672.507	18806.38
672.856	18853.84
673.205	18913.05
673.554	18823.78
673.904	18852.48
674.253	18973.16
674.602	18961.18
674.951	18592.15
675.3	18518.93
675.649	18801.19
675.998	18810.23
676.346	18809.77
676.695	18976.32
677.044	18755.54
677.393	18888.87
677.741	18923.22
678.09	18904.69
678.438	18797.57
678.787	18855.65
679.135	18782.88
679.484	18699.72
679.832	18838.93
680.181	18701.08
680.529	18664.47
680.877	18635.99
681.225	18616.33
681.573	18693.39
681.922	18634.64
682.27	18493.62
682.618	18559.61
682.966	18459.73
683.314	18636.9
683.661	18457.24
684.009	18424.7
684.357	18328.88
684.705	18416.34
685.053	18425.38
685.4	18365.04
685.748	18269
686.095	18253.63
686.443	18297.24
686.79	18153.07
687.138	18215.44
687.485	18202.56
687.832	18097.25
688.18	18068.78
688.527	17967.99
688.874	17914.88
689.221	18049.79
689.568	17920.08
689.915	17929.8
690.262	17859.52
690.609	17831.04
690.956	17926.86
691.303	17856.13
691.65	17711.95
691.997	17717.37
692.344	17633.31
692.69	17591.27
693.037	17679.63
693.383	17454.56
693.73	17556.7
694.077	17371.39
694.423	17344.5
694.769	17417.72
695.116	17361.22
695.462	17277.61
695.808	17274.9
696.155	17240.32
696.501	17188.57
696.847	17142.25
697.193	17057.73
697.539	17096.15
697.885	16954.23
698.231	16948.81
698.577	16936.38
698.923	16920.56
699.269	16875.36
699.614	16751.07
699.96	16829.03
700.306	16711.07
700.651	16657.06
700.997	16615.03
701.342	16645.31
701.688	16598.53
702.033	16466.78
702.379	16576.61
702.724	16417.07
703.069	16481.47
703.415	16272.67
703.76	16284.64
704.105	16342.27
704.45	16276.96
704.795	16148.83
705.14	16122.39
705.485	16058.89
705.83	16005.1
706.175	16092.11
706.52	15996.29
706.865	16010.3
707.209	15993.35
707.554	15885.56
707.899	15933.47
708.243	15900.7
708.588	15830.42
708.932	15732.34
709.277	15726.01
709.621	15749.29
709.966	15655.73
710.31	15644.21
710.654	15505.91
710.998	15549.75
711.342	15594.27
711.687	15498
712.031	15518.56
712.375	15469.75
712.719	15458
713.063	15373.93
713.407	15461.84
713.75	15392.69
714.094	15410.54
714.438	15247.38
714.782	15347.72
715.125	15259.36
715.469	15243.99
715.812	15176.65
716.156	15081.74
716.499	15165.35
716.843	15098.23
717.186	15020.04
717.53	15078.35
717.873	15143.2
718.216	15037.22
718.559	14998.8
718.902	14963.1
719.246	15048.97
719.589	14899.14
719.932	14864.11
720.275	14906.6
720.617	14844
720.96	14946.37
721.303	14836.54
721.646	14847.17
721.989	14800.39
722.331	14801.29
722.674	14757.9
723.016	14960.84
723.359	14733.5
723.701	14738.69
724.044	14747.73
724.386	14690.56
724.729	14782.31
725.071	14708.64
725.413	14691.46
725.755	14706.15
726.097	14575.53
726.439	14554.97
726.782	14538.93
727.124	14668.41
727.465	14475.2
727.807	14556.1
728.149	14594.07
728.491	14537.12
728.833	14631.13
729.175	14546.16
729.516	14450.34
729.858	14428.19
730.199	14537.34
730.541	14454.86
730.882	14409.66
731.224	14497.12
731.565	14324.92
731.906	14410.12
732.248	14461.41
732.589	14311.36
732.93	14339.16
733.271	14261.64
733.612	14375.99
733.953	14257.8
734.294	14308.42
734.635	14349.33
734.976	14364.69
735.317	14160.18
735.658	14273.85
735.999	14269.1
736.339	14195.88
736.68	14171.48
737.021	14191.82
737.361	14215.32
737.702	14219.16
738.042	14150.69
738.383	14189.56
738.723	14209.44
739.063	14197.01
739.404	14246.96
739.744	14243.79
740.084	14096
740.424	14269.55
740.764	14081.54
741.104	14191.36
741.444	14090.58
741.784	14074.53
742.124	14189.56
742.464	14042.89
742.804	14020.97
743.143	14111.82
743.483	13929.9
743.823	13937.36
744.162	13898.72
744.502	14057.58
744.841	13976.68
745.181	14023.91
745.52	13931.48
745.86	14068.43
746.199	13991.82
746.538	13994.08
746.877	13937.81
747.216	14023.68
747.556	13982.33
747.895	13887.19
748.234	13925.61
748.573	13942.78
748.911	13870.02
749.25	13873.41
749.589	13790.02
749.928	13887.87
750.267	13886.06
750.605	13898.04
750.944	13813.52
751.283	13836.12
751.621	13825.5
751.96	13787.08
752.298	13744.82
752.636	13722.22
752.975	13752.51
753.313	13639.06
753.651	13697.82
753.989	13599.52
754.327	13597.93
754.666	13592.28
755.004	13629.12
755.342	13613.3
755.679	13621.44
756.017	13522.68
756.355	13540.53
756.693	13482.46
757.031	13533.75
757.368	13408.79
757.706	13392.74
758.044	13360.65
758.381	13380.31
758.719	13299.41
759.056	13336.02
759.394	13250.6
759.731	13216.93
760.068	13195.01
760.405	13120.88
760.743	13056.03
761.08	13156.82
761.417	13108.23
761.754	13018.97
762.091	13000.66
762.428	12981.23
762.765	12925.41
763.102	12970.38
763.438	12880.89
763.775	12786.2
764.112	12792.76
764.449	12823.04
764.785	12697.84
765.122	12636.38
765.458	12645.64
765.795	12637.96
766.131	12625.08
766.467	12536.94
766.804	12475.7
767.14	12385.54
767.476	12412.43
767.812	12374.01
768.148	12327.91
768.485	12309.15
768.821	12292.21
769.157	12246.56
769.492	12231.42
769.828	12270.96
770.164	12035.04
770.5	12112.77
770.836	12020.12
771.171	11971.76
771.507	11971.31
771.842	11858.32
772.178	11927.24
772.513	11877.75
772.849	11843.18
773.184	11772.67
773.519	11698.32
773.855	11724.31
774.19	11659
774.525	11648.15
774.86	11488.38
775.195	11473.7
775.53	11434.6
775.865	11336.07
776.2	11323.64
776.535	11261.72
776.87	11268.5
777.205	11206.58
777.539	11156.87
777.874	11182.86
778.209	11044.78
778.543	11028.06
778.878	10939.02
779.212	10956.19
779.547	10869.64
779.881	10987.38
780.215	10845.69
780.55	10913.26
780.884	10866.71
781.218	10747.39
781.552	10772.02
781.886	10708.52
782.22	10640.27
782.554	10541.29
782.888	10550.1
783.222	10404.35
783.556	10444.57
783.889	10391.01
784.223	10325.03
784.557	10341.07
784.89	10313.95
785.224	10221.53
785.557	10204.12
785.891	10247.97
786.224	10166.39
786.558	10131.36
786.891	10049.78
787.224	9938.37
787.557	9969.78
787.891	9990.12
788.224	9980.85
788.557	9903.34
788.89	9862.21
789.223	9856.11
789.556	9833.06
789.888	9808.88
790.221	9723.91
790.554	9679.84
790.887	9699.73
791.219	9595.78
791.552	9661.54
791.884	9548.77
792.217	9499.74
792.549	9451.15
792.882	9433.98
793.214	9438.95
793.546	9452.05
793.879	9386.97
794.211	9288.67
794.543	9334.77
794.875	9332.06
795.207	9309.23
795.539	9273.08
795.871	9199.86
796.203	9121.67
796.535	9142.91
796.867	9069.01
797.198	9029.47
797.53	9018.84
797.862	8956.25
798.193	8975.46
798.525	8879.64
798.856	8956.47
799.188	8828.34
799.519	8773.88
799.85	8730.49
800.182	8787.66
800.513	8815.01
800.844	8728.46
801.175	8743.37
801.506	8720.55
801.837	8632.87
802.168	8659.98
802.499	8564.62
802.83	8548.35
803.161	8522.13
803.491	8461.8
803.822	8523.26
804.153	8517.16
804.483	8385.42
804.814	8410.5
805.145	8355.81
805.475	8444.85
805.805	8316.72
806.136	8325.98
806.466	8350.39
806.796	8364.17
807.126	8238.07
807.457	8242.14
807.787	8205.53
808.117	8194.46
808.447	8139.09
808.777	8182.93
809.107	8130.28
809.436	8034.01
809.766	8052.77
810.096	8042.37
810.426	8056.84
810.755	8043.5
811.085	7982.94
811.414	7981.36
811.744	7954.24
812.073	7932.77
812.403	7875.6
812.732	7804.41
813.061	7822.49
813.39	7801.02
813.719	7756.73
814.049	7794.7
814.378	7755.6
814.707	7743.4
815.036	7677.19
815.365	7669.73
815.693	7596.74
816.022	7581.82
816.351	7600.35
816.68	7540.92
817.008	7585.44
817.337	7491.65
817.665	7478.09
817.994	7527.36
818.322	7536.4
818.651	7528.04
818.979	7435.16
819.307	7466.12
819.636	7487.81
819.964	7345.22
820.292	7418.21
820.62	7400.13
820.948	7442.39
821.276	7407.59
821.604	7395.84
821.932	7466.8
822.259	7408.72
822.587	7411.43
822.915	7383.63
823.243	7414.59
823.57	7323.97
823.898	7385.89
824.225	7352.22
824.553	7359.68
824.88	7316.06
825.207	7434.25
825.535	7354.93
825.862	7335.73
826.189	7360.36
826.516	7332.11
826.843	7429.96
827.17	7327.82
827.497	7368.94
827.824	7351.32
828.151	7322.84
828.478	7398.1
828.805	7380.92
829.131	7360.81
829.458	7302.28
829.785	7315.39
830.111	7321.04
830.438	7374.82
830.764	7352.9
831.09	7281.72
831.417	7262.73
831.743	7247.82
832.069	7316.29
832.395	7227.25
832.722	7224.09
833.048	7280.13
833.374	7224.09
833.7	7225.9
834.026	7239
834.351	7222.51
834.677	7258.89
835.003	7205.33
835.329	7149.29
835.654	7168.5
835.98	7127.82
836.306	7221.6
836.631	7143.87
836.956	7145.22
837.282	7162.85
837.607	7182.06
837.932	7155.16
838.258	7144.77
838.583	7115.39
838.908	7044.66
839.233	7083.08
839.558	7043.3
839.883	7017.54
840.208	7067.03
840.533	7028.61
840.858	7015.06
841.182	7084.21
841.507	7026.13
841.832	6999.24
842.156	7010.31
842.481	6973.47
842.805	6960.37
843.13	6897.77
843.454	6907.04
843.778	6898.22
844.103	6831.78
844.427	6834.27
844.751	6835.4
845.075	6847.83
845.399	6832.91
845.723	6796.08
846.047	6784.33
846.371	6754.05
846.695	6749.07
847.019	6737.1
847.343	6638.34
847.666	6594.05
847.99	6571
848.313	6577.1
848.637	6514.05
848.96	6514.28
849.284	6485.58
849.607	6516.31
849.931	6447.84
850.254	6382.76
850.577	6416.65
850.9	6327.39
851.223	6365.58
851.546	6297.79
851.869	6302.31
852.192	6265.92
852.515	6220.5
852.838	6192.03
853.161	6223.89
853.483	6210.33
853.806	6199.71
854.129	6175.53
854.451	6106.6
854.774	6139.6
855.096	6087.4
855.419	6063.44
855.741	6064.12
856.063	6045.82
856.385	6055.76
856.708	6018.92
857.03	5983.67
857.352	6011.47
857.674	5925.59
857.996	5948.19
858.318	5915.42
858.64	5949.77
858.961	5884.92
859.283	5888.53
859.605	5807.4
859.926	5836.78
860.248	5821.41
860.57	5803.56
860.891	5844.92
861.212	5776.22
861.534	5780.51
861.855	5748.65
862.176	5786.16
862.498	5729.44
862.819	5744.13
863.14	5718.82
863.461	5708.42
863.782	5646.96
864.103	5719.95
864.424	5668.2
864.745	5701.87
865.065	5672.49
865.386	5625.04
865.707	5644.92
866.027	5661.42
866.348	5611.02
866.668	5645.15
866.989	5607.41
867.309	5592.04
867.63	5523.8
867.95	5575.55
868.27	5559.73
868.59	5553.4
868.91	5551.14
869.23	5550.69
869.55	5554.76
869.87	5553.4
870.19	5521.31
870.51	5542.78
870.83	5568.77
871.15	5507.52
871.469	5524.93
871.789	5449.67
872.109	5479.73
872.428	5530.57
872.748	5447.64
873.067	5479.5
873.386	5438.6
873.706	5424.81
874.025	5436.11
874.344	5397.92
874.663	5415.32
874.982	5415.32
875.301	5427.53
875.62	5384.59
875.939	5366.74
876.258	5394.31
876.577	5345.5
876.896	5386.17
877.214	5292.62
877.533	5325.38
877.852	5411.93
878.17	5349.34
878.489	5363.35
878.807	5319.96
879.125	5305.04
879.444	5274.76
879.762	5260.75
880.08	5292.84
880.398	5296
880.716	5274.31
881.034	5263.69
881.352	5225.72
881.67	5233.41
881.988	5216.68
882.306	5253.97
882.624	5246.51
882.941	5183.01
883.259	5178.95
883.577	5154.54
883.894	5153.41
884.212	5134.88
884.529	5162.67
884.846	5139.4
885.164	5100.76
885.481	5105.95
885.798	5132.39
886.115	5076.58
886.432	5128.55
886.75	5068.89
887.067	5084.26
887.383	5107.76
887.7	5068.44
888.017	5029.8
888.334	5047.42
888.651	5040.19
888.967	5008.78
889.284	4991.38
889.6	4938.73
889.917	4900.53
890.233	4951.83
890.55	4932.17
890.866	4923.13
891.182	4935.79
891.498	4889.01
891.815	4923.81
892.131	4885.62
892.447	4872.97
892.763	4882.46
893.079	4850.37
893.395	4834.77
893.71	4828.67
894.026	4796.81
894.342	4780.09
894.657	4756.13
894.973	4757.26
895.289	4755.45
895.604	4746.41
895.92	4708.9
896.235	4672.97
896.55	4668.68
896.865	4686.3
897.181	4707.55
897.496	4672.29
897.811	4648.11
898.126	4652.86
898.441	4633.88
898.756	4631.62
899.071	4617.83
899.386	4603.59
899.7	4588.68
900.015	4539.64
900.33	4522.69
900.644	4503.03
900.959	4511.39
901.273	4538.74
901.588	4460.77
901.902	4483.82
902.216	4483.37
902.531	4443.6
902.845	4454.22
903.159	4444.05
903.473	4443.82
903.787	4393.66
904.101	4374.9
904.415	4369.7
904.729	4362.24
905.042	4258.52
905.356	4312.3
905.67	4308.01
905.984	4319.76
906.297	4328.57
906.611	4269.37
906.924	4279.76
907.237	4235.92
907.551	4219.42
907.864	4214
908.177	4181.46
908.491	4181.01
908.804	4134.23
909.117	4185.53
909.43	4180.33
909.743	4138.97
910.056	4092.65
910.368	4086.09
910.681	4052.87
910.994	4032.99
911.307	4020.78
911.619	4014.68
911.932	4016.94
912.244	4030.73
912.557	3977.4
912.869	4005.64
913.181	3934.46
913.494	3951.86
913.806	3951.86
914.118	3907.79
914.43	3919.32
914.742	3917.51
915.054	3840.68
915.366	3838.19
915.678	3833.9
915.99	3826.44
916.302	3832.09
916.613	3795.48
916.925	3787.34
917.236	3809.04
917.548	3768.36
917.859	3762.71
918.171	3731.75
918.482	3733.11
918.794	3722.71
919.105	3694.92
919.416	3645.88
919.727	3668.25
920.038	3655.6
920.349	3673
920.66	3614.92
920.971	3617.63
921.282	3625.77
921.593	3615.37
921.903	3595.71
922.214	3569.04
922.525	3487.46
922.835	3546.9
923.146	3531.98
923.456	3534.47
923.767	3480.01
924.077	3487.01
924.387	3507.8
924.697	3459.67
925.008	3467.13
925.318	3427.81
925.628	3443.85
925.938	3466.9
926.248	3440.91
926.558	3447.92
926.867	3382.61
927.177	3390.29
927.487	3360.46
927.796	3331.08
928.106	3327.69
928.416	3309.39
928.725	3314.59
929.034	3312.33
929.344	3278.66
929.653	3273.69
929.962	3264.19
930.271	3248.83
930.581	3246.57
930.89	3239.56
931.199	3235.72
931.508	3229.39
931.817	3231.65
932.125	3206.34
932.434	3184.65
932.743	3191.65
933.051	3151.2
933.36	3138.1
933.669	3109.4
933.977	3098.32
934.286	3127.02
934.594	3105.1
934.902	3089.96
935.21	3060.81
935.519	3082.28
935.827	3067.59
936.135	3048.15
936.443	2997.76
936.751	3036.18
937.059	2997.99
937.367	3001.15
937.674	2959.8
937.982	2960.92
938.29	2984.88
938.597	2931.77
938.905	2929.74
939.213	2920.7
939.52	2868.95
939.827	2903.07
940.135	2885.9
940.442	2869.63
940.749	2833.47
941.056	2868.05
941.363	2843.19
941.67	2819.69
941.977	2817.88
942.284	2823.75
942.591	2797.09
942.898	2791.44
943.205	2778.78
943.511	2758.67
943.818	2774.72
944.125	2721.61
944.431	2721.38
944.738	2730.87
945.044	2717.32
945.35	2729.07
945.657	2677.09
945.963	2664.44
946.269	2696.07
946.575	2682.97
946.881	2652.23
947.187	2635.28
947.493	2630.54
947.799	2666.02
948.105	2642.97
948.41	2643.87
948.716	2607.94
949.022	2622.85
949.327	2582.18
949.633	2568.39
949.938	2599.58
950.244	2562.29
950.549	2548.73
950.854	2596.87
951.16	2558.45
951.465	2525.23
951.77	2507.83
952.075	2514.38
952.38	2495.4
952.685	2487.27
952.99	2461.5
953.294	2451.56
953.599	2456.53
953.904	2445.91
954.209	2442.52
954.513	2457.66
954.818	2452.92
955.122	2440.94
955.426	2390.32
955.731	2403.43
956.035	2381.73
956.339	2393.93
956.643	2365.46
956.948	2376.08
957.252	2348.74
957.556	2344.44
957.86	2365.01
958.163	2344.9
958.467	2313.71
958.771	2315.29
959.075	2284.33
959.378	2305.8
959.682	2278.01
959.985	2277.1
960.289	2239.59
960.592	2247.5
960.896	2226.03
961.199	2249.76
961.502	2239.36
961.805	2233.03
962.108	2233.26
962.411	2208.18
962.714	2193.94
963.017	2194.84
963.32	2187.61
963.623	2196.88
963.926	2157.78
964.228	2176.54
964.531	2164.34
964.833	2164.79
965.136	2117.56
965.438	2086.37
965.741	2148.29
966.043	2119.14
966.345	2098.35
966.648	2093.6
966.95	2099.7
967.252	2087.05
967.554	2033.94
967.856	2068.07
968.158	2055.64
968.46	2053.15
968.761	2057.22
969.063	2040.72
969.365	2049.54
969.666	2033.49
969.968	1994.4
970.269	1982.19
970.571	2000.95
970.872	2002.98
971.174	1981.97
971.475	1956.88
971.776	1976.32
972.077	1962.76
972.378	1955.08
972.679	1991.23
972.98	1961.86
973.281	1948.52
973.582	1940.84
973.883	1913.27
974.183	1915.98
974.484	1867.62
974.785	1911.24
975.085	1881.41
975.386	1894.29
975.686	1866.72
975.986	1890.67
976.287	1849.32
976.587	1851.12
976.887	1860.39
977.187	1842.76
977.487	1826.04
977.787	1845.25
978.087	1823.1
978.387	1835.98
978.687	1810.9
978.987	1833.72
979.286	1808.41
979.586	1791.69
979.885	1755.76
980.185	1769.32
980.484	1795.53
980.784	1760.5
981.083	1749.66
981.382	1769.77
981.682	1733.61
981.981	1739.26
982.28	1715.08
982.579	1744.01
982.878	1707.85
983.177	1712.82
983.475	1725.25
983.774	1696.1
984.073	1702.88
984.372	1649.1
984.67	1687.51
984.969	1673.28
985.267	1686.83
985.566	1677.12
985.864	1668.76
986.162	1640.06
986.461	1654.52
986.759	1632.82
987.057	1628.3
987.355	1614.75
987.653	1631.92
987.951	1603.22
988.249	1595.31
988.547	1599.15
988.844	1583.33
989.142	1567.52
989.44	1588.98
989.737	1569.32
990.035	1562.77
990.332	1564.8
990.63	1576.55
990.927	1554.63
991.224	1539.49
991.521	1551.47
991.819	1519.38
992.116	1558.02
992.413	1558.02
992.71	1494.07
993.006	1490.68
993.303	1491.36
993.6	1484.81
993.897	1484.81
994.193	1481.64
994.49	1459.27
994.787	1474.86
995.083	1518.93
995.379	1473.05
995.676	1444.35
995.972	1431.7
996.268	1439.16
996.565	1433.51
996.861	1441.19
997.157	1430.57
997.453	1412.04
997.749	1431.47
998.044	1421.76
998.34	1391.25
998.636	1394.41
998.932	1392.83
999.227	1356.45
999.523	1394.41
999.818	1373.85
1000.114	1359.84
1000.409	1336.56
1000.704	1372.04
1001	1323.23
1001.295	1369.1
1001.59	1349.44
1001.885	1337.69
1002.18	1334.08
1002.475	1284.58
1002.77	1323.91
1003.065	1297.24
1003.359	1290.91
1003.654	1304.02
1003.949	1287.07
1004.243	1288.88
1004.538	1268.99
1004.832	1235.32
1005.127	1286.39
1005.421	1252.5
1005.715	1270.12
1006.009	1223.57
1006.304	1219.95
1006.598	1221.08
1006.892	1231.7
1007.186	1224.93
1007.48	1212.27
1007.773	1234.87
1008.067	1178.82
1008.361	1205.04
1008.655	1197.13
1008.948	1190.8
1009.242	1197.58
1009.535	1162.78
1009.829	1163.46
1010.122	1143.57
1010.415	1158.71
1010.708	1122.1
1011.001	1141.54
1011.295	1125.27
1011.588	1106.28
1011.881	1123.01
1012.173	1137.24
1012.466	1119.62
1012.759	1107.87
1013.052	1108.09
1013.344	1096.12
1013.637	1097.47
1013.93	1052.05
1014.222	1084.82
1014.514	1077.58
1014.807	1064.03
1015.099	1055.66
1015.391	1058.83
1015.683	1055.21
1015.976	1049.11
1016.268	1047.98
1016.56	1023.57
1016.851	1020.64
1017.143	1053.4
1017.435	1008.66
1017.727	1018.38
1018.018	997.13
1018.31	1020.19
1018.602	989.68
1018.893	995.1
1019.185	1000.07
1019.476	1000.52
1019.767	988.1
1020.058	977.7
1020.35	956.01
1020.641	970.92
1020.932	947.87
1021.223	952.62
1021.514	964.82
1021.804	911.94
1022.095	952.62
1022.386	917.36
1022.677	942
1022.967	923.46
1023.258	945.16
1023.548	922.56
1023.839	894.54
1024.129	908.55
1024.419	905.61
1024.709	905.61
1025	913.3
1025.29	899.74
1025.58	879.4
1025.87	865.61
1026.16	866.29
1026.449	876.23
1026.739	868.55
1027.029	855.67
1027.319	869.23
1027.608	858.16
1027.898	824.71
1028.187	842.34
1028.477	855.67
1028.766	828.1
1029.055	838.27
1029.344	841.43
1029.634	804.82
1029.923	803.69
1030.212	808.67
1030.501	798.72
1030.79	778.16
1031.078	778.16
1031.367	779.97
1031.656	791.04
1031.945	806.86
1032.233	780.87
1032.522	760.3
1032.81	768.44
1033.099	779.51
1033.387	733.86
1033.675	749.68
1033.963	752.17
1034.251	737.48
1034.54	754.2
1034.828	744.71
1035.116	736.58
1035.403	732.28
1035.691	740.19
1035.979	728.44
1036.267	701.32
1036.554	718.05
1036.842	724.83
1037.129	692.74
1037.417	694.09
1037.704	692.28
1037.992	701.32
1038.279	712.62
1038.566	695.22
1038.853	695.22
1039.14	695.22
