Data from tablewood_dark_bookshelf_FLMS001491_00027.txt Node
Date: Wed Feb 08 14:14:06 GMT 2017
User: dcchb
Spectrometer: FLMS00149
Trigger mode: 0
Integration Time (sec): 2.000000E-2
Scans to average: 10
Electric dark correction enabled: true
Nonlinearity correction enabled: false
Boxcar width: 0
XAxis mode: Wavelengths
Number of Pixels in Spectrum: 2048
>>>>>Begin Spectral Data<<<<<
341.393	-12.82
341.776	-12.82
342.16	-12.82
342.543	-74.07
342.927	-90.79
343.31	-70.22
343.693	-61.64
344.077	-69.09
344.46	-68.42
344.843	-59.15
345.226	-46.72
345.61	-36.78
345.993	-26.61
346.376	-1.07
346.759	-5.14
347.142	36.44
347.525	54.74
347.908	57.46
348.291	74.63
348.674	97.91
349.057	123.67
349.44	112.82
349.823	134.06
350.206	158.92
350.588	193.95
350.971	192.37
351.354	214.06
351.737	239.15
352.119	234.85
352.502	253.61
352.884	262.2
353.267	259.71
353.65	279.6
354.032	292.03
354.414	293.38
354.797	270.78
355.179	303.78
355.562	288.64
355.944	299.03
356.326	327.51
356.709	304.46
357.091	323.44
357.473	332.03
357.855	316.66
358.238	337.67
358.62	324.57
359.002	344.68
359.384	334.96
359.766	332.25
360.148	309.2
360.53	344
360.912	315.3
361.294	312.36
361.676	328.18
362.057	341.52
362.439	312.82
362.821	322.08
363.203	305.36
363.584	334.06
363.966	319.37
364.348	319.82
364.729	308.52
365.111	301.97
365.493	330.9
365.874	320.05
366.256	303.33
366.637	328.86
367.019	280.95
367.4	313.72
367.781	316.88
368.163	312.36
368.544	322.08
368.925	325.02
369.306	303.1
369.688	314.17
370.069	325.92
370.45	311.46
370.831	300.16
371.212	331.57
371.593	303.33
371.974	330.9
372.355	325.02
372.736	317.34
373.117	332.93
373.498	315.75
373.879	304
374.26	304
374.641	287.05
375.021	307.62
375.402	319.37
375.783	317.79
376.163	322.53
376.544	352.82
376.925	331.12
377.305	309.65
377.686	323.89
378.066	319.37
378.447	323.21
378.827	322.08
379.208	330.9
379.588	331.12
379.968	333.61
380.349	331.35
380.729	332.48
381.109	344.91
381.489	340.16
381.87	332.93
382.25	345.13
382.63	339.93
383.01	358.24
383.39	337.67
383.77	344.45
384.15	325.02
384.53	353.95
384.91	364.79
385.29	358.24
385.67	340.16
386.049	344.91
386.429	350.78
386.809	352.59
387.189	363.89
387.568	351.46
387.948	348.3
388.328	351.91
388.707	363.89
389.087	366.6
389.466	373.83
389.846	384.45
390.225	370.67
390.605	380.39
390.984	378.13
391.363	390.55
391.743	395.75
392.122	386.04
392.501	384
392.881	394.17
393.26	404.11
393.639	391.68
394.018	407.05
394.397	413.6
394.776	396.2
395.155	382.19
395.534	418.58
395.913	405.7
396.292	388.97
396.671	415.64
397.05	403.89
397.429	416.99
397.808	415.64
398.186	416.09
398.565	405.92
398.944	419.25
399.323	400.5
399.701	398.24
400.08	421.29
400.458	437.33
400.837	438.24
401.215	414.28
401.594	433.94
401.972	433.04
402.351	440.95
402.729	455.19
403.107	429.42
403.486	434.85
403.864	439.82
404.242	433.94
404.62	456.09
404.999	449.54
405.377	449.76
405.755	439.37
406.133	464.23
406.511	444.79
406.889	449.54
407.267	489.99
407.645	471.23
408.023	453.38
408.401	456.77
408.779	479.37
409.156	483.43
409.534	488.41
409.912	479.82
410.29	475.75
410.667	483.21
411.045	495.41
411.422	488.63
411.8	505.13
412.178	514.39
412.555	517.11
412.933	536.99
413.31	524.11
413.687	515.3
414.065	525.69
414.442	522.3
414.819	529.31
415.197	536.77
415.574	527.05
415.951	539.93
416.328	548.06
416.705	549.87
417.082	556.43
417.46	557.1
417.837	566.37
418.214	540.16
418.591	577.67
418.967	576.99
419.344	574.28
419.721	604.11
420.098	599.59
420.475	581.28
420.852	584
421.228	566.14
421.605	609.98
421.982	589.87
422.358	608.4
422.735	595.75
423.111	621.51
423.488	613.6
423.864	632.58
424.241	629.87
424.617	620.61
424.994	636.2
425.37	628.97
425.746	641.85
426.123	647.5
426.499	640.04
426.875	646.14
427.251	675.07
427.627	678.68
428.003	677.78
428.379	679.81
428.756	670.1
429.132	690.43
429.507	697.44
429.883	684.56
430.259	715.52
430.635	721.62
431.011	712.13
431.387	731.34
431.763	722.52
432.138	772.69
432.514	752.81
432.89	745.12
433.265	743.99
433.641	756.65
434.016	766.14
434.392	790.54
434.767	769.98
435.143	781.28
435.518	811.33
435.894	810.66
436.269	814.05
436.644	803.88
437.02	822.18
437.395	837.1
437.77	820.83
438.145	841.62
438.52	844.55
438.895	853.59
439.271	876.42
439.646	875.51
440.021	846.14
440.395	856.98
440.77	871.67
441.145	882.29
441.52	906.47
441.895	898.34
442.27	893.82
442.645	923.87
443.019	917.77
443.394	890.2
443.769	937.43
444.143	940.14
444.518	950.77
444.892	947.6
445.267	972.46
445.641	960.03
446.016	948.51
446.39	974.04
446.764	958.9
447.139	960.26
447.513	951.9
447.887	969.75
448.262	1007.26
448.636	978.56
449.01	1010.43
449.384	1006.58
449.758	982.86
450.132	995.74
450.506	1021.27
450.88	1022.18
451.254	1047.26
451.628	1045.9
452.002	1049.97
452.376	1076.41
452.75	1080.71
453.123	1073.7
453.497	1098.56
453.871	1089.97
454.244	1093.81
454.618	1119.35
454.992	1126.13
455.365	1135.39
455.739	1153.47
456.112	1161.61
456.486	1190.08
456.859	1186.01
457.232	1199.57
457.606	1188.05
457.979	1223.3
458.352	1234.15
458.725	1249.97
459.099	1256.52
459.472	1302.62
459.845	1282.96
460.218	1304.65
460.591	1306.01
460.964	1281.83
461.337	1357.53
461.71	1360.47
462.083	1330.87
462.456	1352.11
462.829	1367.7
463.201	1389.4
463.574	1377.65
463.947	1414.03
464.32	1428.04
464.692	1412.9
465.065	1453.58
465.438	1497.87
465.81	1511.2
466.183	1528.83
466.555	1563.18
466.928	1535.84
467.3	1550.98
467.672	1570.86
468.045	1587.81
468.417	1616.06
468.789	1626
469.161	1639.11
469.534	1651.99
469.906	1678.88
470.278	1695.61
470.65	1736.51
471.022	1727.92
471.394	1781.93
471.766	1808.14
472.138	1789.16
472.51	1819.44
472.882	1871.19
473.253	1871.87
473.625	1866.45
473.997	1938.76
474.369	1957.75
474.74	1981.25
475.112	2001.59
475.484	2014.92
475.855	2066.44
476.227	2075.03
476.598	2130.62
476.97	2136.95
477.341	2224.4
477.713	2190.51
478.084	2244.07
478.455	2250.39
478.827	2305.98
479.198	2337.4
479.569	2359.77
479.94	2392.08
480.311	2415.59
480.682	2479.09
481.053	2535.36
481.424	2559.54
481.795	2572.19
482.166	2652.42
482.537	2685.64
482.908	2719.98
483.279	2694.67
483.65	2753.2
484.021	2836.37
484.391	2867.55
484.762	2861.9
485.133	2908
485.503	2973.31
485.874	2965.18
486.244	3005.63
486.615	3102.12
486.985	3122.46
487.356	3126.98
487.726	3177.37
488.097	3234.1
488.467	3259.18
488.837	3331.49
489.207	3365.84
489.578	3394.09
489.948	3467.54
490.318	3481.55
490.688	3514.09
491.058	3530.81
491.428	3644.03
491.798	3629.57
492.168	3667.98
492.538	3644.48
492.908	3736.23
493.278	3855.55
493.648	3789.79
494.017	3865.49
494.387	3879.28
494.757	3917.69
495.126	3935.32
495.496	3957.24
495.866	3966.73
496.235	4038.37
496.605	4055.77
496.974	4078.59
497.344	4144.81
497.713	4164.69
498.082	4178.03
498.452	4224.13
498.821	4217.12
499.19	4250.79
499.559	4331.92
499.928	4317.91
500.298	4325.14
500.667	4404.91
501.036	4386.83
501.405	4409.88
501.774	4420.96
502.143	4499.83
502.512	4481.07
502.88	4522.42
503.249	4515.87
503.618	4560.61
503.987	4603.1
504.356	4668.86
504.724	4665.7
505.093	4694.85
505.462	4725.13
505.83	4751.57
506.199	4752.47
506.567	4836.77
506.936	4827.5
507.304	4934.62
507.672	4896.42
508.041	4935.97
508.409	5004.9
508.777	5028.4
509.145	5045.57
509.514	5060.49
509.882	5138.68
510.25	5108.17
510.618	5156.76
510.986	5171.22
511.354	5232.69
511.722	5284.44
512.09	5284.21
512.458	5366.47
512.826	5364.66
513.193	5371.21
513.561	5396.3
513.929	5461.61
514.297	5512.91
514.664	5536.63
515.032	5559.68
515.4	5595.39
515.767	5635.61
516.135	5680.81
516.502	5683.75
516.869	5758.55
517.237	5773.69
517.604	5784.31
517.972	5871.54
518.339	5977.98
518.706	5937.53
519.073	5994.02
519.44	6006
519.808	6088.26
520.175	6164.87
520.542	6199.67
520.909	6177.3
521.276	6156.96
521.643	6273.34
522.009	6294.35
522.376	6344.97
522.743	6376.61
523.11	6443.28
523.477	6568.25
523.843	6549.04
524.21	6630.39
524.577	6673.1
524.943	6676.04
525.31	6750.39
525.676	6840.33
526.043	6822.93
526.409	6872.19
526.776	6937.73
527.142	6908.35
527.508	7001.91
527.874	7057.27
528.241	7081.45
528.607	7132.75
528.973	7172.3
529.339	7164.39
529.705	7288.45
530.071	7357.15
530.437	7331.39
530.803	7411.16
531.169	7529.12
531.535	7537.49
531.901	7477.6
532.267	7540.65
532.632	7641.44
532.998	7661.32
533.364	7658.84
533.73	7700.64
534.095	7763.47
534.461	7778.16
534.826	7844.14
535.192	7885.5
535.557	7960.07
535.923	7946.74
536.288	7970.02
536.653	8045.27
537.019	8039.39
537.384	8031.71
537.749	8101.31
538.114	8181.99
538.479	8135.21
538.845	8143.35
539.21	8210.24
539.575	8226.28
539.94	8219.95
540.305	8325.04
540.67	8335.2
541.034	8345.37
541.399	8369.78
541.764	8400.74
542.129	8462.66
542.494	8466.27
542.858	8505.82
543.223	8497.46
543.587	8532.49
543.952	8505.14
544.316	8546.72
544.681	8614.75
545.045	8644.35
545.41	8753.5
545.774	8749.66
546.138	8761.63
546.503	8838.69
546.867	8806.6
547.231	8899.03
547.595	8913.49
547.959	8962.31
548.324	8961.63
548.688	8952.59
549.052	9001.18
549.416	9014.96
549.779	9101.29
550.143	9065.81
550.507	9191
550.871	9176.09
551.235	9136.99
551.599	9223.54
551.962	9282.75
552.326	9292.02
552.689	9416.31
553.053	9315.97
553.417	9358.68
553.78	9512.35
554.143	9480.71
554.507	9476.19
554.87	9565.91
555.234	9637.32
555.597	9640.71
555.96	9670.54
556.323	9740.14
556.686	9734.26
557.05	9843.41
557.413	9819.01
557.776	9873.7
558.139	9927.03
558.502	9988.27
558.865	9991.88
559.228	10113.01
559.59	10127.25
559.953	10193.69
560.316	10228.49
560.679	10270.29
561.041	10350.29
561.404	10317.75
561.767	10438.43
562.129	10424.42
562.492	10531.76
562.854	10479.55
563.217	10557.74
563.579	10597.29
563.941	10663.96
564.304	10838.87
564.666	10864.4
565.028	10894.01
565.39	10889.49
565.753	10956.83
566.115	11067.79
566.477	11040.9
566.839	11111.4
567.201	11131.74
567.563	11232.98
567.925	11362.24
568.287	11339.19
568.648	11310.27
569.01	11518.62
569.372	11558.85
569.734	11502.13
570.095	11606.98
570.457	11706.19
570.819	11703.25
571.18	11716.36
571.542	11777.37
571.903	11767.43
572.265	11873.19
572.626	11963.58
572.987	11999.29
573.349	12029.57
573.71	12129.68
574.071	12134.2
574.432	12216.23
574.794	12309.34
575.155	12323.12
575.516	12240.19
575.877	12315.66
576.238	12439.5
576.599	12398.83
576.96	12481.99
577.32	12503.68
577.681	12531.48
578.042	12658.48
578.403	12638.37
578.763	12645.15
579.124	12738.25
579.485	12865.93
579.845	12876.1
580.206	12808.76
580.566	12861.19
580.927	12825.48
581.287	12997.68
581.648	12958.13
582.008	13082.88
582.368	13051.46
582.728	13091.46
583.089	13054.63
583.449	13151.8
583.809	13220.95
584.169	13122.65
584.529	13153.16
584.889	13319.03
585.249	13195.64
585.609	13227.05
585.969	13409.65
586.329	13314.51
586.688	13378.01
587.048	13355.41
587.408	13335.07
587.768	13430.21
588.127	13421.62
588.487	13434.96
588.846	13571.23
589.206	13414.39
589.565	13527.61
589.925	13580.49
590.284	13523.32
590.643	13532.81
591.003	13620.72
591.362	13610.09
591.721	13654.16
592.08	13642.41
592.44	13722.18
592.799	13702.75
593.158	13704.33
593.517	13743.65
593.876	13792.01
594.235	13722.63
594.593	13839.24
594.952	13742.07
595.311	13805.12
595.67	13874.27
596.029	13928.05
596.387	13967.6
596.746	14037.2
597.104	13918.33
597.463	14020.48
597.822	14069.97
598.18	14076.07
598.538	14012.12
598.897	14058.9
599.255	14099.12
599.613	14187.03
599.972	14133.92
600.33	14220.7
600.688	14119.69
601.046	14159.23
601.404	14319.45
601.762	14224.09
602.12	14320.36
602.478	14307.7
602.836	14357.87
603.194	14314.48
603.552	14333.01
603.91	14380.02
604.268	14387.7
604.625	14410.3
604.983	14497.98
605.341	14330.53
605.698	14527.36
606.056	14469.28
606.413	14492.1
606.771	14595.15
607.128	14621.59
607.485	14561.03
607.843	14610.29
608.2	14682.16
608.557	14704.75
608.914	14608.94
609.272	14765.09
609.629	14758.09
609.986	14884.41
610.343	14740.46
610.7	14948.36
611.057	14908.59
611.414	14886.9
611.771	14905.43
612.127	14912.21
612.484	14955.6
612.841	14922.6
613.198	14922.38
613.554	14933
613.911	15060.68
614.267	15072.88
614.624	15039.21
614.98	15120.11
615.337	15260.9
615.693	15098.19
616.05	15094.8
616.406	15225.87
616.762	15211.86
617.118	15142.94
617.475	15212.31
617.831	15233.33
618.187	15183.61
618.543	15217.74
618.899	15295.25
619.255	15243.05
619.611	15406.21
619.967	15398.97
620.323	15354.68
620.678	15299.09
621.034	15396.49
621.39	15332.99
621.746	15334.57
622.101	15521
622.457	15353.33
622.812	15249.6
623.168	15517.39
623.523	15510.84
623.879	15466.77
624.234	15372.08
624.589	15415.47
624.945	15396.04
625.3	15409.37
625.655	15489.59
626.01	15503.38
626.365	15464.96
626.72	15469.48
627.075	15460.21
627.43	15519.2
627.785	15468.8
628.14	15469.93
628.495	15497.05
628.85	15366.21
629.205	15407.56
629.559	15437.62
629.914	15362.59
630.269	15412.98
630.623	15326.66
630.978	15307.68
631.332	15305.64
631.687	15394.68
632.041	15450.72
632.396	15412.98
632.75	15363.49
633.104	15337.73
633.459	15197.85
633.813	15288.92
634.167	15300.45
634.521	15238.75
634.875	15275.81
635.229	15273.78
635.583	15215.7
635.937	15213.44
636.291	15154.46
636.645	15205.08
636.999	15199.66
637.352	15222.93
637.706	15117.4
638.06	15257.06
638.413	15094.57
638.767	15120.79
639.121	15050.73
639.474	15046.67
639.828	15076.95
640.181	15139.77
640.534	15087.57
640.888	15095.25
641.241	14957.86
641.594	15006.22
641.947	15003.28
642.301	14986.56
642.654	14965.54
643.007	14967.8
643.36	15002.15
643.713	14942.49
644.066	15057.74
644.419	14914.24
644.771	14828.37
645.124	14673.79
645.477	14696.17
645.83	14551.99
646.182	14587.24
646.535	14496.62
646.888	14516.51
647.24	14443.52
647.593	14587.24
647.945	14509.05
648.298	14402.16
648.65	14376.85
649.002	14399
649.355	14518.09
649.707	14441.48
650.059	14469.51
650.411	14668.6
650.763	14665.66
651.115	14823.85
651.467	14722.38
651.819	14792.44
652.171	14680.12
652.523	14743.85
652.875	14703.17
653.227	14639.9
653.578	14739.78
653.93	14688.71
654.282	14615.94
654.633	14646.23
654.985	14642.38
655.337	14750.18
655.688	14672.89
656.039	14715.83
656.391	14573.46
656.742	14597.41
657.094	14612.33
657.445	14652.78
657.796	14596.73
658.147	14575.49
658.498	14633.34
658.849	14616.17
659.2	14580.92
659.551	14657.07
659.902	14659.56
660.253	14583.85
660.604	14615.04
660.955	14541.14
661.306	14630.18
661.656	14515.38
662.007	14660.46
662.358	14589.96
662.708	14618.66
663.059	14581.82
663.409	14534.36
663.76	14611.42
664.11	14654.13
664.461	14606.23
664.811	14674.02
665.161	14615.49
665.511	14563.52
665.862	14615.04
666.212	14687.58
666.562	14570.07
666.912	14590.41
667.262	14563.06
667.612	14570.52
667.962	14621.82
668.312	14641.93
668.662	14738.65
669.011	14704.53
669.361	14555.38
669.711	14581.37
670.06	14575.49
670.41	14563.06
670.76	14586.34
671.109	14557.41
671.459	14497.75
671.808	14544.31
672.157	14581.37
672.507	14495.27
672.856	14573.46
673.205	14484.87
673.554	14604.64
673.904	14496.62
674.253	14531.43
674.602	14540.92
674.951	14344.76
675.3	14233.81
675.649	14525.1
675.998	14463.18
676.346	14438.09
676.695	14513.57
677.044	14377.31
677.393	14420.47
677.741	14504.31
678.09	14359
678.438	14391.54
678.787	14486.91
679.135	14497.98
679.484	14297.53
679.832	14396.06
680.181	14321.71
680.529	14410.75
680.877	14347.48
681.225	14272.68
681.573	14292.11
681.922	14260.92
682.27	14197.2
682.618	14267.7
682.966	14126.46
683.314	14178.67
683.661	14128.05
684.009	14187.71
684.357	14091.66
684.705	14072.45
685.053	14072
685.4	14060.93
685.748	14005.79
686.095	14038.11
686.443	13909.07
686.79	13914.49
687.138	13954.49
687.485	13946.36
687.832	13969.86
688.18	13933.02
688.527	13720.15
688.874	13898.22
689.221	13797.89
689.568	13842.18
689.915	13767.83
690.262	13823.42
690.609	13764.44
690.956	13701.39
691.303	13679.7
691.65	13555.63
691.997	13647.83
692.344	13531.45
692.69	13534.62
693.037	13622.3
693.383	13447.16
693.73	13431.57
694.077	13457.78
694.423	13411.68
694.769	13345.69
695.116	13349.08
695.462	13303.44
695.808	13195.42
696.155	13192.7
696.501	13140.73
696.847	13155.42
697.193	13084.91
697.539	13124.01
697.885	13061.18
698.231	13070.45
698.577	13031.58
698.923	13041.97
699.269	12954.74
699.614	12885.37
699.96	12896.89
700.306	12907.06
700.651	12766.5
700.997	12704.58
701.342	12686.73
701.688	12720.17
702.033	12641.31
702.379	12624.81
702.724	12647.18
703.069	12663.9
703.415	12529.67
703.76	12603.57
704.105	12538.48
704.45	12553.17
704.795	12489.9
705.14	12374.87
705.485	12448.77
705.83	12401.99
706.175	12321.77
706.52	12220.53
706.865	12292.16
707.209	12220.98
707.554	12310.69
707.899	12277.02
708.243	12187.31
708.588	12162.67
708.932	12090.81
709.277	12080.87
709.621	12058.04
709.966	12069.34
710.31	12085.39
710.654	11983.02
710.998	12057.37
711.342	12018.5
711.687	11984.15
712.031	11931.95
712.375	11886.07
712.719	11797.71
713.063	11883.59
713.407	11877.03
713.75	11726.53
714.094	11777.83
714.438	11715
714.782	11879.97
715.125	11680.88
715.469	11690.37
715.812	11680.43
716.156	11675.46
716.499	11657.6
716.843	11675
717.186	11595.46
717.53	11592.29
717.873	11601.56
718.216	11624.16
718.559	11601.33
718.902	11517.04
719.246	11493.77
719.589	11528.11
719.932	11477.27
720.275	11423.71
720.617	11429.36
720.96	11442.47
721.303	11516.82
721.646	11463.26
721.989	11355.92
722.331	11471.17
722.674	11410.15
723.016	11444.5
723.359	11392.98
723.701	11335.8
724.044	11340.1
724.386	11323.6
724.729	11373.77
725.071	11303.94
725.413	11312.08
725.755	11337.39
726.097	11219.65
726.439	11270.72
726.782	11278.63
727.124	11285.18
727.465	11198.86
727.807	11229.14
728.149	11204.06
728.491	11176.26
728.833	11224.62
729.175	11127
729.516	11174.23
729.858	11177.16
730.199	11148.01
730.541	11161.34
730.882	11054.68
731.224	11152.53
731.565	11009.48
731.906	11081.57
732.248	11107.56
732.589	11061.46
732.93	11035.92
733.271	11016.49
733.612	11025.98
733.953	11047.68
734.294	11124.74
734.635	10976.04
734.976	11070.95
735.317	10991.63
735.658	10934.23
735.999	10967.9
736.339	10930.39
736.68	11009.26
737.021	11035.92
737.361	10956.15
737.702	10981.69
738.042	11019.65
738.383	10982.37
738.723	10965.19
739.063	10939.88
739.404	10920.22
739.744	10937.4
740.084	10828.25
740.424	10882.03
740.764	10903.5
741.104	10876.83
741.444	10868.02
741.784	10878.19
742.124	10874.12
742.464	10879.54
742.804	10881.35
743.143	10850.17
743.483	10888.36
743.823	10828.02
744.162	10848.58
744.502	10859.66
744.841	10796.16
745.181	10849.94
745.52	10761.36
745.86	10786.67
746.199	10812.65
746.538	10791.86
746.877	10844.29
747.216	10742.15
747.556	10717.06
747.895	10723.62
748.234	10764.07
748.573	10673.9
748.911	10718.87
749.25	10726.55
749.589	10700.34
749.928	10664.86
750.267	10738.31
750.605	10696.72
750.944	10646.78
751.283	10665.09
751.621	10647.69
751.96	10574.92
752.298	10551.42
752.636	10560.23
752.975	10576.73
753.313	10449.5
753.651	10607.91
753.989	10531.98
754.327	10509.84
754.666	10494.24
755.004	10476.84
755.342	10431.87
755.679	10420.8
756.017	10391.42
756.355	10456.5
756.693	10389.84
757.031	10431.65
757.368	10282.05
757.706	10310.29
758.044	10357.75
758.381	10353.68
758.719	10274.14
759.056	10304.64
759.394	10280.92
759.731	10167.25
760.068	10169.05
760.405	10143.97
760.743	10127.93
761.08	10219.22
761.417	10079.34
761.754	10042.96
762.091	10047.02
762.428	10024.65
762.765	9990.98
763.102	9934.48
763.438	9951.89
763.775	9825.56
764.112	9874.37
764.449	9819.01
764.785	9796.41
765.122	9684.32
765.458	9700.82
765.795	9662.4
766.131	9715.51
766.467	9661.95
766.804	9616.98
767.14	9614.94
767.476	9652.68
767.812	9520.71
768.148	9491.78
768.485	9541.5
768.821	9453.82
769.157	9459.69
769.492	9421.73
769.828	9426.7
770.164	9263.09
770.5	9215.63
770.836	9261.28
771.171	9300.6
771.507	9155.97
771.842	9148.74
772.178	9200.49
772.513	9124.11
772.849	9075.3
773.184	9051.34
773.519	9081.85
773.855	8993.72
774.19	8974.96
774.525	8973.15
774.86	8954.62
775.195	8915.53
775.53	8857
775.865	8768.19
776.2	8723.89
776.535	8762.31
776.87	8753.72
777.205	8694.52
777.539	8623.11
777.874	8667.85
778.209	8605.03
778.543	8573.39
778.878	8529.55
779.212	8566.61
779.547	8410
779.881	8500.4
780.215	8432.15
780.55	8490.23
780.884	8374.75
781.218	8341.76
781.552	8315.77
781.886	8273.06
782.22	8254.53
782.554	8240.52
782.888	8095.21
783.222	8113.97
783.556	8139.5
783.889	8084.14
784.223	8036.46
784.557	8002.56
784.89	8050.47
785.224	7918.94
785.557	7946.97
785.891	7977.25
786.224	7883.24
786.558	7885.05
786.891	7858.15
787.224	7788.55
787.557	7833.3
787.891	7771.83
788.224	7756.24
788.557	7729.12
788.89	7698.39
789.223	7653.19
789.556	7613.87
789.888	7606.86
790.221	7621.78
790.554	7525.73
790.887	7523.7
791.219	7467.66
791.552	7458.62
791.884	7476.02
792.217	7418.84
792.549	7359.41
792.882	7349.92
793.214	7349.02
793.546	7275.8
793.879	7226.08
794.211	7235.8
794.543	7241.22
794.875	7288.23
795.207	7233.31
795.539	7203.26
795.871	7213.2
796.203	7128.68
796.535	7080.1
796.867	7101.34
797.198	7030.15
797.53	7056.82
797.862	7010.49
798.193	7067.89
798.525	6922.36
798.856	6933.89
799.188	6858.86
799.519	6911.06
799.85	6853.44
800.182	6832.87
800.513	6843.04
800.844	6747.9
801.175	6786.32
801.506	6791.52
801.837	6709.71
802.168	6754.91
802.499	6696.15
802.83	6687.34
803.161	6611.41
803.491	6683.95
803.822	6622.93
804.153	6589.04
804.483	6559.43
804.814	6562.37
805.145	6491.64
805.475	6508.59
805.805	6449.38
806.136	6470.62
806.466	6457.97
806.796	6453.67
807.126	6430.17
807.457	6416.38
807.787	6438.08
808.117	6361.7
808.447	6346.1
808.777	6379.1
809.107	6316.5
809.436	6321.02
809.766	6304.52
810.096	6288.03
810.426	6260.91
810.755	6237.63
811.085	6291.19
811.414	6180.91
811.744	6146.11
812.073	6173.91
812.403	6168.26
812.732	6135.26
813.061	6104.75
813.39	6073.34
813.719	6090.74
814.049	6096.39
814.378	6065.21
814.707	6045.1
815.036	6047.58
815.365	6023.63
815.693	5877.64
816.022	5967.13
816.351	5966.45
816.68	5873.57
817.008	5947.47
817.337	5905.44
817.665	5855.27
817.994	5861.15
818.322	5905.89
818.651	5834.93
818.979	5871.31
819.307	5814.82
819.636	5802.39
819.964	5826.8
820.292	5827.25
820.62	5831.32
820.948	5796.29
821.276	5805.78
821.604	5808.72
821.932	5791.54
822.259	5823.63
822.587	5771.2
822.915	5785.44
823.243	5728.27
823.57	5737.98
823.898	5759
824.225	5747.48
824.553	5751.77
824.88	5770.53
825.207	5719.23
825.535	5750.41
825.862	5817.76
826.189	5793.58
826.516	5754.71
826.843	5791.99
827.17	5778.66
827.497	5780.02
827.824	5785.67
828.151	5760.13
828.478	5699.57
828.805	5745.44
829.131	5771.43
829.458	5737.08
829.785	5721.49
830.111	5767.36
830.438	5730.53
830.764	5770.53
831.09	5711.77
831.417	5693.24
831.743	5699.57
832.069	5683.3
832.395	5710.87
832.722	5700.25
833.048	5692.34
833.374	5733.01
833.7	5684.2
834.026	5704.77
834.351	5718.32
834.677	5666.8
835.003	5696.18
835.329	5651.43
835.654	5673.13
835.98	5619.8
836.306	5669.06
836.631	5580.02
836.956	5647.37
837.282	5636.07
837.607	5577.54
837.932	5599.23
838.258	5627.03
838.583	5601.94
838.908	5577.76
839.233	5581.83
839.558	5523.08
839.883	5495.73
840.208	5509.06
840.533	5512.68
840.858	5481.72
841.182	5516.97
841.507	5465.45
841.832	5475.39
842.156	5422.74
842.481	5487.82
842.805	5493.25
843.13	5463.42
843.454	5456.64
843.778	5430.87
844.103	5414.6
844.427	5381.61
844.751	5366.02
845.075	5346.13
845.399	5306.58
845.723	5344.55
846.047	5323.98
846.371	5264.55
846.695	5293.25
847.019	5283.31
847.343	5255.96
847.666	5233.82
847.99	5178.68
848.313	5159.92
848.637	5160.82
848.96	5186.36
849.284	5119.24
849.607	5102.97
849.931	5068.62
850.254	5031.79
850.577	5013.26
850.9	4990.66
851.223	4977.55
851.546	4970.77
851.869	4975.52
852.192	4965.12
852.515	4921.06
852.838	4891
853.161	4916.09
853.483	4881.28
853.806	4874.28
854.129	4830.66
854.451	4822.53
854.774	4801.51
855.096	4825.01
855.419	4807.39
855.741	4792.47
856.063	4769.2
856.385	4806.26
856.708	4740.72
857.03	4741.85
857.352	4699.37
857.674	4707.96
857.996	4745.47
858.318	4681.97
858.64	4628.18
858.961	4616.66
859.283	4636.09
859.605	4636.32
859.926	4627.28
860.248	4637.9
860.57	4578.47
860.891	4614.17
861.212	4579.82
861.534	4545.47
861.855	4655.75
862.176	4594.06
862.498	4562.87
862.819	4556.77
863.14	4498.24
863.461	4533.5
863.782	4518.13
864.103	4505.93
864.424	4484.68
864.745	4476.55
865.065	4466.83
865.386	4477.9
865.707	4485.59
866.027	4481.75
866.348	4470.22
866.668	4394.07
866.989	4419.15
867.309	4407.17
867.63	4407.62
867.95	4388.19
868.27	4376.66
868.59	4406.72
868.91	4395.87
869.23	4376.21
869.55	4378.02
869.87	4425.25
870.19	4370.56
870.51	4369.21
870.83	4376.21
871.15	4336.67
871.469	4350.22
871.789	4358.36
872.109	4347.29
872.428	4298.25
872.748	4286.95
873.067	4330.79
873.386	4297.8
873.706	4298.47
874.025	4281.75
874.344	4283.56
874.663	4274.75
874.982	4322.88
875.301	4271.36
875.62	4285.59
875.939	4312.26
876.258	4271.58
876.577	4279.04
876.896	4246.27
877.214	4219.83
877.533	4237.01
877.852	4245.59
878.17	4218.7
878.489	4198.36
878.807	4262.32
879.125	4214.86
879.444	4212.38
879.762	4172.6
880.08	4213.05
880.398	4176.67
880.716	4224.35
881.034	4158.37
881.352	4145.71
881.67	4161.53
881.988	4207.86
882.306	4166.27
882.624	4089.44
882.941	4138.03
883.259	4084.24
883.577	4081.98
883.894	4109.33
884.212	4081.53
884.529	4041.98
884.846	4050.8
885.164	4078.37
885.481	4110.91
885.798	4074.07
886.115	4026.84
886.432	4037.92
886.75	4037.69
887.067	4021.19
887.383	4002.66
887.7	4014.64
888.017	3997.24
888.334	4006.96
888.651	3965.15
888.967	3983.45
889.284	3979.84
889.6	3956.34
889.917	3970.35
890.233	3940.97
890.55	3904.36
890.866	3911.14
891.182	3921.31
891.498	3874.98
891.815	3897.58
892.131	3870.24
892.447	3877.69
892.763	3866.4
893.079	3849.45
893.395	3870.92
893.71	3849.67
894.026	3824.81
894.342	3854.87
894.657	3778.94
894.973	3808.77
895.289	3754.31
895.604	3758.83
895.92	3720.41
896.235	3735.1
896.55	3747.53
896.865	3713.41
897.181	3717.47
897.496	3711.15
897.811	3669.11
898.126	3666.63
898.441	3704.82
898.756	3656.01
899.071	3659.62
899.386	3673.63
899.7	3627.08
900.015	3627.08
900.33	3576.91
900.644	3552.96
900.959	3550.47
901.273	3575.33
901.588	3555.44
901.902	3508.44
902.216	3559.96
902.531	3553.64
902.845	3545.95
903.159	3466.86
903.473	3478.84
903.787	3478.16
904.101	3437.25
904.415	3445.16
904.729	3437.71
905.042	3411.72
905.356	3445.84
905.67	3400.65
905.984	3400.87
906.297	3426.41
906.611	3383.92
906.924	3378.05
907.237	3346.86
907.551	3372.17
907.864	3342.57
908.177	3310.03
908.491	3324.94
908.804	3277.71
909.117	3310.7
909.43	3275.45
909.743	3294.43
910.056	3285.85
910.368	3253.53
910.681	3225.73
910.994	3213.31
911.307	3196.13
911.619	3175.79
911.932	3216.92
912.244	3192.06
912.557	3180.09
912.869	3139.41
913.181	3159.3
913.494	3132.63
913.806	3099.41
914.118	3129.47
914.43	3101.44
914.742	3080.43
915.054	3088.56
915.366	3089.01
915.678	3058.73
915.99	3065.51
916.302	3046.53
916.613	3058.51
916.925	3051.73
917.236	3032.07
917.548	2997.94
917.859	2973.76
918.171	3020.54
918.482	2963.82
918.794	2942.35
919.105	2998.4
919.416	2952.07
919.727	2929.92
920.038	2913.2
920.349	2887.21
920.66	2887.44
920.971	2888.57
921.282	2892.64
921.593	2867.33
921.903	2830.94
922.214	2852.64
922.525	2861
922.835	2825.29
923.146	2819.87
923.456	2822.81
923.767	2789.36
924.077	2760.66
924.387	2749.36
924.697	2803.82
925.008	2773.54
925.318	2734.67
925.628	2739.19
925.938	2707.33
926.248	2710.49
926.558	2731.06
926.867	2687.67
927.177	2687.67
927.487	2674.34
927.796	2675.92
928.106	2620.1
928.416	2667.33
928.725	2639.76
929.034	2642.92
929.344	2631.85
929.653	2603.6
929.962	2584.62
930.271	2595.47
930.581	2571.06
930.89	2577.16
931.199	2543.94
931.508	2524.28
931.817	2577.39
932.125	2552.53
932.434	2530.16
932.743	2531.29
933.051	2545.3
933.36	2504.85
933.669	2448.58
933.977	2476.6
934.286	2483.38
934.594	2458.75
934.902	2430.05
935.21	2457.62
935.519	2421.69
935.827	2445.42
936.135	2414.23
936.443	2405.42
936.751	2418.98
937.059	2412.87
937.367	2390.95
937.674	2406.55
937.982	2388.69
938.29	2381.69
938.597	2353.21
938.905	2342.59
939.213	2300.11
939.52	2329.03
939.827	2314.57
940.135	2286.55
940.442	2349.37
940.749	2281.58
941.056	2286.78
941.363	2272.77
941.67	2274.8
941.977	2256.72
942.284	2267.57
942.591	2251.3
942.898	2224.18
943.205	2240.9
943.511	2196.38
943.818	2208.81
944.125	2170.39
944.431	2193.67
944.738	2212.65
945.044	2200.45
945.35	2196.61
945.657	2200.68
945.963	2153.9
946.269	2161.13
946.575	2156.84
946.881	2153.67
947.187	2135.14
947.493	2103.5
947.799	2100.57
948.105	2088.82
948.41	2061.02
948.716	2078.42
949.022	2094.69
949.327	2083.17
949.633	2076.39
949.938	2086.33
950.244	2063.05
950.549	2061.92
950.854	2038.42
951.16	2046.56
951.465	2058.53
951.77	2045.88
952.075	2009.27
952.38	2033.68
952.685	2001.36
952.99	1995.26
953.294	1970.63
953.599	1990.29
953.904	1979.89
954.209	1968.82
954.513	1971.3
954.818	1945.09
955.122	1920.46
955.426	1955.26
955.731	1945.77
956.035	1960.23
956.339	1940.57
956.643	1926.56
956.948	1877.75
957.252	1899.22
957.556	1907.35
957.86	1900.35
958.163	1875.94
958.467	1853.79
958.771	1861.93
959.075	1845.88
959.378	1823.96
959.682	1835.94
959.985	1833.45
960.289	1821.25
960.592	1823.74
960.896	1825.55
961.199	1803.85
961.502	1803.4
961.805	1803.85
962.108	1806.34
962.411	1775.15
962.714	1761.82
963.017	1778.31
963.32	1748.49
963.623	1742.16
963.926	1745.32
964.228	1760.24
964.531	1755.94
964.833	1719.11
965.136	1732.21
965.438	1707.58
965.741	1729.05
966.043	1698.99
966.345	1696.06
966.648	1704.19
966.95	1687.24
967.252	1708.94
967.554	1650.41
967.856	1651.31
968.158	1661.03
968.46	1658.77
968.761	1649.5
969.063	1637.3
969.365	1648.83
969.666	1627.58
969.968	1610.41
970.269	1605.21
970.571	1634.36
970.872	1607.25
971.174	1607.02
971.475	1616.29
971.776	1612.22
972.077	1587.36
972.378	1584.65
972.679	1599.79
972.98	1554.59
973.281	1571.99
973.582	1572.44
973.883	1563.18
974.183	1538.55
974.484	1519.79
974.785	1547.13
975.085	1561.82
975.386	1557.53
975.686	1566.79
975.986	1523.63
976.287	1517.98
976.587	1506.23
976.887	1481.83
977.187	1534.93
977.487	1501.49
977.787	1483.41
978.087	1515.5
978.387	1459.91
978.687	1471.88
978.987	1448.15
979.286	1460.13
979.586	1485.44
979.885	1473.46
980.185	1454.71
980.484	1450.87
980.784	1448.15
981.083	1455.61
981.382	1429.4
981.682	1400.92
981.981	1410.41
982.28	1413.58
982.579	1390.53
982.878	1407.25
983.177	1409.74
983.475	1378.78
983.774	1377.42
984.073	1389.17
984.372	1382.84
984.67	1386.69
984.969	1369.06
985.267	1345.78
985.566	1350.53
985.864	1317.31
986.162	1357.31
986.461	1331.55
986.759	1363.64
987.057	1329.06
987.355	1326.58
987.653	1334.26
987.951	1334.48
988.249	1307.82
988.547	1305.33
988.844	1263.3
989.142	1290.87
989.44	1303.53
989.737	1278.44
990.035	1292.23
990.332	1292.68
990.63	1282.06
990.927	1253.81
991.224	1258.55
991.521	1230.53
991.819	1265.56
992.116	1252.9
992.413	1268.95
992.71	1219.23
993.006	1230.31
993.303	1223.75
993.6	1243.64
993.897	1240.25
994.193	1209.52
994.49	1233.92
994.787	1208.39
995.083	1223.08
995.379	1194.38
995.676	1183.53
995.972	1195.96
996.268	1179.01
996.565	1182.4
996.861	1156.64
997.157	1170.65
997.453	1146.24
997.749	1159.12
998.044	1155.73
998.34	1153.47
998.636	1145.56
998.932	1134.04
999.227	1153.25
999.523	1125.9
999.818	1106.47
1000.114	1131.78
1000.409	1129.97
1000.704	1100.37
1001	1104.43
1001.295	1110.31
1001.59	1113.25
1001.885	1080.48
1002.18	1086.13
1002.475	1059.92
1002.77	1101.95
1003.065	1061.5
1003.359	1087.94
1003.654	1057.43
1003.949	1055.4
1004.243	1056.07
1004.538	1057.66
1004.832	1041.39
1005.127	1067.6
1005.421	1051.78
1005.715	1041.16
1006.009	1023.08
1006.304	1031.44
1006.598	1043.42
1006.892	1007.04
1007.186	993.25
1007.48	992.8
1007.773	1031.67
1008.067	967.49
1008.361	1002.97
1008.655	980.14
1008.948	976.3
1009.242	958
1009.535	941.27
1009.829	960.48
1010.122	955.74
1010.415	961.16
1010.708	940.82
1011.001	959.81
1011.295	927.49
1011.588	952.57
1011.881	918
1012.173	937.66
1012.466	934.95
1012.759	925.23
1013.052	928.85
1013.344	942.18
1013.637	899.69
1013.93	913.93
1014.222	892.46
1014.514	880.94
1014.807	889.3
1015.099	865.57
1015.391	896.08
1015.683	903.76
1015.976	890.43
1016.268	871.9
1016.56	873.71
1016.851	848.85
1017.143	868.96
1017.435	845.23
1017.727	854.95
1018.018	843.88
1018.31	833.71
1018.602	846.36
1018.893	819.02
1019.185	834.84
1019.476	836.87
1019.767	823.54
1020.058	841.39
1020.35	806.36
1020.641	828.96
1020.932	797.1
1021.223	823.31
1021.514	780.37
1021.804	791.67
1022.095	770.21
1022.386	789.64
1022.677	806.14
1022.967	769.98
1023.258	782.41
1023.548	761.84
1023.839	756.19
1024.129	760.04
1024.419	762.75
1024.709	752.35
1025	773.37
1025.29	748.96
1025.58	744.22
1025.87	750.32
1026.16	729.53
1026.449	741.96
1026.739	734.27
1027.029	751.68
1027.319	733.6
1027.608	713.94
1027.898	724.33
1028.187	736.31
1028.477	728.85
1028.766	683.2
1029.055	692.47
1029.344	720.26
1029.634	698.8
1029.923	715.52
1030.212	674.62
1030.501	688.63
1030.79	697.89
1031.078	671
1031.367	684.56
1031.656	683.2
1031.945	655.86
1032.233	687.04
1032.522	674.84
1032.81	669.42
1033.099	668.74
1033.387	661.28
1033.675	657.44
1033.963	651.34
1034.251	652.92
1034.54	666.25
1034.828	630.1
1035.116	631.9
1035.403	625.12
1035.691	618.8
1035.979	642.53
1036.267	618.8
1036.554	626.03
1036.842	634.84
1037.129	607.5
1037.417	603.43
1037.704	644.56
1037.992	606.37
1038.279	608.18
1038.566	597.33
1038.853	597.33
1039.14	597.33
