Data from tablewood_dark_bookshelf_FLMS001491_00060.txt Node
Date: Wed Feb 08 14:15:05 GMT 2017
User: dcchb
Spectrometer: FLMS00149
Trigger mode: 0
Integration Time (sec): 2.000000E-2
Scans to average: 10
Electric dark correction enabled: true
Nonlinearity correction enabled: false
Boxcar width: 0
XAxis mode: Wavelengths
Number of Pixels in Spectrum: 2048
>>>>>Begin Spectral Data<<<<<
341.393	-25
341.776	-25
342.16	-25
342.543	-61.83
342.927	-61.83
343.31	-64.77
343.693	-74.26
344.077	-77.88
344.46	-64.55
344.843	-37.65
345.226	-44.21
345.61	-32.68
345.993	-37.65
346.376	-3.3
346.759	13.64
347.142	28.33
347.525	57.71
347.908	74.21
348.291	60.2
348.674	102.45
349.057	100.42
349.44	110.14
349.823	148.78
350.206	163.47
350.588	188.55
350.971	201.66
351.354	216.58
351.737	223.58
352.119	233.3
352.502	250.47
352.884	245.95
353.267	283.24
353.65	269
354.032	308.33
354.414	311.71
354.797	309.23
355.179	313.75
355.562	303.13
355.944	287.76
356.326	340.19
356.709	326.86
357.091	326.63
357.473	331.15
357.855	320.53
358.238	313.3
358.62	339.06
359.002	336.8
359.384	337.93
359.766	339.96
360.148	319.62
360.53	329.79
360.912	320.3
361.294	344.48
361.676	320.98
362.057	325.73
362.439	337.93
362.821	338.83
363.203	334.31
363.584	311.71
363.966	319.4
364.348	306.52
364.729	304.71
365.111	321.43
365.493	321.66
365.874	325.73
366.256	326.63
366.637	326.86
367.019	307.42
367.4	319.4
367.781	311.04
368.163	302.68
368.544	316.23
368.925	333.41
369.306	328.21
369.688	318.49
370.069	306.52
370.45	326.63
370.831	328.21
371.212	329.12
371.593	314.88
371.974	315.78
372.355	306.29
372.736	313.75
373.117	313.75
373.498	324.6
373.879	310.59
374.26	325.05
374.641	299.29
375.021	327.76
375.402	325.5
375.783	344.26
376.163	337.48
376.544	342.22
376.925	344.71
377.305	336.8
377.686	345.39
378.066	351.04
378.447	354.43
378.827	343.58
379.208	341.77
379.588	341.54
379.968	342.9
380.349	338.15
380.729	336.35
381.109	346.29
381.489	330.92
381.87	360.75
382.25	356.91
382.63	346.52
383.01	365.5
383.39	335.22
383.77	362.79
384.15	356.69
384.53	355.33
384.91	353.3
385.29	367.31
385.67	349.91
386.049	366.85
386.429	366.85
386.809	372.73
387.189	365.05
387.568	376.12
387.948	362.11
388.328	375.22
388.707	364.59
389.087	367.08
389.466	386.06
389.846	390.36
390.225	390.36
390.605	387.87
390.984	380.19
391.363	388.78
391.743	401.2
392.122	413.41
392.501	406.85
392.881	437.14
393.26	406.18
393.639	430.36
394.018	420.64
394.397	442.33
394.776	407.53
395.155	424.03
395.534	403.92
395.913	431.71
396.292	427.19
396.671	438.49
397.05	425.84
397.429	442.33
397.808	428.77
398.186	417.93
398.565	433.97
398.944	430.58
399.323	442.56
399.701	440.3
400.08	459.73
400.458	438.04
400.837	447.76
401.215	452.95
401.594	474.42
401.972	457.25
402.351	468.32
402.729	474.42
403.107	487.76
403.486	468.77
403.864	471.26
404.242	483.24
404.62	485.27
404.999	487.3
405.377	475.78
405.755	481.43
406.133	501.77
406.511	490.02
406.889	496.34
407.267	502.9
407.645	494.99
408.023	519.17
408.401	505.83
408.779	520.98
409.156	534.76
409.534	523.23
409.912	527.98
410.29	540.41
410.667	521.88
411.045	531.37
411.422	544.7
411.8	555.78
412.178	571.14
412.555	573.85
412.933	567.75
413.31	573.63
413.687	583.12
414.065	571.82
414.442	584.25
414.819	575.44
415.197	586.06
415.574	598.49
415.951	603.68
416.328	600.75
416.705	612.5
417.082	631.48
417.46	612.5
417.837	641.88
418.214	628.77
418.591	595.78
418.967	630.35
419.344	660.41
419.721	641.42
420.098	611.37
420.475	673.29
420.852	652.27
421.228	678.94
421.605	687.07
421.982	688.88
422.358	660.18
422.735	658.6
423.111	719.39
423.488	687.98
423.864	692.04
424.241	715.09
424.617	686.62
424.994	703.57
425.37	720.52
425.746	725.26
426.123	711.7
426.499	725.72
426.875	734.75
427.251	748.54
427.627	771.36
428.003	752.38
428.379	758.26
428.756	779.27
429.132	798.93
429.507	794.64
429.883	807.3
430.259	821.53
430.635	813.62
431.011	836.45
431.387	840.29
431.763	854.75
432.138	866.73
432.514	839.84
432.89	856.79
433.265	887.75
433.641	889.33
434.016	895.88
434.392	894.75
434.767	899.95
435.143	917.35
435.518	915.31
435.894	933.17
436.269	934.52
436.644	959.16
437.02	962.32
437.395	958.93
437.77	974.07
438.145	981.53
438.52	983.34
438.895	1005.93
439.271	1006.16
439.646	1021.53
440.021	1032.6
440.395	1033.96
440.77	1024.92
441.145	1042.77
441.52	1073.05
441.895	1074.41
442.27	1077.57
442.645	1045.03
443.019	1055.88
443.394	1107.85
443.769	1073.5
444.143	1076.67
444.518	1094.52
444.892	1094.97
445.267	1123.22
445.641	1143.78
446.016	1138.36
446.39	1134.97
446.764	1166.38
447.139	1146.27
447.513	1166.61
447.887	1150.34
448.262	1170
448.636	1166.61
449.01	1189.66
449.384	1205.93
449.758	1187.85
450.132	1223.56
450.506	1232.82
450.88	1212.03
451.254	1232.37
451.628	1246.38
452.002	1285.25
452.376	1262.65
452.75	1282.76
453.123	1272.82
453.497	1273.95
453.871	1297
454.244	1335.42
454.618	1371.12
454.992	1356.21
455.365	1376.32
455.739	1382.42
456.112	1393.49
456.486	1395.75
456.859	1401.86
457.232	1448.86
457.606	1454.96
457.979	1435.3
458.352	1490.89
458.725	1493.83
459.099	1524.56
459.472	1547.61
459.845	1561.85
460.218	1567.73
460.591	1597.56
460.964	1598.69
461.337	1657.89
461.71	1641.85
462.083	1641.17
462.456	1681.85
462.829	1692.47
463.201	1657.67
463.574	1719.36
463.947	1725.46
464.32	1750.55
464.692	1776.54
465.065	1796.87
465.438	1814.27
465.81	1867.83
466.183	1860.15
466.555	1876.87
466.928	1889.98
467.3	1916.42
467.672	1920.03
468.045	1958.45
468.417	1992.35
468.789	2014.5
469.161	2026.25
469.534	2046.58
469.906	2113.7
470.278	2098.33
470.65	2121.84
471.022	2146.24
471.394	2201.61
471.766	2247.94
472.138	2218.56
472.51	2266.69
472.882	2337.2
473.253	2345.56
473.625	2388.5
473.997	2420.59
474.369	2428.72
474.74	2464.65
475.112	2534.03
475.484	2499
475.855	2569.06
476.227	2577.19
476.598	2665.55
476.97	2694.93
477.341	2746.91
477.713	2797.98
478.084	2777.41
478.455	2843.4
478.827	2885.43
479.198	2967.01
479.569	2960.01
479.94	3042.04
480.311	3078.65
480.682	3137.86
481.053	3230.73
481.424	3238.64
481.795	3271.41
482.166	3317.06
482.537	3332.65
482.908	3429.6
483.279	3449.71
483.65	3533.1
484.021	3597.5
484.391	3610.39
484.762	3683.15
485.133	3662.36
485.503	3724.73
485.874	3792.75
486.244	3844.5
486.615	3920.89
486.985	3974.67
487.356	4012.63
487.726	4086.53
488.097	4142.35
488.467	4132.18
488.837	4248.11
489.207	4262.57
489.578	4296.69
489.948	4382.79
490.318	4438.61
490.688	4464.37
491.058	4521.32
491.428	4599.74
491.798	4611.49
492.168	4729
492.538	4717.7
492.908	4776.23
493.278	4813.07
493.648	4784.82
494.017	4913.85
494.387	4930.35
494.757	4969.67
495.126	5048.09
495.496	5027.07
495.866	5057.13
496.235	5164.02
496.605	5162.43
496.974	5230.23
497.344	5278.36
497.713	5338.48
498.082	5310.91
498.452	5417.34
498.821	5436.1
499.19	5453.05
499.559	5475.65
499.928	5567.4
500.298	5552.93
500.667	5629.99
501.036	5597.23
501.405	5667.51
501.774	5719.26
502.143	5764
502.512	5767.62
502.88	5822.53
503.249	5861.85
503.618	5854.17
503.987	5997.22
504.356	5989.53
504.724	6038.34
505.093	6027.27
505.462	6067.95
505.83	6110.21
506.199	6147.72
506.567	6284.21
506.936	6274.95
507.304	6323.53
507.672	6370.31
508.041	6396.3
508.409	6427.26
508.777	6493.47
509.145	6542.06
509.514	6563.53
509.882	6622.74
510.25	6573.25
510.618	6650.76
510.986	6725.33
511.354	6710.42
511.722	6815.27
512.09	6872.22
512.458	6886.23
512.826	6964.87
513.193	7015.49
513.561	7037.64
513.929	7087.13
514.297	7171.87
514.664	7227.47
515.032	7203.96
515.4	7340.68
515.767	7326.9
516.135	7358.99
516.502	7310.63
516.869	7407.35
517.237	7519.89
517.604	7517.18
517.972	7607.79
518.339	7591.98
518.706	7737.51
519.073	7748.81
519.44	7774.34
519.808	7900.22
520.175	7975.69
520.542	8018.18
520.909	8049.82
521.276	8034.9
521.643	8161.9
522.009	8234.9
522.376	8312.86
522.743	8291.17
523.11	8393.99
523.477	8449.13
523.843	8569.12
524.21	8652.74
524.577	8684.15
524.943	8671.27
525.31	8794.66
525.676	8858.83
526.043	8913.3
526.409	8956.69
526.776	9100.41
527.142	9029.68
527.508	9127.08
527.874	9219.5
528.241	9261.08
528.607	9338.6
528.973	9447.75
529.339	9418.82
529.705	9534.52
530.071	9588.53
530.437	9589.66
530.803	9637.57
531.169	9712.15
531.535	9749.88
531.901	9779.94
532.267	9879.15
532.632	9915.53
532.998	9923.21
533.364	10048.41
533.73	10067.16
534.095	10162.08
534.461	10191.91
534.826	10238.91
535.192	10299.47
535.557	10358.46
535.923	10314.84
536.288	10413.14
536.653	10442.52
537.019	10434.39
537.384	10464.67
537.749	10500.6
538.114	10604.55
538.479	10585.8
538.845	10668.05
539.21	10676.41
539.575	10750.08
539.94	10753.47
540.305	10753.7
540.67	10769.52
541.034	10831.21
541.399	10893.36
541.764	10996.86
542.129	11108.04
542.494	10998.67
542.858	11126.35
543.223	11030.98
543.587	11202.05
543.952	11197.3
544.316	11276.17
544.681	11237.53
545.045	11307.36
545.41	11348.26
545.774	11397.3
546.138	11428.94
546.503	11457.18
546.867	11486.79
547.231	11543.96
547.595	11512.1
547.959	11604.53
548.324	11599.55
548.688	11753.67
549.052	11782.15
549.416	11849.04
549.779	11746.44
550.143	11845.65
550.507	11868.93
550.871	11878.19
551.235	11954.12
551.599	12026.21
551.962	12094.91
552.326	12182.36
552.689	12185.98
553.053	12204.96
553.417	12115.92
553.78	12355.01
554.143	12366.54
554.507	12389.14
554.87	12407.67
555.234	12566.53
555.597	12533.54
555.96	12593.65
556.323	12663.03
556.686	12690.82
557.05	12768.79
557.413	12860.09
557.776	12791.84
558.139	12943.02
558.502	12929.69
558.865	13012.17
559.228	13227.99
559.59	13147.08
559.953	13232.28
560.316	13327.87
560.679	13324.48
561.041	13439.28
561.404	13610.8
561.767	13573.74
562.129	13526.06
562.492	13807.63
562.854	13729.44
563.217	13766.05
563.579	13795.43
563.941	13880.4
564.304	13978.02
564.666	14120.62
565.028	14124.01
565.39	14264.79
565.753	14353.61
566.115	14303.44
566.477	14407.16
566.839	14450.78
567.201	14612.58
567.563	14544.56
567.925	14760.15
568.287	14766.48
568.648	14777.55
569.01	14909.75
569.372	14897.09
569.734	14906.36
570.095	15057.54
570.457	15225
570.819	15198.78
571.18	15208.5
571.542	15361.71
571.903	15427.25
572.265	15561.94
572.626	15442.84
572.987	15618.88
573.349	15568.94
573.71	15695.49
574.071	15670.86
574.432	15815.94
574.794	15960.12
575.155	15906.79
575.516	15974.13
575.877	16099.55
576.238	16005.54
576.599	16157.85
576.96	16134.12
577.32	16221.81
577.681	16342.93
578.042	16427.9
578.403	16476.94
578.763	16550.84
579.124	16529.59
579.485	16671.74
579.845	16689.82
580.206	16678.29
580.566	16654.11
580.927	16698.18
581.287	16836.7
581.648	16733.43
582.008	16939.53
582.368	16866.53
582.728	16937.49
583.089	16953.54
583.449	16996.02
583.809	17053.65
584.169	17097.94
584.529	17121.89
584.889	17302.23
585.249	17144.94
585.609	17142.23
585.969	17283.47
586.329	17234.89
586.688	17402.79
587.048	17407.31
587.408	17417.71
587.768	17355.56
588.127	17371.61
588.487	17496.8
588.846	17621.32
589.206	17615.44
589.565	17520.98
589.925	17651.37
590.284	17670.81
590.643	17807.53
591.003	17673.07
591.362	17833.29
591.721	17678.94
592.08	17781.76
592.44	17864.47
592.799	17933.85
593.158	17981.31
593.517	17963.68
593.876	18046.16
594.235	17965.94
594.593	17975.66
594.952	18083.45
595.311	18064.69
595.67	18102.66
596.029	18224.01
596.387	18318.93
596.746	18233.5
597.104	18153.28
597.463	18140.62
597.822	18339.49
598.18	18351.24
598.538	18298.13
598.897	18460.84
599.255	18284.35
599.613	18593.49
599.972	18429.88
600.33	18529.54
600.688	18397.57
601.046	18657.22
601.404	18687.95
601.762	18704.68
602.12	18837.33
602.478	18849.76
602.836	18820.38
603.194	18748.52
603.552	18763.21
603.91	18722.98
604.268	18827.16
604.625	18781.06
604.983	18903.09
605.341	18857.44
605.698	18949.19
606.056	19008.17
606.413	18925.24
606.771	19105.12
607.128	19014.95
607.485	19004.78
607.843	19068.96
608.2	19184.67
608.557	19270.54
608.914	19162.74
609.272	19327.49
609.629	19328.84
609.986	19512.79
610.343	19308.73
610.7	19447.03
611.057	19487.03
611.414	19468.5
611.771	19468.05
612.127	19519.8
612.484	19569.74
612.841	19621.26
613.198	19612
613.554	19558.67
613.911	19649.74
614.267	19689.28
614.624	19692.9
614.98	19725.44
615.337	19926.11
615.693	19771.09
616.05	19790.75
616.406	19992.55
616.762	19804.31
617.118	19891.31
617.475	19860.13
617.831	19943.06
618.187	19961.59
618.543	19928.15
618.899	20026
619.255	20012.67
619.611	19934.02
619.967	20025.77
620.323	20131.31
620.678	20051.76
621.034	20058.99
621.39	20014.93
621.746	20069.39
622.101	20233
622.457	20213.11
622.812	20119.33
623.168	20216.28
623.523	20152.55
623.879	20312.77
624.234	20096.96
624.589	20226.45
624.945	20230.06
625.3	20293.56
625.655	20245.65
626.01	20292.88
626.365	20307.35
626.72	20201.14
627.075	20217.18
627.43	20163.85
627.785	20154.58
628.14	20197.07
628.495	20181.7
628.85	20195.71
629.205	20126.56
629.559	20171.53
629.914	20204.98
630.269	20175.83
630.623	20141.48
630.978	20160.68
631.332	20188.71
631.687	20211.76
632.041	20087.92
632.396	20155.94
632.75	19987.13
633.104	19969.96
633.459	19993.23
633.813	20014.7
634.167	19993.23
634.521	19917.3
634.875	19995.94
635.229	19991.88
635.583	19973.57
635.937	19882.5
636.291	19783.97
636.645	19918.88
636.999	19792.33
637.352	19915.04
637.706	19732
638.06	19811.77
638.413	19794.82
638.767	19802.73
639.121	19659.23
639.474	19598.67
639.828	19685.22
640.181	19663.75
640.534	19738.55
640.888	19678.44
641.241	19541.49
641.594	19595.73
641.947	19736.51
642.301	19633.24
642.654	19604.99
643.007	19598.44
643.36	19511.89
643.713	19613.35
644.066	19667.14
644.419	19533.36
644.771	19373.59
645.124	19210.65
645.477	19205.91
645.83	19050.66
646.182	18941.73
646.535	18874.62
646.888	18936.99
647.24	18767.73
647.593	18917.33
647.945	18922.3
648.298	18810.44
648.65	18796.65
649.002	18724.11
649.355	18814.28
649.707	18791.46
650.059	18854.05
650.411	19078.91
650.763	19153.48
651.115	19331.1
651.467	19210.88
651.819	19164.1
652.171	19218.56
652.523	19200.94
652.875	19179.47
653.227	19059.92
653.578	19268.28
653.93	19117.1
654.282	19141.05
654.633	19057.21
654.985	19059.7
655.337	19056.76
655.688	19047.72
656.039	19227.15
656.391	19025.8
656.742	19104.67
657.094	19087.94
657.445	19109.64
657.796	19117.32
658.147	18971.79
658.498	19022.64
658.849	19107.38
659.2	19009.98
659.551	19029.64
659.902	19106.7
660.253	19099.92
660.604	19163.65
660.955	18962.98
661.306	19158.68
661.656	18968.85
662.007	19085.68
662.358	19070.09
662.708	19020.38
663.059	19086.59
663.409	18896.99
663.76	19001.62
664.11	19047.72
664.461	19006.36
664.811	18975.63
665.161	18984.44
665.511	18974.28
665.862	18955.74
666.212	19138.56
666.562	19042.97
666.912	19046.36
667.262	19039.13
667.612	18985.35
667.962	19134.72
668.312	18973.6
668.662	19201.16
669.011	19067.83
669.361	19110.32
669.711	19078
670.06	18953.48
670.41	19026.25
670.76	18893.83
671.109	19028.96
671.459	18857.44
671.808	18861.28
672.157	18988.29
672.507	18814.05
672.856	18899.7
673.205	18917.33
673.554	18959.36
673.904	18937.21
674.253	18950.32
674.602	18896.31
674.951	18667.84
675.3	18531.57
675.649	18848.4
675.998	18789.42
676.346	18888.63
676.695	18921.85
677.044	18732.25
677.393	18808.18
677.741	18892.02
678.09	18819.25
678.438	18744.45
678.787	18846.82
679.135	18888.18
679.484	18699.03
679.832	18630.33
680.181	18675.07
680.529	18725.69
680.877	18632.14
681.225	18638.69
681.573	18788.97
681.922	18560.73
682.27	18533.83
682.618	18635.3
682.966	18605.7
683.314	18560.73
683.661	18527.73
684.009	18482.54
684.357	18382.43
684.705	18392.82
685.053	18495.19
685.4	18406.61
685.748	18315.08
686.095	18312.15
686.443	18198.7
686.79	18229.21
687.138	18155.09
687.485	18189.21
687.832	18082.77
688.18	18125.48
688.527	18000.74
688.874	18138.82
689.221	18011.14
689.568	18013.4
689.915	17906.73
690.262	17865.15
690.609	17837.36
690.956	17862.67
691.303	17772.05
691.65	17654.76
691.997	17744.25
692.344	17587.42
692.69	17572.28
693.037	17674.65
693.383	17450.7
693.73	17618.38
694.077	17476.91
694.423	17460.64
694.769	17393.07
695.116	17366.63
695.462	17368.89
695.808	17323.92
696.155	17413.19
696.501	17257.71
696.847	17155.11
697.193	17039.41
697.539	17117.83
697.885	17100.43
698.231	16967.77
698.577	16990.82
698.923	16902.47
699.269	16894.33
699.614	16830.15
699.96	16735.46
700.306	16723.26
700.651	16675.13
700.997	16594
701.342	16616.37
701.688	16648.23
702.033	16563.04
702.379	16424.06
702.724	16443.27
703.069	16491.63
703.415	16317.62
703.76	16300
704.105	16388.13
704.45	16305.64
704.795	16154.46
705.14	16128.47
705.485	16217.29
705.83	15999.21
706.175	16137.74
706.52	16053.67
706.865	15944.07
707.209	15858.2
707.554	15946.33
707.899	15880.8
708.243	15859.78
708.588	15993.11
708.932	15808.03
709.277	15744.76
709.621	15779.56
709.966	15676.06
710.31	15739.33
710.654	15531.2
710.998	15653.91
711.342	15593.57
711.687	15531.2
712.031	15515.61
712.375	15467.47
712.719	15500.69
713.063	15299.57
713.407	15492.56
713.75	15381.38
714.094	15427.25
714.438	15426.8
714.782	15247.14
715.125	15177.09
715.469	15331.89
715.812	15147.26
716.156	15137.77
716.499	15201.72
716.843	15085.79
717.186	15015.74
717.53	15101.38
717.873	15134.83
718.216	15111.55
718.559	15020.03
718.902	14956.53
719.246	15041.72
719.589	14949.97
719.932	14971.22
720.275	14919.92
720.617	14877.21
720.96	14836.3
721.303	14850.09
721.646	14876.08
721.989	14779.81
722.331	14926.02
722.674	14841.73
723.016	14769.19
723.359	14825.23
723.701	14801.73
724.044	14755.18
724.386	14710.43
724.729	14714.95
725.071	14667.04
725.413	14707.04
725.755	14719.47
726.097	14675.63
726.439	14476.09
726.782	14571
727.124	14671.11
727.465	14555.63
727.807	14630.66
728.149	14551.34
728.491	14472.47
728.833	14557.44
729.175	14432.7
729.516	14520.61
729.858	14414.4
730.199	14437.45
730.541	14437.67
730.882	14445.58
731.224	14458.46
731.565	14400.84
731.906	14390.89
732.248	14358.35
732.589	14391.8
732.93	14362.19
733.271	14285.13
733.612	14274.74
733.953	14318.58
734.294	14238.35
734.635	14290.1
734.976	14342.08
735.317	14215.08
735.658	14292.82
735.999	14285.58
736.339	14202.42
736.68	14311.12
737.021	14237.9
737.361	14204.46
737.702	14320.61
738.042	14262.76
738.383	14245.36
738.723	14293.49
739.063	14180.05
739.404	14261.63
739.744	14188.19
740.084	14224.57
740.424	14226.6
740.764	14161.75
741.104	14223.67
741.444	14092.82
741.784	14104.12
742.124	14032.48
742.464	14101.63
742.804	13991.13
743.143	14070.9
743.483	14100.73
743.823	13908.65
744.162	14025.48
744.502	14022.31
744.841	13973.5
745.181	14115.65
745.52	13936.22
745.86	13989.77
746.199	13987.74
746.538	13991.36
746.877	14049.66
747.216	14005.37
747.556	13916.55
747.895	13919.27
748.234	13913.84
748.573	13882.43
748.911	13902.32
749.25	13890.34
749.589	13909.1
749.928	13921.98
750.267	13852.6
750.605	13872.49
750.944	13888.76
751.283	13799.95
751.621	13791.36
751.96	13784.13
752.298	13765.15
752.636	13805.82
752.975	13791.81
753.313	13682.21
753.651	13750.91
753.989	13688.54
754.327	13678.82
754.666	13560.18
755.004	13658.03
755.342	13625.94
755.679	13528.32
756.017	13513.4
756.355	13493.52
756.693	13430.01
757.031	13512.72
757.368	13477.24
757.706	13473.18
758.044	13373.97
758.381	13411.26
758.719	13378.72
759.056	13352.95
759.394	13326.29
759.731	13179.63
760.068	13213.52
760.405	13182.34
760.743	13135.11
761.08	13156.35
761.417	13091.27
761.754	13087.65
762.091	13093.75
762.428	13008.56
762.765	12959.07
763.102	12947.09
763.438	12900.31
763.775	12844.72
764.112	12786.19
764.449	12752.74
764.785	12679.75
765.122	12660.99
765.458	12623.71
765.795	12634.1
766.131	12664.38
766.467	12562.47
766.804	12547.33
767.14	12444.05
767.476	12389.36
767.812	12380.32
768.148	12348.69
768.485	12289.03
768.821	12193.21
769.157	12212.87
769.492	12140.78
769.828	12114.79
770.164	12076.15
770.5	12068.47
770.836	12066.21
771.171	11968.36
771.507	11961.58
771.842	11899.43
772.178	11872.99
772.513	11805.65
772.849	11800
773.184	11756.39
773.519	11760.23
773.855	11645.88
774.19	11672.32
774.525	11557.75
774.86	11542.61
775.195	11520.23
775.53	11375.38
775.865	11423.29
776.2	11319.34
776.535	11299.67
776.87	11306.68
777.205	11236.4
777.539	11245.44
777.874	11219
778.209	11081.83
778.543	11044.31
778.878	10951.66
779.212	10984.43
779.547	10914.83
779.881	10934.71
780.215	10870.53
780.55	10910.31
780.884	10771.78
781.218	10719.12
781.552	10744.44
781.886	10624.21
782.22	10603.65
782.554	10596.87
782.888	10485.23
783.222	10457.89
783.556	10430.09
783.889	10426.03
784.223	10298.35
784.557	10315.29
784.89	10397.78
785.224	10301.06
785.557	10197.1
785.891	10256.76
786.224	10217.22
786.558	10134.51
786.891	10012.48
787.224	10052.7
787.557	9954.4
787.891	9977.45
788.224	9979.94
788.557	10004.12
788.89	9932.7
789.223	9821.75
789.556	9823.56
789.888	9739.49
790.221	9727.29
790.554	9725.03
790.887	9716.21
791.219	9577.01
791.552	9685.03
791.884	9584.24
792.217	9502.21
792.549	9484.81
792.882	9502.21
793.214	9451.81
793.546	9493.62
793.879	9320.52
794.211	9320.97
794.543	9321.65
794.875	9330.01
795.207	9334.08
795.539	9228.54
795.871	9248.43
796.203	9168.43
796.535	9061.32
796.867	9078.26
797.198	9090.47
797.53	9042.78
797.862	8963.24
798.193	9009.57
798.525	8936.8
798.856	8951.26
799.188	8821.77
799.519	8809.8
799.85	8775.67
800.182	8774.09
800.513	8811.15
800.844	8694.09
801.175	8711.95
801.506	8703.13
801.837	8674.66
802.168	8631.95
802.499	8572.74
802.83	8583.14
803.161	8602.34
803.491	8550.82
803.822	8550.59
804.153	8463.59
804.483	8398.51
804.814	8349.92
805.145	8378.62
805.475	8419.52
805.805	8363.71
806.136	8387.21
806.466	8264.73
806.796	8284.39
807.126	8179.3
807.457	8207.78
807.787	8240.55
808.117	8211.85
808.447	8152.19
808.777	8179.08
809.107	8108.57
809.436	8131.17
809.766	8121
810.096	8050.49
810.426	8062.7
810.755	8028.35
811.085	8011.85
811.414	8007.78
811.744	7954.9
812.073	7959.42
812.403	7937.73
812.732	7913.55
813.061	7871.06
813.39	7832.42
813.719	7770.28
814.049	7769.37
814.378	7731.63
814.707	7744.29
815.036	7731.63
815.365	7687.34
815.693	7642.14
816.022	7652.54
816.351	7642.37
816.68	7546.55
817.008	7570.06
817.337	7508.59
817.665	7514.01
817.994	7554.91
818.322	7559.66
818.651	7481.47
818.979	7438.53
819.307	7467.69
819.636	7446.89
819.964	7408.7
820.292	7438.08
820.62	7399.44
820.948	7432.88
821.276	7427.01
821.604	7425.65
821.932	7372.55
822.259	7405.09
822.587	7342.04
822.915	7453.22
823.243	7325.77
823.57	7368.48
823.898	7374.35
824.225	7402.83
824.553	7360.57
824.88	7353.34
825.207	7366.22
825.535	7344.3
825.862	7349.27
826.189	7326.45
826.516	7342.72
826.843	7366.67
827.17	7313.11
827.497	7396.95
827.824	7419.78
828.151	7382.49
828.478	7375.71
828.805	7426.56
829.131	7295.71
829.458	7326.9
829.785	7188.37
830.111	7267.24
830.438	7305.66
830.764	7340
831.09	7335.94
831.417	7335.03
831.743	7363.51
832.069	7300.23
832.395	7288.71
832.722	7292.32
833.048	7279.22
833.374	7218.2
833.7	7160.12
834.026	7208.03
834.351	7241.02
834.677	7196.51
835.003	7227.47
835.329	7224.3
835.654	7196.96
835.98	7215.04
836.306	7208.26
836.631	7202.38
836.956	7210.06
837.282	7213.23
837.607	7194.25
837.932	7122.61
838.258	7078.54
838.583	7125.1
838.908	7066.34
839.233	7042.84
839.558	7020.01
839.883	7011.88
840.208	7064.76
840.533	6987.7
840.858	7066.57
841.182	7035.83
841.507	7034.48
841.832	6910.64
842.156	6942.95
842.481	6955.61
842.805	6989.96
843.13	6949.05
843.454	6926.46
843.778	6905.89
844.103	6876.06
844.427	6857.08
844.751	6908.15
845.075	6792.22
845.399	6833.58
845.723	6808.27
846.047	6726.69
846.371	6712
846.695	6747.48
847.019	6644.43
847.343	6626.8
847.666	6596.52
847.99	6613.47
848.313	6608.95
848.637	6556.3
848.96	6549.29
849.284	6504.32
849.607	6483.08
849.931	6432.91
850.254	6373.25
850.577	6448.28
850.9	6364.44
851.223	6351.1
851.546	6321.73
851.869	6255.51
852.192	6340.71
852.515	6220.71
852.838	6222.52
853.161	6255.06
853.483	6192.69
853.806	6178.91
854.129	6175.97
854.451	6174.39
854.774	6145.69
855.096	6149.98
855.419	6095.74
855.741	6035.86
856.063	6001.96
856.385	6048.29
856.708	6025.92
857.03	5964.67
857.352	5982.53
857.674	5926.93
857.996	5906.82
858.318	5935.52
858.64	5898.01
858.961	5905.69
859.283	5910.66
859.605	5827.28
859.926	5862.76
860.248	5837.22
860.57	5764.68
860.891	5800.16
861.212	5816.65
861.534	5726.94
861.855	5752.7
862.176	5778.01
862.498	5781.85
862.819	5757.45
863.14	5743.66
863.461	5674.74
863.782	5702.31
864.103	5704.79
864.424	5677.22
864.745	5705.47
865.065	5677.9
865.386	5679.71
865.707	5657.56
866.027	5615.76
866.348	5589.32
866.668	5616.21
866.989	5614.63
867.309	5530.33
867.63	5588.64
867.95	5604.91
868.27	5532.59
868.59	5582.31
868.91	5565.81
869.23	5484.69
869.55	5562.42
869.87	5553.39
870.19	5553.16
870.51	5536.89
870.83	5528.3
871.15	5467.74
871.469	5491.92
871.789	5480.84
872.109	5480.17
872.428	5513.16
872.748	5503.89
873.067	5419.6
873.386	5470.45
873.706	5462.54
874.025	5406.04
874.344	5391.13
874.663	5437.46
874.982	5441.75
875.301	5426.61
875.62	5435.2
875.939	5406.5
876.258	5369.66
876.577	5360.62
876.896	5357.23
877.214	5332.37
877.533	5350
877.852	5309.78
878.17	5363.79
878.489	5322.88
878.807	5332.15
879.125	5307.97
879.444	5302.32
879.762	5267.97
880.08	5302.77
880.398	5234.3
880.716	5251.47
881.034	5239.04
881.352	5277.23
881.67	5279.95
881.988	5230.91
882.306	5225.26
882.624	5225.48
882.941	5187.52
883.259	5156.79
883.577	5197.46
883.894	5142.32
884.212	5145.71
884.529	5186.39
884.846	5215.99
885.164	5149.78
885.481	5073.17
885.798	5058.93
886.115	5066.17
886.432	5073.85
886.75	5056.45
887.067	5095.09
887.383	5012.38
887.7	5057.58
888.017	5056.45
888.334	5046.05
888.651	4999.05
888.967	4989.56
889.284	4957.47
889.6	4964.47
889.917	4904.14
890.233	4954.08
890.55	4884.25
890.866	4938.03
891.182	4881.31
891.498	4897.58
891.815	4871.14
892.131	4855.78
892.447	4879.5
892.763	4832.5
893.079	4839.51
893.395	4822.56
893.71	4799.51
894.026	4798.38
894.342	4775.78
894.657	4808.55
894.973	4753.86
895.289	4768.77
895.604	4779.62
895.92	4698.49
896.235	4707.53
896.55	4705.5
896.865	4729.23
897.181	4668.44
897.496	4669.34
897.811	4649.68
898.126	4635.22
898.441	4599.74
898.756	4622.11
899.071	4587.99
899.386	4598.16
899.7	4576.69
900.015	4577.82
900.33	4518.61
900.644	4535.33
900.959	4524.03
901.273	4522
901.588	4498.72
901.902	4486.75
902.216	4451.95
902.531	4429.57
902.845	4440.65
903.159	4409.01
903.473	4392.06
903.787	4354.09
904.101	4356.58
904.415	4375.34
904.729	4326.52
905.042	4323.13
905.356	4267.77
905.67	4303.02
905.984	4328.11
906.297	4289.69
906.611	4266.19
906.924	4277.03
907.237	4250.59
907.551	4228.22
907.864	4229.8
908.177	4221.89
908.491	4230.71
908.804	4146.87
909.117	4167.43
909.43	4130.37
909.743	4088.79
910.056	4147.09
910.368	4094.21
910.681	4064.61
910.994	4040.88
911.307	4052.63
911.619	4001.11
911.932	4016.02
912.244	4002.01
912.557	3982.58
912.869	3955.46
913.181	3972.41
913.494	3966.99
913.806	3947.78
914.118	3898.74
914.43	3912.98
914.742	3926.76
915.054	3900.55
915.366	3892.86
915.678	3850.83
915.99	3901.9
916.302	3848.35
916.613	3783.04
916.925	3795.47
917.236	3789.59
917.548	3757.73
917.859	3720.89
918.171	3717.28
918.482	3731.51
918.794	3708.69
919.105	3734
919.416	3667.11
919.727	3705.52
920.038	3682.7
920.349	3620.33
920.66	3636.37
920.971	3632.31
921.282	3619.42
921.593	3596.37
921.903	3600.67
922.214	3598.18
922.525	3568.13
922.835	3577.17
923.146	3578.3
923.456	3500.33
923.767	3494.68
924.077	3456.49
924.387	3487.68
924.697	3463.27
925.008	3456.49
925.318	3494.46
925.628	3440.22
925.938	3449.26
926.248	3395.25
926.558	3438.86
926.867	3378.08
927.177	3386.21
927.487	3355.25
927.796	3313.44
928.106	3304.63
928.416	3312.54
928.725	3331.3
929.034	3310.96
929.344	3327
929.653	3287
929.962	3309.6
930.271	3235.48
930.581	3298.08
930.89	3207.23
931.199	3201.13
931.508	3184.18
931.817	3207.46
932.125	3159.1
932.434	3193
932.743	3166.33
933.051	3138.53
933.36	3166.78
933.669	3124.97
933.977	3120.23
934.286	3106.22
934.594	3075.03
934.902	3071.64
935.21	3031.42
935.519	3046.78
935.827	3060.57
936.135	3014.47
936.443	3019.44
936.751	3020.34
937.059	2992.55
937.367	2959.1
937.674	2998.88
937.982	2993.68
938.29	2966.11
938.597	2983.51
938.905	2918.65
939.213	2908.48
939.52	2928.14
939.827	2892.21
940.135	2867.58
940.442	2882.27
940.749	2908.03
941.056	2851.31
941.363	2821.71
941.67	2848.37
941.977	2823.97
942.284	2770.63
942.591	2809.5
942.898	2798.66
943.205	2790.52
943.511	2741.48
943.818	2718.21
944.125	2755.72
944.431	2749.84
944.738	2747.58
945.044	2700.13
945.35	2725.66
945.657	2680.47
945.963	2703.29
946.269	2679.79
946.575	2686.57
946.881	2684.76
947.187	2682.05
947.493	2667.36
947.799	2643.86
948.105	2627.13
948.41	2607.7
948.716	2612.45
949.022	2576.06
949.327	2594.14
949.633	2581.94
949.938	2567.47
950.244	2558.66
950.549	2555.27
950.854	2506.46
951.16	2523.41
951.465	2543.97
951.77	2495.16
952.075	2524.31
952.38	2515.27
952.685	2511.43
952.99	2488.15
953.294	2501.71
953.599	2459
953.904	2448.16
954.209	2437.08
954.513	2451.09
954.818	2434.37
955.122	2403.41
955.426	2425.78
955.731	2404.77
956.035	2408.38
956.339	2381.49
956.643	2382.17
956.948	2348.5
957.252	2353.24
957.556	2341.04
957.86	2372.68
958.163	2332.45
958.467	2329.29
958.771	2311.66
959.075	2278.44
959.378	2308.05
959.682	2299.46
959.985	2264.66
960.289	2273.7
960.592	2263.53
960.896	2239.8
961.199	2212.46
961.502	2262.17
961.805	2234.15
962.108	2231.21
962.411	2216.98
962.714	2163.42
963.017	2232.12
963.32	2233.92
963.623	2177.2
963.926	2206.13
964.228	2151.67
964.531	2181.72
964.833	2149.41
965.136	2113.25
965.438	2123.19
965.741	2146.02
966.043	2132.23
966.345	2126.81
966.648	2125.23
966.95	2143.98
967.252	2089.07
967.554	2075.28
967.856	2089.07
968.158	2046.81
968.46	2055.17
968.761	2020.82
969.063	2026.47
969.365	2015.85
969.666	2038.22
969.968	1995.96
970.269	2021.73
970.571	1992.8
970.872	2017.88
971.174	2013.37
971.475	1982.86
971.776	1947.38
972.077	1953.48
972.378	1971.11
972.679	1950.54
972.98	1930.2
973.281	1976.3
973.582	1919.36
973.883	1872.13
974.183	1897.44
974.484	1919.13
974.785	1878
975.085	1900.15
975.386	1922.07
975.686	1856.99
975.986	1874.16
976.287	1870.32
976.587	1874.84
976.887	1827.61
977.187	1819.7
977.487	1851.79
977.787	1840.94
978.087	1790.55
978.387	1823.99
978.687	1798.46
978.987	1803.65
979.286	1789.19
979.586	1803.88
979.885	1793.94
980.185	1793.26
980.484	1770.43
980.784	1760.49
981.083	1778.57
981.382	1747.16
981.682	1758.91
981.981	1719.36
982.28	1738.34
982.579	1718.91
982.878	1729.76
983.177	1723.43
983.475	1721.4
983.774	1699.7
984.073	1680.27
984.372	1680.04
984.67	1687.27
984.969	1684.11
985.267	1673.94
985.566	1665.35
985.864	1665.8
986.162	1659.48
986.461	1637.1
986.759	1635.97
987.057	1611.12
987.355	1606.14
987.653	1628.06
987.951	1608.18
988.249	1604.11
988.547	1602.98
988.844	1602.3
989.142	1591
989.44	1587.61
989.737	1547.39
990.035	1557.56
990.332	1567.95
990.63	1578.35
990.927	1546.26
991.224	1518.24
991.521	1543.55
991.819	1531.8
992.116	1537.22
992.413	1527.28
992.71	1521.17
993.006	1528.63
993.303	1480.05
993.6	1487.73
993.897	1462.65
994.193	1454.06
994.49	1489.76
994.787	1454.06
995.083	1479.37
995.379	1465.58
995.676	1463.78
995.972	1439.82
996.268	1446.83
996.565	1421.29
996.861	1394.4
997.157	1428.75
997.453	1418.13
997.749	1410.9
998.044	1409.99
998.34	1409.99
998.636	1390.1
998.932	1390.1
999.227	1386.71
999.523	1385.13
999.818	1356.89
1000.114	1345.81
1000.409	1344.46
1000.704	1318.47
1001	1332.03
1001.295	1337.68
1001.59	1324.57
1001.885	1322.99
1002.18	1309.88
1002.475	1294.97
1002.77	1285.02
1003.065	1307.85
1003.359	1303.1
1003.654	1282.99
1003.949	1264.46
1004.243	1271.92
1004.538	1270.56
1004.832	1268.98
1005.127	1267.17
1005.421	1223.33
1005.715	1258.36
1006.009	1240.05
1006.304	1227.17
1006.598	1227.62
1006.892	1229.2
1007.186	1215.65
1007.48	1214.06
1007.773	1213.39
1008.067	1179.71
1008.361	1183.1
1008.655	1171.58
1008.948	1162.54
1009.242	1155.53
1009.535	1198.7
1009.829	1167.29
1010.122	1169.32
1010.415	1164.57
1010.708	1129.32
1011.001	1151.24
1011.295	1127.06
1011.588	1125.48
1011.881	1152.14
1012.173	1146.27
1012.466	1108.53
1012.759	1096.55
1013.052	1106.27
1013.344	1100.85
1013.637	1097.46
1013.93	1085.93
1014.222	1080.06
1014.514	1057.23
1014.807	1064.46
1015.099	1070.34
1015.391	1059.72
1015.683	1063.33
1015.976	1031.7
1016.268	1039.61
1016.56	1026.95
1016.851	1034.18
1017.143	999.15
1017.435	1018.14
1017.727	1014.52
1018.018	998.93
1018.31	1000.06
1018.602	998.02
1018.893	1011.13
1019.185	1009.55
1019.476	989.44
1019.767	963.45
1020.058	968.87
1020.35	968.87
1020.641	970.23
1020.932	984.24
1021.223	941.08
1021.514	955.99
1021.804	955.99
1022.095	944.69
1022.386	929.33
1022.677	923.45
1022.967	927.52
1023.258	908.08
1023.548	896.33
1023.839	903.11
1024.129	902.21
1024.419	919.38
1024.709	895.2
1025	873.28
1025.29	889.78
1025.58	896.11
1025.87	877.12
1026.16	871.93
1026.449	861.76
1026.739	867.41
1027.029	852.27
1027.319	852.27
1027.608	868.76
1027.898	830.35
1028.187	834.87
1028.477	843.68
1028.766	842.77
1029.055	818.37
1029.344	809.78
1029.634	834.19
1029.923	800.74
1030.212	810.68
1030.501	798.93
1030.79	779.95
1031.078	777.92
1031.367	778.6
1031.656	774.3
1031.945	772.27
1032.233	792.38
1032.522	749.9
1032.81	768.2
1033.099	751.7
1033.387	786.5
1033.675	758.26
1033.963	756
1034.251	748.54
1034.54	744.02
1034.828	758.93
1035.116	735.43
1035.403	738.14
1035.691	731.14
1035.979	735.66
1036.267	734.75
1036.554	714.87
1036.842	704.92
1037.129	709.9
1037.417	718.71
1037.704	693.63
1037.992	698.82
1038.279	687.07
1038.566	692.95
1038.853	692.95
1039.14	692.95
