Data from tablewood_dark_bookshelf_FLMS001491_00079.txt Node
Date: Wed Feb 08 14:15:37 GMT 2017
User: dcchb
Spectrometer: FLMS00149
Trigger mode: 0
Integration Time (sec): 2.000000E-2
Scans to average: 10
Electric dark correction enabled: true
Nonlinearity correction enabled: false
Boxcar width: 0
XAxis mode: Wavelengths
Number of Pixels in Spectrum: 2048
>>>>>Begin Spectral Data<<<<<
341.393	-20.35
341.776	-20.35
342.16	-20.35
342.543	-71.88
342.927	-86.34
343.31	-66
343.693	-79.56
344.077	-65.78
344.46	-67.36
344.843	-43.63
345.226	-42.95
345.61	-30.07
345.993	-14.03
346.376	-14.7
346.759	22.81
347.142	36.6
347.525	35.92
347.908	57.39
348.291	76.37
348.674	85.63
349.057	109.36
349.44	129.02
349.823	136.03
350.206	152.52
350.588	192.3
350.971	191.17
351.354	197.27
351.737	222.35
352.119	244.5
352.502	256.02
352.884	262.58
353.267	261.9
353.65	279.53
354.032	269.58
354.414	289.47
354.797	308.9
355.179	291.05
355.562	300.54
355.944	323.59
356.326	342.35
356.709	329.47
357.091	343.03
357.473	329.47
357.855	319.75
358.238	363.14
358.62	350.03
359.002	348
359.384	346.19
359.766	333.99
360.148	337.83
360.53	329.47
360.912	313.65
361.294	325.85
361.676	346.42
362.057	339.86
362.439	346.87
362.821	336.25
363.203	321.79
363.584	312.97
363.966	316.59
364.348	332.86
364.729	315.23
365.111	322.69
365.493	321.33
365.874	321.11
366.256	326.53
366.637	324.72
367.019	308.45
367.4	305.29
367.781	328.34
368.163	322.01
368.544	325.18
368.925	330.82
369.306	329.92
369.688	320.2
370.069	318.4
370.45	304.16
370.831	318.85
371.212	316.14
371.593	357.04
371.974	305.97
372.355	327.89
372.736	329.24
373.117	344.38
373.498	333.31
373.879	336.93
374.26	312.29
374.641	323.82
375.021	322.01
375.402	342.58
375.783	327.66
376.163	350.71
376.544	356.13
376.925	353.87
377.305	340.09
377.686	345.51
378.066	349.36
378.447	353.2
378.827	346.64
379.208	357.04
379.588	355.68
379.968	345.29
380.349	352.74
380.729	359.75
381.109	356.81
381.489	367.43
381.87	362.01
382.25	375.12
382.63	346.19
383.01	379.18
383.39	358.39
383.77	355.23
384.15	376.25
384.53	387.09
384.91	384.16
385.29	382.35
385.67	392.07
386.049	395.68
386.429	390.48
386.809	384.61
387.189	398.39
387.568	393.2
387.948	389.35
388.328	407.66
388.707	405.17
389.087	415.34
389.466	414.21
389.846	420.99
390.225	432.97
390.605	424.61
390.984	404.95
391.363	424.38
391.743	442.91
392.122	446.08
392.501	446.75
392.881	430.48
393.26	432.52
393.639	442.23
394.018	436.13
394.397	444.04
394.776	447.88
395.155	450.82
395.534	453.76
395.913	437.94
396.292	436.36
396.671	466.64
397.05	468
397.429	457.6
397.808	453.99
398.186	470.48
398.565	475.45
398.944	473.65
399.323	449.92
399.701	444.27
400.08	482.46
400.458	478.62
400.837	512.29
401.215	496.47
401.594	490.37
401.972	496.7
402.351	500.09
402.729	511.84
403.107	504.61
403.486	500.99
403.864	504.61
404.242	521.1
404.62	504.83
404.999	536.24
405.377	524.94
405.755	508
406.133	528.79
406.511	537.6
406.889	553.87
407.267	563.81
407.645	544.38
408.023	554.55
408.401	548.45
408.779	580.08
409.156	571.5
409.534	584.83
409.912	583.47
410.29	595.45
410.667	588.9
411.045	593.19
411.422	611.27
411.8	604.26
412.178	601.55
412.555	628.44
412.933	623.47
413.31	636.81
413.687	610.82
414.065	637.71
414.442	655.56
414.819	658.5
415.197	670.02
415.574	655.11
415.951	663.02
416.328	667.31
416.705	651.72
417.082	687.43
417.46	691.72
417.837	691.27
418.214	673.19
418.591	708.22
418.967	729.01
419.344	703.92
419.721	720.42
420.098	731.72
420.475	739.63
420.852	727.65
421.228	726.07
421.605	733.53
421.982	767.42
422.358	769.01
422.735	766.75
423.111	763.58
423.488	764.49
423.864	806.29
424.241	772.85
424.617	783.69
424.994	797.48
425.37	805.39
425.746	788.21
426.123	835.44
426.499	836.35
426.875	834.09
427.251	833.18
427.627	854.2
428.003	869.57
428.379	864.14
428.756	857.82
429.132	908.44
429.507	889.23
429.883	873.86
430.259	939.62
430.635	930.13
431.011	934.42
431.387	951.15
431.763	938.27
432.138	965.61
432.514	931.26
432.89	964.25
433.265	984.59
433.641	997.02
434.016	1002.9
434.392	1034.08
434.767	1026.63
435.143	1027.08
435.518	1032.28
435.894	1065.49
436.269	1069.56
436.644	1089.9
437.02	1098.71
437.395	1107.3
437.77	1101.2
438.145	1131.48
438.52	1120.41
438.895	1154.08
439.271	1152.5
439.646	1168.54
440.021	1170.12
440.395	1200.86
440.77	1140.29
441.145	1198.82
441.52	1188.2
441.895	1205.15
442.27	1215.55
442.645	1219.61
443.019	1226.39
443.394	1236.34
443.769	1229.33
444.143	1224.81
444.518	1252.83
444.892	1247.18
445.267	1255.77
445.641	1277.92
446.016	1275.88
446.39	1265.72
446.764	1302.1
447.139	1331.48
447.513	1315.88
447.887	1335.77
448.262	1338.03
448.636	1303.45
449.01	1341.65
449.384	1350.68
449.758	1370.8
450.132	1389.55
450.506	1404.24
450.88	1415.77
451.254	1397.92
451.628	1388.88
452.002	1416.67
452.376	1437.01
452.75	1464.13
453.123	1459.16
453.497	1482.66
453.871	1516.1
454.244	1528.31
454.618	1533.05
454.992	1559.49
455.365	1555.65
455.739	1573.73
456.112	1601.07
456.486	1606.5
456.859	1645.37
457.232	1631.13
457.606	1655.99
457.979	1689.43
458.352	1727.85
458.725	1695.99
459.099	1722.65
459.472	1780.96
459.845	1760.84
460.218	1785.25
460.591	1839.71
460.964	1805.36
461.337	1877.45
461.71	1879.71
462.083	1910.44
462.456	1900.95
462.829	1902.08
463.201	1918.58
463.574	1914.29
463.947	1991.8
464.32	2022.08
464.692	2023.66
465.065	2032.7
465.438	2067.95
465.81	2114.05
466.183	2094.17
466.555	2164
466.928	2182.3
467.3	2191.79
467.672	2211.68
468.045	2289.42
468.417	2275.41
468.789	2265.24
469.161	2297.1
469.534	2304.11
469.906	2406.02
470.278	2415.97
470.65	2423.88
471.022	2482.86
471.394	2507.04
471.766	2511.78
472.138	2566.02
472.51	2625
472.882	2629.52
473.253	2667.71
473.625	2703.87
473.997	2733.02
474.369	2777.31
474.74	2804.21
475.112	2864.54
475.484	2912
475.855	2961.94
476.227	3012.34
476.598	3057.53
476.97	3080.36
477.341	3133.01
477.713	3210.97
478.084	3179.34
478.455	3250.97
478.827	3340.01
479.198	3410.07
479.569	3436.51
479.94	3490.74
480.311	3524.86
480.682	3601.7
481.053	3701.81
481.424	3742.71
481.795	3754.24
482.166	3821.35
482.537	3853.67
482.908	3931.63
483.279	3990.39
483.65	4077.62
484.021	4118.3
484.391	4121.01
484.762	4202.36
485.133	4271.06
485.503	4309.48
485.874	4368.46
486.244	4445.97
486.615	4514.22
486.985	4541.56
487.356	4673.99
487.726	4689.35
488.097	4742.69
488.467	4784.94
488.837	4883.25
489.207	4894.77
489.578	5031.72
489.948	5024.26
490.318	5136.35
490.688	5131.83
491.058	5196.01
491.428	5245.5
491.798	5340.18
492.168	5404.14
492.538	5432.61
492.908	5568.65
493.278	5575.88
493.648	5606.62
494.017	5695.43
494.387	5713.73
494.757	5760.29
495.126	5786.5
495.496	5864.46
495.866	5855.88
496.235	5947.4
496.605	5976.1
496.974	6042.76
497.344	6134.29
497.713	6141.29
498.082	6169.77
498.452	6242.76
498.821	6272.59
499.19	6266.04
499.559	6334.51
499.928	6382.64
500.298	6424.9
500.667	6520.49
501.036	6453.38
501.405	6544.9
501.774	6605.46
502.143	6668.06
502.512	6671.9
502.88	6703.54
503.249	6704.22
503.618	6804.55
503.987	6797.77
504.356	6879.35
504.724	6915.06
505.093	6966.81
505.462	7016.98
505.83	7042.74
506.199	7085.45
506.567	7206.12
506.936	7181.04
507.304	7321.83
507.672	7324.54
508.041	7333.8
508.409	7374.03
508.777	7463.07
509.145	7575.61
509.514	7521.82
509.882	7608.37
510.25	7601.14
510.618	7751.19
510.986	7737.64
511.354	7841.14
511.722	7896.95
512.09	7975.6
512.458	7965.2
512.826	8141.47
513.193	8169.26
513.561	8122.03
513.929	8190.73
514.297	8253.55
514.664	8358.86
515.032	8341.46
515.4	8418.75
515.767	8548.46
516.135	8563.38
516.502	8505.75
516.869	8686.09
517.237	8744.16
517.604	8695.35
517.972	8856.48
518.339	8848.34
518.706	8931.5
519.073	8943.93
519.44	9061.44
519.808	9114.55
520.175	9140.76
520.542	9205.39
520.909	9235.9
521.276	9317.93
521.643	9400.42
522.009	9454.2
522.376	9500.98
522.743	9670.24
523.11	9717.02
523.477	9859.39
523.843	9821.42
524.21	9998.37
524.577	10039.72
524.943	10092.15
525.31	10131.7
525.676	10229.55
526.043	10321.52
526.409	10471.8
526.776	10472.7
527.142	10574.85
527.508	10598.8
527.874	10716.54
528.241	10762.41
528.607	10788.18
528.973	10936.87
529.339	10961.05
529.705	11026.81
530.071	11175.29
530.437	11158.11
530.803	11222.29
531.169	11363.08
531.535	11366.47
531.901	11343.64
532.267	11468.38
532.632	11535.05
532.998	11572.56
533.364	11699.57
533.73	11622.73
534.095	11739.11
534.461	11824.99
534.826	11846
535.192	11989.05
535.557	12040.8
535.923	12017.97
536.288	12044.41
536.653	12088.71
537.019	12137.75
537.384	12258.87
537.749	12251.42
538.114	12318.08
538.479	12380.23
538.845	12436.5
539.21	12377.74
539.575	12509.04
539.94	12443.73
540.305	12655.92
540.67	12672.65
541.034	12652.08
541.399	12731.63
541.764	12775.24
542.129	12808.91
542.494	12791.74
542.858	12947.44
543.223	12914.9
543.587	13066.99
543.952	13009.59
544.316	13064.73
544.681	13074.44
545.045	13146.31
545.41	13227.89
545.774	13302.69
546.138	13290.03
546.503	13330.93
546.867	13399.63
547.231	13497.03
547.595	13586.07
547.959	13635.33
548.324	13640.98
548.688	13676.91
549.052	13718.5
549.416	13744.03
549.779	13688.21
550.143	13883.01
550.507	13907.42
550.871	13920.07
551.235	13970.01
551.599	14080.52
551.962	14115.55
552.326	14260.18
552.689	14258.82
553.053	14289.1
553.417	14309.21
553.78	14508.53
554.143	14494.07
554.507	14549.66
554.87	14598.7
555.234	14738.58
555.597	14716.21
555.96	14811.12
556.323	14811.57
556.686	14843.44
557.05	14942.87
557.413	14969.08
557.776	15048.18
558.139	15209.08
558.502	15226.03
558.865	15256.08
559.228	15370.2
559.59	15404.78
559.953	15438.45
560.316	15609.52
560.679	15591.21
561.041	15712.12
561.404	15793.69
561.767	15866.91
562.129	15843.41
562.492	16119.34
562.854	16155.72
563.217	16117.08
563.579	16236.62
563.941	16300.12
564.304	16380.8
564.666	16404.3
565.028	16586.89
565.39	16566.56
565.753	16766.55
566.115	16720.45
566.477	16924.06
566.839	16973.55
567.201	17118.41
567.563	17140.55
567.925	17275.24
568.287	17193.43
568.648	17310.04
569.01	17450.15
569.372	17597.49
569.734	17468.91
570.095	17636.36
570.457	17695.11
570.819	17791.61
571.18	17817.6
571.542	17868.67
571.903	17918.38
572.265	18044.48
572.626	18050.58
572.987	18190.47
573.349	18260.3
573.71	18323.35
574.071	18485.15
574.432	18488.99
574.794	18651.25
575.155	18616.22
575.516	18568.09
575.877	18777.57
576.238	18850.56
576.599	18876.33
576.96	18842.88
577.32	19011.46
577.681	19047.39
578.042	19045.81
578.403	19200.84
578.763	19134.85
579.124	19228.86
579.485	19239.25
579.845	19408.52
580.206	19426.82
580.566	19411.23
580.927	19514.05
581.287	19602.86
581.648	19661.16
582.008	19689.86
582.368	19665.01
582.728	19676.98
583.089	19784.78
583.449	19838.11
583.809	19855.51
584.169	19982.06
584.529	19851.67
584.889	20062.51
585.249	19886.92
585.609	19900.25
585.969	19967.82
586.329	19986.8
586.688	20062.96
587.048	20093.92
587.408	20086.69
587.768	20105.9
588.127	20144.09
588.487	20134.82
588.846	20319.68
589.206	20237.42
589.565	20241.71
589.925	20375.5
590.284	20264.99
590.643	20367.81
591.003	20374.14
591.362	20448.71
591.721	20540.01
592.08	20530.75
592.44	20526
592.799	20540.91
593.158	20542.5
593.517	20650.52
593.876	20677.63
594.235	20585.21
594.593	20711.76
594.952	20839.21
595.311	20712.21
595.67	20785.43
596.029	20796.73
596.387	20876.05
596.746	20847.8
597.104	20919.89
597.463	20931.19
597.822	21058.64
598.18	20876.73
598.538	21012.31
598.897	21117.62
599.255	20990.39
599.613	21325.98
599.972	21201.91
600.33	21319.65
600.688	21231.07
601.046	21197.17
601.404	21440.55
601.762	21356.49
602.12	21473.09
602.478	21393.1
602.836	21548.57
603.194	21443.94
603.552	21448.01
603.91	21372.53
604.268	21596.48
604.625	21513.09
604.983	21582.47
605.341	21503.6
605.698	21643.03
606.056	21693.65
606.413	21648
606.771	21715.35
607.128	21834.21
607.485	21853.87
607.843	21786.31
608.2	21883.48
608.557	21949.24
608.914	21891.61
609.272	22021.33
609.629	22190.36
609.986	22128.44
610.343	21986.3
610.7	22228.1
611.057	22125.28
611.414	22104.94
611.771	22129.35
612.127	22351.71
612.484	22221.77
612.841	22390.13
613.198	22305.61
613.554	22298.38
613.911	22459.51
614.267	22430.36
614.624	22369.12
614.98	22513.74
615.337	22580.41
615.693	22462.22
616.05	22549.9
616.406	22672.84
616.762	22563.01
617.118	22566.62
617.475	22516.68
617.831	22689.11
618.187	22593.06
618.543	22818.14
618.899	22899.27
619.255	22707.86
619.611	22767.97
619.967	22910.12
620.323	22969.55
620.678	22836.9
621.034	22902.89
621.39	22888.65
621.746	22828.09
622.101	23043.45
622.457	22891.81
622.812	22980.62
623.168	23041.64
623.523	22995.99
623.879	22991.92
624.234	22777.47
624.589	23058.81
624.945	22939.04
625.3	22954.64
625.655	22972.04
626.01	22974.52
626.365	22999.61
626.72	22985.14
627.075	22909.67
627.43	23064.24
627.785	22981.98
628.14	23032.6
628.495	23080.73
628.85	22992.83
629.205	23038.93
629.559	23044.58
629.914	22966.61
630.269	22947.18
630.623	22817.69
630.978	22845.49
631.332	22989.89
631.687	23040.74
632.041	22845.26
632.396	22870.8
632.75	22737.47
633.104	22906.05
633.459	22716.68
633.813	22760.29
634.167	22780.18
634.521	22702.21
634.875	22741.31
635.229	22644.36
635.583	22564.36
635.937	22661.08
636.291	22652.27
636.645	22552.61
636.999	22598.71
637.352	22557.58
637.706	22434.65
638.06	22602.33
638.413	22443.24
638.767	22413.86
639.121	22484.14
639.474	22250.02
639.828	22254.54
640.181	22300.64
640.534	22474.42
640.888	22248.67
641.241	22282.79
641.594	22227.88
641.947	22329.12
642.301	22311.26
642.654	22177.03
643.007	22205.28
643.36	22186.07
643.713	22104.49
644.066	22220.19
644.419	22089.35
644.771	21969.13
645.124	21658.4
645.477	21653.2
645.83	21557.39
646.182	21585.41
646.535	21431.74
646.888	21451.85
647.24	21322.14
647.593	21503.38
647.945	21394.23
648.298	21343.38
648.65	21407.33
649.002	21292.31
649.355	21326.2
649.707	21255.47
650.059	21445.3
650.411	21693.65
650.763	21659.08
651.115	21888.68
651.467	21825.17
651.819	21829.92
652.171	21719.64
652.523	21803.03
652.875	21672.64
653.227	21661.79
653.578	21784.27
653.93	21727.55
654.282	21626.99
654.633	21538.63
654.985	21621.34
655.337	21639.42
655.688	21625.86
656.039	21672.18
656.391	21451.85
656.742	21512.41
657.094	21539.76
657.445	21591.28
657.796	21548.57
658.147	21542.02
658.498	21558.74
658.849	21546.09
659.2	21532.08
659.551	21465.18
659.902	21610.72
660.253	21516.26
660.604	21637.38
660.955	21516.26
661.306	21492.08
661.656	21435.13
662.007	21500.89
662.358	21538.63
662.708	21445.3
663.059	21371.85
663.409	21282.14
663.76	21502.47
664.11	21534.79
664.461	21429.48
664.811	21402.81
665.161	21551.74
665.511	21334.57
665.862	21514
666.212	21516.71
666.562	21482.58
666.912	21389.25
667.262	21504.96
667.612	21467.9
667.962	21439.42
668.312	21446.2
668.662	21585.86
669.011	21394
669.361	21419.31
669.711	21330.5
670.06	21386.99
670.41	21421.57
670.76	21288.24
671.109	21453.66
671.459	21302.25
671.808	21392.19
672.157	21310.61
672.507	21239.43
672.856	21315.36
673.205	21363.94
673.554	21262.25
673.904	21234
674.253	21296.38
674.602	21283.04
674.951	20985.2
675.3	21002.15
675.649	21254.57
675.998	21164.63
676.346	21213.44
676.695	21257.05
677.044	21135.93
677.393	21232.42
677.741	21218.19
678.09	21107.23
678.438	21048.25
678.787	21151.75
679.135	21193.55
679.484	20962.15
679.832	21007.57
680.181	21018.19
680.529	20951.3
680.877	21005.99
681.225	20928.48
681.573	21025.87
681.922	20922.6
682.27	20862.26
682.618	20817.29
682.966	20816.61
683.314	20838.31
683.661	20791.76
684.009	20650.97
684.357	20638.77
684.705	20664.98
685.053	20756.05
685.4	20652.55
685.748	20642.38
686.095	20687.58
686.443	20517.41
686.79	20547.69
687.138	20480.58
687.485	20394.03
687.832	20353.8
688.18	20413.01
688.527	20230.19
688.874	20278.1
689.221	20159
689.568	20100.02
689.915	20044.43
690.262	20125.33
690.609	19996.97
690.956	20060.48
691.303	19851.89
691.65	19865
691.997	19717.21
692.344	19741.61
692.69	19635.4
693.037	19704.55
693.383	19584.56
693.73	19627.27
694.077	19544.78
694.423	19484.45
694.769	19438.12
695.116	19302.53
695.462	19392.02
695.808	19394.96
696.155	19307.27
696.501	19300.95
696.847	19285.81
697.193	19131.69
697.539	19100.5
697.885	19048.3
698.231	18923.78
698.577	18966.04
698.923	18863.67
699.269	18821.64
699.614	18778.02
699.96	18795.88
700.306	18899.38
700.651	18685.6
700.997	18695.31
701.342	18663.45
701.688	18553.4
702.033	18561.98
702.379	18490.57
702.724	18420.74
703.069	18430.01
703.415	18291.71
703.76	18230.69
704.105	18167.87
704.45	18124.48
704.795	18080.64
705.14	18110.92
705.485	18042.22
705.83	17908.22
706.175	17954.09
706.52	17788.22
706.865	17737.82
707.209	17840.42
707.554	17768.11
707.899	17822.34
708.243	17749.8
708.588	17634.1
708.932	17651.5
709.277	17600.65
709.621	17615.79
709.966	17489.02
710.31	17540.54
710.654	17400.66
710.998	17415.57
711.342	17446.08
711.687	17442.69
712.031	17331.96
712.375	17257.84
712.719	17232.98
713.063	17311.17
713.407	17219.19
713.75	17157.5
714.094	17124.06
714.438	17083.83
714.782	17120.67
715.125	17004.06
715.469	16992.53
715.812	17052.42
716.156	16944.4
716.499	16897.62
716.843	16895.36
717.186	16800.22
717.53	16890.62
717.873	16979.88
718.216	16748.47
718.559	16855.81
718.902	16751.64
719.246	16770.17
719.589	16654.01
719.932	16621.7
720.275	16569.04
720.617	16626.89
720.96	16612.66
721.303	16518.42
721.646	16611.07
721.989	16411.53
722.331	16501.92
722.674	16369.05
723.016	16494.02
723.359	16451.53
723.701	16594.35
724.044	16339.44
724.386	16267.35
724.729	16363.85
725.071	16343.28
725.413	16220.58
725.755	16295.38
726.097	16312.78
726.439	16205.66
726.782	16153.69
727.124	16217.19
727.465	16210.86
727.807	16063.74
728.149	16069.17
728.491	16101.71
728.833	16099.9
729.175	16053.8
729.516	15954.82
729.858	16054.93
730.199	15975.84
730.541	16016.97
730.882	15984.88
731.224	15980.81
731.565	15870.76
731.906	15868.72
732.248	15950.75
732.589	15919.34
732.93	15855.16
733.271	15839.34
733.612	15842.06
733.953	15953.01
734.294	15791.44
734.635	15800.02
734.976	15856.97
735.317	15700.36
735.658	15774.71
735.999	15666.69
736.339	15672.34
736.68	15758.22
737.021	15677.31
737.361	15665.34
737.702	15777.88
738.042	15711.89
738.383	15622.17
738.723	15658.33
739.063	15564.55
739.404	15634.38
739.744	15615.17
740.084	15612.91
740.424	15603.64
740.764	15465.12
741.104	15551.22
741.444	15489.52
741.784	15486.58
742.124	15445.91
742.464	15481.39
742.804	15456.98
743.143	15390.77
743.483	15405.23
743.823	15247.95
744.162	15279.81
744.502	15319.13
744.841	15287.95
745.181	15401.39
745.52	15154.16
745.86	15279.81
746.199	15256.31
746.538	15259.25
746.877	15226.25
747.216	15266.25
747.556	15181.06
747.895	15254.73
748.234	15162.53
748.573	15148.29
748.911	15139.25
749.25	15169.98
749.589	15021.06
749.928	15100.61
750.267	15117.1
750.605	14991.23
750.944	15055.18
751.283	14952.59
751.621	15081.4
751.96	14850.89
752.298	14967.5
752.636	15006.14
752.975	14815.87
753.313	14768.41
753.651	14787.39
753.989	14812.48
754.327	14722.08
754.666	14699.71
755.004	14783.78
755.342	14645.02
755.679	14697.68
756.017	14652.48
756.355	14603.22
756.693	14506.5
757.031	14576.55
757.368	14520.06
757.706	14530.68
758.044	14454.75
758.381	14459.94
758.719	14379.27
759.056	14350.57
759.394	14339.5
759.731	14217.47
760.068	14151.7
760.405	14118.26
760.743	14196.45
761.08	14155.09
761.417	14057.24
761.754	14050.46
762.091	14006.4
762.428	13897.25
762.765	13846.63
763.102	13877.81
763.438	13836.23
763.775	13786.52
764.112	13811.6
764.449	13762.79
764.785	13727.99
765.122	13672.17
765.458	13564.6
765.795	13574.77
766.131	13672.39
766.467	13597.59
766.804	13457.94
767.14	13375
767.476	13370.03
767.812	13256.36
768.148	13340.43
768.485	13257.26
768.821	13121.45
769.157	13185.63
769.492	13102.01
769.828	13121
770.164	12993.99
770.5	12962.58
770.836	12996.71
771.171	12799.2
771.507	12838.74
771.842	12760.55
772.178	12675.13
772.513	12698.64
772.849	12682.36
773.184	12641.46
773.519	12489.83
773.855	12616.6
774.19	12409.83
774.525	12485.53
774.86	12404.41
775.195	12435.37
775.53	12422.03
775.865	12296.39
776.2	12241.25
776.535	12163.96
776.87	12138.65
777.205	12020.46
777.539	12029.5
777.874	12017.52
778.209	11915.15
778.543	11924.19
778.878	11751.99
779.212	11850.75
779.547	11788.83
779.881	11756.51
780.215	11749.73
780.55	11649.62
780.884	11539.12
781.218	11576.86
781.552	11503.19
781.886	11486.92
782.22	11410.53
782.554	11373.02
782.888	11258.22
783.222	11217.77
783.556	11230.65
783.889	11263.87
784.223	11159.01
784.557	11096.87
784.89	11102.74
785.224	10996.76
785.557	11049.64
785.891	10948.4
786.224	10937.33
786.558	10947.27
786.891	10800.83
787.224	10786.14
787.557	10707.27
787.891	10721.51
788.224	10711.57
788.557	10668.41
788.89	10637.45
789.223	10669.76
789.556	10524.45
789.888	10545.7
790.221	10471.57
790.554	10398.13
790.887	10442.2
791.219	10327.17
791.552	10303.44
791.884	10285.82
792.217	10320.84
792.549	10222.09
792.882	10150.91
793.214	10085.82
793.546	10090.34
793.879	10089.89
794.211	9946.62
794.543	10013.96
794.875	10042.66
795.207	10031.13
795.539	9895.77
795.871	9938.71
796.203	9813.06
796.535	9729.22
796.867	9774.87
797.198	9734.42
797.53	9736.9
797.862	9705.27
798.193	9748.88
798.525	9583.69
798.856	9604.93
799.188	9490.36
799.519	9513.86
799.85	9421.66
800.182	9434.99
800.513	9447.42
800.844	9366.75
801.175	9409.91
801.506	9406.29
801.837	9263.47
802.168	9269.57
802.499	9287.88
802.83	9225.73
803.161	9198.84
803.491	9143.02
803.822	9155.23
804.153	9186.86
804.483	9052.86
804.814	9002.24
805.145	9013.08
805.475	9049.69
805.805	8995.91
806.136	8952.07
806.466	8903.25
806.796	8940.54
807.126	8881.33
807.457	8815.8
807.787	8860.77
808.117	8883.59
808.447	8806.31
808.777	8845.85
809.107	8771.05
809.436	8673.88
809.766	8663.71
810.096	8646.31
810.426	8658.06
810.755	8601.12
811.085	8545.3
811.414	8573.09
811.744	8508.01
812.073	8511.17
812.403	8474.11
812.732	8407
813.061	8439.09
813.39	8373.1
813.719	8359.99
814.049	8401.35
814.378	8356.6
814.707	8329.03
815.036	8301.91
815.365	8305.76
815.693	8261.92
816.022	8269.6
816.351	8200.9
816.68	8160.22
817.008	8208.13
817.337	8090.17
817.665	8185.53
817.994	8111.64
818.322	8119.77
818.651	8020.11
818.979	7983.5
819.307	8000.45
819.636	8006.1
819.964	7995.48
820.292	8041.58
820.62	7918.2
820.948	7994.8
821.276	7950.74
821.604	7923.62
821.932	7964.75
822.259	7952.77
822.587	7943.96
822.915	7905.54
823.243	7960.23
823.57	7940.12
823.898	7936.05
824.225	7895.82
824.553	7870.97
824.88	7857.41
825.207	7904.64
825.535	7887.91
825.862	7921.59
826.189	7838.2
826.516	7878.65
826.843	7834.81
827.17	7925.43
827.497	7910.29
827.824	7947.12
828.151	7893.79
828.478	7866.45
828.805	7903.05
829.131	7873.45
829.458	7893.34
829.785	7848.82
830.111	7868.25
830.438	7933.56
830.764	7864.41
831.09	7872.55
831.417	7854.02
831.743	7885.43
832.069	7855.15
832.395	7819.22
832.722	7844.53
833.048	7825.77
833.374	7810.4
833.7	7788.48
834.026	7842.04
834.351	7815.37
834.677	7779.22
835.003	7855.82
835.329	7805.88
835.654	7741.7
835.98	7748.71
836.306	7739.44
836.631	7728.82
836.956	7732.21
837.282	7767.24
837.607	7730.86
837.932	7633.46
838.258	7650.18
838.583	7714.13
838.908	7569.28
839.233	7623.51
839.558	7635.04
839.883	7578.32
840.208	7561.82
840.533	7568.37
840.858	7524.76
841.182	7556.85
841.507	7543.74
841.832	7531.31
842.156	7510.97
842.481	7522.05
842.805	7476.4
843.13	7459.22
843.454	7399.11
843.778	7391.2
844.103	7378.1
844.427	7340.13
844.751	7374.93
845.075	7311.21
845.399	7319.57
845.723	7261.26
846.047	7235.95
846.371	7229.17
846.695	7237.31
847.019	7168.16
847.343	7115.96
847.666	7102.85
847.99	7031.89
848.313	7012.68
848.637	6988.05
848.96	7044.09
849.284	6981.27
849.607	7025.79
849.931	6951.44
850.254	6949.18
850.577	6806.13
850.9	6876.87
851.223	6785.12
851.546	6779.24
851.869	6775.4
852.192	6779.02
852.515	6706.02
852.838	6676.19
853.161	6693.37
853.483	6624.9
853.806	6604.11
854.129	6597.78
854.451	6574.95
854.774	6594.84
855.096	6551.9
855.419	6558.68
855.741	6464.45
856.063	6497.89
856.385	6484.11
856.708	6433.49
857.03	6392.59
857.352	6413.83
857.674	6357.78
857.996	6360.04
858.318	6380.38
858.64	6336.32
858.961	6352.59
859.283	6227.39
859.605	6259.71
859.926	6287.96
860.248	6225.13
860.57	6213.83
860.891	6238.24
861.212	6246.38
861.534	6159.6
861.855	6147.39
862.176	6196.21
862.498	6179.26
862.819	6135.64
863.14	6141.97
863.461	6067.62
863.782	6099.03
864.103	6055.87
864.424	6094.97
864.745	6066.49
865.065	6080.28
865.386	6027.4
865.707	6033.05
866.027	6040.73
866.348	6030.34
866.668	6037.12
866.989	6025.14
867.309	6007.96
867.63	5995.99
867.95	5961.86
868.27	5965.48
868.59	5930.23
868.91	5992.6
869.23	5914.41
869.55	5888.87
869.87	5958.7
870.19	5930.23
870.51	5890.9
870.83	5899.04
871.15	5863.11
871.469	5898.36
871.789	5876.44
872.109	5866.5
872.428	5884.8
872.748	5867.85
873.067	5799.38
873.386	5851.81
873.706	5836.22
874.025	5807.97
874.344	5788.53
874.663	5831.7
874.982	5784.24
875.301	5761.64
875.62	5716.22
875.939	5758.03
876.258	5772.49
876.577	5705.37
876.896	5679.84
877.214	5707.86
877.533	5708.99
877.852	5668.09
878.17	5681.87
878.489	5659.27
878.807	5661.76
879.125	5718.93
879.444	5661.76
879.762	5598.48
880.08	5667.41
880.398	5610.69
880.716	5619.27
881.034	5610.23
881.352	5632.38
881.67	5600.29
881.988	5656.11
882.306	5567.98
882.624	5585.6
882.941	5557.81
883.259	5539.28
883.577	5523
883.894	5557.35
884.212	5462.44
884.529	5471.03
884.846	5494.53
885.164	5440.07
885.481	5421.31
885.798	5455.66
886.115	5387.41
886.432	5348.32
886.75	5426.28
887.067	5379.28
887.383	5330.92
887.7	5352.16
888.017	5325.72
888.334	5349.45
888.651	5366.62
888.967	5342.9
889.284	5299.96
889.6	5323.91
889.917	5273.75
890.233	5255.21
890.55	5213.18
890.866	5237.36
891.182	5237.36
891.498	5191.71
891.815	5171.83
892.131	5194.2
892.447	5154.2
892.763	5122.11
893.079	5118.27
893.395	5120.53
893.71	5111.26
894.026	5103.13
894.342	5126.86
894.657	5072.85
894.973	5106.07
895.289	5075.11
895.604	5041.21
895.92	4994.66
896.235	5000.31
896.55	4960.99
896.865	4925.05
897.181	4972.51
897.496	4945.84
897.811	4865.17
898.126	4880.54
898.441	4882.8
898.756	4822.91
899.071	4861.55
899.386	4845.51
899.7	4829.24
900.015	4791.27
900.33	4814.1
900.644	4809.8
900.959	4805.06
901.273	4788.11
901.588	4765.51
901.902	4707.43
902.216	4699.75
902.531	4700.88
902.845	4708.34
903.159	4659.52
903.473	4638.28
903.787	4645.29
904.101	4594.44
904.415	4644.61
904.729	4593.54
905.042	4585.85
905.356	4526.19
905.67	4542.92
905.984	4544.05
906.297	4514.44
906.611	4556.7
906.924	4494.1
907.237	4499.98
907.551	4431.06
907.864	4440.77
908.177	4431.28
908.491	4426.99
908.804	4399.87
909.117	4358.52
909.43	4330.72
909.743	4370.04
910.056	4329.82
910.368	4317.39
910.681	4323.26
910.994	4274.68
911.307	4267.9
911.619	4222.47
911.932	4244.39
912.244	4219.99
912.557	4184.28
912.869	4217.5
913.181	4201.01
913.494	4211.17
913.806	4153.32
914.118	4077.17
914.43	4132.76
914.742	4081.69
915.054	4065.87
915.366	4050.95
915.678	4064.74
915.99	4078.07
916.302	4009.37
916.613	3999.43
916.925	3962.14
917.236	3964.85
917.548	3946.77
917.859	3964.18
918.171	3924.63
918.482	3923.95
918.794	3898.19
919.105	3903.61
919.416	3869.94
919.727	3856.83
920.038	3811.41
920.349	3815.25
920.66	3816.38
920.971	3803.73
921.282	3808.47
921.593	3782.26
921.903	3758.53
922.214	3722.83
922.525	3787.23
922.835	3721.02
923.146	3685.76
923.456	3671.53
923.767	3643.96
924.077	3673.79
924.387	3615.03
924.697	3663.84
925.008	3632.43
925.318	3624.07
925.628	3596.73
925.938	3594.69
926.248	3538.65
926.558	3540.46
926.867	3542.49
927.177	3482.38
927.487	3502.04
927.796	3501.36
928.106	3490.06
928.416	3474.02
928.725	3465.66
929.034	3449.61
929.344	3443.06
929.653	3403.74
929.962	3387.47
930.271	3355.38
930.581	3369.16
930.89	3354.7
931.199	3372.1
931.508	3378.43
931.817	3317.19
932.125	3308.37
932.434	3326.23
932.743	3245.78
933.051	3248.26
933.36	3251.2
933.669	3259.34
933.977	3199.68
934.286	3250.52
934.594	3219.79
934.902	3206.23
935.21	3169.17
935.519	3201.71
935.827	3159
936.135	3161.71
936.443	3112.22
936.751	3126.91
937.059	3128.49
937.367	3133.24
937.674	3115.61
937.982	3056.18
938.29	3052.33
938.597	3095.95
938.905	3012.79
939.213	3050.08
939.52	3015.95
939.827	3016.86
940.135	3012.79
940.442	2996.52
940.749	2968.72
941.056	2982.73
941.363	2953.35
941.67	2945.22
941.977	2927.82
942.284	2920.14
942.591	2935.28
942.898	2904.99
943.205	2916.07
943.511	2867.71
943.818	2877.42
944.125	2880.14
944.431	2863.19
944.738	2848.27
945.044	2846.92
945.35	2801.95
945.657	2808.5
945.963	2787.71
946.269	2762.85
946.575	2762.4
946.881	2743.19
947.187	2737.99
947.493	2743.19
947.799	2735.96
948.105	2696.64
948.41	2675.17
948.716	2679.01
949.022	2665.9
949.327	2675.62
949.633	2624.32
949.938	2638.11
950.244	2646.92
950.549	2594.27
950.854	2615.28
951.16	2594.72
951.465	2551.11
951.77	2576.87
952.075	2561.95
952.38	2559.92
952.685	2554.95
952.99	2559.69
953.294	2565.79
953.599	2527.15
953.904	2532.35
954.209	2484.67
954.513	2505.68
954.818	2494.61
955.122	2485.57
955.426	2455.51
955.731	2446.48
956.035	2438.34
956.339	2465.91
956.643	2472.92
956.948	2434.05
957.252	2418.23
957.556	2405.12
957.86	2391.56
958.163	2373.48
958.467	2384.1
958.771	2362.64
959.075	2364.44
959.378	2379.81
959.682	2367.38
959.985	2337.55
960.289	2307.95
960.592	2317.89
960.896	2348.17
961.199	2292.58
961.502	2299.81
961.805	2291.9
962.108	2243.54
962.411	2272.24
962.714	2260.94
963.017	2256.2
963.32	2234.73
963.623	2228.85
963.926	2221.17
964.228	2201.06
964.531	2226.37
964.833	2205.13
965.136	2190.89
965.438	2168.97
965.741	2176.65
966.043	2204
966.345	2158.35
966.648	2100.04
966.95	2142.75
967.252	2120.83
967.554	2106.37
967.856	2136.88
968.158	2104.79
968.46	2107.73
968.761	2092.36
969.063	2071.8
969.365	2055.3
969.666	2068.18
969.968	2068.63
970.269	2039.25
970.571	2054.85
970.872	2057.56
971.174	2029.99
971.475	2015.98
971.776	2017.33
972.077	1999.48
972.378	2001.29
972.679	1988.63
972.98	2022.31
973.281	1984.34
973.582	1959.03
973.883	1941.63
974.183	1943.44
974.484	1944.79
974.785	1931.01
975.085	1945.7
975.386	1933.72
975.686	1912.25
975.986	1896.89
976.287	1898.02
976.587	1889.2
976.887	1848.3
977.187	1872.25
977.487	1879.48
977.787	1859.15
978.087	1874.74
978.387	1825.02
978.687	1832.48
978.987	1817.57
979.286	1802.2
979.586	1832.93
979.885	1834.74
980.185	1843.33
980.484	1792.26
980.784	1804.01
981.083	1781.41
981.382	1764.69
981.682	1768.98
981.981	1748.41
982.28	1766.95
982.579	1748.64
982.878	1770.33
983.177	1733.73
983.475	1735.76
983.774	1726.95
984.073	1726.72
984.372	1699.83
984.67	1708.19
984.969	1714.07
985.267	1701.18
985.566	1677
985.864	1686.04
986.162	1669.09
986.461	1675.42
986.759	1631.58
987.057	1639.72
987.355	1597.23
987.653	1631.13
987.951	1615.76
988.249	1616.89
988.547	1606.72
988.844	1601.75
989.142	1599.94
989.44	1596.55
989.737	1590.68
990.035	1572.15
990.332	1576.89
990.63	1592.94
990.927	1562.66
991.224	1573.05
991.521	1565.59
991.819	1537.12
992.116	1538.02
992.413	1529.44
992.71	1547.06
993.006	1521.53
993.303	1515.65
993.6	1493.28
993.897	1520.4
994.193	1481.53
994.49	1501.42
994.787	1484.92
995.083	1458.93
995.379	1449.89
995.676	1455.09
995.972	1464.58
996.268	1439.27
996.565	1455.09
996.861	1454.64
997.157	1443.11
997.453	1445.37
997.749	1414.86
998.044	1412.6
998.34	1415.32
998.636	1427.07
998.932	1401.08
999.227	1382.55
999.523	1376.45
999.818	1387.29
1000.114	1352.27
1000.409	1347.97
1000.704	1338.93
1001	1340.06
1001.295	1334.87
1001.59	1349.1
1001.885	1323.79
1002.18	1323.79
1002.475	1306.39
1002.77	1330.8
1003.065	1316.11
1003.359	1317.92
1003.654	1294.64
1003.949	1288.77
1004.243	1263.68
1004.538	1276.11
1004.832	1269.33
1005.127	1238.37
1005.421	1272.04
1005.715	1243.12
1006.009	1228.43
1006.304	1247.18
1006.598	1230.69
1006.892	1241.54
1007.186	1208.09
1007.48	1207.19
1007.773	1215.32
1008.067	1202.44
1008.361	1182.33
1008.655	1213.29
1008.948	1173.06
1009.242	1179.39
1009.535	1157.92
1009.829	1172.16
1010.122	1163.8
1010.415	1156.79
1010.708	1145.72
1011.001	1146.62
1011.295	1124.93
1011.588	1131.26
1011.881	1109.11
1012.173	1121.31
1012.466	1127.64
1012.759	1131.71
1013.052	1088.54
1013.344	1102.78
1013.637	1098.94
1013.93	1116.79
1014.222	1109.56
1014.514	1072.73
1014.807	1063.46
1015.099	1038.83
1015.391	1042.67
1015.683	1084.48
1015.976	1041.54
1016.268	1061.2
1016.56	1016.68
1016.851	1035.66
1017.143	993.63
1017.435	1043.12
1017.727	1016.23
1018.018	1016.46
1018.31	991.15
1018.602	1009.68
1018.893	987.53
1019.185	995.21
1019.476	988.66
1019.767	965.84
1020.058	985.5
1020.35	990.92
1020.641	974.88
1020.932	951.83
1021.223	959.06
1021.514	966.06
1021.804	952.96
1022.095	947.08
1022.386	940.53
1022.677	921.54
1022.967	925.16
1023.258	926.06
1023.548	905.95
1023.839	945.72
1024.129	905.72
1024.419	886.97
1024.709	862.79
1025	906.4
1025.29	889.91
1025.58	872.73
1025.87	854.88
1026.16	842.45
1026.449	888.78
1026.739	877.7
1027.029	845.16
1027.319	849.46
1027.608	876.57
1027.898	849
1028.187	824.14
1028.477	833.64
1028.766	813.3
1029.055	819.17
1029.344	822.79
1029.634	797.71
1029.923	807.87
1030.212	819.63
1030.501	801.32
1030.79	782.79
1031.078	813.3
1031.367	798.83
1031.656	757.71
1031.945	763.81
1032.233	770.14
1032.522	778.72
1032.81	760.42
1033.099	749.57
1033.387	765.62
1033.675	761.55
1033.963	736.92
1034.251	751.38
1034.54	740.76
1034.828	749.8
1035.116	757.48
1035.403	735.79
1035.691	732.62
1035.979	737.82
1036.267	720.87
1036.554	725.84
1036.842	717.26
1037.129	700.76
1037.417	709.57
1037.704	720.19
1037.992	690.36
1038.279	683.58
1038.566	697.59
1038.853	697.59
1039.14	697.59
