Data from tablewood_dark_bookshelf_FLMS001491_00072.txt Node
Date: Wed Feb 08 14:15:36 GMT 2017
User: dcchb
Spectrometer: FLMS00149
Trigger mode: 0
Integration Time (sec): 2.000000E-2
Scans to average: 10
Electric dark correction enabled: true
Nonlinearity correction enabled: false
Boxcar width: 0
XAxis mode: Wavelengths
Number of Pixels in Spectrum: 2048
>>>>>Begin Spectral Data<<<<<
341.393	8.6
341.776	8.6
342.16	8.6
342.543	-61.68
342.927	-62.36
343.31	-74.56
343.693	-53.09
344.077	-63.71
344.46	-47.44
344.843	-31.62
345.226	-31.85
345.61	-58.97
345.993	-27.78
346.376	-9.25
346.759	13.8
347.142	22.84
347.525	51.76
347.908	63.52
348.291	69.84
348.674	77.53
349.057	98.99
349.44	131.31
349.823	137.86
350.206	163.63
350.588	172.44
350.971	193.46
351.354	213.34
351.737	235.94
352.119	241.14
352.502	244.75
352.884	261.93
353.267	275.71
353.65	293.34
354.032	308.25
354.414	284.3
354.797	303.06
355.179	294.92
355.562	311.19
355.944	317.97
356.326	313.9
356.709	314.36
357.091	328.37
357.473	350.29
357.855	326.11
358.238	343.51
358.62	314.81
359.002	321.59
359.384	372.21
359.766	323.85
360.148	319.55
360.53	353
360.912	334.02
361.294	341.7
361.676	352.55
362.057	332.21
362.439	300.12
362.821	317.97
363.203	324.98
363.584	311.87
363.966	327.24
364.348	307.12
364.729	317.97
365.111	315.71
365.493	304.86
365.874	316.84
366.256	332.89
366.637	316.84
367.019	309.16
367.4	339.67
367.781	322.72
368.163	308.93
368.544	329.5
368.925	329.05
369.306	319.55
369.688	352.32
370.069	309.84
370.45	327.46
370.831	313
371.212	321.36
371.593	341.93
371.974	336.05
372.355	320.01
372.736	347.12
373.117	316.84
373.498	320.01
373.879	325.2
374.26	321.81
374.641	329.72
375.021	335.37
375.402	321.59
375.783	332.89
376.163	347.8
376.544	353.9
376.925	336.73
377.305	348.71
377.686	354.36
378.066	340.34
378.447	349.84
378.827	324.07
379.208	356.39
379.588	352.55
379.968	342.38
380.349	369.95
380.729	341.47
381.109	334.47
381.489	337.63
381.87	354.13
382.25	364.75
382.63	351.87
383.01	364.3
383.39	377.41
383.77	373.79
384.15	380.34
384.53	382.38
384.91	376.95
385.29	401.36
385.67	388.93
386.049	374.47
386.429	383.51
386.809	390.06
387.189	402.49
387.568	396.39
387.948	419.21
388.328	401.81
388.707	389.38
389.087	403.62
389.466	410.85
389.846	410.4
390.225	412.43
390.605	425.09
390.984	427.12
391.363	431.64
391.743	411.53
392.122	409.95
392.501	425.77
392.881	448.59
393.26	435.93
393.639	428.48
394.018	432.09
394.397	443.84
394.776	431.64
395.155	445.65
395.534	445.88
395.913	457.86
396.292	470.51
396.671	457.4
397.05	454.69
397.429	471.87
397.808	452.21
398.186	447.01
398.565	473.22
398.944	455.14
399.323	473.9
399.701	476.84
400.08	487.91
400.458	479.78
400.837	487.01
401.215	487.91
401.594	483.17
401.972	483.39
402.351	517.06
402.729	472.77
403.107	501.02
403.486	500.11
403.864	521.58
404.242	526.78
404.62	528.14
404.999	536.05
405.377	535.82
405.755	512.77
406.133	527.46
406.511	527.23
406.889	526.33
407.267	551.86
407.645	545.99
408.023	564.29
408.401	552.77
408.779	587.34
409.156	575.82
409.534	567.91
409.912	563.62
410.29	565.65
410.667	621.92
411.045	596.83
411.422	617.63
411.8	604.74
412.178	617.17
412.555	629.38
412.933	628.47
413.31	616.27
413.687	620.34
414.065	622.14
414.442	633.44
414.819	629.38
415.197	635.7
415.574	665.08
415.951	652.65
416.328	670.96
416.705	685.87
417.082	672.99
417.46	671.63
417.837	703.72
418.214	728.58
418.591	686.1
418.967	696.49
419.344	691.52
419.721	713.44
420.098	704.85
420.475	714.35
420.852	734.23
421.228	738.07
421.605	738.75
421.982	736.49
422.358	788.47
422.735	767.23
423.111	796.15
423.488	773.55
423.864	755.02
424.241	784.17
424.617	786.21
424.994	807.45
425.37	811.52
425.746	809.48
426.123	792.31
426.499	817.85
426.875	828.24
427.251	845.87
427.627	852.2
428.003	861.91
428.379	867.34
428.756	861.01
429.132	899.2
429.507	896.71
429.883	897.39
430.259	918.18
430.635	898.97
431.011	920.44
431.387	944.4
431.763	938.97
432.138	966.54
432.514	978.97
432.89	961.57
433.265	987.78
433.641	991.63
434.016	1004.73
434.392	1038.18
434.767	1008.12
435.143	1066.65
435.518	1043.15
435.894	1024.39
436.269	1070.27
436.644	1089.7
437.02	1091.51
437.395	1103.26
437.77	1097.16
438.145	1135.8
438.52	1128.35
438.895	1140.1
439.271	1159.98
439.646	1163.6
440.021	1148.01
440.395	1179.42
440.77	1157.95
441.145	1208.8
441.52	1223.26
441.895	1196.59
442.27	1221.68
442.645	1214.9
443.019	1256.93
443.394	1219.64
443.769	1207.89
444.143	1235.01
444.518	1242.24
444.892	1252.18
445.267	1256.03
445.641	1300.09
446.016	1297.16
446.39	1274.78
446.764	1271.39
447.139	1284.73
447.513	1337.83
447.887	1333.54
448.262	1288.57
448.636	1339.87
449.01	1345.52
449.384	1359.53
449.758	1377.38
450.132	1349.13
450.506	1377.61
450.88	1375.8
451.254	1400.66
451.628	1403.82
452.002	1421.9
452.376	1422.8
452.75	1458.28
453.123	1458.28
453.497	1492.86
453.871	1508.9
454.244	1529.47
454.618	1529.47
454.992	1519.52
455.365	1575.57
455.739	1580.09
456.112	1599.97
456.486	1600.42
456.859	1653.3
457.232	1651.04
457.606	1660.31
457.979	1677.03
458.352	1710.93
458.725	1736.69
459.099	1745.05
459.472	1749.8
459.845	1746.63
460.218	1775.56
460.591	1786.86
460.964	1830.47
461.337	1853.98
461.71	1863.24
462.083	1926.97
462.456	1901.43
462.829	1935.1
463.201	1943.92
463.574	1965.84
463.947	1999.74
464.32	2030.47
464.692	2026.4
465.065	2039.51
465.438	2061.65
465.81	2078.15
466.183	2085.38
466.555	2153.18
466.928	2192.72
467.3	2225.49
467.672	2189.56
468.045	2269.11
468.417	2263.91
468.789	2275.89
469.161	2335.77
469.534	2354.3
469.906	2401.98
470.278	2397.69
470.65	2447.18
471.022	2477.46
471.394	2498.48
471.766	2526.5
472.138	2543
472.51	2604.24
472.882	2661.87
473.253	2691.69
473.625	2717.46
473.997	2744.8
474.369	2791.35
474.74	2852.37
475.112	2855.53
475.484	2922.65
475.855	2963.1
476.227	2972.82
476.598	3058.24
476.97	3065.47
477.341	3130.33
477.713	3185.24
478.084	3215.52
478.455	3295.07
478.827	3358.12
479.198	3427.95
479.569	3381.39
479.94	3522.18
480.311	3525.57
480.682	3612.8
481.053	3695.74
481.424	3704.55
481.795	3715.62
482.166	3830.42
482.537	3842.17
482.908	3965.56
483.279	3967.59
483.65	4030.64
484.021	4092.79
484.391	4172.11
484.762	4217.98
485.133	4283.29
485.503	4281.03
485.874	4359.9
486.244	4420.01
486.615	4491.2
486.985	4558.09
487.356	4647.8
487.726	4720.12
488.097	4764.86
488.467	4785.2
488.837	4888.25
489.207	4917.62
489.578	4997.17
489.948	5060.67
490.318	5105.19
490.688	5156.04
491.058	5252.08
491.428	5265.41
491.798	5328.01
492.168	5390.15
492.538	5447.1
492.908	5472.41
493.278	5561.45
493.648	5582.01
494.017	5686.42
494.387	5748.56
494.757	5757.38
495.126	5817.26
495.496	5864.94
495.866	5904.94
496.235	5933.87
496.605	6012.74
496.974	6036.24
497.344	6048.44
497.713	6116.69
498.082	6172.51
498.452	6281.66
498.821	6283.69
499.19	6294.99
499.559	6376.34
499.928	6398.94
500.298	6389
500.667	6514.42
501.036	6493.4
501.405	6568.2
501.774	6624.92
502.143	6608.65
502.512	6673.06
502.88	6721.42
503.249	6751.93
503.618	6815.65
503.987	6829.21
504.356	6876.44
504.724	6937.01
505.093	6975.65
505.462	7033.5
505.83	7104.23
506.199	7094.52
506.567	7208.19
506.936	7261.29
507.304	7285.02
507.672	7271.24
508.041	7396.2
508.409	7419.25
508.777	7468.29
509.145	7532.7
509.514	7554.62
509.882	7615.18
510.25	7620.38
510.618	7705.8
510.986	7791
511.354	7881.16
511.722	7880.94
512.09	7925.23
512.458	8004.32
512.826	7979.01
513.193	8126.13
513.561	8104.66
513.929	8185.34
514.297	8332.22
514.664	8373.58
515.032	8414.71
515.4	8462.16
515.767	8484.31
516.135	8537.64
516.502	8515.27
516.869	8679.33
517.237	8741.25
517.604	8685.44
517.972	8832.1
518.339	8854.7
518.706	8930.85
519.073	8971.76
519.44	9078.42
519.808	9177.63
520.175	9157.97
520.542	9227.79
520.909	9302.14
521.276	9343.5
521.643	9449.48
522.009	9533.77
522.376	9534.45
522.743	9715.69
523.11	9760.21
523.477	9801.79
523.843	9858.06
524.21	10014.44
524.577	10051.28
524.943	10115.45
525.31	10162.46
525.676	10246.07
526.043	10396.8
526.409	10401.32
526.776	10522
527.142	10569.91
527.508	10586.63
527.874	10742.56
528.241	10766.06
528.607	10761.77
528.973	10935.32
529.339	10871.59
529.705	11001.31
530.071	11148.2
530.437	11161.75
530.803	11206.73
531.169	11274.52
531.535	11301.86
531.901	11355.42
532.267	11425.25
532.632	11533.5
532.998	11576.66
533.364	11684.68
533.73	11665.92
534.095	11825.69
534.461	11861.85
534.826	11855.52
535.192	11975.97
535.557	12029.3
535.923	12084.44
536.288	12116.53
536.653	12120.37
537.019	12154.27
537.384	12193.14
537.749	12220.48
538.114	12258.45
538.479	12309.97
538.845	12472
539.21	12350.88
539.575	12514.26
539.94	12578.89
540.305	12613.92
540.67	12606.24
541.034	12702.5
541.399	12742.05
541.764	12756.06
542.129	12831.99
542.494	12819.34
542.858	12941.14
543.223	12967.36
543.587	13042.38
543.952	13047.35
544.316	13123.51
544.681	13124.19
545.045	13174.36
545.41	13242.6
545.774	13338.42
546.138	13343.84
546.503	13349.72
546.867	13457.74
547.231	13527.79
547.595	13509.94
547.959	13607.79
548.324	13649.6
548.688	13697.73
549.052	13659.32
549.416	13750.16
549.779	13776.83
550.143	13823.38
550.507	13981.34
550.871	13972.98
551.235	14049.81
551.599	14055.24
551.962	14132.75
552.326	14174.56
552.689	14337.04
553.053	14265.63
553.417	14331.84
553.78	14505.62
554.143	14379.07
554.507	14541.78
554.87	14648.89
555.234	14762.34
555.597	14761.66
555.96	14750.13
556.323	14935.21
556.686	14784.71
557.05	15060.64
557.413	14960.98
557.776	15064.25
558.139	15180.86
558.502	15163.01
558.865	15220.18
559.228	15449.33
559.59	15331.14
559.953	15437.35
560.316	15634.63
560.679	15685.03
561.041	15708.3
561.404	15812.25
561.767	15942.42
562.129	15912.14
562.492	16146.03
562.854	16064.9
563.217	16108.29
563.579	16244.56
563.941	16411.11
564.304	16311.45
564.666	16483.42
565.028	16488.85
565.39	16641.16
565.753	16639.12
566.115	16842.28
566.477	16860.81
566.839	17028.94
567.201	17169.51
567.563	17114.82
567.925	17281.82
568.287	17266.23
568.648	17345.32
569.01	17427.8
569.372	17609.72
569.734	17558.87
570.095	17654.01
570.457	17691.3
570.819	17786.44
571.18	17799.55
571.542	17969.49
571.903	17959.99
572.265	18083.15
572.626	18186.65
572.987	18237.05
573.349	18310.95
573.71	18344.84
574.071	18412.86
574.432	18485.63
574.794	18687.88
575.155	18696.25
575.516	18609.92
575.877	18767.88
576.238	18725.62
576.599	18900.08
576.96	18941.66
577.32	18976.46
577.681	19004.26
578.042	19120.87
578.403	19186.4
578.763	19190.47
579.124	19228.66
579.485	19383.01
579.845	19418.49
580.206	19357.25
580.566	19533.96
580.927	19503.91
581.287	19599.27
581.648	19506.17
582.008	19700.06
582.368	19688.99
582.728	19729.44
583.089	19729.89
583.449	19827.52
583.809	19773.28
584.169	19995.19
584.529	19827.06
584.889	20065.02
585.249	19923.78
585.609	19875.2
585.969	20142.76
586.329	20087.62
586.688	20163.33
587.048	20116.1
587.408	20037.23
587.768	20075.42
588.127	20164.91
588.487	20109.99
588.846	20297.11
589.206	20227.73
589.565	20270.67
589.925	20244.23
590.284	20312.25
590.643	20355.86
591.003	20500.04
591.362	20461.85
591.721	20387.05
592.08	20523.54
592.44	20666.36
592.799	20626.82
593.158	20595.4
593.517	20586.14
593.876	20647.38
594.235	20658.91
594.593	20738
594.952	20790.65
595.311	20661.62
595.67	20831.56
596.029	20944.32
596.387	20881.95
596.746	21022.29
597.104	20922.18
597.463	20900.71
597.822	21077.65
598.18	21008.05
598.538	21024.09
598.897	21263.86
599.255	21013.47
599.613	21392.22
599.972	21183.41
600.33	21354.93
600.688	21220.25
601.046	21309.51
601.404	21415.04
601.762	21393.35
602.12	21546.57
602.478	21392.67
602.836	21438.77
603.194	21405.78
603.552	21417.98
603.91	21418.43
604.268	21586.79
604.625	21525.55
604.983	21667.47
605.341	21521.71
605.698	21562.84
606.056	21846.9
606.413	21685.09
606.771	21795.37
607.128	21850.51
607.485	21732.78
607.843	21710.86
608.2	21870.63
608.557	21979.55
608.914	21828.37
609.272	22073.33
609.629	22066.55
609.986	22202.82
610.343	22097.51
610.7	22263.84
611.057	22205.98
611.414	22169.6
611.771	22267.68
612.127	22246.21
612.484	22250.5
612.841	22361.69
613.198	22259.09
613.554	22266.55
613.911	22465.64
614.267	22450.5
614.624	22414.79
614.98	22476.94
615.337	22518.74
615.693	22449.37
616.05	22430.16
616.406	22734.11
616.762	22616.14
617.118	22629.93
617.475	22657.5
617.831	22608.69
618.187	22765.07
618.543	22857.27
618.899	22963.25
619.255	22793.09
619.611	22792.64
619.967	22890.49
620.323	22968.68
620.678	22901.33
621.034	22869.92
621.39	22845.97
621.746	22742.24
622.101	23068.79
622.457	22898.17
622.812	22962.8
623.168	23056.81
623.523	23078.28
623.879	23078.73
624.234	22868.57
624.589	22916.25
624.945	22960.54
625.3	23033.08
625.655	22981.56
626.01	23007.09
626.365	22937.94
626.72	22983.36
627.075	22937.49
627.43	23048.22
627.785	23049.13
628.14	23045.74
628.495	23041.67
628.85	23016.36
629.205	22937.26
629.559	23044.61
629.914	23008
630.269	23007.32
630.623	22944.72
630.978	22898.85
631.332	22973.42
631.687	23013.19
632.041	22797.61
632.396	22852.75
632.75	22809.81
633.104	22857.04
633.459	22754.22
633.813	22717.83
634.167	22789.47
634.521	22756.25
634.875	22782.01
635.229	22777.49
635.583	22657.5
635.937	22619.53
636.291	22591.51
636.645	22599.19
636.999	22548.8
637.352	22555.81
637.706	22482.13
638.06	22542.02
638.413	22503.6
638.767	22481.68
639.121	22512.64
639.474	22302.7
639.828	22396.04
640.181	22412.76
640.534	22388.8
640.888	22338.41
641.241	22307
641.594	22302.7
641.947	22286.43
642.301	22270.16
642.654	22226.55
643.007	22267
643.36	22243.95
643.713	22182.93
644.066	22209.15
644.419	22176.83
644.771	21985.42
645.124	21804.41
645.477	21737.52
645.83	21513.35
646.182	21565.1
646.535	21389.06
646.888	21427.47
647.24	21436.29
647.593	21436.74
647.945	21506.12
648.298	21307.48
648.65	21283.52
649.002	21258.44
649.355	21373.46
649.707	21184.77
650.059	21374.82
650.411	21697.07
650.763	21704.98
651.115	21889.83
651.467	21847.12
651.819	21793.11
652.171	21751.31
652.523	21681.93
652.875	21721.02
653.227	21703.62
653.578	21847.12
653.93	21788.37
654.282	21633.57
654.633	21611.42
654.985	21662.04
655.337	21673.12
655.688	21713.57
656.039	21602.38
656.391	21494.36
656.742	21588.83
657.094	21732.1
657.445	21674.47
657.796	21701.14
658.147	21566.68
658.498	21519.67
658.849	21641.48
659.2	21544.08
659.551	21552.22
659.902	21627.47
660.253	21493.23
660.604	21636.96
660.955	21507.25
661.306	21572.33
661.656	21547.7
662.007	21531.88
662.358	21507.25
662.708	21477.87
663.059	21451.2
663.409	21327.59
663.76	21539.56
664.11	21512.67
664.461	21458.66
664.811	21517.87
665.161	21538.43
665.511	21542.5
665.862	21475.38
666.212	21523.06
666.562	21498.88
666.912	21508.83
667.262	21383.63
667.612	21462.73
667.962	21505.44
668.312	21461.6
668.662	21579.79
669.011	21447.81
669.361	21374.37
669.711	21437.19
670.06	21361.49
670.41	21335.95
670.76	21352.67
671.109	21415.95
671.459	21344.09
671.808	21362.84
672.157	21361.49
672.507	21224.99
672.856	21283.75
673.205	21281.71
673.554	21373.24
673.904	21201.04
674.253	21391.09
674.602	21262.96
674.951	20961.72
675.3	20942.51
675.649	21261.38
675.998	21182.73
676.346	21260.25
676.695	21283.07
677.044	21190.19
677.393	21177.76
677.741	21201.49
678.09	21151.32
678.438	21041.49
678.787	21176.86
679.135	21087.14
679.484	21066.13
679.832	21094.15
680.181	20975.28
680.529	21064.09
680.877	21021.38
681.225	20969.63
681.573	21093.02
681.922	20944.77
682.27	20954.27
682.618	20904.78
682.966	20847.38
683.314	20764.67
683.661	20839.92
684.009	20739.58
684.357	20626.59
684.705	20679.24
685.053	20718.11
685.4	20704.55
685.748	20527.16
686.095	20506.14
686.443	20527.84
686.79	20468.4
687.138	20482.19
687.485	20516.31
687.832	20458.23
688.18	20402.64
688.527	20318.8
688.874	20277
689.221	20235.19
689.568	20179.82
689.915	20069.77
690.262	20089.88
690.609	20036.55
690.956	19991.8
691.303	19999.49
691.65	19840.85
691.997	19839.94
692.344	19721.08
692.69	19705.71
693.037	19816.89
693.383	19517.24
693.73	19710
694.077	19529.22
694.423	19602.89
694.769	19452.38
695.116	19462.55
695.462	19348.66
695.808	19356.57
696.155	19398.6
696.501	19227.76
696.847	19334.65
697.193	19160.19
697.539	19168.78
697.885	18981.21
698.231	18966.07
698.577	18947.76
698.923	18934.88
699.269	18824.6
699.614	18799.29
699.96	18750.03
700.306	18742.35
700.651	18658.28
700.997	18628.9
701.342	18528.34
701.688	18613.31
702.033	18435.69
702.379	18509.13
702.724	18497.61
703.069	18509.81
703.415	18217.61
703.76	18263.49
704.105	18236.82
704.45	18159.54
704.795	18040.22
705.14	18089.48
705.485	18051.29
705.83	18042.93
706.175	18040.44
706.52	17896.49
706.865	17910.28
707.209	17859.43
707.554	17829.83
707.899	17874.57
708.243	17788.25
708.588	17711.41
708.932	17578.31
709.277	17586.44
709.621	17733.79
709.966	17557.07
710.31	17574.02
710.654	17443.4
710.998	17452.44
711.342	17441.59
711.687	17403.62
712.031	17363.63
712.375	17292.89
712.719	17336.73
713.063	17270.52
713.407	17315.94
713.75	17210.41
714.094	17209.51
714.438	17121.37
714.782	17127.25
715.125	17011.09
715.469	17061.49
715.812	16937.87
716.156	16893.81
716.499	16904.43
716.843	16934.71
717.186	16807.71
717.53	16869.4
717.873	16876.86
718.216	16865.56
718.559	16810.87
718.902	16790.31
719.246	16820.59
719.589	16666.69
719.932	16656.98
720.275	16613.59
720.617	16586.02
720.96	16599.58
721.303	16633.25
721.646	16578.34
721.989	16481.84
722.331	16623.08
722.674	16553.03
723.016	16535.17
723.359	16454.95
723.701	16483.2
724.044	16303.77
724.386	16233.94
724.729	16408.62
725.071	16387.83
725.413	16250.21
725.755	16407.49
726.097	16243.65
726.439	16201.62
726.782	16216.54
727.124	16246.59
727.465	16098.35
727.807	16138.57
728.149	16154.62
728.491	16054.96
728.833	16091.34
729.175	16016.99
729.516	15959.82
729.858	16001.85
730.199	16015.64
730.541	16097.9
730.882	16009.76
731.224	16043.89
731.565	15934.28
731.906	15974.51
732.248	15926.15
732.589	15915.3
732.93	15835.76
733.271	15919.14
733.612	15828.52
733.953	15943.1
734.294	15769.09
734.635	15732.48
734.976	15778.13
735.317	15724.8
735.658	15741.52
735.999	15708.75
736.339	15739.71
736.68	15791.24
737.021	15726.61
737.361	15597.12
737.702	15765.7
738.042	15614.52
738.383	15690
738.723	15614.52
739.063	15684.8
739.404	15532.94
739.744	15517.8
740.084	15523.9
740.424	15532.04
740.764	15497.46
741.104	15618.81
741.444	15506.95
741.784	15467.4
742.124	15504.24
742.464	15481.41
742.804	15432.15
743.143	15475.99
743.483	15373.62
743.823	15299.27
744.162	15367.97
744.502	15351.02
744.841	15203.68
745.181	15282.32
745.52	15371.14
745.86	15385.82
746.199	15303.11
746.538	15305.83
746.877	15327.52
747.216	15259.5
747.556	15185.83
747.895	15257.69
748.234	15203.46
748.573	15211.59
748.911	15196
749.25	15100.18
749.589	15098.83
749.928	15086.62
750.267	15124.36
750.605	15184.7
750.944	15030.13
751.283	14931.82
751.621	15050.69
751.96	14996.46
752.298	14995.78
752.636	14961.43
752.975	14852.5
753.313	14754.65
753.651	14904.26
753.989	14776.57
754.327	14757.37
754.666	14711.94
755.004	14652.74
755.342	14711.94
755.679	14705.84
756.017	14548.11
756.355	14758.5
756.693	14606.18
757.031	14592.62
757.368	14478.5
757.706	14537.48
758.044	14414.78
758.381	14404.38
758.719	14377.26
759.056	14461.55
759.394	14325.97
759.731	14222.01
760.068	14249.58
760.405	14149.25
760.743	14154.22
761.08	14217.04
761.417	14052.75
761.754	14053.2
762.091	14117.16
762.428	13951.06
762.765	13916.03
763.102	13926.88
763.438	13821.12
763.775	13783.38
764.112	13840.55
764.449	13734.79
764.785	13705.87
765.122	13584.97
765.458	13685.53
765.795	13607.11
766.131	13585.19
766.467	13524.18
766.804	13470.39
767.14	13495.7
767.476	13402.83
767.812	13240.12
768.148	13345.43
768.485	13211.19
768.821	13212.32
769.157	13149.5
769.492	13093.68
769.828	13086.45
770.164	13040.58
770.5	12980.69
770.836	13002.61
771.171	12909.05
771.507	12844.2
771.842	12759.68
772.178	12676.74
772.513	12721.94
772.849	12643.52
773.184	12579.12
773.519	12571.89
773.855	12555.39
774.19	12446.69
774.525	12495.73
774.86	12454.83
775.195	12375.73
775.53	12397.88
775.865	12237.21
776.2	12216.64
776.535	12159.24
776.87	12145.01
777.205	12094.16
777.539	12011.22
777.874	12058.23
778.209	11924.67
778.543	11929.42
778.878	11869.31
779.212	11798.57
779.547	11712.47
779.881	11769.65
780.215	11726.94
780.55	11695.3
780.884	11674.96
781.218	11633.38
781.552	11470.22
781.886	11514.74
782.22	11420.28
782.554	11388.87
782.888	11296.44
783.222	11236.33
783.556	11335.99
783.889	11236.1
784.223	11128.08
784.557	11093.28
784.89	11112.04
785.224	11119.5
785.557	11044.47
785.891	10911.14
786.224	10944.59
786.558	10975.77
786.891	10825.27
787.224	10729.22
787.557	10703.91
787.891	10693.74
788.224	10725.16
788.557	10717.7
788.89	10669.34
789.223	10652.84
789.556	10557.48
789.888	10517.48
790.221	10500.3
790.554	10418.95
790.887	10333.08
791.219	10420.53
791.552	10333.75
791.884	10323.13
792.217	10199.52
792.549	10178.5
792.882	10196.58
793.214	10103.7
793.546	10081.78
793.879	9992.75
794.211	10029.81
794.543	10057.15
794.875	9989.81
795.207	10000.88
795.539	9961.56
795.871	9964.5
796.203	9852.64
796.535	9785.29
796.867	9770.15
797.198	9796.59
797.53	9738.97
797.862	9699.19
798.193	9684.51
798.525	9554.11
798.856	9695.13
799.188	9468.01
799.519	9567.9
799.85	9505.3
800.182	9527.67
800.513	9504.17
800.844	9297.62
801.175	9424.17
801.506	9326.32
801.837	9338.98
802.168	9296.04
802.499	9247.45
802.83	9248.58
803.161	9210.39
803.491	9172.43
803.822	9163.39
804.153	9115.93
804.483	9068.02
804.814	9027.57
805.145	9065.76
805.475	8998.42
805.805	9015.6
806.136	8944.19
806.466	8894.02
806.796	8935.82
807.126	8837.52
807.457	8829.84
807.787	8834.36
808.117	8855.83
808.447	8728.15
808.777	8772.66
809.107	8693.57
809.436	8719.78
809.766	8669.62
810.096	8667.13
810.426	8653.8
810.755	8584.42
811.085	8580.13
811.414	8614.25
811.744	8509.85
812.073	8571.54
812.403	8527.93
812.732	8474.59
813.061	8465.78
813.39	8303.75
813.719	8420.81
814.049	8415.61
814.378	8341.26
814.707	8322.73
815.036	8318.89
815.365	8256.52
815.693	8198.89
816.022	8209.52
816.351	8165.9
816.68	8203.19
817.008	8237.76
817.337	8143.53
817.665	8113.93
817.994	8170.19
818.322	8110.08
818.651	8080.71
818.979	8070.08
819.307	8054.72
819.636	8040.71
819.964	7985.57
820.292	7969.3
820.62	7969.3
820.948	7954.83
821.276	7976.98
821.604	7984.21
821.932	8003.19
822.259	7977.88
822.587	7942.86
822.915	7928.17
823.243	7941.73
823.57	7935.62
823.898	7913.93
824.225	7894.04
824.553	7868.28
824.88	7887.26
825.207	7913.03
825.535	7922.74
825.862	7894.04
826.189	7847.04
826.516	7857.43
826.843	7948.28
827.17	7925.91
827.497	7910.09
827.824	7911.9
828.151	7890.2
828.478	7907.83
828.805	7859.02
829.131	7887.49
829.458	7903.76
829.785	7847.04
830.111	7865.34
830.438	7924.1
830.764	7880.26
831.09	7898.11
831.417	7779.24
831.743	7799.81
832.069	7814.72
832.395	7819.7
832.722	7833.93
833.048	7820.6
833.374	7832.35
833.7	7804.55
834.026	7813.82
834.351	7797.78
834.677	7763.43
835.003	7774.27
835.329	7751.9
835.654	7761.39
835.98	7721.62
836.306	7741.05
836.631	7680.94
836.956	7694.73
837.282	7710.32
837.607	7689.53
837.932	7724.56
838.258	7667.16
838.583	7612.47
838.908	7569.31
839.233	7650.89
839.558	7615.18
839.883	7569.53
840.208	7572.47
840.533	7558.01
840.858	7580.15
841.182	7559.36
841.507	7571.79
841.832	7427.39
842.156	7470.1
842.481	7498.12
842.805	7470.1
843.13	7490.89
843.454	7373.15
843.778	7376.32
844.103	7372.93
844.427	7374.51
844.751	7338.35
845.075	7315.75
845.399	7260.39
845.723	7254.06
846.047	7325.47
846.371	7224.46
846.695	7231.69
847.019	7146.94
847.343	7148.75
847.666	7052.94
847.99	7129.77
848.313	6990.34
848.637	7003.22
848.96	6999.83
849.284	6981.98
849.607	6949.66
849.931	6916.44
850.254	6900.4
850.577	6896.56
850.9	6852.26
851.223	6821.3
851.546	6752.6
851.869	6744.02
852.192	6777.69
852.515	6721.65
852.838	6659.27
853.161	6662.89
853.483	6622.66
853.806	6617.24
854.129	6631.48
854.451	6610.46
854.774	6528.2
855.096	6541.09
855.419	6528.2
855.741	6494.08
856.063	6483.46
856.385	6454.08
856.708	6471.26
857.03	6480.3
857.352	6405.72
857.674	6401.2
857.996	6323.69
858.318	6368.43
858.64	6355.55
858.961	6291.83
859.283	6285.95
859.605	6220.87
859.926	6293.18
860.248	6274.43
860.57	6210.7
860.891	6223.35
861.212	6161.21
861.534	6149.23
861.855	6179.06
862.176	6151.49
862.498	6157.37
862.819	6138.61
863.14	6082.57
863.461	6114.88
863.782	6091.15
864.103	6098.16
864.424	6052.06
864.745	6109.91
865.065	6105.16
865.386	6074.43
865.707	6025.84
866.027	6034.66
866.348	6038.73
866.668	6045.73
866.989	6007.77
867.309	5973.64
867.63	5995.34
867.95	5981.33
868.27	5942.46
868.59	5989.69
868.91	5951.72
869.23	5970.93
869.55	5976.58
869.87	5908.56
870.19	5875.57
870.51	5890.71
870.83	5898.84
871.15	5808.67
871.469	5865.85
871.789	5929.8
872.109	5903.14
872.428	5862.46
872.748	5864.49
873.067	5863.59
873.386	5885.74
873.706	5873.98
874.025	5774.33
874.344	5762.8
874.663	5821.78
874.982	5766.64
875.301	5760.54
875.62	5739.98
875.939	5745.85
876.258	5742.91
876.577	5695.01
876.896	5725.97
877.214	5722.12
877.533	5659.3
877.852	5686.19
878.17	5683.71
878.489	5672.86
878.807	5655.01
879.125	5680.54
879.444	5619.3
879.762	5656.81
880.08	5660.43
880.398	5627.89
880.716	5651.62
881.034	5604.39
881.352	5658.85
881.67	5558.74
881.988	5639.87
882.306	5585.18
882.624	5608.23
882.941	5569.81
883.259	5468.12
883.577	5579.53
883.894	5523.71
884.212	5466.76
884.529	5511.51
884.846	5542.24
885.164	5473.99
885.481	5406.65
885.798	5454.56
886.115	5412.98
886.432	5393.32
886.75	5414.34
887.067	5401.91
887.383	5364.17
887.7	5385.18
888.017	5394.45
888.334	5375.24
888.651	5370.72
888.967	5342.7
889.284	5332.53
889.6	5252.76
889.917	5262.02
890.233	5264.28
890.55	5205.75
890.866	5259.31
891.182	5195.58
891.498	5255.92
891.815	5211.4
892.131	5186.09
892.447	5196.49
892.763	5121.01
893.079	5114.23
893.395	5144.29
893.71	5140.9
894.026	5092.31
894.342	5048.47
894.657	5056.6
894.973	5057.06
895.289	5066.1
895.604	5057.73
895.92	4933.22
896.235	4984.74
896.55	4993.1
896.865	4953.1
897.181	4971.41
897.496	4964.18
897.811	4894.12
898.126	4936.61
898.441	4837.18
898.756	4845.31
899.071	4825.88
899.386	4870.39
899.7	4796.5
900.015	4865.65
900.33	4754.24
900.644	4829.94
900.959	4795.82
901.273	4755.37
901.588	4739.78
901.902	4768.02
902.216	4688.48
902.531	4678.76
902.845	4710.62
903.159	4669.04
903.473	4617.97
903.787	4597.63
904.101	4578.42
904.415	4634.69
904.729	4550.85
905.042	4543.4
905.356	4560.12
905.67	4593.11
905.984	4541.14
906.297	4544.53
906.611	4481.03
906.924	4509.95
907.237	4496.39
907.551	4436.28
907.864	4437.86
908.177	4380.92
908.491	4413.46
908.804	4398.09
909.117	4400.12
909.43	4387.47
909.743	4316.51
910.056	4372.55
910.368	4258.43
910.681	4281.71
910.994	4249.39
911.307	4271.77
911.619	4231.32
911.932	4262.05
912.244	4182.28
912.557	4239.9
912.869	4182.28
913.181	4134.14
913.494	4175.05
913.806	4146.57
914.118	4130.98
914.43	4109.06
914.742	4050.08
915.054	4045.11
915.366	4075.39
915.678	4065.67
915.99	4065.9
916.302	4021.6
916.613	3984.09
916.925	3979.34
917.236	3966.01
917.548	3948.16
917.859	3960.59
918.171	3892.34
918.482	3919.91
918.794	3921.49
919.105	3924.2
919.416	3902.96
919.727	3841.27
920.038	3876.52
920.349	3828.61
920.66	3865.45
920.971	3802.17
921.282	3829.74
921.593	3773.02
921.903	3749.75
922.214	3758.56
922.525	3752.23
922.835	3680.14
923.146	3700.93
923.456	3707.94
923.767	3688.05
924.077	3700.03
924.387	3648.28
924.697	3679.47
925.008	3632.24
925.318	3621.16
925.628	3615.29
925.938	3604.44
926.248	3620.26
926.558	3563.76
926.867	3574.61
927.177	3509.07
927.487	3556.53
927.796	3475.18
928.106	3481.96
928.416	3460.26
928.725	3456.42
929.034	3441.28
929.344	3450.09
929.653	3405.8
929.962	3396.99
930.271	3393.6
930.581	3398.79
930.89	3368.29
931.199	3401.28
931.508	3339.36
931.817	3338.01
932.125	3356.54
932.434	3291.9
932.743	3255.07
933.051	3253.49
933.36	3264.34
933.669	3223.21
933.977	3227.73
934.286	3226.37
934.594	3229.99
934.902	3192.47
935.21	3176.65
935.519	3190.89
935.827	3201.06
936.135	3132.14
936.443	3153.15
936.751	3141.4
937.059	3092.59
937.367	3125.81
937.674	3081.97
937.982	3111.57
938.29	3053.04
938.597	3058.24
938.905	3032.93
939.213	3030.67
939.52	3037.67
939.827	3041.06
940.135	2997.68
940.442	3004.23
940.749	2981.86
941.056	2971.01
941.363	2959.26
941.67	2978.69
941.977	2982.76
942.284	2937.34
942.591	2904.57
942.898	2880.39
943.205	2870.45
943.511	2870.22
943.818	2872.71
944.125	2866.38
944.431	2850.56
944.738	2834.52
945.044	2795.65
945.35	2832.03
945.657	2801.07
945.963	2815.31
946.269	2773.73
946.575	2758.59
946.881	2769.43
947.187	2751.81
947.493	2715.2
947.799	2735.99
948.105	2681.07
948.41	2711.13
948.716	2693.95
949.022	2665.25
949.327	2677.68
949.633	2653.5
949.938	2659.15
950.244	2667.29
950.549	2624.35
950.854	2599.95
951.16	2590.23
951.465	2575.77
951.77	2560.85
952.075	2625.71
952.38	2581.87
952.685	2565.37
952.99	2554.3
953.294	2540.74
953.599	2562.66
953.904	2508.87
954.209	2507.29
954.513	2494.64
954.818	2453.73
955.122	2524.47
955.426	2481.53
955.731	2446.73
956.035	2437.69
956.339	2410.8
956.643	2465.03
956.948	2432.72
957.252	2382.78
957.556	2420.97
957.86	2410.8
958.163	2419.39
958.467	2376
958.771	2377.35
959.075	2351.59
959.378	2368.54
959.682	2359.05
959.985	2331.03
960.289	2318.82
960.592	2311.37
960.896	2301.65
961.199	2277.47
961.502	2293.97
961.805	2272.72
962.108	2258.71
962.411	2244.93
962.714	2248.32
963.017	2216.45
963.32	2255.32
963.623	2207.64
963.926	2231.59
964.228	2227.75
964.531	2237.24
964.833	2224.36
965.136	2193.85
965.438	2187.75
965.741	2143.91
966.043	2156.79
966.345	2145.04
966.648	2154.53
966.95	2164.7
967.252	2117.02
967.554	2086.06
967.856	2100.3
968.158	2090.35
968.46	2109.11
968.761	2123.35
969.063	2061.43
969.365	2091.94
969.666	2074.08
969.968	2061.2
970.269	2075.67
970.571	2034.76
970.872	2021.88
971.174	2023.01
971.475	2029.11
971.776	2014.2
972.077	1974.65
972.378	1969
972.679	1982.56
972.98	1992.73
973.281	1974.65
973.582	1962.9
973.883	1976.69
974.183	1946.63
974.484	1952.96
974.785	1972.17
975.085	1935.1
975.386	1925.16
975.686	1915.22
975.986	1908.44
976.287	1905.73
976.587	1894.65
976.887	1859.63
977.187	1883.58
977.487	1881.77
977.787	1868.89
978.087	1850.36
978.387	1827.08
978.687	1828.89
978.987	1849.68
979.286	1830.25
979.586	1822.11
979.885	1791.15
980.185	1781.66
980.484	1784.83
980.784	1785.05
981.083	1800.87
981.382	1761.1
981.682	1768.56
981.981	1744.6
982.28	1728.56
982.579	1771.49
982.878	1765.17
983.177	1743.25
983.475	1728.56
983.774	1706.41
984.073	1710.7
984.372	1691.27
984.67	1689.46
984.969	1701.89
985.267	1667.31
985.566	1695.34
985.864	1686.98
986.162	1647.2
986.461	1657.37
986.759	1660.54
987.057	1637.94
987.355	1631.16
987.653	1652.85
987.951	1646.98
988.249	1633.87
988.547	1651.04
988.844	1606.07
989.142	1590.93
989.44	1592.74
989.737	1594.55
990.035	1569.92
990.332	1578.96
990.63	1570.82
990.927	1580.54
991.224	1541.22
991.521	1559.75
991.819	1574.44
992.116	1539.18
992.413	1558.62
992.71	1526.3
993.006	1552.74
993.303	1506.42
993.6	1516.36
993.897	1510.71
994.193	1506.64
994.49	1495.34
994.787	1474.55
995.083	1478.62
995.379	1467.09
995.676	1485.4
995.972	1463.25
996.268	1455.8
996.565	1425.97
996.861	1430.94
997.157	1426.87
997.453	1447.21
997.749	1451.28
998.044	1411.05
998.34	1417.38
998.636	1412.86
998.932	1389.36
999.227	1388.45
999.523	1403.59
999.818	1408.34
1000.114	1362.46
1000.409	1361.11
1000.704	1345.97
1001	1373.99
1001.295	1333.09
1001.59	1334.44
1001.885	1334.67
1002.18	1331.28
1002.475	1313.2
1002.77	1322.69
1003.065	1301.22
1003.359	1285.4
1003.654	1305.97
1003.949	1291.51
1004.243	1258.06
1004.538	1276.59
1004.832	1238.63
1005.127	1272.07
1005.421	1259.87
1005.715	1257.61
1006.009	1272.3
1006.304	1235.91
1006.598	1246.99
1006.892	1222.35
1007.186	1220.55
1007.48	1196.37
1007.773	1211.06
1008.067	1189.59
1008.361	1199.76
1008.655	1201.11
1008.948	1188.91
1009.242	1194.11
1009.535	1185.07
1009.829	1148.91
1010.122	1150.04
1010.415	1166.99
1010.708	1116.82
1011.001	1141.45
1011.295	1126.99
1011.588	1122.92
1011.881	1132.41
1012.173	1127.89
1012.466	1129.48
1012.759	1114.34
1013.052	1123.15
1013.344	1085.18
1013.637	1087.22
1013.93	1112.53
1014.222	1102.13
1014.514	1107.33
1014.807	1048.57
1015.099	1048.35
1015.391	1051.74
1015.683	1050.83
1015.976	1055.35
1016.268	1037.73
1016.56	1038.63
1016.851	1041.57
1017.143	1022.59
1017.435	1004.06
1017.727	1006.09
1018.018	1034.11
1018.31	990.5
1018.602	1000.44
1018.893	995.24
1019.185	997.28
1019.476	997.95
1019.767	984.62
1020.058	994.56
1020.35	967.22
1020.641	980.33
1020.932	968.58
1021.223	973.55
1021.514	952.08
1021.804	941.68
1022.095	928.58
1022.386	945.53
1022.677	927.67
1022.967	912.31
1023.258	939.2
1023.548	907.11
1023.839	903.49
1024.129	907.11
1024.419	882.25
1024.709	896.04
1025	871.4
1025.29	873.44
1025.58	865.3
1025.87	864.17
1026.16	872.76
1026.449	872.99
1026.739	868.01
1027.029	868.69
1027.319	867.34
1027.608	852.65
1027.898	833.89
1028.187	842.93
1028.477	816.26
1028.766	802.25
1029.055	824.17
1029.344	822.37
1029.634	826.89
1029.923	825.3
1030.212	791.86
1030.501	803.38
1030.79	827.34
1031.078	801.35
1031.367	803.83
1031.656	772.88
1031.945	773.55
1032.233	772.65
1032.522	761.58
1032.81	756.83
1033.099	769.26
1033.387	756.83
1033.675	762.93
1033.963	761.35
1034.251	755.02
1034.54	744.63
1034.828	718.64
1035.116	741.01
1035.403	704.63
1035.691	746.66
1035.979	710.5
1036.267	729.03
1036.554	704.63
1036.842	709.83
1037.129	719.54
1037.417	701.69
1037.704	684.97
1037.992	715.02
1038.279	703.27
1038.566	695.82
1038.853	695.82
1039.14	695.82
