Data from tablewood_brown_FLMS001491_062.txt Node
Date: Tue Feb 07 11:10:49 GMT 2017
User: dcchb
Spectrometer: FLMS00149
Trigger mode: 0
Integration Time (sec): 2.000000E-2
Scans to average: 10
Electric dark correction enabled: true
Nonlinearity correction enabled: false
Boxcar width: 0
XAxis mode: Wavelengths
Number of Pixels in Spectrum: 2048
>>>>>Begin Spectral Data<<<<<
341.393	-1.93
341.776	-1.93
342.16	-1.93
342.543	-53.69
342.927	-76.28
343.31	-84.42
343.693	-69.73
344.077	-57.98
344.46	-37.87
344.843	-54.59
345.226	-47.81
345.61	-31.99
345.993	-7.81
346.376	-15.95
346.759	-1.48
347.142	37.39
347.525	61.57
347.908	48.46
348.291	59.53
348.674	94.79
349.057	107.89
349.44	115.35
349.823	146.31
350.206	159.42
350.588	207.55
350.971	214.33
351.354	238.51
351.737	261.79
352.119	246.87
352.502	267.21
352.884	253.43
353.267	267.21
353.65	286.19
354.032	292.29
354.414	318.28
354.797	323.71
355.179	310.15
355.562	323.93
355.944	321.9
356.326	344.5
356.709	342.46
357.091	341.78
357.473	362.12
357.855	349.02
358.238	333.88
358.62	338.85
359.002	364.16
359.384	349.92
359.766	334.33
360.148	338.4
360.53	346.08
360.912	334.1
361.294	341.78
361.676	327.1
362.057	333.88
362.439	323.03
362.821	328.45
363.203	352.41
363.584	350.37
363.966	340.43
364.348	337.04
364.729	326.64
365.111	344.72
365.493	332.52
365.874	332.52
366.256	328.68
366.637	334.1
367.019	317.83
367.4	332.75
367.781	342.24
368.163	322.58
368.544	339.75
368.925	340.88
369.306	332.75
369.688	333.65
370.069	330.26
370.45	328.23
370.831	324.61
371.212	318.96
371.593	323.03
371.974	307.44
372.355	344.04
372.736	340.65
373.117	345.85
373.498	341.78
373.879	346.98
374.26	337.04
374.641	318.73
375.021	316.93
375.402	338.62
375.783	346.53
376.163	323.93
376.544	350.82
376.925	355.8
377.305	352.86
377.686	371.61
378.066	352.18
378.447	310.6
378.827	351.5
379.208	335.68
379.588	366.87
379.968	357.6
380.349	360.09
380.729	359.41
381.109	364.61
381.489	364.16
381.87	372.29
382.25	356.93
382.63	372.97
383.01	367.32
383.39	367.09
383.77	367.09
384.15	372.52
384.53	393.31
384.91	353.76
385.29	375.68
385.67	370.94
386.049	392.18
386.429	371.84
386.809	382.01
387.189	405.96
387.568	418.62
387.948	409.58
388.328	399.18
388.707	389.47
389.087	405.51
389.466	421.78
389.846	404.38
390.225	420.88
390.605	420.2
390.984	411.84
391.363	428.34
391.743	449.35
392.122	418.39
392.501	440.31
392.881	425.62
393.26	436.25
393.639	429.69
394.018	438.96
394.397	437.38
394.776	440.31
395.155	442.57
395.534	442.12
395.913	440.31
396.292	456.36
396.671	446.87
397.05	471.95
397.429	459.52
397.808	466.3
398.186	479.86
398.565	477.15
398.944	474.21
399.323	484.61
399.701	494.55
400.08	492.29
400.458	483.7
400.837	504.94
401.215	514.89
401.594	498.62
401.972	505.85
402.351	506.75
402.729	522.12
403.107	514.89
403.486	524.6
403.864	504.49
404.242	543.59
404.62	537.03
404.999	521.67
405.377	556.69
405.755	537.26
406.133	532.74
406.511	550.14
406.889	573.42
407.267	555.56
407.645	570.93
408.023	545.62
408.401	580.65
408.779	568.45
409.156	589.69
409.534	591.04
409.912	594.66
410.29	577.94
410.667	607.77
411.045	606.41
411.422	621.33
411.8	618.84
412.178	606.41
412.555	637.37
412.933	664.49
413.31	631.72
413.687	657.48
414.065	659.52
414.442	651.38
414.819	673.98
415.197	653.42
415.574	683.47
415.951	672.4
416.328	671.27
416.705	691.15
417.082	698.39
417.46	698.84
417.837	674.21
418.214	707.65
418.591	716.69
418.967	706.29
419.344	735.67
419.721	727.99
420.098	732.73
420.475	737.48
420.852	727.31
421.228	729.8
421.605	754.66
421.982	762.11
422.358	757.82
422.735	773.41
423.111	805.05
423.488	803.69
423.864	777.71
424.241	785.16
424.617	796.91
424.994	802.11
425.37	828.55
425.746	828.33
426.123	816.35
426.499	839.85
426.875	835.33
427.251	828.33
427.627	869.91
428.003	884.82
428.379	870.13
428.756	901.09
429.132	883.24
429.507	881.43
429.883	917.36
430.259	924.14
430.635	920.98
431.011	913.97
431.387	952.62
431.763	954.2
432.138	948.32
432.514	981.09
432.89	984.25
433.265	992.84
433.641	994.2
434.016	996.23
434.392	1017.47
434.767	1055.21
435.143	1048.66
435.518	1042.78
435.894	1059.51
436.269	1092.95
436.644	1048.21
437.02	1092.27
437.395	1084.82
437.77	1098.6
438.145	1133.85
438.52	1146.74
438.895	1141.76
439.271	1134.08
439.646	1186.28
440.021	1187.41
440.395	1207.98
440.77	1186.28
441.145	1205.49
441.52	1213.17
441.895	1190.35
442.27	1246.17
442.645	1211.37
443.019	1234.19
443.394	1264.47
443.769	1226.96
444.143	1271.48
444.518	1278.94
444.892	1265.38
445.267	1303.12
445.641	1299.73
446.016	1287.3
446.39	1325.04
446.764	1339.05
447.139	1328.88
447.513	1341.08
447.887	1314.87
448.262	1339.5
448.636	1362.32
449.01	1379.72
449.384	1356.22
449.758	1416.11
450.132	1388.31
450.506	1421.3
450.88	1434.86
451.254	1418.59
451.628	1420.17
452.002	1444.13
452.376	1482.55
452.75	1449.33
453.123	1485.94
453.497	1525.26
453.871	1502.21
454.244	1544.47
454.618	1538.59
454.992	1576.78
455.365	1553.73
455.739	1604.58
456.112	1618.59
456.486	1643.45
456.859	1640.51
457.232	1684.12
457.606	1648.19
457.979	1678.47
458.352	1718.7
458.725	1748.53
459.099	1766.83
459.472	1781.07
459.845	1818.36
460.218	1811.12
460.591	1820.62
460.964	1831.92
461.337	1924.12
461.71	1897
462.083	1937
462.456	1959.37
462.829	1972.48
463.201	1983.1
463.574	1985.58
463.947	2038.24
464.32	2068.75
464.692	2074.17
465.065	2114.39
465.438	2157.56
465.81	2155.97
466.183	2219.48
466.555	2255.41
466.928	2237.1
467.3	2253.15
467.672	2309.87
468.045	2323.65
468.417	2355.97
468.789	2406.36
469.161	2442.29
469.534	2465.34
469.906	2514.61
470.278	2531.11
470.65	2584.21
471.022	2621.72
471.394	2668.73
471.766	2711.67
472.138	2755.28
472.51	2803.19
472.882	2834.6
473.253	2908.05
473.625	2953.24
473.997	3009.96
474.369	3052.22
474.74	3101.94
475.112	3150.3
475.484	3198.21
475.855	3277.75
476.227	3317.07
476.598	3396.62
476.97	3481.14
477.341	3562.49
477.713	3615.15
478.084	3630.29
478.455	3771.75
478.827	3797.29
479.198	3883.61
479.569	3932.2
479.94	4057.62
480.311	4094
480.682	4247.67
481.053	4274.11
481.424	4357.72
481.795	4431.85
482.166	4466.65
482.537	4577.83
482.908	4686.3
483.279	4687.89
483.65	4793.87
484.021	4883.36
484.391	4996.8
484.762	5075.9
485.133	5074.99
485.503	5166.74
485.874	5247.42
486.244	5391.82
486.615	5485.38
486.985	5511.14
487.356	5646.5
487.726	5727.63
488.097	5821.19
488.467	5931.24
488.837	6015.99
489.207	6081.07
489.578	6154.06
489.948	6193.38
490.318	6265.92
490.688	6316.99
491.058	6443.55
491.428	6503.43
491.798	6556.54
492.168	6767.6
492.538	6803.99
492.908	6834.95
493.278	6886.92
493.648	6979.58
494.017	7040.37
494.387	7147.71
494.757	7197.42
495.126	7252.79
495.496	7321.04
495.866	7427.93
496.235	7446.46
496.605	7595.15
496.974	7545.44
497.344	7684.19
497.713	7752.89
498.082	7784.3
498.452	7799.89
498.821	7855.26
499.19	7925.31
499.559	8002.6
499.928	8108.13
500.298	8152.88
500.667	8217.06
501.036	8227
501.405	8297.51
501.774	8298.64
502.143	8432.87
502.512	8493.66
502.88	8487.79
503.249	8644.62
503.618	8713.99
503.987	8717.38
504.356	8850.94
504.724	8863.14
505.093	8885.06
505.462	8962.8
505.83	8964.61
506.199	9105.85
506.567	9269.23
506.936	9252.74
507.304	9309.46
507.672	9382.9
508.041	9421.77
508.409	9579.06
508.777	9650.01
509.145	9765.94
509.514	9780.41
509.882	9773.85
510.25	9875.55
510.618	9976.56
510.986	9956.9
511.354	10152.15
511.722	10209.55
512.09	10283.9
512.458	10301.75
512.826	10500.39
513.193	10558.24
513.561	10463.1
513.929	10681.4
514.297	10788.97
514.664	10871
515.032	10903.32
515.4	10994.16
515.767	11094.5
516.135	11134.04
516.502	11121.61
516.869	11314.38
517.237	11334.94
517.604	11395.96
517.972	11635.27
518.339	11634.14
518.706	11679.11
519.073	11781.71
519.44	11975.15
519.808	12004.3
520.175	12076.17
520.542	12244.97
520.909	12336.05
521.276	12357.06
521.643	12502.59
522.009	12572.88
522.376	12619.88
522.743	12768.12
523.11	12967.67
523.477	13056.25
523.843	13071.85
524.21	13298.28
524.577	13476.58
524.943	13512.96
525.31	13575.34
525.676	13689.46
526.043	13819.17
526.409	13813.75
526.776	14060.75
527.142	14027.07
527.508	14147.07
527.874	14331.02
528.241	14322.43
528.607	14479.94
528.973	14572.6
529.339	14606.72
529.705	14730.78
530.071	14919.71
530.437	14942.98
530.803	15084
531.169	15105.69
531.535	15117.89
531.901	15273.6
532.267	15351.56
532.632	15458.9
532.998	15523.08
533.364	15596.3
533.73	15671.33
534.095	15709.52
534.461	15761.49
534.826	15941.83
535.192	16066.34
535.557	16084.65
535.923	16062.73
536.288	16181.37
536.653	16307.92
537.019	16209.84
537.384	16335.71
537.749	16419.78
538.114	16525.99
538.479	16540.45
538.845	16601.24
539.21	16723.27
539.575	16758.3
539.94	16752.65
540.305	16855.47
540.67	16831.29
541.034	17023.15
541.399	17018.86
541.764	17100.44
542.129	17172.98
542.494	17241.68
542.858	17271.51
543.223	17295.46
543.587	17454.78
543.952	17443.71
544.316	17498.85
544.681	17503.59
545.045	17588.34
545.41	17723.02
545.774	17759.63
546.138	17729.8
546.503	17919.85
546.867	17955.33
547.231	18024.94
547.595	18099.28
547.959	18201.43
548.324	18140.64
548.688	18248.66
549.052	18316
549.416	18470.57
549.779	18455.66
550.143	18586.73
550.507	18725.26
550.871	18804.58
551.235	18817.91
551.599	19006.15
551.962	19113.04
552.326	19091.35
552.689	19325.01
553.053	19301.06
553.417	19325.47
553.78	19662.86
554.143	19620.6
554.507	19766.36
554.87	19960.03
555.234	20053.58
555.597	20042.28
555.96	20078.67
556.323	20277.76
556.686	20450.18
557.05	20509.39
557.413	20595.94
557.776	20725.66
558.139	20876.61
558.502	21021.02
558.865	21014.46
559.228	21286.32
559.59	21457.16
559.953	21532.19
560.316	21812.18
560.679	21899.64
561.041	22068.9
561.404	22290.36
561.767	22460.07
562.129	22369.45
562.492	22714.53
562.854	22682.44
563.217	22730.57
563.579	22997.91
563.941	23177.79
564.304	23340.73
564.666	23614.39
565.028	23590.67
565.39	23842.86
565.753	24091.67
566.115	24095.28
566.477	24433.81
566.839	24487.36
567.201	24743.86
567.563	24706.12
567.925	24977.97
568.287	25116.27
568.648	25332.54
569.01	25516.72
569.372	25726.65
569.734	25822.47
570.095	26088.68
570.457	26121.9
570.819	26373.42
571.18	26430.82
571.542	26621.55
571.903	26903.57
572.265	27004.81
572.626	27100.63
572.987	27173.62
573.349	27451.81
573.71	27656.09
574.071	27772.93
574.432	27844.34
574.794	28175.63
575.155	28326.36
575.516	28266.93
575.877	28521.83
576.238	28599.35
576.599	28869.17
576.96	29014.7
577.32	29063.29
577.681	29352.77
578.042	29385.54
578.403	29504.41
578.763	29622.14
579.124	29815.59
579.485	29949.59
579.845	30040.21
580.206	30155.92
580.566	30196.14
580.927	30299.42
581.287	30459.64
581.648	30493.99
582.008	30582.12
582.368	30701.66
582.728	30811.94
583.089	30881.55
583.449	30866.86
583.809	30951.83
584.169	31088.77
584.529	30945.27
584.889	31310.91
585.249	31257.13
585.609	31194.98
585.969	31452.83
586.329	31416.45
586.688	31563.79
587.048	31505.26
587.408	31417.8
587.768	31386.62
588.127	31491.02
588.487	31552.26
588.846	31826.15
589.206	31677.23
589.565	31871.13
589.925	31993.38
590.284	31779.6
590.643	31905.7
591.003	32024.12
591.362	32290.78
591.721	32069.76
592.08	32034.51
592.44	32147.5
592.799	32200.38
593.158	32136.2
593.517	32115.86
593.876	32236.31
594.235	32253.26
594.593	32254.84
594.952	32425.69
595.311	32432.47
595.67	32484.89
596.029	32515.85
596.387	32680.37
596.746	32595.4
597.104	32448.29
597.463	32528.51
597.822	32683.31
598.18	32446.7
598.538	32424.56
598.897	32901.15
599.255	32508.4
599.613	32989.74
599.972	32727.15
600.33	32921.04
600.688	32732.12
601.046	32970.31
601.404	33045.33
601.762	32788.39
602.12	33033.13
602.478	33093.01
602.836	33096.86
603.194	33039.23
603.552	33076.07
603.91	33011.21
604.268	33172.56
604.625	32919.46
604.983	33202.39
605.341	33072.45
605.698	33212.78
606.056	33250.3
606.413	33199.9
606.771	33367.58
607.128	33356.51
607.485	33133.69
607.843	33251.43
608.2	33423.17
608.557	33569.61
608.914	33520.35
609.272	33679.44
609.629	33682.83
609.986	33820.9
610.343	33655.71
610.7	33903.39
611.057	33924.18
611.414	33684.64
611.771	33791.75
612.127	34013.44
612.484	33892.09
612.841	33980.45
613.198	33787.23
613.554	33976.38
613.911	34229.48
614.267	34092.54
614.624	34222.93
614.98	34176.15
615.337	34257.73
615.693	34328.01
616.05	34284.4
616.406	34528.91
616.762	34404.84
617.118	34442.36
617.475	34449.36
617.831	34453.66
618.187	34624.27
618.543	34580.66
618.899	34779.3
619.255	34661.11
619.611	34487.1
619.967	34766.64
620.323	34666.53
620.678	34675.35
621.034	34536.59
621.39	34588.12
621.746	34424.28
622.101	34920.76
622.457	34726.42
622.812	34843.7
623.168	34879.63
623.523	34876.92
623.879	34961.44
624.234	34694.55
624.589	34881.67
624.945	35009.35
625.3	34906.53
625.655	34790.37
626.01	34878.73
626.365	34914.89
626.72	34936.13
627.075	34838.96
627.43	34879.41
627.785	34739.75
628.14	34924.15
628.495	34799.64
628.85	34791.27
629.205	34810.03
629.559	34957.37
629.914	34744.27
630.269	34634.44
630.623	34723.93
630.978	34610.04
631.332	34851.84
631.687	34784.27
632.041	34646.87
632.396	34559.19
632.75	34560.32
633.104	34605.06
633.459	34283.72
633.813	34337.05
634.167	34420.89
634.521	34358.97
634.875	34365.07
635.229	34222.48
635.583	34249.14
635.937	34334.56
636.291	34246.43
636.645	34244.4
636.999	34179.09
637.352	34327.56
637.706	34243.04
638.06	34134.34
638.413	34129.82
638.767	34001.24
639.121	34085.3
639.474	33850.96
639.828	33915.59
640.181	33779.1
640.534	33857.29
640.888	33750.62
641.241	33757.4
641.594	33791.07
641.947	33926.44
642.301	33612.77
642.654	33716.05
643.007	33765.31
643.36	33673.11
643.713	33580.23
644.066	33819.55
644.419	33483.96
644.771	33277.19
645.124	33004.43
645.477	33085.1
645.83	32690.09
646.182	32594.5
646.535	32562.63
646.888	32601.28
647.24	32458.23
647.593	32675.85
647.945	32415.07
648.298	32326.25
648.65	32461.84
649.002	32361.96
649.355	32384.78
649.707	32308.18
650.059	32363.77
650.411	32932.79
650.763	32993.58
651.115	33100.7
651.467	33163.97
651.819	33057.99
652.171	33078.1
652.523	33101.15
652.875	33017.54
653.227	32942.06
653.578	33196.74
653.93	32982.51
654.282	32880.82
654.633	32756.3
654.985	32925.33
655.337	32963.3
655.688	32984.77
656.039	33100.02
656.391	32833.13
656.742	32840.82
657.094	32968.72
657.445	33044.88
657.796	32824.32
658.147	32881.49
658.498	32928.05
658.849	32938.44
659.2	32851.66
659.551	32870.2
659.902	32928.27
660.253	32725.34
660.604	32884.66
660.955	32729.41
661.306	32847.6
661.656	32774.38
662.007	32827.71
662.358	32839.91
662.708	32811.89
663.059	32795.62
663.409	32514.5
663.76	32937.99
664.11	32799.01
664.461	32753.59
664.811	32786.58
665.161	32720.14
665.511	32652.35
665.862	32766.02
666.212	32734.15
666.562	32840.82
666.912	32742.97
667.262	32619.13
667.612	32698
667.962	32660.03
668.312	32741.16
668.662	32746.58
669.011	32680.37
669.361	32580.71
669.711	32692.12
670.06	32664.78
670.41	32544.1
670.76	32460.94
671.109	32597.89
671.459	32548.62
671.808	32398.8
672.157	32439.7
672.507	32356.54
672.856	32304.33
673.205	32265.24
673.554	32310.66
673.904	32264.34
674.253	32337.55
674.602	32313.15
674.951	31949.54
675.3	31667.74
675.649	32279.93
675.998	32227.27
676.346	32135.3
676.695	32154.51
677.044	32002.65
677.393	32131.68
677.741	32133.94
678.09	32222.3
678.438	32083.78
678.787	32090.33
679.135	32074.51
679.484	31855.98
679.832	31974.63
680.181	31956.55
680.529	31920.39
680.877	31766.72
681.225	31620.96
681.573	31841.52
681.922	31686.72
682.27	31498.93
682.618	31501.19
682.966	31329.22
683.314	31481.31
683.661	31406.73
684.009	31193.85
684.357	31331.7
684.705	31219.39
685.053	31251.48
685.4	31191.6
685.748	30962.22
686.095	30990.24
686.443	30796.58
686.79	30809.46
687.138	30779.18
687.485	30806.75
687.832	30618.28
688.18	30613.08
688.527	30517.49
688.874	30394.78
689.221	30293.09
689.568	30326.76
689.915	30162.7
690.262	30263.48
690.609	30027.11
690.956	30125.18
691.303	29969.25
691.65	29774.68
691.997	29839.09
692.344	29685.19
692.69	29625.99
693.037	29667.34
693.383	29301.25
693.73	29407.91
694.077	29204.08
694.423	29279.55
694.769	29093.8
695.116	29091.31
695.462	29007.47
695.808	28840.02
696.155	29001.14
696.501	28769.51
696.847	28753.02
697.193	28503.98
697.539	28586.92
697.885	28348.28
698.231	28334.5
698.577	28277.55
698.923	28296.53
699.269	28053.6
699.614	27859.03
699.96	27933.38
700.306	27789.88
700.651	27764.11
700.997	27617.45
701.342	27555.98
701.688	27478.47
702.033	27455.87
702.379	27365.93
702.724	27308.76
703.069	27411.58
703.415	27085.49
703.76	27049.33
704.105	27007.3
704.45	26887.53
704.795	26722.33
705.14	26715.55
705.485	26624.48
705.83	26531.15
706.175	26533.19
706.52	26301.78
706.865	26271.95
707.209	26340.88
707.554	26205.06
707.899	26149.92
708.243	26079.64
708.588	26036.25
708.932	25890.49
709.277	25850.94
709.621	25842.58
709.966	25653.21
710.31	25785.18
710.654	25445.08
710.998	25588.13
711.342	25510.16
711.687	25553.33
712.031	25407.11
712.375	25321.47
712.719	25367.57
713.063	25195.59
713.407	25275.59
713.75	25202.15
714.094	24972.78
714.438	25022.72
714.782	25063.85
715.125	24886.45
715.469	24984.98
715.812	24757.64
716.156	24662.05
716.499	24740.47
716.843	24757.64
717.186	24615.04
717.53	24756.28
717.873	24672.9
718.216	24680.58
718.559	24451.66
718.902	24447.37
719.246	24412.56
719.589	24370.53
719.932	24227.71
720.275	24299.8
720.617	24303.87
720.96	24243.53
721.303	24281.27
721.646	24336.41
721.989	24090.76
722.331	24290.31
722.674	24223.42
723.016	24248.05
723.359	24067.26
723.701	24178.9
724.044	24035.4
724.386	24018.68
724.729	24057.09
725.071	24024.1
725.413	23953.37
725.755	23976.19
726.097	23883.99
726.439	23898
726.782	23829.3
727.124	23956.08
727.465	23836.53
727.807	23735.07
728.149	23768.97
728.491	23782.75
728.833	23765.58
729.175	23742.98
729.516	23722.64
729.858	23634.96
730.199	23609.2
730.541	23657.1
730.882	23588.18
731.224	23717.89
731.565	23517.67
731.906	23647.84
732.248	23608.52
732.589	23458.69
732.93	23544.79
733.271	23453.27
733.612	23487.62
733.953	23638.8
734.294	23469.09
734.635	23367.17
734.976	23607.39
735.317	23475.64
735.658	23435.64
735.999	23458.24
736.339	23424.57
736.68	23431.8
737.021	23423.44
737.361	23287.4
737.702	23488.52
738.042	23390.9
738.383	23360.39
738.723	23454.4
739.063	23262.76
739.404	23345.7
739.744	23253.5
740.084	23241.52
740.424	23342.54
740.764	23297.57
741.104	23401.74
741.444	23232.71
741.784	23135.08
742.124	23218.02
742.464	23153.39
742.804	23256.89
743.143	23123.56
743.483	23260.28
743.823	23008.08
744.162	23132.6
744.502	23167.63
744.841	23038.14
745.181	23208.08
745.52	23123.33
745.86	23193.16
746.199	23124.01
746.538	23008.31
746.877	23175.99
747.216	23158.81
747.556	23192.48
747.895	23166.27
748.234	22912.49
748.573	23025.93
748.911	23068.64
749.25	22989.78
749.589	23024.58
749.928	22948.2
750.267	22913.39
750.605	22934.41
750.944	22978.48
751.283	22870.46
751.621	23044.69
751.96	22830.46
752.298	22826.17
752.636	22942.55
752.975	22779.84
753.313	22621.65
753.651	22802.89
753.989	22546.85
754.327	22538.49
754.666	22514.08
755.004	22593.86
755.342	22652.16
755.679	22603.12
756.017	22366.52
756.355	22393.41
756.693	22422.79
757.031	22349.57
757.368	22257.14
757.706	22309.34
758.044	22204.26
758.381	22317.48
758.719	22186.41
759.056	22160.19
759.394	22135.56
759.731	22002.91
760.068	21961.33
760.405	21906.19
760.743	21912.74
761.08	21915.68
761.417	21723.37
761.754	21851.05
762.091	21686.99
762.428	21693.31
762.765	21643.82
763.102	21645.41
763.438	21527.44
763.775	21316.15
764.112	21432.53
764.449	21368.12
764.785	21339.65
765.122	21131.07
765.458	21084.29
765.795	21044.07
766.131	21019.43
766.467	20950.51
766.804	20865.54
767.14	20777.18
767.476	20836.84
767.812	20641.36
768.148	20705.09
768.485	20558.43
768.821	20433.01
769.157	20431.65
769.492	20457.64
769.828	20369.73
770.164	20103.07
770.5	20119.57
770.836	20165.22
771.171	19981.72
771.507	20019.23
771.842	19846.36
772.178	19825.79
772.513	19866.92
772.849	19679.36
773.184	19692.46
773.519	19612.01
773.855	19538.34
774.19	19377.44
774.525	19396.88
774.86	19352.36
775.195	19312.36
775.53	19329.31
775.865	19126.15
776.2	18943.1
776.535	18878.92
776.87	18929.54
777.205	18826.04
777.539	18875.31
777.874	18819.72
778.209	18618.37
778.543	18611.59
778.878	18492.04
779.212	18453.85
779.547	18344.7
779.881	18360.97
780.215	18256.79
780.55	18332.5
780.884	18213.63
781.218	18092.5
781.552	18179.73
781.886	18017.03
782.22	17878.05
782.554	17827.2
782.888	17747.43
783.222	17613.65
783.556	17602.12
783.889	17587.89
784.223	17409.58
784.557	17371.62
784.89	17316.03
785.224	17305.18
785.557	17152.19
785.891	17234.45
786.224	17108.58
786.558	17171.4
786.891	17014.34
787.224	16899.77
787.557	16902.48
787.891	16886.66
788.224	16751.52
788.557	16718.76
788.89	16676.04
789.223	16661.13
789.556	16471.98
789.888	16503.85
790.221	16397.86
790.554	16306.79
790.887	16309.95
791.219	16257.52
791.552	16268.6
791.884	16149.5
792.217	16149.73
792.549	16040.13
792.882	15942.73
793.214	15854.15
793.546	15919.45
793.879	15794.94
794.211	15801.94
794.543	15802.85
794.875	15693.02
795.207	15816.63
795.539	15652.79
795.871	15684.21
796.203	15452.12
796.535	15428.62
796.867	15439.47
797.198	15387.94
797.53	15315.85
797.862	15266.14
798.193	15227.04
798.525	15150.43
798.856	15202.86
799.188	14975.75
799.519	14964.23
799.85	14864.79
800.182	14919.03
800.513	14894.85
800.844	14739.82
801.175	14765.59
801.506	14713.84
801.837	14648.53
802.168	14741.86
802.499	14638.81
802.83	14519.72
803.161	14508.19
803.491	14495.54
803.822	14461.87
804.153	14418.25
804.483	14268.42
804.814	14145.26
805.145	14120.41
805.475	14200.63
805.805	14109.78
806.136	14170.8
806.466	14053.74
806.796	14048.77
807.126	13930.35
807.457	13879.51
807.787	13997.02
808.117	13864.14
808.447	13832.96
808.777	13798.61
809.107	13867.98
809.436	13795.89
809.766	13763.58
810.096	13695.78
810.426	13649.23
810.755	13657.37
811.085	13663.69
811.414	13548.9
811.744	13428.9
812.073	13465.96
812.403	13429.12
812.732	13317.49
813.061	13328.56
813.39	13308.68
813.719	13295.79
814.049	13335.12
814.378	13286.3
814.707	13192.52
815.036	13177.61
815.365	13112.97
815.693	12984.39
816.022	12967.22
816.351	12959.76
816.68	12900.78
817.008	12950.27
817.337	12832.53
817.665	12761.8
817.994	12820.33
818.322	12851.06
818.651	12774.23
818.979	12690.39
819.307	12722.48
819.636	12733.55
819.964	12613.1
820.292	12638.64
820.62	12697.62
820.948	12598.86
821.276	12665.08
821.604	12694.45
821.932	12634.34
822.259	12679.09
822.587	12582.37
822.915	12618.52
823.243	12629.37
823.57	12576.27
823.898	12584.4
824.225	12519.09
824.553	12560.22
824.88	12561.58
825.207	12582.37
825.535	12592.08
825.862	12631.18
826.189	12593.67
826.516	12537.17
826.843	12541.92
827.17	12525.65
827.497	12540.33
827.824	12595.02
828.151	12605.42
828.478	12535.36
828.805	12618.3
829.131	12541.69
829.458	12456.04
829.785	12466.44
830.111	12498.98
830.438	12543.27
830.764	12511.41
831.09	12581.91
831.417	12492.65
831.743	12504.18
832.069	12534.01
832.395	12411.3
832.722	12500.11
833.048	12382.82
833.374	12484.06
833.7	12416.5
834.026	12426.89
834.351	12443.61
834.677	12353.45
835.003	12384.86
835.329	12351.86
835.654	12434.35
835.98	12340.11
836.306	12282.49
836.631	12240.23
836.956	12367.46
837.282	12309.38
837.607	12235.94
837.932	12206.33
838.258	12183.28
838.583	12335.37
838.908	12128.37
839.233	12186.22
839.558	12186.67
839.883	12112.55
840.208	12044.53
840.533	12041.14
840.858	12029.39
841.182	12026.9
841.507	12003.85
841.832	11930.63
842.156	11943.97
842.481	11904.19
842.805	11927.24
843.13	11847.7
843.454	11837.08
843.778	11834.82
844.103	11794.59
844.427	11727.7
844.751	11724.99
845.075	11658.55
845.399	11679.11
845.723	11567.03
846.047	11580.36
846.371	11513.47
846.695	11484.32
847.019	11444.09
847.343	11387.37
847.666	11344.66
847.99	11251.1
848.313	11281.38
848.637	11169.07
848.96	11135.17
849.284	11135.17
849.607	11150.09
849.931	11098.11
850.254	11022.41
850.577	10901.96
850.9	10893.82
851.223	10823.77
851.546	10757.1
851.869	10732.7
852.192	10793.71
852.515	10579.26
852.838	10597.33
853.161	10658.12
853.483	10586.49
853.806	10517.11
854.129	10498.81
854.451	10428.07
854.774	10395.08
855.096	10446.15
855.419	10350.56
855.741	10360.05
856.063	10265.59
856.385	10306.27
856.708	10265.37
857.03	10246.38
857.352	10186.05
857.674	10119.83
857.996	10110.79
858.318	10077.57
858.64	10070.79
858.961	10044.58
859.283	9981.31
859.605	9982.21
859.926	9938.37
860.248	9944.47
860.57	9887.07
860.891	9966.39
861.212	9842.1
861.534	9714.19
861.855	9801.2
862.176	9861.08
862.498	9798.71
862.819	9764.81
863.14	9768.88
863.461	9707.19
863.782	9739.05
864.103	9693.4
864.424	9682.33
864.745	9703.57
865.065	9625.38
865.386	9618.6
865.707	9603.46
866.027	9596.23
866.348	9619.96
866.668	9601.88
866.989	9558.04
867.309	9464.26
867.63	9508.55
867.95	9472.17
868.27	9410.92
868.59	9445.27
868.91	9431.72
869.23	9426.97
869.55	9315.33
869.87	9406.41
870.19	9444.6
870.51	9380.64
870.83	9331.6
871.15	9307.65
871.469	9283.24
871.789	9288.44
872.109	9307.88
872.428	9251.16
872.748	9265.84
873.067	9272.62
873.386	9198.73
873.706	9189.01
874.025	9231.95
874.344	9090.03
874.663	9075.11
874.982	9110.59
875.301	9121.89
875.62	9095.23
875.939	9071.5
876.258	9108.11
876.577	9034.89
876.896	9054.55
877.214	8990.82
877.533	8982.91
877.852	8965.29
878.17	9031.05
878.489	8995.12
878.807	8992.86
879.125	8977.04
879.444	8945.63
879.762	8900.88
880.08	8862.46
880.398	8811.84
880.716	8873.31
881.034	8853.88
881.352	8879.41
881.67	8807.32
881.988	8864.5
882.306	8744.28
882.624	8728
882.941	8690.94
883.259	8773.2
883.577	8674.67
883.894	8638.06
884.212	8716.71
884.529	8610.27
884.846	8624.05
885.164	8536.15
885.481	8580.44
885.798	8542.47
886.115	8521.91
886.432	8549.48
886.75	8506.54
887.067	8521
887.383	8462.93
887.7	8482.36
888.017	8453.44
888.334	8476.26
888.651	8359.43
888.967	8366.43
889.284	8357.62
889.6	8292.76
889.917	8249.15
890.233	8300.67
890.55	8227
890.866	8292.08
891.182	8198.08
891.498	8178.87
891.815	8101.35
892.131	8125.08
892.447	8094.12
892.763	8038.76
893.079	8058.19
893.395	7989.04
893.71	8033.79
894.026	7991.08
894.342	7970.96
894.657	7899.55
894.973	7926.22
895.289	7901.81
895.604	7889.83
895.92	7810.06
896.235	7772.55
896.55	7807.8
896.865	7711.53
897.181	7737.07
897.496	7681.25
897.811	7670.63
898.126	7617.3
898.441	7593.12
898.756	7600.58
899.071	7601.25
899.386	7536.17
899.7	7567.36
900.015	7491.2
900.33	7412.79
900.644	7453.24
900.959	7454.82
901.273	7392.22
901.588	7351.09
901.902	7338.21
902.216	7318.55
902.531	7301.6
902.845	7287.82
903.159	7205.56
903.473	7181.83
903.787	7204.2
904.101	7135.28
904.415	7131.44
904.729	7094.15
905.042	7097.54
905.356	6998.11
905.67	7057.31
905.984	7100.03
906.297	6997.65
906.611	6999.24
906.924	6906.13
907.237	6936.19
907.551	6889.41
907.864	6876.3
908.177	6872.69
908.491	6861.61
908.804	6821.84
909.117	6713.82
909.43	6702.3
909.743	6778.68
910.056	6716.08
910.368	6699.81
910.681	6575.52
910.994	6590.21
911.307	6581.17
911.619	6528.29
911.932	6526.93
912.244	6496.88
912.557	6515.63
912.869	6460.49
913.181	6382.08
913.494	6407.16
913.806	6360.84
914.118	6327.39
914.43	6307.96
914.742	6305.7
915.054	6251.69
915.366	6189.31
915.678	6200.16
915.99	6205.59
916.302	6108.86
916.613	6075.87
916.925	6105.48
917.236	6121.97
917.548	5992.26
917.859	6030.67
918.171	6021.18
918.482	5999.04
918.794	5962.65
919.105	5957
919.416	5888.08
919.727	5926.95
920.038	5839.27
920.349	5809.89
920.66	5813.28
920.971	5783.68
921.282	5755.88
921.593	5767.86
921.903	5702.1
922.214	5704.81
922.525	5679.5
922.835	5587.97
923.146	5619.61
923.456	5589.33
923.767	5572.38
924.077	5610.12
924.387	5560.4
924.697	5463.46
925.008	5503.91
925.318	5424.36
925.628	5401.54
925.938	5428.43
926.248	5369.9
926.558	5404.93
926.867	5343.24
927.177	5296
927.487	5259.17
927.796	5234.54
928.106	5265.05
928.416	5266.85
928.725	5249.23
929.034	5221.88
929.344	5225.27
929.653	5148.44
929.962	5134.88
930.271	5105.95
930.581	5040.42
930.89	5040.64
931.199	5055.11
931.508	4979.18
931.817	5044.71
932.125	4997.71
932.434	4974.21
932.743	4952.06
933.051	4883.13
933.36	4912.51
933.669	4870.93
933.977	4849.69
934.286	4844.27
934.594	4859.63
934.902	4793.65
935.21	4781.67
935.519	4809.92
935.827	4718.17
936.135	4684.04
936.443	4639.75
936.751	4672.52
937.059	4641.56
937.367	4599.98
937.674	4627.32
937.982	4585.29
938.29	4561.79
938.597	4534.89
938.905	4534.44
939.213	4514.56
939.52	4477.95
939.827	4525.63
940.135	4407.21
940.442	4453.77
940.749	4435.46
941.056	4449.93
941.363	4412.86
941.67	4370.83
941.977	4339.87
942.284	4333.32
942.591	4339.19
942.898	4304.39
943.205	4298.29
943.511	4288.12
943.818	4236.15
944.125	4206.32
944.431	4235.24
944.738	4166.32
945.044	4215.13
945.35	4214.23
945.657	4186.2
945.963	4151.4
946.269	4124.06
946.575	4105.3
946.881	4089.48
947.187	4067.34
947.493	4024.85
947.799	4027.56
948.105	4003.61
948.41	3976.27
948.716	4009.94
949.022	3938.75
949.327	3979.43
949.633	3899.21
949.938	3931.29
950.244	3880
950.549	3882.71
950.854	3850.39
951.16	3825.76
951.465	3830.05
951.77	3796.61
952.075	3757.74
952.38	3768.36
952.685	3779.21
952.99	3735.14
953.294	3720.45
953.599	3673.45
953.904	3678.19
954.209	3664.41
954.513	3678.42
954.818	3629.61
955.122	3654.69
955.426	3615.15
955.731	3556.16
956.035	3552.32
956.339	3582.15
956.643	3551.64
956.948	3555.94
957.252	3528.14
957.556	3490.4
957.86	3489.05
958.163	3487.92
958.467	3487.69
958.771	3465.32
959.075	3387.58
959.378	3407.92
959.682	3393.68
959.985	3383.74
960.289	3365.66
960.592	3349.84
960.896	3345.77
961.199	3322.72
961.502	3315.72
961.805	3295.38
962.108	3262.16
962.411	3281.82
962.714	3266.91
963.017	3227.81
963.32	3231.43
963.623	3242.73
963.926	3244.76
964.228	3190.52
964.531	3202.5
964.833	3188.94
965.136	3171.77
965.438	3103.29
965.741	3111.66
966.043	3105.55
966.345	3092.9
966.648	3111.88
966.95	3087.48
967.252	3075.05
967.554	3031.66
967.856	3013.58
968.158	3005.22
968.46	3009.74
968.761	3008.16
969.063	2980.13
969.365	2962.05
969.666	2932.68
969.968	2945.11
970.269	2914.82
970.571	2926.58
970.872	2914.37
971.174	2903.75
971.475	2895.39
971.776	2838.89
972.077	2856.07
972.378	2830.98
972.679	2827.6
972.98	2813.36
973.281	2819.01
973.582	2790.31
973.883	2797.31
974.183	2785.56
974.484	2739.91
974.785	2749.41
975.085	2752.57
975.386	2749.18
975.686	2728.16
975.986	2724.1
976.287	2721.61
976.587	2641.39
976.887	2664.89
977.187	2663.98
977.487	2636.19
977.787	2616.08
978.087	2587.83
978.387	2622.63
978.687	2628.73
978.987	2606.58
979.286	2586.92
979.586	2548.28
979.885	2572.69
980.185	2541.95
980.484	2499.92
980.784	2508.28
981.083	2529.75
981.382	2507.83
981.682	2500.15
981.981	2494.04
982.28	2475.29
982.579	2444.55
982.878	2449.53
983.177	2440.03
983.475	2432.35
983.774	2405.46
984.073	2404.1
984.372	2372.24
984.67	2354.84
984.969	2383.54
985.267	2370.88
985.566	2363.88
985.864	2373.14
986.162	2336.53
986.461	2344.67
986.759	2311.9
987.057	2312.58
987.355	2277.1
987.653	2261.06
987.951	2252.24
988.249	2291.34
988.547	2257.89
988.844	2229.42
989.142	2221.28
989.44	2192.13
989.737	2203.66
990.035	2209.53
990.332	2189.87
990.63	2192.58
990.927	2139.93
991.224	2167.5
991.521	2160.04
991.819	2132.25
992.116	2144.45
992.413	2123.21
992.71	2108.74
993.006	2107.16
993.303	2103.09
993.6	2054.06
993.897	2055.19
994.193	2080.95
994.49	2033.94
994.787	2036.2
995.083	2006.15
995.379	2040.72
995.676	1993.49
995.972	1971.12
996.268	2000.72
996.565	1988.07
996.861	1963.21
997.157	1967.05
997.453	1965.02
997.749	1945.36
998.044	1957.79
998.34	1908.52
998.636	1923.89
998.932	1923.66
999.227	1876.89
999.523	1897.45
999.818	1910.11
1000.114	1868.75
1000.409	1860.16
1000.704	1859.71
1001	1848.19
1001.295	1838.92
1001.59	1840.95
1001.885	1814.06
1002.18	1838.69
1002.475	1787.62
1002.77	1802.54
1003.065	1785.59
1003.359	1778.58
1003.654	1782.65
1003.949	1733.61
1004.243	1720.28
1004.538	1709.43
1004.832	1711.92
1005.127	1705.82
1005.421	1737.91
1005.715	1734.06
1006.009	1698.59
1006.304	1697.91
1006.598	1679.38
1006.892	1669.66
1007.186	1674.18
1007.48	1677.34
1007.773	1659.94
1008.067	1645.71
1008.361	1602.77
1008.655	1597.8
1008.948	1617.01
1009.242	1584.24
1009.535	1604.58
1009.829	1599.83
1010.122	1541.98
1010.415	1540.62
1010.708	1543.34
1011.001	1540.62
1011.295	1544.24
1011.588	1518.48
1011.881	1507.63
1012.173	1491.81
1012.466	1493.17
1012.759	1502.43
1013.052	1495.88
1013.344	1462.89
1013.637	1464.02
1013.93	1457.69
1014.222	1460.85
1014.514	1454.75
1014.807	1432.6
1015.099	1411.14
1015.391	1446.39
1015.683	1424.47
1015.976	1404.58
1016.268	1388.76
1016.56	1380.4
1016.851	1377.24
1017.143	1373.4
1017.435	1371.59
1017.727	1376.11
1018.018	1334.08
1018.31	1322.32
1018.602	1355.32
1018.893	1311.02
1019.185	1307.18
1019.476	1297.47
1019.767	1297.01
1020.058	1305.15
1020.35	1251.59
1020.641	1274.64
1020.932	1275.09
1021.223	1269.67
1021.514	1234.19
1021.804	1245.26
1022.095	1239.16
1022.386	1224.47
1022.677	1190.58
1022.967	1209.11
1023.258	1190.12
1023.548	1213.4
1023.839	1203.68
1024.129	1165.72
1024.419	1179.05
1024.709	1170.92
1025	1154.64
1025.29	1138.37
1025.58	1157.58
1025.87	1141.99
1026.16	1157.81
1026.449	1125.49
1026.739	1126.4
1027.029	1122.33
1027.319	1106.96
1027.608	1083.69
1027.898	1091.14
1028.187	1091.82
1028.477	1074.42
1028.766	1069
1029.055	1078.71
1029.344	1056.34
1029.634	1042.56
1029.923	1044.14
1030.212	1047.98
1030.501	1036.23
1030.79	1020.86
1031.078	1010.69
1031.367	1015.67
1031.656	999.17
1031.945	1002.11
1032.233	982.9
1032.522	995.1
1032.81	982.45
1033.099	982.67
1033.387	978.15
1033.675	969.34
1033.963	960.07
1034.251	927.31
1034.54	941.54
1034.828	956.01
1035.116	941.77
1035.403	914.2
1035.691	935.89
1035.979	923.46
1036.267	920.3
1036.554	917.14
1036.842	923.69
1037.129	899.96
1037.417	898.61
1037.704	872.39
1037.992	889.79
1038.279	885.73
1038.566	882.34
1038.853	882.34
1039.14	882.34
