Data from tablewood_brown_FLMS001491_026.txt Node
Date: Tue Feb 07 11:10:14 GMT 2017
User: dcchb
Spectrometer: FLMS00149
Trigger mode: 0
Integration Time (sec): 2.000000E-2
Scans to average: 10
Electric dark correction enabled: true
Nonlinearity correction enabled: false
Boxcar width: 0
XAxis mode: Wavelengths
Number of Pixels in Spectrum: 2048
>>>>>Begin Spectral Data<<<<<
341.393	-6.3
341.776	-6.3
342.16	-6.3
342.543	-50.59
342.927	-69.12
343.31	-60.31
343.693	-74.09
344.077	-68.44
344.46	-63.92
344.843	-62.34
345.226	-51.04
345.61	-20.99
345.993	-19.41
346.376	-4.27
346.759	6.81
347.142	25.56
347.525	34.83
347.908	47.26
348.291	78.67
348.674	107.14
349.057	124.54
349.44	123.19
349.823	130.42
350.206	158.67
350.588	196.63
350.971	196.86
351.354	216.97
351.737	235.05
352.119	247.03
352.502	256.74
352.884	267.37
353.267	284.99
353.65	276.63
354.032	285.9
354.414	312.11
354.797	320.47
355.179	329.06
355.562	324.54
355.944	328.16
356.326	343.97
356.709	331.32
357.091	319.79
357.473	333.8
357.855	343.07
358.238	344.88
358.62	336.29
359.002	333.58
359.384	332.9
359.766	339.23
360.148	355.05
360.53	347.82
360.912	334.26
361.294	322.73
361.676	320.25
362.057	325.67
362.439	331.09
362.821	335.61
363.203	342.84
363.584	321.38
363.966	308.72
364.348	325.22
364.729	327.03
365.111	321.6
365.493	333.58
365.874	329.51
366.256	298.1
366.637	310.53
367.019	321.83
367.4	323.41
367.781	303.3
368.163	322.73
368.544	329.06
368.925	316.18
369.306	336.97
369.688	338.1
370.069	311.21
370.45	302.17
370.831	315.05
371.212	329.74
371.593	337.42
371.974	327.7
372.355	307.36
372.736	312.11
373.117	338.55
373.498	320.47
373.879	310.53
374.26	316.4
374.641	324.31
375.021	317.53
375.402	316.63
375.783	336.97
376.163	339.68
376.544	339.68
376.925	347.14
377.305	331.32
377.686	344.88
378.066	342.39
378.447	351.43
378.827	340.13
379.208	321.6
379.588	349.62
379.968	357.31
380.349	346.46
380.729	359.79
381.109	339.23
381.489	355.05
381.87	360.92
382.25	354.37
382.63	351.43
383.01	353.47
383.39	375.16
383.77	362.05
384.15	374.93
384.53	362.28
384.91	385.33
385.29	382.39
385.67	395.5
386.049	377.87
386.429	362.05
386.809	376.06
387.189	367.48
387.568	386.68
387.948	379.45
388.328	372.22
388.707	411.09
389.087	395.5
389.466	398.44
389.846	377.65
390.225	406.35
390.605	369.28
390.984	389.4
391.363	414.03
391.743	409.28
392.122	413.12
392.501	424.88
392.881	435.27
393.26	395.5
393.639	421.71
394.018	423.07
394.397	435.72
394.776	404.76
395.155	415.16
395.534	428.27
395.913	433.46
396.292	433.92
396.671	445.21
397.05	455.84
397.429	436.17
397.808	429.62
398.186	444.54
398.565	485.21
398.944	474.14
399.323	469.85
399.701	461.71
400.08	476.85
400.458	479.11
400.837	471.2
401.215	477.3
401.594	475.27
401.972	493.35
402.351	490.18
402.729	499.68
403.107	511.65
403.486	521.14
403.864	517.98
404.242	495.83
404.62	528.38
404.999	501.71
405.377	524.76
405.755	522.27
406.133	519.79
406.511	530.86
406.889	543.29
407.267	541.93
407.645	522.73
408.023	543.52
408.401	553.91
408.779	570.86
409.156	558.88
409.534	557.08
409.912	548.71
410.29	568.37
410.667	589.84
411.045	603.18
411.422	592.56
411.8	576.28
412.178	593.01
412.555	602.27
412.933	594.59
413.31	628.94
413.687	614.93
414.065	613.8
414.442	619
414.819	628.71
415.197	656.73
415.574	636.62
415.951	645.66
416.328	645.89
416.705	654.02
417.082	670.29
417.46	674.59
417.837	674.59
418.214	642.05
418.591	670.52
418.967	673.91
419.344	696.96
419.721	664.42
420.098	694.93
420.475	681.59
420.852	694.7
421.228	731.31
421.605	696.51
421.982	716.62
422.358	729.95
422.735	752.32
423.111	760.69
423.488	736.51
423.864	756.39
424.241	736.28
424.617	756.84
424.994	757.97
425.37	775.6
425.746	768.82
426.123	773.79
426.499	753.45
426.875	770.86
427.251	799.1
427.627	795.49
428.003	798.65
428.379	831.64
428.756	833.23
429.132	863.96
429.507	845.66
429.883	832.77
430.259	866.45
430.635	885.65
431.011	879.1
431.387	873.68
431.763	892.21
432.138	910.06
432.514	913.68
432.89	948.03
433.265	918.87
433.641	935.82
434.016	927.91
434.392	965.65
434.767	969.72
435.143	990.74
435.518	996.39
435.894	998.65
436.269	1009.27
436.644	1013.56
437.02	1033.67
437.395	1007.91
437.77	1064.63
438.145	1056.5
438.52	1059.44
438.895	1108.25
439.271	1044.52
439.646	1112.09
440.021	1127.68
440.395	1143.5
440.77	1098.76
441.145	1096.5
441.52	1152.09
441.895	1150.96
442.27	1142.15
442.645	1152.54
443.019	1179.88
443.394	1157.29
443.769	1183.5
444.143	1175.36
444.518	1194.35
444.892	1209.71
445.267	1214.46
445.641	1199.77
446.016	1213.33
446.39	1254.23
446.764	1252.2
447.139	1216.72
447.513	1244.29
447.887	1245.65
448.262	1240.45
448.636	1282.93
449.01	1287.23
449.384	1296.49
449.758	1284.74
450.132	1317.96
450.506	1320.9
450.88	1321.35
451.254	1329.03
451.628	1322.48
452.002	1355.92
452.376	1371.97
452.75	1383.72
453.123	1390.5
453.497	1397.96
453.871	1419.88
454.244	1435.7
454.618	1443.83
454.992	1450.16
455.365	1481.12
455.739	1522.47
456.112	1500.1
456.486	1486.09
456.859	1569.7
457.232	1551.4
457.606	1570.38
457.979	1583.49
458.352	1611.51
458.725	1652.64
459.099	1621.91
459.472	1654.22
459.845	1693.09
460.218	1705.29
460.591	1695.12
460.964	1721.56
461.337	1768.57
461.71	1779.42
462.083	1808.57
462.456	1778.74
462.829	1820.55
463.201	1873.2
463.574	1843.6
463.947	1913.42
464.32	1923.14
464.692	1969.92
465.065	1918.62
465.438	1964.27
465.81	2041.1
466.183	2054.66
466.555	2090.14
466.928	2096.02
467.3	2118.16
467.672	2153.19
468.045	2187.09
468.417	2192.51
468.789	2246.75
469.161	2258.73
469.534	2281.32
469.906	2327.65
470.278	2374.66
470.65	2398.61
471.022	2441.77
471.394	2505.05
471.766	2513.41
472.138	2556.8
472.51	2609.68
472.882	2664.36
473.253	2691.03
473.625	2718.37
473.997	2771.48
474.369	2844.02
474.74	2855.09
475.112	2894.42
475.484	2912.95
475.855	3033.62
476.227	3039.04
476.598	3215.31
476.97	3231.81
477.341	3285.82
477.713	3365.36
478.084	3377.79
478.455	3458.47
478.827	3462.99
479.198	3622.53
479.569	3616.2
479.94	3761.96
480.311	3806.48
480.682	3891.45
481.053	3984.78
481.424	4023.2
481.795	4129.64
482.166	4171.9
482.537	4239.92
482.908	4329.41
483.279	4385.22
483.65	4438.33
484.021	4600.81
484.391	4625.67
484.762	4683.52
485.133	4715.84
485.503	4777.53
485.874	4886
486.244	5007.13
486.615	5073.57
486.985	5115.6
487.356	5238.31
487.726	5262.49
488.097	5391.07
488.467	5404.41
488.837	5570.28
489.207	5581.12
489.578	5667.68
489.948	5709.48
490.318	5818.41
490.688	5839.42
491.058	5978.4
491.428	6067.89
491.798	6123.94
492.168	6223.59
492.538	6286.19
492.908	6326.19
493.278	6403.48
493.648	6390.14
494.017	6472.85
494.387	6606.41
494.757	6628.78
495.126	6712.39
495.496	6744.71
495.866	6776.57
496.235	6892.95
496.605	6977.47
496.974	6971.82
497.344	7028.09
497.713	7152.38
498.082	7192.38
498.452	7193.29
498.821	7249.78
499.19	7334.3
499.559	7380.4
499.928	7443.45
500.298	7460.62
500.667	7573.39
501.036	7614.74
501.405	7643.44
501.774	7729.77
502.143	7792.37
502.512	7835.98
502.88	7906.49
503.249	7914.62
503.618	8014.05
503.987	7966.6
504.356	8139.02
504.724	8226.03
505.093	8200.26
505.462	8220.6
505.83	8328.17
506.199	8428.51
506.567	8508.73
506.936	8559.35
507.304	8618.33
507.672	8617.43
508.041	8681.83
508.409	8781.72
508.777	8822.62
509.145	8916.63
509.514	8882.05
509.882	9001.15
510.25	9080.24
510.618	9184.19
510.986	9180.13
511.354	9223.29
511.722	9382.15
512.09	9432.77
512.458	9458.76
512.826	9575.6
513.193	9635.71
513.561	9702.82
513.929	9811.07
514.297	9928.13
514.664	10024.17
515.032	9981.23
515.4	10039.31
515.767	10176.48
516.135	10250.83
516.502	10187.33
516.869	10362.92
517.237	10438.17
517.604	10494.89
517.972	10644.49
518.339	10632.29
518.706	10711.61
519.073	10811.72
519.44	10815.56
519.808	11044.03
520.175	11076.12
520.542	11193.63
520.909	11355.89
521.276	11343.23
521.643	11467.98
522.009	11528.99
522.376	11636.11
522.743	11659.61
523.11	11771.92
523.477	11962.43
523.843	12027.96
524.21	12185.47
524.577	12264.11
524.943	12369.87
525.31	12341.4
525.676	12545.69
526.043	12613.26
526.409	12717.43
526.776	12768.51
527.142	12935.96
527.508	12997.2
527.874	13043.75
528.241	13178.66
528.607	13183.86
528.973	13357.19
529.339	13399.22
529.705	13490.07
530.071	13586.79
530.437	13793.34
530.803	13767.12
531.169	13880.34
531.535	13897.74
531.901	13877.86
532.267	13964.63
532.632	14053.44
532.998	14170.05
533.364	14266.55
533.73	14240.33
534.095	14448.01
534.461	14461.79
534.826	14571.17
535.192	14619.53
535.557	14698.17
535.923	14753.76
536.288	14823.82
536.653	14853.65
537.019	14833.08
537.384	14893.87
537.749	14943.82
538.114	15043.93
538.479	15167.31
538.845	15166.86
539.21	15114.66
539.575	15271.27
539.94	15274.88
540.305	15380.41
540.67	15463.58
541.034	15463.58
541.399	15541.54
541.764	15487.53
542.129	15617.02
542.494	15704.25
542.858	15755.77
543.223	15799.84
543.587	15896.79
543.952	15867.86
544.316	15875.54
544.681	15942.43
545.045	16054.75
545.41	16092.49
545.774	16159.6
546.138	16277.57
546.503	16285.02
546.867	16353.04
547.231	16465.58
547.595	16475.75
547.959	16519.14
548.324	16636.65
548.688	16651.34
549.052	16842.52
549.416	16796.87
549.779	17020.82
550.143	16935.18
550.507	17091.33
550.871	17118.22
551.235	17172.46
551.599	17206.13
551.962	17320.02
552.326	17487.03
552.689	17489.96
553.053	17562.05
553.417	17665.78
553.78	17962.49
554.143	17870.52
554.507	17993.91
554.87	17984.87
555.234	18289.49
555.597	18211.75
555.96	18401.8
556.323	18550.05
556.686	18533.78
557.05	18741.23
557.413	18832.53
557.776	18884.05
558.139	19115.68
558.502	19157.94
558.865	19223.93
559.228	19451.04
559.59	19557.25
559.953	19689.91
560.316	19909.79
560.679	20002.89
561.041	20153.17
561.404	20271.59
561.767	20406.27
562.129	20429.32
562.492	20674.96
562.854	20759.71
563.217	20822.76
563.579	21019.36
563.941	21135.74
564.304	21238.79
564.666	21435.85
565.028	21566.69
565.39	21768.72
565.753	21913.35
566.115	22046.91
566.477	22139.79
566.839	22255.04
567.201	22549.27
567.563	22586.55
567.925	22830.84
568.287	22903.61
568.648	23046.88
569.01	23127.33
569.372	23447.55
569.734	23366.19
570.095	23536.81
570.457	23823.58
570.819	24015.44
571.18	24081.2
571.542	24292.95
571.903	24491.36
572.265	24571.59
572.626	24777.23
572.987	24874.85
573.349	24953.95
573.71	25275.3
574.071	25342.19
574.432	25490.66
574.794	25716.19
575.155	25785.11
575.516	25830.76
575.877	26019.91
576.238	26141.94
576.599	26305.78
576.96	26395.49
577.32	26507.81
577.681	26704.41
578.042	26861.47
578.403	26922.03
578.763	27029.83
579.124	27141.91
579.485	27239.09
579.845	27392.53
580.206	27411.06
580.566	27564.05
580.927	27658.96
581.287	27870.26
581.648	27734.21
582.008	27896.47
582.368	27945.51
582.728	28075.67
583.089	28142.79
583.449	28171.49
583.809	28180.3
584.169	28371.71
584.529	28268.89
584.889	28466.4
585.249	28434.53
585.609	28306.85
585.969	28665.72
586.329	28440.41
586.688	28585.72
587.048	28721.98
587.408	28687.64
587.768	28722.89
588.127	28829.55
588.487	28740.74
588.846	28998.59
589.206	28796.79
589.565	28935.31
589.925	29194.74
590.284	29041.52
590.643	29125.14
591.003	29170.56
591.362	29265.93
591.721	29155.87
592.08	29370.56
592.44	29301.86
592.799	29417.79
593.158	29305.7
593.517	29439.48
593.876	29411.01
594.235	29391.12
594.593	29302.53
594.952	29412.59
595.311	29407.39
595.67	29629.53
596.029	29669.53
596.387	29698.68
596.746	29704.78
597.104	29638.57
597.463	29663.43
597.822	29852.12
598.18	29670.21
598.538	29753.6
598.897	29849.64
599.255	29631.34
599.613	30017.09
599.972	29879.02
600.33	29874.5
600.688	29819.36
601.046	29840.15
601.404	30041.72
601.762	29922.63
602.12	30122.4
602.478	30074.94
602.836	30084.66
603.194	30012.12
603.552	30156.52
603.91	30020.03
604.268	30177.31
604.625	29975.74
604.983	30128.5
605.341	30039.24
605.698	30330.76
606.056	30303.64
606.413	30240.59
606.771	30406.46
607.128	30272.9
607.485	30177.99
607.843	30261.61
608.2	30462.73
608.557	30577.3
608.914	30420.7
609.272	30546.8
609.629	30544.31
609.986	30749.05
610.343	30433.13
610.7	30728.26
611.057	30683.29
611.414	30771.65
611.771	30858.2
612.127	30870.18
612.484	30821.14
612.841	30954.47
613.198	30837.64
613.554	31003.05
613.911	31102.49
614.267	30965.99
614.624	31145.42
614.98	31063.84
615.337	31135.03
615.693	31141.36
616.05	31134.35
616.406	31337.06
616.762	31247.34
617.118	31208.93
617.475	31364.85
617.831	31314.01
618.187	31384.06
618.543	31460.22
618.899	31617.28
619.255	31532.53
619.611	31449.14
619.967	31714.45
620.323	31735.24
620.678	31471.97
621.034	31415.47
621.39	31494.79
621.746	31530.05
622.101	31774.79
622.457	31494.12
622.812	31575.24
623.168	31766.2
623.523	31646.88
623.879	31879.64
624.234	31574.11
624.589	31695.47
624.945	31635.58
625.3	31680.1
625.655	31681
626.01	31722.13
626.365	31830.38
626.72	31718.29
627.075	31723.94
627.43	31591.51
627.785	31546.54
628.14	31687.78
628.495	31667.44
628.85	31646.2
629.205	31512.65
629.559	31637.61
629.914	31539.31
630.269	31537.28
630.623	31403.72
630.978	31394.23
631.332	31422.7
631.687	31519.65
632.041	31427.68
632.396	31411.18
632.75	31293.44
633.104	31470.39
633.459	31321.01
633.813	31180.68
634.167	31196.95
634.521	31283.73
634.875	31236.04
635.229	31153.56
635.583	30999.67
635.937	31072.88
636.291	31008.7
636.645	30999.89
636.999	30935.71
637.352	30944.98
637.706	30779.33
638.06	30879.67
638.413	30896.39
638.767	30794.02
639.121	30926.67
639.474	30675.38
639.828	30740.69
640.181	30760.8
640.534	30768.94
640.888	30515.84
641.241	30406.91
641.594	30637.41
641.947	30710.41
642.301	30476.97
642.654	30575.95
643.007	30545.89
643.36	30541.15
643.713	30356.07
644.066	30679
644.419	30358.1
644.771	30104.55
645.124	29970.54
645.477	29892.35
645.83	29649.64
646.182	29540.49
646.535	29607.84
646.888	29495.52
647.24	29346.83
647.593	29630.66
647.945	29441.29
648.298	29418.69
648.65	29285.13
649.002	29260.05
649.355	29320.61
649.707	29331.23
650.059	29501.85
650.411	29866.14
650.763	29786.59
651.115	30142.29
651.467	30099.12
651.819	30055.74
652.171	29886.47
652.523	29893.03
652.875	29948.62
653.227	29822.07
653.578	30129.41
653.93	29829.3
654.282	29907.04
654.633	29704.78
654.985	29806.7
655.337	29865.91
655.688	29910.88
656.039	29816.42
656.391	29752.01
656.742	29801.5
657.094	29650.1
657.445	29858.45
657.796	29786.14
658.147	29681.28
658.498	29764.22
658.849	29869.3
659.2	29810.77
659.551	29776.42
659.902	29748.17
660.253	29674.5
660.604	29841.28
660.955	29561.28
661.306	29717.44
661.656	29691.68
662.007	29592.7
662.358	29691.45
662.708	29808.74
663.059	29685.8
663.409	29481.51
663.76	29647.16
664.11	29549.31
664.461	29831.79
664.811	29646.93
665.161	29742.07
665.511	29617.55
665.862	29521.29
666.212	29668.4
666.562	29649.19
666.912	29608.74
667.262	29621.17
667.612	29636.99
667.962	29651.68
668.312	29620.94
668.662	29562.19
669.011	29635.18
669.361	29475.19
669.711	29440.61
670.06	29415.75
670.41	29406.94
670.76	29475.19
671.109	29514.28
671.459	29273.83
671.808	29337.34
672.157	29538.46
672.507	29217.79
672.856	29198.81
673.205	29355.87
673.554	29359.03
673.904	29222.54
674.253	29426.37
674.602	29303.21
674.951	28857.12
675.3	28601.99
675.649	29149.32
675.998	29068.19
676.346	29129.66
676.695	28981.87
677.044	28901.87
677.393	29060.28
677.741	29105.7
678.09	29046.72
678.438	28996.33
678.787	28866.39
679.135	28990
679.484	28732.61
679.832	28916.78
680.181	28603.34
680.529	28813.28
680.877	28733.96
681.225	28651.48
681.573	28839.95
681.922	28760.18
682.27	28468.43
682.618	28521.31
682.966	28496.68
683.314	28480.18
683.661	28365.16
684.009	28207.65
684.357	28158.84
684.705	28049.23
685.053	28164.26
685.4	28118.38
685.748	27940.08
686.095	27967.2
686.443	27800.43
686.79	27758.85
687.138	27774.67
687.485	27822.12
687.832	27668.45
688.18	27726.3
688.527	27630.49
688.874	27575.35
689.221	27449.48
689.568	27294
689.915	27302.59
690.262	27263.27
690.609	27094.23
690.956	27112.76
691.303	27032.09
691.65	26817.4
691.997	26827.57
692.344	26667.12
692.69	26742.15
693.037	26778.99
693.383	26508.26
693.73	26611.08
694.077	26420.12
694.423	26447.47
694.769	26259
695.116	26223.75
695.462	26049.74
695.808	25980.59
696.155	26060.59
696.501	25772.68
696.847	25918.44
697.193	25647.26
697.539	25758
697.885	25619.02
698.231	25353.26
698.577	25438.23
698.923	25408.17
699.269	25301.96
699.614	25123.21
699.96	25198.91
700.306	25099.93
700.651	24928.19
700.997	24808.87
701.342	24893.16
701.688	24758.02
702.033	24721.19
702.379	24672.15
702.724	24546.73
703.069	24562.32
703.415	24237.36
703.76	24269.45
704.105	24330.01
704.45	24135.89
704.795	24041.88
705.14	23928.44
705.485	23976.8
705.83	23836.24
706.175	23860.19
706.52	23744.49
706.865	23692.51
707.209	23623.14
707.554	23522.8
707.899	23527.32
708.243	23334.1
708.588	23387.66
708.932	23250.49
709.277	23322.35
709.621	23186.54
709.966	23136.82
710.31	23184.05
710.654	22916.94
710.998	22894.12
711.342	23056.6
711.687	22921.23
712.031	22795.36
712.375	22754.68
712.719	22839.65
713.063	22819.54
713.407	22797.39
713.75	22599.43
714.094	22631.07
714.438	22473.79
714.782	22544.97
715.125	22281.48
715.469	22526.44
715.812	22258.88
716.156	22222.95
716.499	22334.36
716.843	22395.6
717.186	22214.36
717.53	22273.34
717.873	22190.41
718.216	22198.77
718.559	22096.4
718.902	22072.89
719.246	22096.62
719.589	21982.73
719.932	21836.06
720.275	21900.47
720.617	21946.12
720.96	21924.42
721.303	21862.05
721.646	21920.13
721.989	21757.87
722.331	21798.78
722.674	21580.93
723.016	21740.02
723.359	21685.56
723.701	21749.51
724.044	21558.56
724.386	21569.18
724.729	21653.02
725.071	21503.87
725.413	21563.08
725.755	21557.43
726.097	21407.37
726.439	21332.57
726.782	21411.67
727.124	21471.1
727.465	21435.62
727.807	21375.51
728.149	21283.76
728.491	21349.98
728.833	21351.11
729.175	21283.54
729.516	21228.85
729.858	21204.67
730.199	21204.89
730.541	21293.48
730.882	21302.52
731.224	21324.44
731.565	21045.35
731.906	21253.71
732.248	21152.92
732.589	21169.87
732.93	21045.35
733.271	21091
733.612	21142.52
733.953	21175.74
734.294	21037.22
734.635	21029.31
734.976	21164.9
735.317	21027.95
735.658	20990.66
735.999	20949.99
736.339	21026.59
736.68	21192.24
737.021	21056.42
737.361	20903.21
737.702	21126.93
738.042	21011.23
738.383	21028.63
738.723	21107.72
739.063	20917.67
739.404	21109.76
739.744	21033.15
740.084	20879.48
740.424	20994.05
740.764	20887.84
741.104	20910.21
741.444	20879.48
741.784	20890.55
742.124	20916.09
742.464	20916.77
742.804	20836.54
743.143	20833.38
743.483	20866.82
743.823	20727.39
744.162	20878.8
744.502	20922.42
744.841	20825.47
745.181	20860.5
745.52	20745.92
745.86	20831.12
746.199	20859.14
746.538	20714.74
746.877	20797.67
747.216	20770.78
747.556	20729.88
747.895	20815.07
748.234	20781.4
748.573	20652.37
748.911	20684.68
749.25	20669.99
749.589	20590
749.928	20629.09
750.267	20802.19
750.605	20661.86
750.944	20496.21
751.283	20492.6
751.621	20561.3
751.96	20428.64
752.298	20461.19
752.636	20498.47
752.975	20432.03
753.313	20389.1
753.651	20373.05
753.989	20255.99
754.327	20258.7
754.666	20258.03
755.004	20415.76
755.342	20297.8
755.679	20266.61
756.017	20086.73
756.355	20181.19
756.693	20120.18
757.031	20166.5
757.368	19987.53
757.706	20001.31
758.044	20118.14
758.381	20098.26
758.719	20007.86
759.056	19868.88
759.394	19848.09
759.731	19729.68
760.068	19757.47
760.405	19684.48
760.743	19626.63
761.08	19626.63
761.417	19538.05
761.754	19529.01
762.091	19480.19
762.428	19426.41
762.765	19345.06
763.102	19334.44
763.438	19313.64
763.775	19179.86
764.112	19209.24
764.449	19206.75
764.785	19175.57
765.122	19018.06
765.458	18948.91
765.795	18897.84
766.131	18850.15
766.467	18836.14
766.804	18725.86
767.14	18602.48
767.476	18685.64
767.812	18598.18
768.148	18505.53
768.485	18441.58
768.821	18472.54
769.157	18344.18
769.492	18301.69
769.828	18290.39
770.164	18174.24
770.5	18082.72
770.836	18045.2
771.171	17955.71
771.507	17988.48
771.842	17703.97
772.178	17847.69
772.513	17753.91
772.849	17729.73
773.184	17605.44
773.519	17639.34
773.855	17526.35
774.19	17458.1
774.525	17393.7
774.86	17404.99
775.195	17317.09
775.53	17167.03
775.865	17125.23
776.2	17101.27
776.535	16982.41
776.87	16968.62
777.205	16857.66
777.539	16788.06
777.874	16822.18
778.209	16696.99
778.543	16603.89
778.878	16610.66
779.212	16522.31
779.547	16453.15
779.881	16372.25
780.215	16408.86
780.55	16410.67
780.884	16172.71
781.218	16215.87
781.552	16191.01
781.886	16129.77
782.22	16065.14
782.554	16026.95
782.888	15906.5
783.222	15761.2
783.556	15719.39
783.889	15726.62
784.223	15533.63
784.557	15556.91
784.89	15699.73
785.224	15432.16
785.557	15373.18
785.891	15415.22
786.224	15353.52
786.558	15456.8
786.891	15170.7
787.224	15171.15
787.557	15196.69
787.891	15113.53
788.224	15069.01
788.557	14990.59
788.89	15050.71
789.223	14962.12
789.556	14809.58
789.888	14797.15
790.221	14789.02
790.554	14686.2
790.887	14652.3
791.219	14598.29
791.552	14465.18
791.884	14413.66
792.217	14462.92
792.549	14386.09
792.882	14262.25
793.214	14321.91
793.546	14315.81
793.879	14195.59
794.211	14086.21
794.543	14067
794.875	14081.92
795.207	14082.82
795.539	14041.47
795.871	13994.01
796.203	13884.18
796.535	13746.56
796.867	13690.97
797.198	13777.07
797.53	13724.19
797.862	13730.97
798.193	13611.42
798.525	13528.03
798.856	13565.1
799.188	13415.04
799.519	13351.54
799.85	13297.08
800.182	13303.86
800.513	13365.33
800.844	13165.33
801.175	13317.19
801.506	13156.29
801.837	13170.3
802.168	13088.5
802.499	12968.27
802.83	13059.12
803.161	12947.03
803.491	12976.86
803.822	13040.59
804.153	12956.07
804.483	12790.88
804.814	12755.4
805.145	12749.52
805.475	12760.37
805.805	12761.95
806.136	12723.99
806.466	12651.45
806.796	12634.27
807.126	12610.54
807.457	12558.12
807.787	12537.55
808.117	12491
808.447	12456.65
808.777	12453.94
809.107	12352.47
809.436	12359.25
809.766	12367.84
810.096	12286.03
810.426	12234.51
810.755	12148.18
811.085	12216.43
811.414	12147.28
811.744	12026.38
812.073	12085.36
812.403	12040.62
812.732	11901.18
813.061	11923.33
813.39	11923.78
813.719	11789.32
814.049	11845.59
814.378	11908.64
814.707	11804.92
815.036	11794.75
815.365	11636.78
815.693	11663.45
816.022	11651.47
816.351	11598.82
816.68	11480.86
817.008	11545.94
817.337	11525.83
817.665	11465.26
817.994	11472.95
818.322	11449.44
818.651	11396.11
818.979	11396.79
819.307	11429.56
819.636	11396.11
819.964	11197.25
820.292	11293.74
820.62	11314.53
820.948	11286.51
821.276	11300.75
821.604	11241.77
821.932	11329
822.259	11258.94
822.587	11270.24
822.915	11263.23
823.243	11324.7
823.57	11228.89
823.898	11196.8
824.225	11142.33
824.553	11207.42
824.88	11195.67
825.207	11124.26
825.535	11179.17
825.862	11267.75
826.189	11184.82
826.516	11296.23
826.843	11312.05
827.17	11259.39
827.497	11291.48
827.824	11274.31
828.151	11263.01
828.478	11271.14
828.805	11311.6
829.131	11091.04
829.458	11106.63
829.785	11143.92
830.111	11162.67
830.438	11170.36
830.764	11211.48
831.09	11151.15
831.417	11174.42
831.743	11210.13
832.069	11157.7
832.395	11152.05
832.722	11205.16
833.048	11093.07
833.374	11127.65
833.7	11057.14
834.026	11104.6
834.351	11101.88
834.677	11121.09
835.003	11117.93
835.329	11112.73
835.654	11049.46
835.98	10962.9
836.306	11003.13
836.631	11003.81
836.956	11013.75
837.282	11013.07
837.607	10940.08
837.932	10873.87
838.258	10919.06
838.583	10818.05
838.908	10815.79
839.233	10820.99
839.558	10826.41
839.883	10728.56
840.208	10772.4
840.533	10795.9
840.858	10786.19
841.182	10729.24
841.507	10744.83
841.832	10655.57
842.156	10640.65
842.481	10635.91
842.805	10617.15
843.13	10579.41
843.454	10597.26
843.778	10556.81
844.103	10518.17
844.427	10527.89
844.751	10577.6
845.075	10491.05
845.399	10436.14
845.723	10339.42
846.047	10386.2
846.371	10224.17
846.695	10315.69
847.019	10266.65
847.343	10218.06
847.666	10191.85
847.99	10076.15
848.313	10108.24
848.637	9962.03
848.96	9999.54
849.284	9979.2
849.607	9860.33
849.931	9889.26
850.254	9792.77
850.577	9781.92
850.9	9720.9
851.223	9715.03
851.546	9611.53
851.869	9656.5
852.192	9616.27
852.515	9555.71
852.838	9507.8
853.161	9516.84
853.483	9498.76
853.806	9458.76
854.129	9416.73
854.451	9392.78
854.774	9330.18
855.096	9255.83
855.419	9229.84
855.741	9258.09
856.063	9164.08
856.385	9222.84
856.708	9188.26
857.03	9167.02
857.352	9136.96
857.674	9080.47
857.996	9035.27
858.318	9029.62
858.64	8947.82
858.961	8988.72
859.283	8967.48
859.605	8842.73
859.926	8848.38
860.248	8886.35
860.57	8828.95
860.891	8816.52
861.212	8800.25
861.534	8763.19
861.855	8764.09
862.176	8768.84
862.498	8725.22
862.819	8731.55
863.14	8750.76
863.461	8678.22
863.782	8660.14
864.103	8650.65
864.424	8619.69
864.745	8632.57
865.065	8571.1
865.386	8566.58
865.707	8578.79
866.027	8624.66
866.348	8518.22
866.668	8574.72
866.989	8541.72
867.309	8475.74
867.63	8458.11
867.95	8435.06
868.27	8411.56
868.59	8386.25
868.91	8399.13
869.23	8426.93
869.55	8390.99
869.87	8417.21
870.19	8368.4
870.51	8359.81
870.83	8344.89
871.15	8240.72
871.469	8322.07
871.789	8348.51
872.109	8330.88
872.428	8244.78
872.748	8296.08
873.067	8262.41
873.386	8238.68
873.706	8254.95
874.025	8228.96
874.344	8187.61
874.663	8166.37
874.982	8132.47
875.301	8199.36
875.62	8127.95
875.939	8135.86
876.258	8114.84
876.577	8076.2
876.896	8105.8
877.214	8045.92
877.533	8074.17
877.852	8055.18
878.17	8074.84
878.489	8024.68
878.807	8024.45
879.125	7997.11
879.444	7968.86
879.762	7932.25
880.08	7969.54
880.398	7958.24
880.716	7956.66
881.034	7925.02
881.352	7938.58
881.67	7915.53
881.988	7870.56
882.306	7911.01
882.624	7859.93
882.941	7797.79
883.259	7846.38
883.577	7771.12
883.894	7721.86
884.212	7709.66
884.529	7736.77
884.846	7681.41
885.164	7689.54
885.481	7694.29
885.798	7690.45
886.115	7597.34
886.432	7604.8
886.75	7628.98
887.067	7539.04
887.383	7558.25
887.7	7605.48
888.017	7582.65
888.334	7507.18
888.651	7460.4
888.967	7433.51
889.284	7414.75
889.6	7447.29
889.917	7347.41
890.233	7350.12
890.55	7370.68
890.866	7370.91
891.182	7310.12
891.498	7317.58
891.815	7317.35
892.131	7261.31
892.447	7205.49
892.763	7151.25
893.079	7203.68
893.395	7233.06
893.71	7116.9
894.026	7121.87
894.342	7093.4
894.657	7039.62
894.973	7033.06
895.289	7067.64
895.604	7029.67
895.92	6950.13
896.235	6908.77
896.55	6946.96
896.865	6979.73
897.181	6862.9
897.496	6945.38
897.811	6883.24
898.126	6807.08
898.441	6792.17
898.756	6829.68
899.071	6794.2
899.386	6783.8
899.7	6705.39
900.015	6734.77
900.33	6626.07
900.644	6586.3
900.959	6628.78
901.273	6622.45
901.588	6572.28
901.902	6562.57
902.216	6520.76
902.531	6531.16
902.845	6518.27
903.159	6469.01
903.473	6474.21
903.787	6413.42
904.101	6395.34
904.415	6422.46
904.729	6346.98
905.042	6304.95
905.356	6318.28
905.67	6267.89
905.984	6252.07
906.297	6243.03
906.611	6196.25
906.924	6214.55
907.237	6196.25
907.551	6156.25
907.864	6109.25
908.177	6095.91
908.491	6103.14
908.804	6056.82
909.117	6030.38
909.43	5970.27
909.743	6000.1
910.056	5940.21
910.368	5883.49
910.681	5888.01
910.994	5905.18
911.307	5926.2
911.619	5829.25
911.932	5887.56
912.244	5807.79
912.557	5744.74
912.869	5751.06
913.181	5762.59
913.494	5758.52
913.806	5659.31
914.118	5661.8
914.43	5634.23
914.742	5671.52
915.054	5594.68
915.366	5581.8
915.678	5513.33
915.99	5544.52
916.302	5497.06
916.613	5486.89
916.925	5444.86
917.236	5455.48
917.548	5474.91
917.859	5370.73
918.171	5394.24
918.482	5382.26
918.794	5352.43
919.105	5305.43
919.416	5276.95
919.727	5278.76
920.038	5264.3
920.349	5195.37
920.66	5165.77
920.971	5207.35
921.282	5130.97
921.593	5106.11
921.903	5122.61
922.214	5095.71
922.525	5091.19
922.835	5053.68
923.146	5024.53
923.456	5032.21
923.767	4966.23
924.077	4944.76
924.387	4952.21
924.697	4900.46
925.008	4960.35
925.318	4936.62
925.628	4870.86
925.938	4869.96
926.248	4796.06
926.558	4813.24
926.867	4795.16
927.177	4715.38
927.487	4718.77
927.796	4694.82
928.106	4705.44
928.416	4706.12
928.725	4711.77
929.034	4645.56
929.344	4643.3
929.653	4620.92
929.962	4552.22
930.271	4561.72
930.581	4522.4
930.89	4549.97
931.199	4519.01
931.508	4495.28
931.817	4451.89
932.125	4465.9
932.434	4446.01
932.743	4454.37
933.051	4389.29
933.36	4384.55
933.669	4389.52
933.977	4339.35
934.286	4375.28
934.594	4300.71
934.902	4291.21
935.21	4270.88
935.519	4236.75
935.827	4242.63
936.135	4223.42
936.443	4178.68
936.751	4180.71
937.059	4147.72
937.367	4161.5
937.674	4093.71
937.982	4140.94
938.29	4077.89
938.597	4110.88
938.905	4047.38
939.213	4088.73
939.52	4004.89
939.827	4003.09
940.135	4010.09
940.442	3980.94
940.749	3950.21
941.056	3975.52
941.363	3887.84
941.67	3893.71
941.977	3889.87
942.284	3870.21
942.591	3833.15
942.898	3813.49
943.205	3851.68
943.511	3804.9
943.818	3795.63
944.125	3736.65
944.431	3794.28
944.738	3751.57
945.044	3690.55
945.35	3693.72
945.657	3717.67
945.963	3695.98
946.269	3686.71
946.575	3654.4
946.881	3640.84
947.187	3636.32
947.493	3616.43
947.799	3587.28
948.105	3597.45
948.41	3582.08
948.716	3584.11
949.022	3500.28
949.327	3549.09
949.633	3483.55
949.938	3498.92
950.244	3513.16
950.549	3470.67
950.854	3442.2
951.16	3446.27
951.465	3406.49
951.77	3378.24
952.075	3385.25
952.38	3375.53
952.685	3341.18
952.99	3308.87
953.294	3349.77
953.599	3292.82
953.904	3298.92
954.209	3224.58
954.513	3260.06
954.818	3315.42
955.122	3268.87
955.426	3240.4
955.731	3227.74
956.035	3225.03
956.339	3225.71
956.643	3205.59
956.948	3148.42
957.252	3135.77
957.556	3148.87
957.86	3128.31
958.163	3119.27
958.467	3101.42
958.771	3097.12
959.075	3094.18
959.378	3073.62
959.682	3081.3
959.985	3029.33
960.289	3056.9
960.592	2995.88
960.896	2994.07
961.199	3025.94
961.502	2975.77
961.805	2978.26
962.108	2924.25
962.411	2954.75
962.714	2947.97
963.017	2905.71
963.32	2905.49
963.623	2857.35
963.926	2879.27
964.228	2870.91
964.531	2869.56
964.833	2835.66
965.136	2796.56
965.438	2789.79
965.741	2831.14
966.043	2812.16
966.345	2781.65
966.648	2729
966.95	2752.72
967.252	2753.63
967.554	2722.44
967.856	2697.81
968.158	2688.32
968.46	2717.02
968.761	2652.84
969.063	2667.98
969.365	2676.34
969.666	2651.48
969.968	2647.42
970.269	2635.44
970.571	2629.56
970.872	2583.46
971.174	2568.77
971.475	2584.37
971.776	2577.59
972.077	2562.67
972.378	2539.4
972.679	2561.32
972.98	2538.04
973.281	2541.66
973.582	2495.33
973.883	2501.88
974.183	2513.86
974.484	2472.28
974.785	2502.11
975.085	2471.6
975.386	2471.38
975.686	2446.29
975.986	2424.15
976.287	2444.48
976.587	2397.71
976.887	2401.77
977.187	2404.48
977.487	2374.2
977.787	2385.5
978.087	2369.46
978.387	2355.45
978.687	2336.69
978.987	2301.44
979.286	2312.06
979.586	2315.45
979.885	2326.07
980.185	2300.31
980.484	2285.39
980.784	2270.7
981.083	2272.74
981.382	2262.12
981.682	2244.94
981.981	2230.25
982.28	2206.52
982.579	2204.94
982.878	2200.65
983.177	2187.09
983.475	2220.53
983.774	2181.67
984.073	2138.05
984.372	2135.79
984.67	2173.53
984.969	2141.44
985.267	2120.42
985.566	2108.9
985.864	2124.94
986.162	2124.94
986.461	2089.46
986.759	2095.57
987.057	2080.43
987.355	2062.8
987.653	2041.78
987.951	2048.79
988.249	2047.66
988.547	2030.94
988.844	2030.03
989.142	2004.95
989.44	1990.94
989.737	1970.82
990.035	2002.24
990.332	1965.4
990.63	1958.85
990.927	1958.39
991.224	1950.03
991.521	1945.74
991.819	1922.92
992.116	1937.38
992.413	1955.68
992.71	1896.25
993.006	1910.26
993.303	1894.44
993.6	1897.83
993.897	1849.7
994.193	1851.5
994.49	1827.55
994.787	1863.48
995.083	1841.56
995.379	1826.87
995.676	1823.26
995.972	1825.97
996.268	1806.31
996.565	1803.14
996.861	1799.75
997.157	1749.59
997.453	1734.45
997.749	1782.35
998.044	1786.87
998.34	1760.43
998.636	1748.46
998.932	1718.18
999.227	1727.67
999.523	1719.98
999.818	1690.38
1000.114	1685.86
1000.409	1700.55
1000.704	1655.35
1001	1685.41
1001.295	1647.44
1001.59	1624.17
1001.885	1656.93
1002.18	1636.82
1002.475	1609.03
1002.77	1628.01
1003.065	1604.51
1003.359	1609.7
1003.654	1609.03
1003.949	1616.03
1004.243	1580.1
1004.538	1574.22
1004.832	1581.46
1005.127	1545.98
1005.421	1538.74
1005.715	1525.41
1006.009	1540.1
1006.304	1521.34
1006.598	1552.08
1006.892	1516.6
1007.186	1484.28
1007.48	1490.84
1007.773	1478.86
1008.067	1468.69
1008.361	1433.44
1008.655	1440.89
1008.948	1434.57
1009.242	1486.32
1009.535	1434.57
1009.829	1435.92
1010.122	1409.93
1010.415	1414.23
1010.708	1406.09
1011.001	1400.9
1011.295	1393.44
1011.588	1361.35
1011.881	1377.62
1012.173	1355.25
1012.466	1363.83
1012.759	1366.32
1013.052	1351.18
1013.344	1362.48
1013.637	1332.65
1013.93	1320.67
1014.222	1320.67
1014.514	1323.84
1014.807	1326.77
1015.099	1299.66
1015.391	1291.29
1015.683	1312.76
1015.976	1289.71
1016.268	1274.35
1016.56	1256.72
1016.851	1258.07
1017.143	1240
1017.435	1231.41
1017.727	1232.31
1018.018	1235.48
1018.31	1227.57
1018.602	1229.37
1018.893	1201.8
1019.185	1212.88
1019.476	1211.97
1019.767	1190.28
1020.058	1180.11
1020.35	1170.62
1020.641	1172.43
1020.932	1167.91
1021.223	1180.56
1021.514	1148.92
1021.804	1108.47
1022.095	1136.04
1022.386	1120.22
1022.677	1129.94
1022.967	1114.35
1023.258	1085.88
1023.548	1099.89
1023.839	1086.78
1024.129	1080.45
1024.419	1086.33
1024.709	1045.88
1025	1035.03
1025.29	1082.94
1025.58	1058.98
1025.87	1035.48
1026.16	1034.58
1026.449	1030.06
1026.739	1031.41
1027.029	1030.06
1027.319	1003.17
1027.608	999.1
1027.898	980.12
1028.187	996.61
1028.477	963.62
1028.766	997.06
1029.055	952.32
1029.344	986.44
1029.634	988.25
1029.923	966.33
1030.212	943.51
1030.501	939.44
1030.79	926.33
1031.078	923.85
1031.367	922.04
1031.656	931.08
1031.945	935.37
1032.233	939.44
1032.522	911.42
1032.81	896.05
1033.099	877.07
1033.387	871.19
1033.675	878.2
1033.963	880.01
1034.251	887.69
1034.54	872.32
1034.828	880.46
1035.116	880.46
1035.403	869.38
1035.691	872.77
1035.979	857.86
1036.267	818.31
1036.554	863.96
1036.842	832.32
1037.129	812.66
1037.417	802.72
1037.704	812.66
1037.992	814.02
1038.279	823.06
1038.566	792.78
1038.853	792.78
1039.14	792.78
