Data from tablewood_dark_bookshelf_FLMS001491_00021.txt Node
Date: Wed Feb 08 14:14:05 GMT 2017
User: dcchb
Spectrometer: FLMS00149
Trigger mode: 0
Integration Time (sec): 2.000000E-2
Scans to average: 10
Electric dark correction enabled: true
Nonlinearity correction enabled: false
Boxcar width: 0
XAxis mode: Wavelengths
Number of Pixels in Spectrum: 2048
>>>>>Begin Spectral Data<<<<<
341.393	3.63
341.776	3.63
342.16	3.63
342.543	-79.76
342.927	-80.21
343.31	-45.86
343.693	-72.07
344.077	-68.01
344.46	-67.78
344.843	-65.75
345.226	-33.43
345.61	-28.23
345.993	0.47
346.376	-6.99
346.759	6.12
347.142	20.8
347.525	37.53
347.908	61.26
348.291	59.45
348.674	108.03
349.057	94.47
349.44	129.05
349.823	160.01
350.206	156.62
350.588	192.33
350.971	184.64
351.354	213.79
351.737	229.61
352.119	238.2
352.502	243.62
352.884	260.12
353.267	252.66
353.65	273.68
354.032	289.05
354.414	287.24
354.797	301.25
355.179	313.23
355.562	314.13
355.944	329.72
356.326	310.97
356.709	312.55
357.091	333.56
357.473	342.38
357.855	343.06
358.238	327.69
358.62	342.38
359.002	333.56
359.384	350.97
359.766	330.17
360.148	342.83
360.53	311.64
360.912	328.14
361.294	317.07
361.676	354.81
362.057	344.19
362.439	317.29
362.821	325.66
363.203	334.92
363.584	327.92
363.966	304.86
364.348	308.25
364.729	295.6
365.111	307.12
365.493	315.26
365.874	319.33
366.256	306.67
366.637	291.08
367.019	348.03
367.4	320.91
367.781	310.29
368.163	301.93
368.544	309.84
368.925	321.81
369.306	308.48
369.688	288.37
370.069	319.78
370.45	288.59
370.831	326.11
371.212	306.67
371.593	312.55
371.974	310.29
372.355	322.72
372.736	300.12
373.117	311.64
373.498	329.05
373.879	313.9
374.26	296.73
374.641	320.46
375.021	334.24
375.402	332.89
375.783	321.59
376.163	333.34
376.544	342.15
376.925	337.41
377.305	337.86
377.686	327.46
378.066	313.45
378.447	336.05
378.827	336.28
379.208	334.69
379.588	320.46
379.968	315.49
380.349	304.19
380.729	332.43
381.109	334.69
381.489	329.5
381.87	332.66
382.25	340.57
382.63	348.93
383.01	360.68
383.39	334.92
383.77	335.82
384.15	360.91
384.53	362.04
384.91	342.38
385.29	373.79
385.67	359.78
386.049	359.1
386.429	352.55
386.809	366.11
387.189	372.66
387.568	371.98
387.948	355.03
388.328	371.98
388.707	368.59
389.087	367.69
389.466	368.14
389.846	357.07
390.225	374.02
390.605	352.1
390.984	342.15
391.363	382.83
391.743	385.31
392.122	371.53
392.501	394.81
392.881	370.63
393.26	369.5
393.639	404.75
394.018	390.96
394.397	391.42
394.776	405.88
395.155	391.87
395.534	390.06
395.913	409.49
396.292	406.56
396.671	412.88
397.05	402.04
397.429	410.85
397.808	421.47
398.186	412.43
398.565	418.99
398.944	410.62
399.323	410.4
399.701	413.34
400.08	428.25
400.458	424.86
400.837	425.99
401.215	425.54
401.594	449.04
401.972	456.05
402.351	440.23
402.729	446.78
403.107	429.61
403.486	455.14
403.864	442.94
404.242	433
404.62	454.47
404.999	422.38
405.377	451.75
405.755	468.48
406.133	452.88
406.511	467.8
406.889	470.96
407.267	460.57
407.645	485.2
408.023	464.86
408.401	477.74
408.779	466.44
409.156	501.24
409.534	471.41
409.912	493.33
410.29	499.21
410.667	468.02
411.045	505.76
411.422	504.63
411.8	500.79
412.178	500.57
412.555	500.57
412.933	505.54
413.31	525.42
413.687	531.75
414.065	544.63
414.442	533.11
414.819	534.92
415.197	535.82
415.574	542.82
415.951	566.55
416.328	561.13
416.705	573.11
417.082	565.2
417.46	554.8
417.837	559.55
418.214	568.36
418.591	575.59
418.967	570.17
419.344	583.28
419.721	587.12
420.098	587.34
420.475	597.29
420.852	601.58
421.228	591.86
421.605	616.95
421.982	592.54
422.358	603.61
422.735	590.73
423.111	624.18
423.488	591.86
423.864	621.69
424.241	638.19
424.617	634.57
424.994	649.49
425.37	660.79
425.746	653.1
426.123	644.06
426.499	637.29
426.875	653.1
427.251	645.19
427.627	698.3
428.003	679.09
428.379	705.98
428.756	687.91
429.132	693.78
429.507	706.44
429.883	699.88
430.259	710.5
430.635	691.52
431.011	724.06
431.387	721.35
431.763	738.98
432.138	749.15
432.514	732.65
432.89	774.91
433.265	772.2
433.641	783.27
434.016	781.91
434.392	783.72
434.767	798.64
435.143	804.06
435.518	798.86
435.894	819.43
436.269	835.02
436.644	810.61
437.02	831.63
437.395	812.42
437.77	861.46
438.145	837.28
438.52	856.49
438.895	843.83
439.271	866.21
439.646	884.51
440.021	895.36
440.395	902.82
440.77	859.2
441.145	886.09
441.52	911.18
441.895	903.04
442.27	925.87
442.645	873.89
443.019	919.31
443.394	945.07
443.769	928.13
444.143	910.27
444.518	938.07
444.892	939.2
445.267	931.06
445.641	941.46
446.016	964.73
446.39	955.7
446.764	987.78
447.139	971.29
447.513	965.86
447.887	972.64
448.262	980.78
448.636	977.16
449.01	990.27
449.384	1001.34
449.758	1015.35
450.132	1014.22
450.506	1009.25
450.88	1050.61
451.254	1015.13
451.628	1033.89
452.002	1051.74
452.376	1076.6
452.75	1057.84
453.123	1073.21
453.497	1091.96
453.871	1108.46
454.244	1112.98
454.618	1124.73
454.992	1130.15
455.365	1150.04
455.739	1157.27
456.112	1173.54
456.486	1152.53
456.859	1183.71
457.232	1193.66
457.606	1216.93
457.979	1210.15
458.352	1239.76
458.725	1260.77
459.099	1262.35
459.472	1285.4
459.845	1275.23
460.218	1321.79
460.591	1303.03
460.964	1322.47
461.337	1324.5
461.71	1335.12
462.083	1361.79
462.456	1360.43
462.829	1390.49
463.201	1385.74
463.574	1407.43
463.947	1445.4
464.32	1444.04
464.692	1471.39
465.065	1462.8
465.438	1456.47
465.81	1480.43
466.183	1518.84
466.555	1532.63
466.928	1552.52
467.3	1556.81
467.672	1570.59
468.045	1593.19
468.417	1583.93
468.789	1606.75
469.161	1638.62
469.534	1659.18
469.906	1688.11
470.278	1709.35
470.65	1724.94
471.022	1741.21
471.394	1747.31
471.766	1783.92
472.138	1759.29
472.51	1824.6
472.882	1851.04
473.253	1883.58
473.625	1891.72
473.997	1948.44
474.369	1938.04
474.74	1982.56
475.112	2003.8
475.484	2043.35
475.855	2100.3
476.227	2080.41
476.598	2093.52
476.97	2140.97
477.341	2171.03
477.713	2223.01
478.084	2273.4
478.455	2278.6
478.827	2305.26
479.198	2368.54
479.569	2327.64
479.94	2432.27
480.311	2425.71
480.682	2478.14
481.053	2556.11
481.424	2548.65
481.795	2589.55
482.166	2626.16
482.537	2650.57
482.908	2745.7
483.279	2758.59
483.65	2794.97
484.021	2822.31
484.391	2863.89
484.762	2884.46
485.133	2922.42
485.503	2941.63
485.874	2998.13
486.244	3015.53
486.615	3081.52
486.985	3085.58
487.356	3148.18
487.726	3162.64
488.097	3248.74
488.467	3286.03
488.837	3360.38
489.207	3397.89
489.578	3385.69
489.948	3418.46
490.318	3461.17
490.688	3530.54
491.058	3587.04
491.428	3583.2
491.798	3618.68
492.168	3678.34
492.538	3680.82
492.908	3761.27
493.278	3763.76
493.648	3808.28
494.017	3801.72
494.387	3850.76
494.757	3898.44
495.126	3924.2
495.496	3959.01
495.866	3987.48
496.235	4017.99
496.605	4083.52
496.974	4050.76
497.344	4124.65
497.713	4104.09
498.082	4164.65
498.452	4210.52
498.821	4234.71
499.19	4261.6
499.559	4305.44
499.928	4331.2
500.298	4308.15
500.667	4392.22
501.036	4346.34
501.405	4401.71
501.774	4411.65
502.143	4502.27
502.512	4506.79
502.88	4580.46
503.249	4556.28
503.618	4617.07
503.987	4590.63
504.356	4592.21
504.724	4650.97
505.093	4739.32
505.462	4734.35
505.83	4717.86
506.199	4806.67
506.567	4893.9
506.936	4845.54
507.304	4920.34
507.672	4986.1
508.041	4954.69
508.409	4972.99
508.777	4989.26
509.145	5057.28
509.514	5088.69
509.882	5110.39
510.25	5116.26
510.618	5117.39
510.986	5213.21
511.354	5241.23
511.722	5264.51
512.09	5309.03
512.458	5307.67
512.826	5394.22
513.193	5405.97
513.561	5371.85
513.929	5499.08
514.297	5528
514.664	5597.61
515.032	5612.3
515.4	5635.8
515.767	5707.89
516.135	5725.29
516.502	5658.85
516.869	5758.51
517.237	5789.69
517.604	5800.54
517.972	5856.58
518.339	5903.36
518.706	5933.19
519.073	6002.34
519.44	6039.4
519.808	6084.6
520.175	6118.72
520.542	6145.39
520.909	6211.38
521.276	6222
521.643	6294.54
522.009	6311.26
522.376	6348.32
522.743	6408.66
523.11	6412.73
523.477	6534.76
523.843	6537.24
524.21	6729.78
524.577	6686.84
524.943	6722.1
525.31	6804.13
525.676	6781.53
526.043	6829.21
526.409	6846.61
526.776	6969.55
527.142	7013.84
527.508	7085.03
527.874	7163.67
528.241	7113.27
528.607	7157.11
528.973	7221.29
529.339	7219.49
529.705	7264.91
530.071	7357.56
530.437	7379.03
530.803	7501.06
531.169	7440.04
531.535	7526.82
531.901	7520.04
532.267	7546.26
532.632	7632.58
532.998	7705.57
533.364	7673.26
533.73	7722.97
534.095	7822.18
534.461	7807.72
534.826	7837.55
535.192	7869.41
535.557	7985.11
535.923	7931.78
536.288	8005.23
536.653	8042.51
537.019	7961.61
537.384	8049.52
537.749	8132.46
538.114	8098.11
538.479	8165.68
538.845	8165.9
539.21	8175.84
539.575	8242.96
539.94	8244.32
540.305	8335.16
540.67	8332.45
541.034	8387.82
541.399	8363.18
541.764	8411.54
542.129	8449.96
542.494	8497.64
542.858	8547.36
543.223	8521.6
543.587	8631.88
543.952	8632.78
544.316	8595.72
544.681	8582.39
545.045	8683.18
545.41	8711.65
545.774	8707.58
546.138	8771.76
546.503	8788.48
546.867	8788.48
547.231	8899.22
547.595	8893.34
547.959	8979.44
548.324	8932.43
548.688	9030.29
549.052	9047.69
549.416	9095.82
549.779	9071.87
550.143	9124.07
550.507	9170.17
550.871	9219.88
551.235	9115.03
551.599	9184.41
551.962	9320.45
552.326	9338.98
552.689	9380.78
553.053	9393.44
553.417	9384.85
553.78	9512.08
554.143	9443.38
554.507	9535.58
554.87	9558.18
555.234	9701.45
555.597	9615.13
555.96	9715.69
556.323	9730.15
556.686	9760.66
557.05	9854.67
557.413	9863.03
557.776	9862.35
558.139	10023.25
558.502	9969.7
558.865	10037.94
559.228	10126.3
559.59	10145.06
559.953	10206.98
560.316	10290.14
560.679	10204.27
561.041	10353.87
561.404	10414.88
561.767	10453.75
562.129	10484.03
562.492	10529.23
562.854	10550.7
563.217	10542.56
563.579	10714.76
563.941	10738.49
564.304	10797.24
564.666	10877.02
565.028	10966.28
565.39	10965.6
565.753	11048.76
566.115	10994.08
566.477	11111.13
566.839	11164.69
567.201	11194.75
567.563	11217.8
567.925	11396.78
568.287	11278.14
568.648	11357.91
569.01	11453.72
569.372	11498.47
569.734	11537.79
570.095	11545.93
570.457	11644.45
570.819	11660.95
571.18	11706.15
571.542	11838.12
571.903	11863.43
572.265	11933.03
572.626	11965.8
572.987	12002.86
573.349	12025.23
573.71	12093.26
574.071	12178
574.432	12201.28
574.794	12371.89
575.155	12282.18
575.516	12220.26
575.877	12388.16
576.238	12392.23
576.599	12525.33
576.96	12487.37
577.32	12477.65
577.681	12623.41
578.042	12674.94
578.403	12613.92
578.763	12667.93
579.124	12682.39
579.485	12807.14
579.845	12781.6
580.206	12766.23
580.566	12766.01
580.927	12923.74
581.287	12954.25
581.648	12934.82
582.008	13022.72
582.368	13021.82
582.728	13090.97
583.089	13098.2
583.449	13130.06
583.809	13194.24
584.169	13228.37
584.529	13170.29
584.889	13224.75
585.249	13190.18
585.609	13275.6
585.969	13316.73
586.329	13278.99
586.688	13414.12
587.048	13327.35
587.408	13383.39
587.768	13400.57
588.127	13446.21
588.487	13485.31
588.846	13503.61
589.206	13446.89
589.565	13520.79
589.925	13650.73
590.284	13553.33
590.643	13590.39
591.003	13664.29
591.362	13648.24
591.721	13691.63
592.08	13748.35
592.44	13800.33
592.799	13805.98
593.158	13715.13
593.517	13855.47
593.876	13848.01
594.235	13791.06
594.593	13885.07
594.952	13904.51
595.311	13869.93
595.67	13852.76
596.029	13915.58
596.387	13976.82
596.746	14001
597.104	13998.52
597.463	13949.25
597.822	14103.82
598.18	14008.46
598.538	14052.07
598.897	14107.67
599.255	14068.8
599.613	14257.72
599.972	14162.81
600.33	14207.32
600.688	14158.29
601.046	14183.82
601.404	14264.05
601.762	14277.15
602.12	14325.51
602.478	14345.63
602.836	14429.47
603.194	14311.73
603.552	14405.29
603.91	14359.18
604.268	14470.82
604.625	14432.18
604.983	14522.8
605.341	14406.87
605.698	14575.68
606.056	14466.07
606.413	14491.16
606.771	14562.12
607.128	14553.98
607.485	14581.33
607.843	14587.2
608.2	14648.89
608.557	14739.06
608.914	14721.21
609.272	14710.36
609.629	14753.98
609.986	14899.28
610.343	14711.72
610.7	14989
611.057	14944.93
611.414	14871.94
611.771	14945.84
612.127	14990.35
612.484	14953.07
612.841	15027.42
613.198	14981.54
613.554	15061.54
613.911	15118.03
614.267	15126.62
614.624	15028.32
614.98	15134.76
615.337	15221.08
615.693	15181.76
616.05	15127.3
616.406	15206.85
616.762	15149.67
617.118	15260.63
617.475	15194.64
617.831	15288.65
618.187	15249.78
618.543	15266.05
618.899	15293.17
619.255	15301.98
619.611	15344.47
619.967	15385.6
620.323	15450.23
620.678	15340.85
621.034	15360.74
621.39	15309.89
621.746	15314.19
622.101	15457.69
622.457	15402.77
622.812	15419.27
623.168	15414.3
623.523	15425.37
623.879	15543.79
624.234	15417.24
624.589	15479.83
624.945	15444.58
625.3	15442.77
625.655	15396.45
626.01	15511.02
626.365	15446.39
626.72	15560.28
627.075	15481.87
627.43	15461.08
627.785	15474.64
628.14	15507.4
628.495	15439.16
628.85	15446.84
629.205	15438.93
629.559	15559.83
629.914	15391.02
630.269	15424.92
630.623	15380.63
630.978	15363.68
631.332	15475.31
631.687	15494.97
632.041	15389.67
632.396	15344.92
632.75	15391.93
633.104	15399.61
633.459	15335.88
633.813	15289.56
634.167	15386.73
634.521	15286.62
634.875	15369.78
635.229	15349.89
635.583	15253.62
635.937	15272.15
636.291	15249.1
636.645	15203.46
636.999	15202.55
637.352	15228.54
637.706	15162.33
638.06	15173.85
638.413	15188.99
638.767	15138.83
639.121	15143.34
639.474	15122.78
639.828	15116.23
640.181	15139.28
640.534	15107.41
640.888	14980.86
641.241	14972.73
641.594	14991.48
641.947	15038.94
642.301	14922.56
642.654	15021.77
643.007	15041.65
643.36	15016.57
643.713	15007.53
644.066	15004.82
644.419	14949.68
644.771	14894.54
645.124	14713.07
645.477	14662.23
645.83	14605.05
646.182	14525.96
646.535	14475.57
646.888	14550.82
647.24	14455
647.593	14565.05
647.945	14532.06
648.298	14412.74
648.65	14486.64
649.002	14381.33
649.355	14439.63
649.707	14408.45
650.059	14493.19
650.411	14716.01
650.763	14627.88
651.115	14875.56
651.467	14752.85
651.819	14725.73
652.171	14780.19
652.523	14675.79
652.875	14762.79
653.227	14654.09
653.578	14795.33
653.93	14692.06
654.282	14673.53
654.633	14655
654.985	14653.64
655.337	14671.72
655.688	14661.55
656.039	14768.67
656.391	14647.54
656.742	14729.34
657.094	14611.83
657.445	14653.19
657.796	14651.61
658.147	14628.56
658.498	14612.74
658.849	14755.78
659.2	14638.5
659.551	14698.61
659.902	14680.76
660.253	14647.09
660.604	14629.23
660.955	14607.54
661.306	14672.85
661.656	14549.01
662.007	14648.67
662.358	14569.35
662.708	14612.06
663.059	14548.33
663.409	14554.89
663.76	14554.89
664.11	14522.34
664.461	14626.97
664.811	14537.94
665.161	14574.32
665.511	14568.67
665.862	14598.05
666.212	14567.09
666.562	14516.92
666.912	14584.04
667.262	14631.04
667.612	14600.31
667.962	14716.46
668.312	14671.04
668.662	14683.92
669.011	14681.21
669.361	14505.17
669.711	14574.09
670.06	14611.16
670.41	14519.18
670.76	14566.86
671.109	14569.12
671.459	14522.8
671.808	14601.44
672.157	14583.36
672.507	14493.87
672.856	14497.71
673.205	14518.5
673.554	14611.16
673.904	14449.8
674.253	14563.47
674.602	14554.21
674.951	14351.5
675.3	14246.19
675.649	14505.4
675.998	14539.07
676.346	14525.73
676.695	14583.13
677.044	14376.13
677.393	14473.76
677.741	14472.4
678.09	14450.26
678.438	14408.67
678.787	14495
679.135	14382.01
679.484	14394.89
679.832	14473.98
680.181	14310.6
680.529	14376.81
680.877	14378.62
681.225	14303.14
681.573	14397.38
681.922	14210.94
682.27	14175.46
682.618	14275.57
682.966	14194.9
683.314	14208
683.661	14204.39
684.009	14161.22
684.357	14123.03
684.705	14125.52
685.053	14143.82
685.4	14091.4
685.748	13991.06
686.095	13958.52
686.443	14011.85
686.79	13958.52
687.138	13963.26
687.485	14078.97
687.832	13972.53
688.18	13935.01
688.527	13864.51
688.874	13812.31
689.221	13820.44
689.568	13754.23
689.915	13820.89
690.262	13726.43
690.609	13714.68
690.956	13723.04
691.303	13712.87
691.65	13626.55
691.997	13612.31
692.344	13528.47
692.69	13521.69
693.037	13504.29
693.383	13462.94
693.73	13544.97
694.077	13469.04
694.423	13441.92
694.769	13340
695.116	13339.1
695.462	13296.84
695.808	13239.67
696.155	13333.22
696.501	13170.52
696.847	13230.63
697.193	13078.09
697.539	13147.24
697.885	13114.25
698.231	13043.06
698.577	13041.25
698.923	13043.29
699.269	13028.82
699.614	12882.39
699.96	12868.38
700.306	12747.25
700.651	12841.71
700.997	12763.52
701.342	12760.13
701.688	12723.3
702.033	12674.26
702.379	12599.68
702.724	12678.78
703.069	12687.59
703.415	12543.87
703.76	12636.52
704.105	12561.72
704.45	12467.48
704.795	12430.65
705.14	12403.08
705.485	12459.12
705.83	12373.25
706.175	12347.94
706.52	12355.85
706.865	12243.08
707.209	12250.31
707.554	12195.4
707.899	12222.97
708.243	12188.62
708.588	12165.57
708.932	12078.57
709.277	12126.25
709.621	12165.8
709.966	12023.2
710.31	12083.99
710.654	11985.91
710.998	12076.76
711.342	12010.77
711.687	12046.48
712.031	11945.91
712.375	11928.06
712.719	11944.56
713.063	11870.21
713.407	11949.08
713.75	11832.47
714.094	11832.25
714.438	11743.89
714.782	11787.27
715.125	11800.38
715.469	11816.43
715.812	11753.6
716.156	11698.24
716.499	11656.43
716.843	11667.96
717.186	11623.89
717.53	11662.76
717.873	11635.19
718.216	11646.26
718.559	11531.24
718.902	11567.17
719.246	11510.22
719.589	11573.72
719.932	11529.65
720.275	11492.37
720.617	11550.22
720.96	11405.14
721.303	11537.34
721.646	11481.29
721.989	11371.01
722.331	11497.11
722.674	11394.74
723.016	11403.78
723.359	11381.64
723.701	11435.19
724.044	11296.89
724.386	11307.97
724.729	11326.04
725.071	11359.26
725.413	11313.84
725.755	11340.05
726.097	11245.82
726.439	11208.08
726.782	11203.34
727.124	11274.29
727.465	11211.47
727.807	11186.39
728.149	11150.91
728.491	11239.72
728.833	11239.72
729.175	11110.91
729.516	11123.11
729.858	11130.12
730.199	11125.37
730.541	11194.07
730.882	11085.6
731.224	11126.28
731.565	11091.02
731.906	11082.21
732.248	11095.09
732.589	11032.04
732.93	11031.14
733.271	11023.45
733.612	11056.45
733.953	11019.84
734.294	11002.89
734.635	11060.06
734.976	11023.68
735.317	11077.01
735.658	11027.97
735.999	11026.39
736.339	11014.41
736.68	11058.03
737.021	10950.69
737.361	10958.6
737.702	11007.63
738.042	10937.58
738.383	10928.77
738.723	10998.59
739.063	10965.15
739.404	10924.25
739.744	10956.11
740.084	10901.65
740.424	10938.48
740.764	10908.88
741.104	10933.96
741.444	10869.78
741.784	10906.62
742.124	10883.8
742.464	10879.95
742.804	10832.27
743.143	10883.34
743.483	10840.86
743.823	10808.54
744.162	10793.18
744.502	10829.79
744.841	10761.54
745.181	10874.98
745.52	10813.29
745.86	10806.96
746.199	10819.16
746.538	10808.32
746.877	10786.62
747.216	10819.62
747.556	10752.5
747.895	10801.76
748.234	10771.93
748.573	10715.44
748.911	10718.83
749.25	10711.14
749.589	10622.56
749.928	10670.24
750.267	10703.69
750.605	10664.59
750.944	10658.04
751.283	10706.4
751.621	10710.92
751.96	10605.16
752.298	10673.63
752.636	10605.84
752.975	10543.24
753.313	10557.25
753.651	10650.36
753.989	10536.23
754.327	10491.49
754.666	10442.23
755.004	10508.89
755.342	10503.47
755.679	10465.05
756.017	10467.54
756.355	10474.09
756.693	10426.63
757.031	10410.36
757.368	10347.09
757.706	10337.14
758.044	10368.1
758.381	10364.49
758.719	10277.71
759.056	10267.99
759.394	10284.94
759.731	10216.92
760.068	10204.27
760.405	10237.03
760.743	10131.5
761.08	10187.09
761.417	10111.61
761.754	10084.49
762.091	10044.27
762.428	10067.77
762.765	10015.34
763.102	10004.5
763.438	9860.77
763.775	9899.41
764.112	9898.51
764.449	9842.24
764.785	9863.26
765.122	9808.57
765.458	9792.07
765.795	9767.21
766.131	9694
766.467	9688.12
766.804	9628.69
767.14	9537.16
767.476	9574.45
767.812	9534.23
768.148	9619.2
768.485	9597.05
768.821	9447.68
769.157	9450.61
769.492	9389.15
769.828	9444.74
770.164	9352.99
770.5	9317.28
770.836	9302.37
771.171	9184.18
771.507	9179.21
771.842	9144.18
772.178	9124.75
772.513	9121.58
772.849	9083.17
773.184	9054.01
773.519	9062.15
773.855	9005.43
774.19	9010.17
774.525	8990.96
774.86	8935.6
775.195	8905.54
775.53	8866.9
775.865	8816.96
776.2	8747.58
776.535	8713.01
776.87	8744.19
777.205	8716.85
777.539	8593.23
777.874	8701.25
778.209	8582.39
778.543	8579.9
778.878	8513.91
779.212	8543.52
779.547	8480.47
779.881	8544.2
780.215	8485.21
780.55	8450.19
780.884	8451.09
781.218	8350.08
781.552	8379.91
781.886	8341.72
782.22	8268.05
782.554	8239.12
782.888	8181.72
783.222	8092.23
783.556	8155.96
783.889	8117.99
784.223	8006.13
784.557	8044.1
784.89	8012.01
785.224	7974.04
785.557	7943.08
785.891	7914.61
786.224	7882.07
786.558	7912.12
786.891	7792.35
787.224	7795.06
787.557	7749.87
787.891	7772.01
788.224	7772.47
788.557	7745.8
788.89	7704.44
789.223	7660.83
789.556	7605.01
789.888	7602.3
790.221	7608.4
790.554	7489.08
790.887	7518.91
791.219	7499.93
791.552	7506.03
791.884	7451.8
792.217	7435.07
792.549	7350.78
792.882	7293.16
793.214	7339.71
793.546	7305.36
793.879	7292.7
794.211	7242.08
794.543	7277.79
794.875	7200.73
795.207	7247.73
795.539	7190.79
795.871	7159.6
796.203	7125.93
796.535	7121.63
796.867	7097.91
797.198	7042.99
797.53	7039.83
797.862	7007.51
798.193	7016.55
798.525	7008.19
798.856	7012.49
799.188	6879.61
799.519	6839.38
799.85	6835.77
800.182	6826.05
800.513	6874.86
800.844	6763.45
801.175	6848.65
801.506	6802.1
801.837	6774.53
802.168	6726.84
802.499	6799.61
802.83	6737.24
803.161	6658.37
803.491	6638.26
803.822	6673.74
804.153	6628.31
804.483	6563.68
804.814	6606.85
805.145	6543.57
805.475	6557.36
805.805	6496.11
806.136	6504.25
806.466	6484.36
806.796	6448.43
807.126	6436
807.457	6449.34
807.787	6350.81
808.117	6406.63
808.447	6325.72
808.777	6342.9
809.107	6305.16
809.436	6287.53
809.766	6287.08
810.096	6281.2
810.426	6272.17
810.755	6280.07
811.085	6244.14
811.414	6207.99
811.744	6137.71
812.073	6153.98
812.403	6181.77
812.732	6111.94
813.061	6143.58
813.39	6118.72
813.719	6068.33
814.049	6141.1
814.378	6068.1
814.707	6068.33
815.036	6015.22
815.365	6045.96
815.693	5916.47
816.022	5960.76
816.351	5952.63
816.68	5928.67
817.008	5960.76
817.337	5826.3
817.665	5897.71
817.994	5933.19
818.322	5927.09
818.651	5855.68
818.979	5867.88
819.307	5892.97
819.636	5833.08
819.964	5800.09
820.292	5843.02
820.62	5826.08
820.948	5807.55
821.276	5816.58
821.604	5773.42
821.932	5810.93
822.259	5795.34
822.587	5781.11
822.915	5789.24
823.243	5767.77
823.57	5775
823.898	5801.9
824.225	5799.18
824.553	5745.17
824.88	5749.69
825.207	5764.83
825.535	5707.43
825.862	5762.57
826.189	5746.98
826.516	5783.14
826.843	5844.38
827.17	5789.24
827.497	5784.49
827.824	5817.94
828.151	5773.65
828.478	5778.17
828.805	5754.21
829.131	5774.55
829.458	5747.21
829.785	5639.64
830.111	5700.66
830.438	5776.13
830.764	5728.9
831.09	5731.84
831.417	5739.75
831.743	5713.76
832.069	5709.02
832.395	5692.07
832.722	5732.07
833.048	5699.98
833.374	5726.19
833.7	5701.33
834.026	5685.74
834.351	5691.84
834.677	5671.73
835.003	5697.27
835.329	5627.66
835.654	5621.56
835.98	5638.28
836.306	5658.62
836.631	5623.6
836.956	5688.23
837.282	5643.48
837.607	5620.21
837.932	5553.09
838.258	5601.22
838.583	5594.22
838.908	5593.77
839.233	5553.54
839.558	5523.26
839.883	5558.51
840.208	5516.71
840.533	5559.87
840.858	5513.99
841.182	5509.7
841.507	5524.84
841.832	5507.89
842.156	5462.24
842.481	5469.25
842.805	5505.86
843.13	5446.42
843.454	5443.26
843.778	5423.83
844.103	5394
844.427	5417.95
844.751	5394.9
845.075	5392.87
845.399	5395.35
845.723	5298.18
846.047	5331.85
846.371	5249.82
846.695	5273.1
847.019	5228.35
847.343	5282.81
847.666	5208.46
847.99	5184.74
848.313	5212.76
848.637	5150.39
848.96	5156.71
849.284	5118.98
849.607	5076.94
849.931	5101.57
850.254	5022.71
850.577	5012.54
850.9	5017.51
851.223	5013.22
851.546	4969.37
851.869	4960.34
852.192	4921.69
852.515	4950.39
852.838	4898.87
853.161	4904.74
853.483	4872.65
853.806	4866.55
854.129	4887.57
854.451	4803.05
854.774	4835.14
855.096	4767.12
855.419	4787.23
855.741	4777.52
856.063	4810.74
856.385	4722.83
856.708	4743.17
857.03	4665.65
857.352	4747.01
857.674	4725.99
857.996	4704.52
858.318	4619.1
858.64	4697.97
858.961	4634.69
859.283	4643.28
859.605	4648.93
859.926	4613.68
860.248	4617.07
860.57	4596.5
860.891	4591.76
861.212	4568.93
861.534	4577.07
861.855	4571.87
862.176	4516.28
862.498	4539.1
862.819	4537.97
863.14	4541.59
863.461	4506.79
863.782	4497.52
864.103	4509.73
864.424	4464.3
864.745	4493.46
865.065	4464.53
865.386	4483.06
865.707	4467.69
866.027	4467.02
866.348	4457.98
866.668	4462.5
866.989	4437.64
867.309	4409.39
867.63	4424.3
867.95	4415.49
868.27	4396.06
868.59	4398.54
868.91	4394.47
869.23	4427.24
869.55	4379.56
869.87	4415.27
870.19	4365.1
870.51	4361.26
870.83	4354.93
871.15	4333.69
871.469	4330.75
871.789	4378.66
872.109	4364.19
872.428	4307.02
872.748	4344.76
873.067	4319.22
873.386	4344.98
873.706	4318.32
874.025	4312.67
874.344	4271.77
874.663	4254.14
874.982	4295.95
875.301	4265.44
875.62	4302.73
875.939	4260.02
876.258	4224.54
876.577	4267.02
876.896	4282.39
877.214	4206.23
877.533	4210.75
877.852	4239.68
878.17	4253.24
878.489	4258.66
878.807	4269.51
879.125	4200.81
879.444	4252.33
879.762	4214.59
880.08	4233.8
880.398	4207.36
880.716	4241.94
881.034	4204.42
881.352	4201.49
881.67	4171.2
881.988	4187.47
882.306	4130.08
882.624	4119.45
882.941	4123.07
883.259	4096.4
883.577	4115.16
883.894	4075.61
884.212	4106.8
884.529	4108.15
884.846	4098.66
885.164	4060.02
885.481	4066.8
885.798	4072.22
886.115	4041.04
886.432	4056.86
886.75	4035.39
887.067	4039.68
887.383	3968.95
887.7	4030.42
888.017	3971.44
888.334	3975.95
888.651	3954.03
888.967	3981.6
889.284	3960.59
889.6	3927.37
889.917	3912
890.233	3953.13
890.55	3914.71
890.866	3942.51
891.182	3892.79
891.498	3890.31
891.815	3900.02
892.131	3867.26
892.447	3878.1
892.763	3876.75
893.079	3804.66
893.395	3831.78
893.71	3813.93
894.026	3816.86
894.342	3794.04
894.657	3784.77
894.973	3753.59
895.289	3777.32
895.604	3768.5
895.92	3752.91
896.235	3744.55
896.55	3747.71
896.865	3727.83
897.181	3723.98
897.496	3716.53
897.811	3715.4
898.126	3681.5
898.441	3684.89
898.756	3623.42
899.071	3624.55
899.386	3637.43
899.7	3623.2
900.015	3625
900.33	3557.21
900.644	3579.58
900.959	3613.03
901.273	3549.98
901.588	3617.32
901.902	3516.31
902.216	3547.04
902.531	3545.23
902.845	3518.79
903.159	3498.91
903.473	3481.5
903.787	3457.78
904.101	3472.24
904.415	3506.36
904.729	3447.38
905.042	3459.81
905.356	3451.67
905.67	3429.3
905.984	3356.31
906.297	3436.76
906.611	3377.78
906.924	3377.1
907.237	3369.19
907.551	3409.42
907.864	3344.33
908.177	3343.66
908.491	3347.04
908.804	3325.12
909.117	3300.49
909.43	3300.04
909.743	3249.87
910.056	3296.42
910.368	3268.18
910.681	3242.87
910.994	3247.39
911.307	3222.98
911.619	3215.3
911.932	3220.49
912.244	3203.55
912.557	3197.67
912.869	3135.75
913.181	3173.26
913.494	3170.1
913.806	3128.07
914.118	3078.58
914.43	3098.24
914.742	3059.14
915.054	3089.88
915.366	3108.18
915.678	3083.55
915.99	3068.63
916.302	3059.82
916.613	3011.69
916.925	3014.17
917.236	3044.68
917.548	2982.76
917.859	3010.78
918.171	2978.47
918.482	2973.5
918.794	2945.25
919.105	2968.07
919.416	2938.24
919.727	2944.34
920.038	2913.38
920.349	2884.01
920.66	2908.86
920.971	2887.4
921.282	2902.08
921.593	2855.31
921.903	2861.41
922.214	2878.58
922.525	2830.22
922.835	2794.52
923.146	2834.74
923.456	2796.78
923.767	2810.11
924.077	2800.17
924.387	2788.19
924.697	2767.62
925.008	2793.39
925.318	2787.51
925.628	2761.07
925.938	2738.02
926.248	2714.52
926.558	2717.23
926.867	2696.44
927.177	2710.9
927.487	2658.25
927.796	2650.11
928.106	2642.66
928.416	2652.37
928.725	2632.94
929.034	2648.08
929.344	2636.1
929.653	2617.8
929.962	2606.95
930.271	2555.88
930.581	2557.91
930.89	2571.47
931.199	2535.54
931.508	2565.82
931.817	2530.12
932.125	2531.7
932.434	2518.14
932.743	2493.28
933.051	2492.83
933.36	2478.14
933.669	2491.25
933.977	2465.94
934.286	2511.81
934.594	2497.8
934.902	2484.92
935.21	2441.53
935.519	2441.53
935.827	2453.28
936.135	2427.07
936.443	2403.79
936.751	2400.85
937.059	2416
937.367	2392.95
937.674	2384.81
937.982	2400.4
938.29	2388.43
938.597	2368.99
938.905	2347.3
939.213	2334.19
939.52	2322.89
939.827	2316.34
940.135	2324.7
940.442	2290.8
940.749	2300.74
941.056	2299.84
941.363	2324.25
941.67	2280.18
941.977	2257.36
942.284	2221.2
942.591	2262.55
942.898	2235.89
943.205	2231.14
943.511	2225.94
943.818	2201.31
944.125	2176.23
944.431	2195.89
944.738	2190.01
945.044	2188.88
945.35	2170.8
945.657	2178.26
945.963	2168.09
946.269	2152.73
946.575	2165.15
946.881	2109.34
947.187	2128.77
947.493	2129
947.799	2123.8
948.105	2130.13
948.41	2116.79
948.716	2120.18
949.022	2100.3
949.327	2105.27
949.633	2063.46
949.938	2066.85
950.244	2025.27
950.549	2033.18
950.854	2044.03
951.16	2048.1
951.465	2028.89
951.77	2020.75
952.075	2044.03
952.38	2004.93
952.685	2019.4
952.99	2004.93
953.294	1986.85
953.599	1953.86
953.904	2002.22
954.209	1943.47
954.513	1965.61
954.818	1962.9
955.122	1934.88
955.426	1914.99
955.731	1924.94
956.035	1919.74
956.339	1949.12
956.643	1899.63
956.948	1908.66
957.252	1907.31
957.556	1908.89
957.86	1856.01
958.163	1893.07
958.467	1865.05
958.771	1872.06
959.075	1853.07
959.378	1865.28
959.682	1856.46
959.985	1859.4
960.289	1828.67
960.592	1801.1
960.896	1829.12
961.199	1846.75
961.502	1783.47
961.805	1797.93
962.108	1794.77
962.411	1784.83
962.714	1780.08
963.017	1779.63
963.32	1785.28
963.623	1800.87
963.926	1728.1
964.228	1736.69
964.531	1757.48
964.833	1752.51
965.136	1728.33
965.438	1723.13
965.741	1730.82
966.043	1726.3
966.345	1724.94
966.648	1689.46
966.95	1704.38
967.252	1691.04
967.554	1653.76
967.856	1638.84
968.158	1647.43
968.46	1647.88
968.761	1666.86
969.063	1651.5
969.365	1655.79
969.666	1654.43
969.968	1614.43
970.269	1665.96
970.571	1609.46
970.872	1609.24
971.174	1610.82
971.475	1614.43
971.776	1610.59
972.077	1589.58
972.378	1576.92
972.679	1587.09
972.98	1594.55
973.281	1605.62
973.582	1535.57
973.883	1582.8
974.183	1527.66
974.484	1555.23
974.785	1532.4
975.085	1547.54
975.386	1533.53
975.686	1528.56
975.986	1542.35
976.287	1506.19
976.587	1505.06
976.887	1505.74
977.187	1481.78
977.487	1514.78
977.787	1494.21
978.087	1494.21
978.387	1473.42
978.687	1469.35
978.987	1442.69
979.286	1437.26
979.586	1476.59
979.885	1472.74
980.185	1462.57
980.484	1420.09
980.784	1435.68
981.083	1425.29
981.382	1432.97
981.682	1430.03
981.981	1401.11
982.28	1411.73
982.579	1399.98
982.878	1398.62
983.177	1404.72
983.475	1361.33
983.774	1389.36
984.073	1388.23
984.372	1375.57
984.67	1360.66
984.969	1362.92
985.267	1373.09
985.566	1342.8
985.864	1369.92
986.162	1351.84
986.461	1352.07
986.759	1320.66
987.057	1350.94
987.355	1328.79
987.653	1314.56
987.951	1322.24
988.249	1334.44
988.547	1315.01
988.844	1303.93
989.142	1283.82
989.44	1279.75
989.737	1300.09
990.035	1304.16
990.332	1276.59
990.63	1277.95
990.927	1278.4
991.224	1275.69
991.521	1266.87
991.819	1288.34
992.116	1249.92
992.413	1238.63
992.71	1277.27
993.006	1220.55
993.303	1235.24
993.6	1235.24
993.897	1222.35
994.193	1235.01
994.49	1207.89
994.787	1208.34
995.083	1206.31
995.379	1173.99
995.676	1213.99
995.972	1202.24
996.268	1180.32
996.565	1201.34
996.861	1174.22
997.157	1190.94
997.453	1189.14
997.749	1174.22
998.044	1146.88
998.34	1154.79
998.636	1169.7
998.932	1148.23
999.227	1141
999.523	1110.49
999.818	1138.74
1000.114	1127.22
1000.409	1134.9
1000.704	1081.34
1001	1110.27
1001.295	1111.85
1001.59	1108.46
1001.885	1115.01
1002.18	1103.94
1002.475	1084.73
1002.77	1068.01
1003.065	1090.15
1003.359	1055.35
1003.654	1044.28
1003.949	1054
1004.243	1041.34
1004.538	1063.71
1004.832	1054.45
1005.127	1058.52
1005.421	1042.25
1005.715	1028.01
1006.009	1029.14
1006.304	1052.64
1006.598	1025.75
1006.892	1023.72
1007.186	999.76
1007.48	1016.26
1007.773	1007.9
1008.067	974.45
1008.361	972.87
1008.655	990.95
1008.948	994.11
1009.242	977.62
1009.535	980.1
1009.829	989.82
1010.122	976.03
1010.415	973.55
1010.708	929.26
1011.001	962.25
1011.295	931.52
1011.588	931.52
1011.881	918.18
1012.173	964.73
1012.466	936.03
1012.759	919.31
1013.052	930.16
1013.344	924.28
1013.637	930.16
1013.93	916.6
1014.222	900.78
1014.514	899.88
1014.807	903.95
1015.099	900.1
1015.391	861.69
1015.683	900.1
1015.976	889.93
1016.268	892.87
1016.56	871.18
1016.851	863.95
1017.143	872.31
1017.435	845.42
1017.727	843.83
1018.018	864.17
1018.31	849.94
1018.602	834.12
1018.893	840.67
1019.185	840.9
1019.476	833.66
1019.767	826.66
1020.058	814.91
1020.35	817.17
1020.641	820.33
1020.932	814
1021.223	796.83
1021.514	840.44
1021.804	813.78
1022.095	804.74
1022.386	785.3
1022.677	777.39
1022.967	776.94
1023.258	774.91
1023.548	802.03
1023.839	781.01
1024.129	769.94
1024.419	747.11
1024.709	762.48
1025	764.51
1025.29	745.76
1025.58	757.06
1025.87	752.99
1026.16	745.76
1026.449	745.53
1026.739	731.07
1027.029	746.66
1027.319	728.58
1027.608	718.64
1027.898	732.42
1028.187	724.74
1028.477	701.24
1028.766	705.53
1029.055	726.55
1029.344	688.13
1029.634	716.83
1029.923	700.79
1030.212	701.92
1030.501	705.98
1030.79	693.1
1031.078	696.49
1031.367	688.36
1031.656	679.32
1031.945	668.92
1032.233	693.1
1032.522	681.58
1032.81	671.41
1033.099	652.88
1033.387	653.1
1033.675	670.05
1033.963	664.63
1034.251	656.95
1034.54	680.9
1034.828	647.91
1035.116	637.96
1035.403	651.75
1035.691	634.57
1035.979	642.71
1036.267	616.95
1036.554	625.76
1036.842	607.46
1037.129	613.78
1037.417	615.59
1037.704	593.9
1037.992	621.24
1038.279	601.13
1038.566	619.43
1038.853	619.43
1039.14	619.43
