Data from tablewood_brown_FLMS001491_014.txt Node
Date: Tue Feb 07 11:10:05 GMT 2017
User: dcchb
Spectrometer: FLMS00149
Trigger mode: 0
Integration Time (sec): 2.000000E-2
Scans to average: 10
Electric dark correction enabled: true
Nonlinearity correction enabled: false
Boxcar width: 0
XAxis mode: Wavelengths
Number of Pixels in Spectrum: 2048
>>>>>Begin Spectral Data<<<<<
341.393	-18.32
341.776	-18.32
342.16	-18.32
342.543	-60.35
342.927	-60.35
343.31	-60.13
343.693	-77.07
344.077	-27.36
344.46	-65.55
344.843	-83.63
345.226	-69.62
345.61	-28.26
345.993	-8.6
346.376	-1.37
346.759	15.8
347.142	30.27
347.525	41.79
347.908	44.5
348.291	82.24
348.674	96.03
349.057	110.94
349.44	123.82
349.823	155.46
350.206	155.46
350.588	190.04
350.971	204.95
351.354	213.09
351.737	259.64
352.119	237.49
352.502	265.52
352.884	279.98
353.267	278.85
353.65	295.57
354.032	297.83
354.414	308
354.797	298.06
355.179	315.01
355.562	336.47
355.944	338.96
356.326	320.88
356.709	347.32
357.091	332.86
357.473	327.43
357.855	339.64
358.238	317.27
358.62	352.52
359.002	330.37
359.384	373.31
359.766	342.58
360.148	370.82
360.53	360.43
360.912	334.67
361.294	346.42
361.676	342.58
362.057	346.19
362.439	348.45
362.821	338.51
363.203	329.02
363.584	335.57
363.966	348.68
364.348	314.55
364.729	350.03
365.111	317.04
365.493	311.39
365.874	342.12
366.256	328.34
366.637	313.65
367.019	331.28
367.4	345.29
367.781	333.31
368.163	330.15
368.544	310.94
368.925	326.76
369.306	335.34
369.688	331.05
370.069	326.3
370.45	312.29
370.831	314.1
371.212	314.33
371.593	340.99
371.974	319.07
372.355	320.43
372.736	325.63
373.117	350.49
373.498	332.86
373.879	349.58
374.26	335.8
374.641	338.28
375.021	349.13
375.402	342.35
375.783	341.67
376.163	371.95
376.544	353.42
376.925	348.68
377.305	351.62
377.686	346.19
378.066	355.23
378.447	344.16
378.827	350.94
379.208	360.65
379.588	363.82
379.968	357.94
380.349	351.84
380.729	370.15
381.109	371.73
381.489	368.34
381.87	366.08
382.25	382.12
382.63	353.42
383.01	363.59
383.39	377.15
383.77	382.8
384.15	370.6
384.53	368.79
384.91	369.69
385.29	389.13
385.67	385.74
386.049	400.2
386.429	389.13
386.809	386.87
387.189	382.35
387.568	406.98
387.948	395.46
388.328	413.53
388.707	406.3
389.087	406.53
389.466	405.4
389.846	423.48
390.225	416.47
390.605	431.39
390.984	421.9
391.363	420.77
391.743	449.47
392.122	440.43
392.501	446.08
392.881	435.68
393.26	465.28
393.639	435.45
394.018	446.53
394.397	464.61
394.776	450.37
395.155	461.44
395.534	443.82
395.913	454.66
396.292	458.96
396.671	459.86
397.05	460.99
397.429	492.18
397.808	459.86
398.186	480.2
398.565	475.68
398.944	460.09
399.323	493.53
399.701	463.25
400.08	485.17
400.458	495.11
400.837	507.77
401.215	499.86
401.594	494.66
401.972	519.75
402.351	507.77
402.729	538.73
403.107	529.01
403.486	531.72
403.864	506.87
404.242	552.29
404.62	541.44
404.999	529.24
405.377	559.75
405.755	572.17
406.133	524.49
406.511	549.58
406.889	560.88
407.267	563.13
407.645	578.5
408.023	572.63
408.401	602
408.779	594.77
409.156	576.69
409.534	601.1
409.912	595.9
410.29	620.08
410.667	592.96
411.045	623.7
411.422	627.77
411.8	632.96
412.178	615.56
412.555	617.82
412.933	628.67
413.31	635.45
413.687	634.09
414.065	671.83
414.442	667.99
414.819	672.96
415.197	678.61
415.574	691.49
415.951	668.22
416.328	689.46
416.705	706.63
417.082	679.52
417.46	707.09
417.837	709.8
418.214	725.84
418.591	729.68
418.967	737.37
419.344	743.02
419.721	722.9
420.098	732.17
420.475	743.7
420.852	758.61
421.228	754.32
421.605	790.7
421.982	785.28
422.358	772.85
422.735	780.3
423.111	791.15
423.488	835.9
423.864	796.12
424.241	816.69
424.617	801.09
424.994	816.69
425.37	839.96
425.746	839.96
426.123	803.35
426.499	827.99
426.875	845.39
427.251	874.31
427.627	882.9
428.003	868.89
428.379	901.66
428.756	900.75
429.132	890.58
429.507	906.4
429.883	924.93
430.259	948.89
430.635	937.59
431.011	954.31
431.387	982.33
431.763	968.1
432.138	985.5
432.514	990.24
432.89	1010.81
433.265	1026.4
433.641	1016
434.016	1029.34
434.392	1043.57
434.767	1044.48
435.143	1070.47
435.518	1073.18
435.894	1049.9
436.269	1078.15
436.644	1116.79
437.02	1107.75
437.395	1122.89
437.77	1133.97
438.145	1176
438.52	1154.08
438.895	1157.7
439.271	1171.25
439.646	1196.11
440.021	1193.63
440.395	1184.36
440.77	1175.1
441.145	1232.5
441.52	1236.11
441.895	1245.38
442.27	1239.05
442.645	1244.02
443.019	1267.98
443.394	1250.35
443.769	1295.77
444.143	1265.26
444.518	1302.78
444.892	1293.06
445.267	1274.75
445.641	1325.37
446.016	1314.08
446.39	1352.04
446.764	1344.36
447.139	1333.28
447.513	1343.23
447.887	1341.19
448.262	1384.81
448.636	1366.96
449.01	1379.84
449.384	1366.96
449.758	1367.63
450.132	1410.57
450.506	1400.63
450.88	1430.46
451.254	1433.85
451.628	1440.17
452.002	1439.95
452.376	1454.64
452.75	1484.47
453.123	1493.96
453.497	1496.22
453.871	1532.83
454.244	1524.47
454.618	1535.09
454.992	1565.37
455.365	1582.77
455.739	1585.03
456.112	1626.38
456.486	1627.29
456.859	1639.26
457.232	1672.26
457.606	1674.52
457.979	1667.29
458.352	1708.64
458.725	1770.33
459.099	1784.57
459.472	1843.55
459.845	1795.64
460.218	1836.55
460.591	1818.02
460.964	1841.52
461.337	1890.56
461.71	1896.21
462.083	1942.76
462.456	1920.39
462.829	1935.53
463.201	1990.67
463.574	1984.34
463.947	2034.28
464.32	2052.59
464.692	2063.21
465.065	2059.82
465.438	2131
465.81	2134.17
466.183	2180.04
466.555	2238.12
466.928	2232.47
467.3	2235.86
467.672	2274.28
468.045	2332.35
468.417	2338.23
468.789	2340.72
469.161	2398.57
469.534	2441.05
469.906	2490.54
470.278	2505.46
470.65	2537.55
471.022	2594.49
471.394	2644.66
471.766	2672.91
472.138	2646.7
472.51	2753.13
472.882	2803.53
473.253	2817.99
473.625	2893.02
473.997	2983.64
474.369	2962.85
474.74	3034.71
475.112	3056.18
475.484	3139.34
475.855	3200.58
476.227	3219.11
476.598	3330.97
476.97	3383.63
477.341	3500.91
477.713	3529.84
478.084	3499.1
478.455	3641.47
478.827	3622.49
479.198	3789.04
479.569	3782.26
479.94	3895.93
480.311	3965.53
480.682	4039.43
481.053	4159.2
481.424	4208.46
481.795	4234
482.166	4361.45
482.537	4417.95
482.908	4503.37
483.279	4597.83
483.65	4693.2
484.021	4779.75
484.391	4792.63
484.762	4847.54
485.133	4915.79
485.503	5020.42
485.874	5088.89
486.244	5132.05
486.615	5276.91
486.985	5309
487.356	5425.38
487.726	5442.55
488.097	5605.49
488.467	5620.18
488.837	5699.95
489.207	5737.69
489.578	5856.1
489.948	5950.56
490.318	6075.31
490.688	6033.73
491.058	6195.76
491.428	6240.5
491.798	6285.7
492.168	6418.8
492.538	6470.55
492.908	6553.03
493.278	6611.56
493.648	6631.45
494.017	6732.69
494.387	6786.25
494.757	6839.13
495.126	6902.18
495.496	6921.16
495.866	7005
496.235	7076.64
496.605	7148.05
496.974	7255.84
497.344	7308.72
497.713	7349.62
498.082	7409.06
498.452	7447.25
498.821	7537.64
499.19	7541.93
499.559	7615.6
499.928	7655.38
500.298	7706.45
500.667	7863.96
501.036	7802.27
501.405	7888.14
501.774	7914.58
502.143	8005.2
502.512	8032.77
502.88	8125.87
503.249	8111.19
503.618	8209.94
503.987	8291.52
504.356	8324.06
504.724	8367.9
505.093	8423.04
505.462	8481.57
505.83	8508.91
506.199	8619.65
506.567	8703.49
506.936	8749.36
507.304	8807.66
507.672	8831.84
508.041	8847.21
508.409	8979.86
508.777	9035.68
509.145	9180.08
509.514	9187.31
509.882	9316.13
510.25	9323.81
510.618	9414.2
510.986	9378.72
511.354	9536.01
511.722	9583.69
512.09	9697.81
512.458	9727.87
512.826	9733.97
513.193	9819.16
513.561	9936.9
513.929	10016.67
514.297	10123.34
514.664	10150.91
515.032	10241.3
515.4	10374.63
515.767	10446.49
516.135	10545.7
516.502	10465.47
516.869	10623.66
517.237	10595.41
517.604	10645.81
517.972	10842.19
518.339	10941.39
518.706	10976.19
519.073	11012.58
519.44	11233.14
519.808	11271.33
520.175	11252.35
520.542	11418.89
520.909	11535.5
521.276	11523.75
521.643	11594.71
522.009	11730.3
522.376	11821.37
522.743	11845.1
523.11	11994.92
523.477	12194.69
523.843	12280.11
524.21	12398.76
524.577	12549.49
524.943	12503.84
525.31	12634.91
525.676	12782.25
526.043	12761.23
526.409	12980.89
526.776	13062.02
527.142	13102.24
527.508	13122.35
527.874	13269.47
528.241	13435.11
528.607	13433.53
528.973	13542.68
529.339	13598.27
529.705	13761.66
530.071	13884.59
530.437	13959.84
530.803	13982.22
531.169	14145.6
531.535	14081.65
531.901	14119.39
532.267	14198.93
532.632	14299.04
532.998	14455.88
533.364	14516.21
533.73	14511.02
534.095	14653.61
534.461	14693.84
534.826	14835.08
535.192	14855.19
535.557	14892.02
535.923	14844.12
536.288	14938.8
536.653	15125.01
537.019	15164.33
537.384	15128.85
537.749	15218.79
538.114	15236.65
538.479	15352.12
538.845	15473.25
539.21	15429.18
539.575	15556.64
539.94	15534.94
540.305	15653.59
540.67	15780.59
541.034	15749.63
541.399	15808.61
541.764	15868.72
542.129	15912.79
542.494	15955.05
542.858	16013.8
543.223	15968.15
543.587	16135.61
543.952	16161.14
544.316	16222.16
544.681	16272.1
545.045	16336.73
545.41	16404.98
545.774	16452.89
546.138	16556.61
546.503	16640.23
546.867	16613.56
547.231	16842.25
547.595	16833.89
547.959	16908.47
548.324	16852.88
548.688	17034.11
549.052	17038.41
549.416	17144.62
549.779	17221.91
550.143	17205.64
550.507	17446.08
550.871	17451.96
551.235	17533.08
551.599	17621.22
551.962	17705.51
552.326	17745.73
552.689	17884.04
553.053	17847.2
553.417	17947.08
553.78	18241.99
554.143	18248.09
554.507	18399.05
554.87	18416.68
555.234	18598.14
555.597	18511.59
555.96	18746.61
556.323	18837.91
556.686	18767.63
557.05	19002.42
557.413	19100.95
557.776	19234.73
558.139	19399.93
558.502	19389.98
558.865	19618.23
559.228	19799.24
559.59	19929.86
559.953	20026.35
560.316	20200.58
560.679	20314.03
561.041	20428.83
561.404	20562.61
561.767	20725.99
562.129	20818.65
562.492	21102.93
562.854	21124.4
563.217	21194.46
563.579	21267.45
563.941	21516.03
564.304	21616.14
564.666	21879.64
565.028	21845.97
565.39	22010.03
565.753	22221.77
566.115	22403.01
566.477	22554.42
566.839	22742.89
567.201	22821.98
567.563	22924.58
567.925	23214.52
568.287	23252.93
568.648	23412.03
569.01	23626.48
569.372	23878
569.734	23882.75
570.095	24162.06
570.457	24224.89
570.819	24505.56
571.18	24562.05
571.542	24825.77
571.903	24893.79
572.265	25047.69
572.626	25220.57
572.987	25405.19
573.349	25592.53
573.71	25807.89
574.071	25900.77
574.432	25979.87
574.794	26256.24
575.155	26319.07
575.516	26381.44
575.877	26513.64
576.238	26680.41
576.599	26867.08
576.96	26933.51
577.32	27048.99
577.681	27222.32
578.042	27299.83
578.403	27462.77
578.763	27554.74
579.124	27646.94
579.485	27939.14
579.845	28066.82
580.206	28054.39
580.566	28220.71
580.927	28194.95
581.287	28228.85
581.648	28259.13
582.008	28532.57
582.368	28549.52
582.728	28646.24
583.089	28685.33
583.449	28867.48
583.809	28909.51
584.169	28911.77
584.529	29073.12
584.889	29321.02
585.249	29158.54
585.609	29178.65
585.969	29460.91
586.329	29302.72
586.688	29370.97
587.048	29438.53
587.408	29431.75
587.768	29405.99
588.127	29553.56
588.487	29588.59
588.846	29769.15
589.206	29524.86
589.565	29668.58
589.925	29877.39
590.284	29775.93
590.643	29818.41
591.003	29980.44
591.362	30072.42
591.721	29933.66
592.08	30070.83
592.44	30055.47
592.799	30135.69
593.158	30081.23
593.517	30119.42
593.876	30159.64
594.235	30166.65
594.593	30190.38
594.952	30250.49
595.311	30137.5
595.67	30195.35
596.029	30434.44
596.387	30455.46
596.746	30435.34
597.104	30398.28
597.463	30408.45
597.822	30519.86
598.18	30325.06
598.538	30437.6
598.897	30651.16
599.255	30465.85
599.613	30784.49
599.972	30580.65
600.33	30753.08
600.688	30587.88
601.046	30681.44
601.404	30809.57
601.762	30806.18
602.12	30990.13
602.478	30926.4
602.836	30942.68
603.194	30927.53
603.552	30944.93
603.91	30874.43
604.268	31018.83
604.625	30926.86
604.983	30982.45
605.341	30945.39
605.698	31009.11
606.056	30999.62
606.413	30977.25
606.771	31113.29
607.128	31143.12
607.485	31071.71
607.843	31047.98
608.2	31318.94
608.557	31442.1
608.914	31139.28
609.272	31433.96
609.629	31576.33
609.986	31474.64
610.343	31348.31
610.7	31576.78
611.057	31400.74
611.414	31588.99
611.771	31492.27
612.127	31658.59
612.484	31644.58
612.841	31668.08
613.198	31578.36
613.554	31641.41
613.911	31867.85
614.267	31841.86
614.624	31953.04
614.98	31893.84
615.337	32064.45
615.693	31882.54
616.05	32040.05
616.406	32218.35
616.762	32222.64
617.118	32032.14
617.475	32101.97
617.831	32219.48
618.187	32212.47
618.543	32284.56
618.899	32354.84
619.255	32288.4
619.611	32213.15
619.967	32271.23
620.323	32376.31
620.678	32361.39
621.034	32166.82
621.39	32309.42
621.746	32459.47
622.101	32629.86
622.457	32300.15
622.812	32412.69
623.168	32405.46
623.523	32552.58
623.879	32600.26
624.234	32419.92
624.589	32612.46
624.945	32489.98
625.3	32580.82
625.655	32639.35
626.01	32546.25
626.365	32566.59
626.72	32541.5
627.075	32429.64
627.43	32366.37
627.785	32460.83
628.14	32377.44
628.495	32459.92
628.85	32314.39
629.205	32194.62
629.559	32425.12
629.914	32287.05
630.269	32282.07
630.623	32218.35
630.978	32061.97
631.332	32265.8
631.687	32352.36
632.041	32210.44
632.396	32315.97
632.75	32156.65
633.104	32143.55
633.459	32099.03
633.813	32022.65
634.167	32099.48
634.521	32009.99
634.875	32041.4
635.229	31872.82
635.583	31900.62
635.937	31741.52
636.291	31763.44
636.645	31817.23
636.999	31670.57
637.352	31736.33
637.706	31583.34
638.06	31838.7
638.413	31720.73
638.767	31740.85
639.121	31794.18
639.474	31311.7
639.828	31501.98
640.181	31482.32
640.534	31471.47
640.888	31395.09
641.241	31268.99
641.594	31293.17
641.947	31436.45
642.301	31339.05
642.654	31317.58
643.007	31296.34
643.36	31287.07
643.713	31253.85
644.066	31354.87
644.419	31166.17
644.771	31013.63
645.124	30656.58
645.477	30701.1
645.83	30384.95
646.182	30271.73
646.535	30209.81
646.888	30353.09
647.24	30154.45
647.593	30363.93
647.945	30168.46
648.298	30173.2
648.65	30117.61
649.002	29994.45
649.355	30184.5
649.707	30132.07
650.059	30110.15
650.411	30508.34
650.763	30651.16
651.115	30867.65
651.467	30737.03
651.819	30784.71
652.171	30824.03
652.523	30702.46
652.875	30720.31
653.227	30610.93
653.578	30763.24
653.93	30746.3
654.282	30558.96
654.633	30443.03
654.985	30638.73
655.337	30679.63
655.688	30619.29
656.039	30648.67
656.391	30447.32
656.742	30755.56
657.094	30474.89
657.445	30633.98
657.796	30549.47
658.147	30640.99
658.498	30542.01
658.849	30581.55
659.2	30576.58
659.551	30447.55
659.902	30626.98
660.253	30524.38
660.604	30584.49
660.955	30437.15
661.306	30499.07
661.656	30481.44
662.007	30456.81
662.358	30485.06
662.708	30489.35
663.059	30446.87
663.409	30251.62
663.76	30520.99
664.11	30502.01
664.461	30561.44
664.811	30551.05
665.161	30488.45
665.511	30305.86
665.862	30392.86
666.212	30438.96
666.562	30538.17
666.912	30376.59
667.262	30357.38
667.612	30363.03
667.962	30330.49
668.312	30434.21
668.662	30516.92
669.011	30349.24
669.361	30303.6
669.711	30129.36
670.06	30250.26
670.41	30189.93
670.76	30215.46
671.109	30361.22
671.459	30290.04
671.808	30141.79
672.157	30158.29
672.507	30009.14
672.856	30124.17
673.205	30096.37
673.554	30196.03
673.904	30109.48
674.253	30258.4
674.602	30085.3
674.951	29614.12
675.3	29582.94
675.649	30004.85
675.998	29999.42
676.346	29892.53
676.695	29950.84
677.044	29801.01
677.393	29829.26
677.741	29875.13
678.09	29845.53
678.438	29854.57
678.787	29720.79
679.135	29689.15
679.484	29527.12
679.832	29591.3
680.181	29393.11
680.529	29510.85
680.877	29337.29
681.225	29280.57
681.573	29441.02
681.922	29272.89
682.27	29317.86
682.618	29395.15
682.966	29113.34
683.314	29201.25
683.661	29059.11
684.009	28946.8
684.357	28870.64
684.705	28936.4
685.053	28905.67
685.4	28898.21
685.748	28726.46
686.095	28687.82
686.443	28571.44
686.79	28625.45
687.138	28700.25
687.485	28556.07
687.832	28382.29
688.18	28440.59
688.527	28248.51
688.874	28194.72
689.221	28212.58
689.568	27983.88
689.915	27853.72
690.262	27917.9
690.609	27994.05
690.956	27832.7
691.303	27867.28
691.65	27608.75
691.997	27525.59
692.344	27492.14
692.69	27388.42
693.037	27464.35
693.383	27164.92
693.73	27162.44
694.077	27034.08
694.423	26979.16
694.769	26982.33
695.116	26786.4
695.462	26713.18
695.808	26642.9
696.155	26711.6
696.501	26427.99
696.847	26500.98
697.193	26322.91
697.539	26373.08
697.885	26184.83
698.231	26084.27
698.577	26038.17
698.923	26038.85
699.269	25922.92
699.614	25762.02
699.96	25730.16
700.306	25758.86
700.651	25659.88
700.997	25468.92
701.342	25408.81
701.688	25314.8
702.033	25162.04
702.379	25191.64
702.724	25007.01
703.069	25056.95
703.415	24924.3
703.76	24813.8
704.105	24729.05
704.45	24712.78
704.795	24692.9
705.14	24539
705.485	24500.58
705.83	24367.48
706.175	24415.39
706.52	24349.4
706.865	24215.62
707.209	24196.19
707.554	24126.13
707.899	24136.53
708.243	24068.73
708.588	23981.95
708.932	23853.82
709.277	23768.85
709.621	23747.38
709.966	23639.59
710.31	23695.41
710.654	23464.68
710.998	23542.42
711.342	23460.61
711.687	23448.41
712.031	23415.64
712.375	23277.57
712.719	23279.83
713.063	23269.88
713.407	23236.21
713.75	23198.47
714.094	23143.33
714.438	23079.38
714.782	22997.12
715.125	22935.2
715.469	22942.43
715.812	22814.53
716.156	22688.43
716.499	22837.8
716.843	22786.28
717.186	22626.51
717.53	22739.95
717.873	22758.26
718.216	22671.03
718.559	22605.72
718.902	22457.25
719.246	22537.02
719.589	22431.94
719.932	22316.46
720.275	22375.67
720.617	22386.29
720.96	22342.9
721.303	22279.4
721.646	22358.95
721.989	22151.95
722.331	22299.51
722.674	22213.64
723.016	22189.91
723.359	22305.16
723.701	22156.01
724.044	22084.83
724.386	21994.44
724.729	22126.64
725.071	22120.53
725.413	22139.29
725.755	21983.14
726.097	21988.79
726.439	21963.02
726.782	21972.74
727.124	22075.34
727.465	21907.66
727.807	21895.68
728.149	21863.14
728.491	21842.12
728.833	21856.36
729.175	21849.35
729.516	21778.4
729.858	21787.44
730.199	21922.57
730.541	21824.27
730.882	21825.85
731.224	21870.15
731.565	21758.51
731.906	21818.17
732.248	21798.51
732.589	21774.55
732.93	21781.56
733.271	21676.7
733.612	21723.26
733.953	21784.05
734.294	21610.49
734.635	21642.81
734.976	21676.7
735.317	21644.61
735.658	21551.06
735.999	21566.65
736.339	21610.49
736.68	21637.38
737.021	21599.19
737.361	21465.64
737.702	21680.55
738.042	21619.76
738.383	21544.5
738.723	21773.2
739.063	21553.32
739.404	21550.83
739.744	21547.89
740.084	21477.84
740.424	21555.35
740.764	21543.83
741.104	21645.97
741.444	21422.7
741.784	21479.2
742.124	21526.88
742.464	21530.72
742.804	21509.02
743.143	21506.99
743.483	21584.05
743.823	21461.12
744.162	21405.3
744.502	21546.76
744.841	21478.74
745.181	21606.65
745.52	21519.42
745.86	21532.53
746.199	21544.96
746.538	21590.15
746.877	21480.78
747.216	21452.98
747.556	21517.84
747.895	21568.01
748.234	21441.46
748.573	21494.34
748.911	21466.54
749.25	21460.44
749.589	21370.72
749.928	21449.59
750.267	21518.74
750.605	21398.07
750.944	21372.76
751.283	21333.89
751.621	21449.59
751.96	21229.26
752.298	21342.02
752.636	21377.5
752.975	21253.21
753.313	21126.44
753.651	21198.98
753.989	21085.99
754.327	21158.3
754.666	21081.47
755.004	21189.71
755.342	21198.75
755.679	21167.79
756.017	21036.95
756.355	21107.23
756.693	20993.56
757.031	21050.73
757.368	20810.74
757.706	20859.32
758.044	20748.37
758.381	20836.73
758.719	20636.05
759.056	20703.4
759.394	20829.27
759.731	20505.89
760.068	20616.39
760.405	20481.03
760.743	20445.32
761.08	20518.09
761.417	20402.39
761.754	20339.34
762.091	20326.91
762.428	20287.36
762.765	20151.77
763.102	20247.36
763.438	20160.13
763.775	20048.27
764.112	20077.2
764.449	19994.04
764.785	19887.6
765.122	19892.12
765.458	19817.54
765.795	19706.13
766.131	19726.25
766.467	19674.04
766.804	19645.12
767.14	19484.9
767.476	19511.79
767.812	19427.27
768.148	19445.12
768.485	19284.45
768.821	19220.05
769.157	19120.39
769.492	19114.74
769.828	19139.82
770.164	18919.49
770.5	18936.21
770.836	18974.85
771.171	18799.27
771.507	18751.58
771.842	18604.24
772.178	18618.71
772.513	18596.11
772.849	18545.03
773.184	18363.34
773.519	18466.62
773.855	18375.1
774.19	18302.1
774.525	18221.2
774.86	18173.29
775.195	18195.44
775.53	18089.68
775.865	17940.98
776.2	17852.17
776.535	17802
776.87	17733.3
777.205	17767.2
777.539	17585.51
777.874	17623.25
778.209	17506.19
778.543	17501.22
778.878	17397.95
779.212	17437.95
779.547	17300.77
779.881	17235.01
780.215	17140.55
780.55	17127.45
780.884	17025.07
781.218	17004.51
781.552	17025.53
781.886	16932.65
782.22	16798.64
782.554	16692.65
782.888	16572.88
783.222	16527.69
783.556	16505.31
783.889	16484.98
784.223	16338.09
784.557	16360.46
784.89	16336.51
785.224	16191.65
785.557	16233.68
785.891	16197.07
786.224	16140.13
786.558	16082.5
786.891	15906.01
787.224	15871.21
787.557	15841.15
787.891	15776.29
788.224	15766.8
788.557	15705.56
788.89	15673.25
789.223	15695.84
789.556	15578.79
789.888	15546.24
790.221	15436.64
790.554	15336.53
790.887	15326.14
791.219	15258.34
791.552	15124.11
791.884	15148.97
792.217	15068.97
792.549	15096.76
792.882	14946.49
793.214	14958.69
793.546	15045.69
793.879	14762.99
794.211	14768.19
794.543	14783.1
794.875	14728.86
795.207	14788.07
795.539	14589.66
795.871	14717.56
796.203	14502.43
796.535	14428.31
796.867	14434.86
797.198	14357.8
797.53	14352.6
797.862	14309.89
798.193	14280.06
798.525	14182.21
798.856	14180.63
799.188	14060.86
799.519	13979.51
799.85	13995.55
800.182	13993.06
800.513	13991.71
800.844	13892.28
801.175	13877.36
801.506	13897.02
801.837	13734.09
802.168	13766.4
802.499	13665.39
802.83	13571.38
803.161	13512.62
803.491	13594.88
803.822	13565.96
804.153	13459.52
804.483	13418.16
804.814	13287.32
805.145	13242.12
805.475	13290.71
805.805	13232.41
806.136	13280.31
806.466	13308.34
806.796	13186.98
807.126	13084.84
807.457	13061.11
807.787	13065.63
808.117	13106.53
808.447	12981.57
808.777	12974.11
809.107	12943.15
809.436	12928.01
809.766	12890.95
810.096	12794.9
810.426	12727.79
810.755	12761.91
811.085	12757.39
811.414	12759.88
811.744	12643.95
812.073	12663.61
812.403	12617.28
812.732	12490.73
813.061	12522.14
813.39	12451.64
813.719	12397.63
814.049	12498.64
814.378	12407.34
814.707	12322.15
815.036	12319.66
815.365	12309.94
815.693	12157.18
816.022	12279.89
816.351	12135.71
816.68	12087.8
817.008	12171.19
817.337	12041.03
817.665	12050.97
817.994	12067.47
818.322	12063.17
818.651	12019.78
818.979	11942.04
819.307	11974.36
819.636	11971.2
819.964	11855.27
820.292	11881.48
820.62	11910.18
820.948	11813.69
821.276	11926.23
821.604	11770.75
821.932	11877.87
822.259	11810.07
822.587	11834.7
822.915	11729.17
823.243	11862.95
823.57	11800.81
823.898	11741.15
824.225	11780.02
824.553	11764.65
824.88	11742.5
825.207	11834.25
825.535	11806.91
825.862	11845.78
826.189	11699.57
826.516	11772.78
826.843	11714.48
827.17	11826.34
827.497	11795.83
827.824	11802.39
828.151	11787.02
828.478	11690.3
828.805	11722.16
829.131	11707.02
829.458	11687.59
829.785	11628.15
830.111	11656.4
830.438	11745.89
830.764	11703.41
831.09	11718.55
831.417	11722.62
831.743	11766.23
832.069	11647.36
832.395	11699.34
832.722	11715.84
833.048	11543.19
833.374	11753.58
833.7	11643.97
834.026	11636.29
834.351	11689.17
834.677	11636.52
835.003	11603.3
835.329	11612.11
835.654	11553.58
835.98	11486.69
836.306	11542.06
836.631	11500.47
836.956	11615.27
837.282	11496.41
837.607	11485.56
837.932	11406.24
838.258	11404.88
838.583	11445.56
838.908	11436.3
839.233	11388.16
839.558	11468.61
839.883	11291.89
840.208	11262.06
840.533	11288.95
840.858	11264.1
841.182	11329.18
841.507	11282.85
841.832	11189.75
842.156	11181.39
842.481	11151.33
842.805	11151.78
843.13	11086.47
843.454	11121.73
843.778	11042.86
844.103	11037.89
844.427	11019.58
844.751	11096.42
845.075	10996.31
845.399	10951.11
845.723	10886.93
846.047	10866.14
846.371	10806.26
846.695	10813.49
847.019	10692.13
847.343	10719.48
847.666	10633.83
847.99	10546.6
848.313	10587.28
848.637	10495.98
848.96	10427.28
849.284	10447.85
849.607	10336.21
849.931	10347.51
850.254	10320.39
850.577	10228.87
850.9	10145.03
851.223	10137.12
851.546	10208.31
851.869	10128.08
852.192	10132.83
852.515	10102.32
852.838	10040.85
853.161	9958.37
853.483	9927.86
853.806	9921.53
854.129	9873.4
854.451	9867.07
854.774	9816.22
855.096	9766.73
855.419	9749.33
855.741	9740.52
856.063	9674.99
856.385	9620.52
856.708	9634.99
857.03	9611.03
857.352	9585.5
857.674	9530.13
857.996	9555.21
858.318	9460.98
858.64	9494.43
858.961	9446.07
859.283	9372.85
859.605	9319.97
859.926	9410.13
860.248	9321.55
860.57	9259.63
860.891	9264.15
861.212	9235.22
861.534	9239.52
861.855	9260.53
862.176	9186.41
862.498	9251.27
862.819	9178.95
863.14	9196.81
863.461	9129.92
863.782	9092.18
864.103	9074.1
864.424	9076.81
864.745	9070.71
865.065	9022.12
865.386	8970.6
865.707	8952.74
866.027	9089.46
866.348	9027.77
866.668	8995.23
866.989	8954.33
867.309	8899.64
867.63	8937.15
867.95	8837.95
868.27	8869.13
868.59	8827.32
868.91	8849.24
869.23	8875.01
869.55	8783.26
869.87	8794.78
870.19	8823.93
870.51	8745.52
870.83	8745.29
871.15	8745.07
871.469	8664.62
871.789	8777.61
872.109	8671.17
872.428	8570.38
872.748	8674.79
873.067	8652.64
873.386	8632.53
873.706	8666.65
874.025	8615.58
874.344	8626.2
874.663	8585.07
874.982	8529.48
875.301	8526.77
875.62	8548.69
875.939	8544.62
876.258	8581.23
876.577	8489.25
876.896	8503.27
877.214	8461.91
877.533	8539.42
877.852	8478.86
878.17	8515.92
878.489	8457.39
878.807	8424.62
879.125	8437.73
879.444	8364.06
879.762	8338.3
880.08	8347.11
880.398	8359.54
880.716	8328.13
881.034	8281.58
881.352	8308.24
881.67	8256.49
881.988	8210.39
882.306	8285.64
882.624	8162.94
882.941	8197.28
883.259	8166.55
883.577	8204.06
883.894	8157.51
884.212	8098.53
884.529	8096.72
884.846	8148.7
885.164	8005.65
885.481	8046.33
885.798	8092.2
886.115	7972.43
886.432	8094.24
886.75	7980.12
887.067	7950.06
887.383	7949.83
887.7	7960.91
888.017	7919.55
888.334	7918.42
888.651	7894.47
888.967	7856.05
889.284	7831.42
889.6	7793.45
889.917	7752.78
890.233	7759.78
890.55	7757.75
890.866	7707.58
891.182	7722.72
891.498	7671.2
891.815	7678.88
892.131	7664.87
892.447	7643.63
892.763	7578.32
893.079	7578.09
893.395	7515.95
893.71	7543.06
894.026	7516.62
894.342	7494.48
894.657	7382.39
894.973	7431.2
895.289	7385.55
895.604	7410.64
895.92	7362.96
896.235	7287.48
896.55	7337.65
896.865	7239.57
897.181	7261.72
897.496	7258.33
897.811	7225.33
898.126	7170.19
898.441	7135.17
898.756	7129.29
899.071	7134.49
899.386	7058.11
899.7	7052.91
900.015	7035.96
900.33	6974.27
900.644	6917.09
900.959	6997.09
901.273	6967.49
901.588	6842.29
901.902	6901.27
902.216	6847.04
902.531	6793.03
902.845	6838
903.159	6825.34
903.473	6786.25
903.787	6737.21
904.101	6732.24
904.415	6672.8
904.729	6665.57
905.042	6618.57
905.356	6667.83
905.67	6565.69
905.984	6552.36
906.297	6581.06
906.611	6511.68
906.924	6452.47
907.237	6457.67
907.551	6454.51
907.864	6459.7
908.177	6414.51
908.491	6384.45
908.804	6418.12
909.117	6364.11
909.43	6310.1
909.743	6235.08
910.056	6264.91
910.368	6267.62
910.681	6240.5
910.994	6203.44
911.307	6151.01
911.619	6101.07
911.932	6100.62
912.244	6080.5
912.557	6095.42
912.869	6011.58
913.181	6044.8
913.494	5984.01
913.806	5914.18
914.118	5940.85
914.43	5943.33
914.742	5884.35
915.054	5909.89
915.366	5872.6
915.678	5823.79
915.99	5779.27
916.302	5793.28
916.613	5772.72
916.925	5742.66
917.236	5746.95
917.548	5671.93
917.859	5708.54
918.171	5682.32
918.482	5612.49
918.794	5629.22
919.105	5587.41
919.416	5532.95
919.727	5505.6
920.038	5531.37
920.349	5427.19
920.66	5484.59
920.971	5453.18
921.282	5433.74
921.593	5400.3
921.903	5310.58
922.214	5367.98
922.525	5370.01
922.835	5320.3
923.146	5286.17
923.456	5235.78
923.767	5224.48
924.077	5201.21
924.387	5179.28
924.697	5188.55
925.008	5177.02
925.318	5144.26
925.628	5128.89
925.938	5098.38
926.248	5004.83
926.558	5034.43
926.867	5028.33
927.177	5020.64
927.487	4971.61
927.796	4945.17
928.106	4907.88
928.416	4938.16
928.725	4930.03
929.034	4911.5
929.344	4901.33
929.653	4851.38
929.962	4815
930.271	4786.53
930.581	4770.26
930.89	4768
931.199	4718.73
931.508	4756.47
931.817	4709.47
932.125	4710.37
932.434	4710.6
932.743	4643.25
933.051	4596.48
933.36	4615.68
933.669	4562.8
933.977	4554.67
934.286	4556.93
934.594	4549.7
934.902	4525.06
935.21	4477.83
935.519	4444.16
935.827	4427.21
936.135	4447.78
936.443	4401
936.751	4414.79
937.059	4383.83
937.367	4348.8
937.674	4366.2
937.982	4325.52
938.29	4321.23
938.597	4320.78
938.905	4223.15
939.213	4249.82
939.52	4226.77
939.827	4222.47
940.135	4175.47
940.442	4161.01
940.749	4140.44
941.056	4152.87
941.363	4096.83
941.67	4124.62
941.977	4095.92
942.284	4050.05
942.591	4077.62
942.898	4052.31
943.205	4042.37
943.511	4009.37
943.818	4014.34
944.125	3933.44
944.431	3953.33
944.738	3940.9
945.044	3964.4
945.35	3897.28
945.657	3889.6
945.963	3891.63
946.269	3886.66
946.575	3868.36
946.881	3814.12
947.187	3812.32
947.493	3786.55
947.799	3768.25
948.105	3793.11
948.41	3706.33
948.716	3739.32
949.022	3732.32
949.327	3705.43
949.633	3659.55
949.938	3648.03
950.244	3644.41
950.549	3654.35
950.854	3604.18
951.16	3602.38
951.465	3608.03
951.77	3572.32
952.075	3550.4
952.38	3539.33
952.685	3538.2
952.99	3515.37
953.294	3522.38
953.599	3417.75
953.904	3481.02
954.209	3430.63
954.513	3454.36
954.818	3415.49
955.122	3411.87
955.426	3387.24
955.731	3344.08
956.035	3375.04
956.339	3342.72
956.643	3387.92
956.948	3348.37
957.252	3340.01
957.556	3279.22
957.86	3317.19
958.163	3259.56
958.467	3211.2
958.771	3233.57
959.075	3214.14
959.378	3221.14
959.682	3207.13
959.985	3185.44
960.289	3185.44
960.592	3179.34
960.896	3184.76
961.199	3136.4
961.502	3150.41
961.805	3107.7
962.108	3095.95
962.411	3061.37
962.714	3063.41
963.017	3089.17
963.32	3074.93
963.623	3017.53
963.926	3012.56
964.228	2993.81
964.531	2991.77
964.833	3002.62
965.136	2953.13
965.438	2960.13
965.741	2943.64
966.043	2928.5
966.345	2890.31
966.648	2923.75
966.95	2907.25
967.252	2851.89
967.554	2867.71
967.856	2877.2
968.158	2837.2
968.46	2803.08
968.761	2806.24
969.063	2792.45
969.365	2813.25
969.666	2775.28
969.968	2731.89
970.269	2753.81
970.571	2733.02
970.872	2728.05
971.174	2743.64
971.475	2693.02
971.776	2711.55
972.077	2689.41
972.378	2688.73
972.679	2633.14
972.98	2659.8
973.281	2638.33
973.582	2634.27
973.883	2613.93
974.183	2624.32
974.484	2589.75
974.785	2559.92
975.085	2617.09
975.386	2592.69
975.686	2508.62
975.986	2551.78
976.287	2578
976.587	2513.14
976.887	2499.36
977.187	2503.42
977.487	2483.08
977.787	2467.27
978.087	2478.56
978.387	2460.03
978.687	2441.28
978.987	2441.5
979.286	2459.58
979.586	2383.2
979.885	2406.7
980.185	2378.23
980.484	2373.71
980.784	2369.42
981.083	2380.49
981.382	2331.68
981.682	2357.21
981.981	2333.03
982.28	2313.15
982.579	2325.35
982.878	2303.2
983.177	2314.73
983.475	2289.42
983.774	2285.8
984.073	2263.43
984.372	2261.85
984.67	2247.38
984.969	2265.46
985.267	2243.99
985.566	2222.53
985.864	2216.2
986.162	2242.19
986.461	2176.88
986.759	2214.84
987.057	2171.91
987.355	2139.59
987.653	2157.44
987.951	2145.69
988.249	2119.03
988.547	2143.88
988.844	2118.57
989.142	2069.54
989.44	2058.46
989.737	2081.29
990.035	2107.05
990.332	2105.24
990.63	2053.72
990.927	2055.3
991.224	2043.1
991.521	2002.65
991.819	2006.26
992.116	2011.46
992.413	1986.15
992.71	1998.8
993.006	1974.4
993.303	2014.62
993.6	1971.91
993.897	1991.35
994.193	1953.61
994.49	1919.71
994.787	1949.77
995.083	1905.25
995.379	1925.13
995.676	1922.2
995.972	1874.06
996.268	1895.53
996.565	1859.15
996.861	1851.24
997.157	1854.63
997.453	1850.78
997.749	1856.66
998.044	1831.12
998.34	1844.91
998.636	1830.22
998.932	1816.44
999.227	1802.88
999.523	1793.61
999.818	1793.61
1000.114	1781.63
1000.409	1754.97
1000.704	1733.5
1001	1753.61
1001.295	1739.83
1001.59	1728.53
1001.885	1739.83
1002.18	1708.64
1002.475	1693.73
1002.77	1677.23
1003.065	1678.59
1003.359	1664.12
1003.654	1642.43
1003.949	1656.44
1004.243	1677.46
1004.538	1663.44
1004.832	1634.52
1005.127	1608.98
1005.421	1585.48
1005.715	1597.91
1006.009	1589.77
1006.304	1579.61
1006.598	1573.05
1006.892	1563.79
1007.186	1557.23
1007.48	1559.94
1007.773	1555.2
1008.067	1520.62
1008.361	1528.08
1008.655	1529.66
1008.948	1526.05
1009.242	1494.64
1009.535	1521.75
1009.829	1482.43
1010.122	1487.63
1010.415	1479.95
1010.708	1464.81
1011.001	1467.97
1011.295	1432.26
1011.588	1467.07
1011.881	1449.44
1012.173	1401.76
1012.466	1411.02
1012.759	1401.76
1013.052	1395.43
1013.344	1368.54
1013.637	1385.26
1013.93	1375.09
1014.222	1383.68
1014.514	1351.14
1014.807	1372.61
1015.099	1345.94
1015.391	1321.76
1015.683	1348.42
1015.976	1337.35
1016.268	1336.45
1016.56	1294.42
1016.851	1287.64
1017.143	1310.01
1017.435	1270.91
1017.727	1265.04
1018.018	1273.85
1018.31	1267.52
1018.602	1253.29
1018.893	1236.34
1019.185	1251.93
1019.476	1220.52
1019.767	1222.33
1020.058	1215.77
1020.35	1187.53
1020.641	1181.42
1020.932	1205.83
1021.223	1187.3
1021.514	1187.3
1021.804	1181.2
1022.095	1155.21
1022.386	1157.24
1022.677	1128.09
1022.967	1166.06
1023.258	1159.96
1023.548	1124.02
1023.839	1112.05
1024.129	1123.35
1024.419	1091.71
1024.709	1104.59
1025	1084.03
1025.29	1112.95
1025.58	1083.35
1025.87	1091.03
1026.16	1053.29
1026.449	1041.99
1026.739	1060.07
1027.029	1079.28
1027.319	1024.82
1027.608	1054.87
1027.898	1018.04
1028.187	1041.31
1028.477	1018.94
1028.766	987.08
1029.055	1004.25
1029.344	997.7
1029.634	987.3
1029.923	999.96
1030.212	978.04
1030.501	962.9
1030.79	978.94
1031.078	960.86
1031.367	946.18
1031.656	947.98
1031.945	943.92
1032.233	954.54
1032.522	945.72
1032.81	936.91
1033.099	906.18
1033.387	929.68
1033.675	916.8
1033.963	892.17
1034.251	899.85
1034.54	898.49
1034.828	879.96
1035.116	912.96
1035.403	874.77
1035.691	890.13
1035.979	864.6
1036.267	878.61
1036.554	859.17
1036.842	868.89
1037.129	846.97
1037.417	864.37
1037.704	831.38
1037.992	835.22
1038.279	845.61
1038.566	835.22
1038.853	835.22
1039.14	835.22
