Data from tablewood_dark_bookshelf_FLMS001491_00059.txt Node
Date: Wed Feb 08 14:15:05 GMT 2017
User: dcchb
Spectrometer: FLMS00149
Trigger mode: 0
Integration Time (sec): 2.000000E-2
Scans to average: 10
Electric dark correction enabled: true
Nonlinearity correction enabled: false
Boxcar width: 0
XAxis mode: Wavelengths
Number of Pixels in Spectrum: 2048
>>>>>Begin Spectral Data<<<<<
341.393	-15.85
341.776	-15.85
342.16	-15.85
342.543	-56.75
342.927	-60.59
343.31	-52.23
343.693	-72.34
344.077	-63.3
344.46	-65.56
344.843	-38.9
345.226	-32.12
345.61	-19.24
345.993	-29.63
346.376	-8.39
346.759	3.81
347.142	27.54
347.525	39.97
347.908	55.56
348.291	47.88
348.674	99.63
349.057	107.31
349.44	119.06
349.823	138.05
350.206	137.37
350.588	190.25
350.971	205.84
351.354	190.93
351.737	229.8
352.119	227.08
352.502	248.55
352.884	284.03
353.267	262.11
353.65	270.25
354.032	270.47
354.414	302.11
354.797	296.69
355.179	275.67
355.562	317.03
355.944	332.62
356.326	322
356.709	328.55
357.091	319.06
357.473	329.68
357.855	310.7
358.238	320.87
358.62	328.78
359.002	335.56
359.384	334.88
359.766	319.29
360.148	331.94
360.53	315.9
360.912	348.66
361.294	324.93
361.676	328.78
362.057	332.17
362.439	304.6
362.821	316.12
363.203	308.89
363.584	330.13
363.966	287.42
364.348	313.41
364.729	300.75
365.111	306.63
365.493	305.5
365.874	321.77
366.256	304.82
366.637	325.84
367.019	297.37
367.4	307.31
367.781	306.86
368.163	302.34
368.544	314.54
368.925	307.31
369.306	307.31
369.688	307.08
370.069	312.05
370.45	317.48
370.831	319.51
371.212	330.81
371.593	320.64
371.974	313.86
372.355	313.86
372.736	307.76
373.117	329.91
373.498	310.7
373.879	303.47
374.26	303.01
374.641	308.21
375.021	321.77
375.402	313.64
375.783	320.19
376.163	328.1
376.544	339.4
376.925	319.06
377.305	338.49
377.686	324.48
378.066	338.27
378.447	334.2
378.827	296.24
379.208	331.49
379.588	340.98
379.968	328.55
380.349	347.31
380.729	326.06
381.109	338.27
381.489	345.05
381.87	338.49
382.25	349.57
382.63	330.13
383.01	340.08
383.39	361.32
383.77	357.25
384.15	369.45
384.53	358.38
384.91	354.76
385.29	365.39
385.67	369.23
386.049	386.85
386.429	373.52
386.809	374.43
387.189	378.04
387.568	359.74
387.948	385.05
388.328	392.5
388.707	376.01
389.087	377.36
389.466	388.89
389.846	397.7
390.225	383.01
390.605	378.72
390.984	396.35
391.363	395.67
391.743	399.96
392.122	410.36
392.501	405.38
392.881	408.77
393.26	397.02
393.639	388.66
394.018	417.14
394.397	425.72
394.776	413.97
395.155	417.36
395.534	431.37
395.913	436.8
396.292	418.27
396.671	418.04
397.05	432.05
397.429	431.15
397.808	448.32
398.186	422.56
398.565	427.31
398.944	439.51
399.323	426.18
399.701	440.19
400.08	437.93
400.458	448.32
400.837	438.6
401.215	445.38
401.594	455.78
401.972	440.19
402.351	436.8
402.729	438.6
403.107	479.06
403.486	451.71
403.864	486.51
404.242	492.39
404.62	486.74
404.999	466.17
405.377	496
405.755	482.44
406.133	494.87
406.511	484.93
406.889	480.19
407.267	518.15
407.645	485.83
408.023	509.56
408.401	508.21
408.779	503.91
409.156	497.81
409.534	521.77
409.912	526.74
410.29	538.94
410.667	546.4
411.045	542.33
411.422	547.3
411.8	530.58
412.178	535.1
412.555	555.66
412.933	568.77
413.31	561.31
413.687	564.93
414.065	567.41
414.442	580.07
414.819	596.79
415.197	601.54
415.574	599.5
415.951	597.47
416.328	614.19
416.705	600.63
417.082	606.06
417.46	599.28
417.837	633.18
418.214	619.39
418.591	623.68
418.967	623.91
419.344	632.5
419.721	646.51
420.098	640.86
420.475	650.35
420.852	643.8
421.228	669.11
421.605	685.6
421.982	686.28
422.358	661.65
422.735	684.47
423.111	673.63
423.488	703.91
423.864	706.85
424.241	715.66
424.617	705.94
424.994	717.47
425.37	712.72
425.746	741.2
426.123	728.09
426.499	737.35
426.875	752.04
427.251	755.88
427.627	758.82
428.003	764.02
428.379	771.25
428.756	774.87
429.132	775.54
429.507	773.96
429.883	815.77
430.259	819.84
430.635	808.76
431.011	820.52
431.387	821.65
431.763	835.43
432.138	877.91
432.514	850.12
432.89	858.48
433.265	853.51
433.641	886.05
434.016	888.99
434.392	920.85
434.767	927.63
435.143	917.01
435.518	907.74
435.894	937.57
436.269	957.01
436.644	956.33
437.02	948.87
437.395	906.84
437.77	974.41
438.145	1005.82
438.52	999.27
438.895	993.84
439.271	999.95
439.646	1024.13
440.021	1013.73
440.395	1022.77
440.77	1019.61
441.145	1019.61
441.52	1034.97
441.895	1038.81
442.27	1025.26
442.645	1062.99
443.019	1074.29
443.394	1074.29
443.769	1090.11
444.143	1086.5
444.518	1079.49
444.892	1106.16
445.267	1106.38
445.641	1114.07
446.016	1136.67
446.39	1130.79
446.764	1144.12
447.139	1135.31
447.513	1119.94
447.887	1138.47
448.262	1183.67
448.636	1145.03
449.01	1186.83
449.384	1199.04
449.758	1165.14
450.132	1196.55
450.506	1208.75
450.88	1227.96
451.254	1241.75
451.628	1225.93
452.002	1250.11
452.376	1251.46
452.75	1267.96
453.123	1286.94
453.497	1293.5
453.871	1273.38
454.244	1330.33
454.618	1315.19
454.992	1362.87
455.365	1368.98
455.739	1383.89
456.112	1394.96
456.486	1423.66
456.859	1416.21
457.232	1423.21
457.606	1421.86
457.979	1444.23
458.352	1507.5
458.725	1493.94
459.099	1497.33
459.472	1554.73
459.845	1542.08
460.218	1570.55
460.591	1562.64
460.964	1609.87
461.337	1628.63
461.71	1635.63
462.083	1681.74
462.456	1653.26
462.829	1658.69
463.201	1704.33
463.574	1714.5
463.947	1715.18
464.32	1769.42
464.692	1784.33
465.065	1780.94
465.438	1827.04
465.81	1815.97
466.183	1869.3
466.555	1885.8
466.928	1846.93
467.3	1873.59
467.672	1956.76
468.045	1986.13
468.417	1975.96
468.789	1984.78
469.161	2046.02
469.534	2036.3
469.906	2094.61
470.278	2086.7
470.65	2149.29
471.022	2164.89
471.394	2200.59
471.766	2196.75
472.138	2231.78
472.51	2267.93
472.882	2318.78
473.253	2299.8
473.625	2355.84
473.997	2408.04
474.369	2420.02
474.74	2452.34
475.112	2455.27
475.484	2547.93
475.855	2593.35
476.227	2581.6
476.598	2659.11
476.97	2693.69
477.341	2705.66
477.713	2756.28
478.084	2784.53
478.455	2821.59
478.827	2841.48
479.198	2975.94
479.569	2972.55
479.94	3035.37
480.311	3075.15
480.682	3153.79
481.053	3205.31
481.424	3221.36
481.795	3252.09
482.166	3316.27
482.537	3407.34
482.908	3434.68
483.279	3434.68
483.65	3518.52
484.021	3590.39
484.391	3628.58
484.762	3612.98
485.133	3695.24
485.503	3731.63
485.874	3768.46
486.244	3815.92
486.615	3902.47
486.985	3978.4
487.356	4060.2
487.726	4020.21
488.097	4140.88
488.467	4141.56
488.837	4223.14
489.207	4276.92
489.578	4330.93
489.948	4393.75
490.318	4415
490.688	4440.31
491.058	4527.76
491.428	4569.8
491.798	4615.9
492.168	4692.5
492.538	4702.67
492.908	4774.99
493.278	4850.92
493.648	4822.9
494.017	4888.43
494.387	4907.87
494.757	4977.47
495.126	5011.14
495.496	5059.95
495.866	5088.43
496.235	5131.81
496.605	5186.28
496.974	5187.63
497.344	5248.2
497.713	5285.26
498.082	5351.92
498.452	5409.77
498.821	5484.12
499.19	5446.83
499.559	5486.61
499.928	5548.53
500.298	5601.86
500.667	5613.38
501.036	5615.64
501.405	5685.47
501.774	5706.49
502.143	5705.13
502.512	5794.17
502.88	5838.01
503.249	5859.93
503.618	5902.42
503.987	5979.7
504.356	6017.44
504.724	6066.03
505.093	6073.26
505.462	6086.82
505.83	6082.52
506.199	6171.33
506.567	6202.07
506.936	6248.4
507.304	6308.51
507.672	6315.29
508.041	6366.58
508.409	6429.63
508.777	6486.81
509.145	6528.39
509.514	6501.95
509.882	6569.29
510.25	6621.72
510.618	6651.32
510.986	6654.26
511.354	6749.85
511.722	6823.07
512.09	6889.06
512.458	6896.74
512.826	6884.76
513.193	7019.45
513.561	6996.17
513.929	7043.18
514.297	7125.21
514.664	7145.55
515.032	7220.57
515.4	7301.25
515.767	7326.56
516.135	7390.74
516.502	7314.13
516.869	7575.59
517.237	7519.32
517.604	7483.62
517.972	7605.42
518.339	7681.8
518.706	7705.76
519.073	7784.63
519.44	7803.83
519.808	7902.59
520.175	7872.53
520.542	8004.73
520.909	8117.05
521.276	8091.28
521.643	8166.54
522.009	8208.34
522.376	8235.24
522.743	8330.37
523.11	8447.43
523.477	8486.3
523.843	8483.14
524.21	8602.91
524.577	8750.7
524.943	8711.61
525.31	8738.5
525.676	8916.35
526.043	8888.78
526.409	8944.6
526.776	9039.96
527.142	9129
527.508	9132.84
527.874	9209.9
528.241	9273.63
528.607	9304.81
528.973	9456.22
529.339	9344.81
529.705	9479.04
530.071	9584.35
530.437	9515.88
530.803	9655.09
531.169	9761.07
531.535	9724.24
531.901	9845.14
532.267	9756.55
532.632	9957.68
532.998	9897.79
533.364	10005.58
533.73	10032.48
534.095	10101.4
534.461	10186.37
534.826	10211.45
535.192	10311.34
535.557	10305.92
535.923	10310.21
536.288	10342.75
536.653	10383.2
537.019	10399.7
537.384	10490.32
537.749	10495.74
538.114	10483.54
538.479	10606.47
538.845	10632.69
539.21	10693.93
539.575	10654.15
539.94	10721.72
540.305	10846.69
540.67	10799.46
541.034	10806.24
541.399	10897.76
541.764	10948.61
542.129	11000.13
542.494	11066.8
542.858	11117.87
543.223	11048.04
543.587	11143.41
543.952	11187.25
544.316	11164.65
544.681	11250.3
545.045	11225.44
545.41	11347.7
545.774	11384.08
546.138	11343.18
546.503	11463.17
546.867	11451.87
547.231	11539.33
547.595	11536.17
547.959	11650.74
548.324	11585.66
548.688	11646.9
549.052	11731.64
549.416	11820.23
549.779	11785.42
550.143	11793.11
550.507	11856.84
550.871	11873.78
551.235	11911.52
551.599	12061.8
551.962	12078.98
552.326	12128.92
552.689	12224.51
553.053	12127.79
553.417	12238.29
553.78	12381.57
554.143	12274.68
554.507	12396.71
554.87	12402.81
555.234	12575.91
555.597	12489.36
555.96	12575.01
556.323	12662.92
556.686	12654.55
557.05	12827.66
557.413	12816.36
557.776	12882.12
558.139	12902.68
558.502	12935.68
558.865	12976.13
559.228	13100.64
559.59	13143.81
559.953	13219.96
560.316	13308.1
560.679	13296.8
561.041	13441.43
561.404	13480.75
561.767	13650.46
562.129	13608.2
562.492	13731.36
562.854	13756.45
563.217	13713.28
563.579	13873.51
563.941	13906.95
564.304	14050.9
564.666	14086.16
565.028	13995.54
565.39	14172.48
565.753	14280.5
566.115	14298.8
566.477	14444.34
566.839	14465.58
567.201	14528.4
567.563	14621.28
567.925	14642.98
568.287	14666.7
568.648	14814.27
569.01	14766.14
569.372	14967.71
569.734	14968.39
570.095	15041.38
570.457	15157.31
570.819	15294.71
571.18	15187.14
571.542	15344.88
571.903	15364.09
572.265	15441.37
572.626	15508.04
572.987	15559.34
573.349	15555.72
573.71	15680.92
574.071	15671.42
574.432	15696.06
574.794	16000.68
575.155	15996.39
575.516	15988.93
575.877	16090.17
576.238	16128.81
576.599	16171.3
576.96	16231.18
577.32	16182.15
577.681	16364.29
578.042	16414
578.403	16438.64
578.763	16464.62
579.124	16614.9
579.485	16588.46
579.845	16644.28
580.206	16751.85
580.566	16722.24
580.927	16841.56
581.287	16757.95
581.648	16887.89
582.008	16921.11
582.368	16935.8
582.728	16998.62
583.089	17006.98
583.449	16997.49
583.809	17091.95
584.169	17082.46
584.529	17154.55
584.889	17287.2
585.249	17180.54
585.609	17166.07
585.969	17364.26
586.329	17319.06
586.688	17374.88
587.048	17407.2
587.408	17363.81
587.768	17337.59
588.127	17444.03
588.487	17457.14
588.846	17564.93
589.206	17511.6
589.565	17567.65
589.925	17696.68
590.284	17636.34
590.643	17658.26
591.003	17771.71
591.362	17783.68
591.721	17773.29
592.08	17876.56
592.44	17805.38
592.799	17903.23
593.158	17872.04
593.517	17932.38
593.876	17992.94
594.235	17981.19
594.593	17941.19
594.952	18095.77
595.311	17977.8
595.67	18099.16
596.029	18280.85
596.387	18233.84
596.746	18280.17
597.104	18122.66
597.463	18180.51
597.822	18326.04
598.18	18230.9
598.538	18272.71
598.897	18403.1
599.255	18206.5
599.613	18581.4
599.972	18474.97
600.33	18615.98
600.688	18507.73
601.046	18638.13
601.404	18592.03
601.762	18745.92
602.12	18724.68
602.478	18805.58
602.836	18845.35
603.194	18706.6
603.552	18773.04
603.91	18777.56
604.268	18837.67
604.625	18745.47
604.983	18999.25
605.341	18835.18
605.698	18930.77
606.056	18993.14
606.413	18982.98
606.771	19067.27
607.128	19150.65
607.485	18939.59
607.843	19127.6
608.2	19187.72
608.557	19269.97
608.914	19235.62
609.272	19271.78
609.629	19282.18
609.986	19446.92
610.343	19295.06
610.7	19509.52
611.057	19473.36
611.414	19449.86
611.771	19468.84
612.127	19594.48
612.484	19498.67
612.841	19569.4
613.198	19568.95
613.554	19680.36
613.911	19701.83
614.267	19707.48
614.624	19708.83
614.98	19686.91
615.337	19866.12
615.693	19864.53
616.05	19825.89
616.406	19900.92
616.762	19752.67
617.118	19810.07
617.475	19871.99
617.831	20001.03
618.187	19913.35
618.543	19922.16
618.899	20082.83
619.255	19959.9
619.611	19928.94
619.967	20116.5
620.323	19999.45
620.678	20100.46
621.034	20052.55
621.39	20102.49
621.746	20008.03
622.101	20341.36
622.457	20119.67
622.812	20123.74
623.168	20210.06
623.523	20202.15
623.879	20285.77
624.234	20155.37
624.589	20224.75
624.945	20303.17
625.3	20263.39
625.655	20251.87
626.01	20206.67
626.365	20231.76
626.72	20186.11
627.075	20159.44
627.43	20194.24
627.785	20182.72
628.14	20109.5
628.495	20177.75
628.85	20122.61
629.205	20222.26
629.559	20145.2
629.914	20157.18
630.269	20209.61
630.623	20177.07
630.978	20075.6
631.332	20202.6
631.687	20217.97
632.041	20130.52
632.396	20156.28
632.75	20051.65
633.104	20055.94
633.459	19998.54
633.813	19996.96
634.167	19991.31
634.521	19956.28
634.875	19996.96
635.229	20051.87
635.583	19969.84
635.937	19973.46
636.291	19888.94
636.645	19909.05
636.999	19839.68
637.352	19796.51
637.706	19783.18
638.06	19846.23
638.413	19758.32
638.767	19808.49
639.121	19726.23
639.474	19665.67
639.828	19694.6
640.181	19733.46
640.534	19718.78
640.888	19666.8
641.241	19607.14
641.594	19522.62
641.947	19691.66
642.301	19585.67
642.654	19663.18
643.007	19598.1
643.36	19647.36
643.713	19487.37
644.066	19621.38
644.419	19508.84
644.771	19423.64
645.124	19185.68
645.477	19240.37
645.83	19009.87
646.182	18944.78
646.535	18879.93
646.888	18937.55
647.24	18771.91
647.593	18879.02
647.945	18816.2
648.298	18828.63
648.65	18851.68
649.002	18675.86
649.355	18861.4
649.707	18693.72
650.059	18982.3
650.411	19135.29
650.763	19214.38
651.115	19268.84
651.467	19255.06
651.819	19220.94
652.171	19145.46
652.523	19179.13
652.875	19094.16
653.227	19159.24
653.578	19192.46
653.93	19115.4
654.282	19070.43
654.633	19050.77
654.985	19003.99
655.337	19076.98
655.688	19083.54
656.039	19123.31
656.391	19056.87
656.742	19170.32
657.094	19143.65
657.445	19160.37
657.796	19051.67
658.147	19068.4
658.498	18988.85
658.849	19025.01
659.2	19101.39
659.551	18980.49
659.902	19053.93
660.253	19022.3
660.604	19047.83
660.955	18993.14
661.306	19117.44
661.656	19029.53
662.007	19034.27
662.358	19068.62
662.708	18954.73
663.059	19025.23
663.409	18928.97
663.76	19084.22
664.11	19019.36
664.461	19059.36
664.811	19006.03
665.161	19038.12
665.511	18910.89
665.862	19093.03
666.212	19116.53
666.562	19066.59
666.912	18923.32
667.262	18994.05
667.612	19068.4
667.962	19013.26
668.312	18983.88
668.662	19087.61
669.011	19029.3
669.361	18962.86
669.711	19029.08
670.06	18971.22
670.41	19001.73
670.76	19004.22
671.109	19019.13
671.459	18958.8
671.808	18985.69
672.157	18958.34
672.507	18872.24
672.856	18894.62
673.205	18955.18
673.554	18858.46
673.904	18872.92
674.253	19047.83
674.602	18883.77
674.951	18617.79
675.3	18521.52
675.649	18766.94
675.998	18835.86
676.346	18864.33
676.695	18944.33
677.044	18692.59
677.393	18822.3
677.741	18950.21
678.09	18876.31
678.438	18831.57
678.787	18788.63
679.135	18712.25
679.484	18695.98
679.832	18814.17
680.181	18613.49
680.529	18698.92
680.877	18679.71
681.225	18604.45
681.573	18714.51
681.922	18597.45
682.27	18529.2
682.618	18563.78
682.966	18608.07
683.314	18574.17
683.661	18506.38
684.009	18475.19
684.357	18443.55
684.705	18380.05
685.053	18380.05
685.4	18423.89
685.748	18295.76
686.095	18279.49
686.443	18307.06
686.79	18191.13
687.138	18300.96
687.485	18183.22
687.832	18108.2
688.18	18138.48
688.527	18016.9
688.874	18050.12
689.221	18034.98
689.568	18002.66
689.915	17911.59
690.262	17969.44
690.609	17916.11
690.956	17792.27
691.303	17852.16
691.65	17736.45
691.997	17692.61
692.344	17631.82
692.69	17607.42
693.037	17579.85
693.383	17439.74
693.73	17565.39
694.077	17450.59
694.423	17333.08
694.769	17388.22
695.116	17399.74
695.462	17321.32
695.808	17286.52
696.155	17172.85
696.501	17162.68
696.847	17168.79
697.193	16977.83
697.539	17196.13
697.885	17033.65
698.231	17009.47
698.577	16955.46
698.923	16924.05
699.269	16829.59
699.614	16752.3
699.96	16784.84
700.306	16743.71
700.651	16631.62
700.997	16586.2
701.342	16504.4
701.688	16490.39
702.033	16489.03
702.379	16560.44
702.724	16485.64
703.069	16542.81
703.415	16317.73
703.76	16340.33
704.105	16367.9
704.45	16315.7
704.795	16193.67
705.14	16115.25
705.485	16150.96
705.83	16054.24
706.175	16139.89
706.52	16047.23
706.865	15996.84
707.209	15948.7
707.554	15871.64
707.899	15966.11
708.243	15913.68
708.588	15797.3
708.932	15685.21
709.277	15713.23
709.621	15773.57
709.966	15581.03
710.31	15646.79
710.654	15527.7
710.998	15605.89
711.342	15552.78
711.687	15510.07
712.031	15458.77
712.375	15408.61
712.719	15458.1
713.063	15454.71
713.407	15475.05
713.75	15349.85
714.094	15343.52
714.438	15296.74
714.782	15360.47
715.125	15233.24
715.469	15222.62
715.812	15209.74
716.156	15240.93
716.499	15087.71
716.843	15094.04
717.186	15025.79
717.53	15070.99
717.873	15135.39
718.216	15136.75
718.559	14988.05
718.902	14910.31
719.246	14910.31
719.589	15005.45
719.932	14873.25
720.275	14920.26
720.617	14825.8
720.96	14877.77
721.303	14888.85
721.646	14814.05
721.989	14878.9
722.331	14905.57
722.674	14851.11
723.016	14880.03
723.359	14728.4
723.701	14830.77
724.044	14806.14
724.386	14708.29
724.729	14779.24
725.071	14655.41
725.413	14654.73
725.755	14699.92
726.097	14654.28
726.439	14613.82
726.782	14548.29
727.124	14690.88
727.465	14565.01
727.807	14575.86
728.149	14456.77
728.491	14549.65
728.833	14555.75
729.175	14528.86
729.516	14494.73
729.858	14448.41
730.199	14429.87
730.541	14416.09
730.882	14418.58
731.224	14471.91
731.565	14436.88
731.906	14391.23
732.248	14414.96
732.589	14271.01
732.93	14290.44
733.271	14339.71
733.612	14371.35
733.953	14195.53
734.294	14217.68
734.635	14256.32
734.976	14315.53
735.317	14221.97
735.658	14239.6
735.999	14273.04
736.339	14265.59
736.68	14250.67
737.021	14220.39
737.361	14158.47
737.702	14389.65
738.042	14286.6
738.383	14157.34
738.723	14268.07
739.063	14162.76
739.404	14182.88
739.744	14229.2
740.084	14232.82
740.424	14164.57
740.764	14121.41
741.104	14140.16
741.444	14185.81
741.784	14049.77
742.124	14095.19
742.464	13975.88
742.804	14048.64
743.143	14017.23
743.483	13941.3
743.823	14002.09
744.162	13955.54
744.502	14083.44
744.841	13892.94
745.181	13949.21
745.52	13978.59
745.86	13996.67
746.199	14005.48
746.538	14004.58
746.877	14043.22
747.216	13984.69
747.556	13965.71
747.895	13904.46
748.234	13879.15
748.573	13908.31
748.911	13873.96
749.25	13947.4
749.589	13799.16
749.928	13908.08
750.267	13894.52
750.605	13856.1
750.944	13880.06
751.283	13842.77
751.621	13857.46
751.96	13808.65
752.298	13767.52
752.636	13762.32
752.975	13705.37
753.313	13669.89
753.651	13828.99
753.989	13680.74
754.327	13661.99
754.666	13467.64
755.004	13667.86
755.342	13618.14
755.679	13616.56
756.017	13569.78
756.355	13588.99
756.693	13494.76
757.031	13419.51
757.368	13436.23
757.706	13458.6
758.044	13359.17
758.381	13413.86
758.719	13386.96
759.056	13375.44
759.394	13248.89
759.731	13217.93
760.068	13226.97
760.405	13178.16
760.743	13126.41
761.08	13081.44
761.417	13147.87
761.754	13073.75
762.091	13015.45
762.428	12992.85
762.765	12946.98
763.102	12953.53
763.438	12855.68
763.775	12849.58
764.112	12833.31
764.449	12821.56
764.785	12738.17
765.122	12655.91
765.458	12657.04
765.795	12629.47
766.131	12532.3
766.467	12572.3
766.804	12462.02
767.14	12455.24
767.476	12414.33
767.812	12413.88
768.148	12387.67
768.485	12352.64
768.821	12261.34
769.157	12244.4
769.492	12162.82
769.828	12161.01
770.164	12112.42
770.5	12089.15
770.836	12109.71
771.171	11923.5
771.507	11921.01
771.842	11804.63
772.178	11820.45
772.513	11844.86
772.849	11824.29
773.184	11756.27
773.519	11751.3
773.855	11650.51
774.19	11602.6
774.525	11575.49
774.86	11565.54
775.195	11537.07
775.53	11430.41
775.865	11424.53
776.2	11353.57
776.535	11248.94
776.87	11313.57
777.205	11211.88
777.539	11128.72
777.874	11153.12
778.209	11033.58
778.543	11041.49
778.878	10921.72
779.212	10935.28
779.547	10930.76
779.881	10906.13
780.215	10911.55
780.55	10889.18
780.884	10789.29
781.218	10778.67
781.552	10774.38
781.886	10665
782.22	10616.64
782.554	10605.79
782.888	10445.35
783.222	10354.95
783.556	10427.72
783.889	10420.71
784.223	10297.33
784.557	10357.44
784.89	10318.34
785.224	10325.58
785.557	10142.76
785.891	10109.08
786.224	10127.62
786.558	10145.47
786.891	10076.54
787.224	10045.13
787.557	9983.66
787.891	9993.83
788.224	9994.51
788.557	9929.65
788.89	9918.81
789.223	9852.82
789.556	9803.33
789.888	9812.14
790.221	9712.71
790.554	9645.82
790.887	9684.69
791.219	9660.06
791.552	9614.86
791.884	9573.28
792.217	9520.4
792.549	9500.51
792.882	9504.81
793.214	9469.1
793.546	9502.09
793.879	9373.28
794.211	9342.55
794.543	9324.25
794.875	9279.73
795.207	9206.51
795.539	9226.85
795.871	9190.92
796.203	9148.66
796.535	9175.1
796.867	9169.22
797.198	9071.82
797.53	9009
797.862	9008.32
798.193	9022.11
798.525	8865.05
798.856	8938.72
799.188	8775.56
799.519	8782.57
799.85	8735.11
800.182	8763.81
800.513	8797.71
800.844	8724.04
801.175	8725.62
801.506	8719.29
801.837	8655.79
802.168	8683.59
802.499	8609.01
802.83	8570.37
803.161	8495.34
803.491	8551.61
803.822	8583.47
804.153	8444.5
804.483	8370.37
804.814	8371.05
805.145	8383.93
805.475	8363.14
805.805	8296.48
806.136	8350.49
806.466	8333.09
806.796	8349.81
807.126	8240.43
807.457	8221.22
807.787	8176.25
808.117	8138.74
808.447	8158.63
808.777	8164.5
809.107	8152.53
809.436	8101.45
809.766	8089.7
810.096	8133.09
810.426	8079.99
810.755	8061.68
811.085	8022.36
811.414	8007.22
811.744	7953.21
812.073	7945.98
812.403	7889.48
812.732	7873.66
813.061	7890.84
813.39	7811.29
813.719	7769.03
814.049	7848.8
814.378	7777.17
814.707	7771.74
815.036	7731.29
815.365	7682.93
815.693	7656.49
816.022	7644.97
816.351	7591.41
816.68	7525.88
817.008	7578.76
817.337	7578.53
817.665	7439.55
817.994	7531.07
818.322	7545.99
818.651	7486.33
818.979	7433
819.307	7527.91
819.636	7394.35
819.964	7503.96
820.292	7490.85
820.62	7376.05
820.948	7409.27
821.276	7414.01
821.604	7384.86
821.932	7400.91
822.259	7425.77
822.587	7342.38
822.915	7385.09
823.243	7410.4
823.57	7358.2
823.898	7395.48
824.225	7341.02
824.553	7305.32
824.88	7385.99
825.207	7399.33
825.535	7320.01
825.862	7361.36
826.189	7380.57
826.516	7371.08
826.843	7299.44
827.17	7380.12
827.497	7325.88
827.824	7332.43
828.151	7383.96
828.478	7329.95
828.805	7370.4
829.131	7339.67
829.458	7347.12
829.785	7347.12
830.111	7301.02
830.438	7356.16
830.764	7290.18
831.09	7361.59
831.417	7319.78
831.743	7345.77
832.069	7309.16
832.395	7301.93
832.722	7301.25
833.048	7237.97
833.374	7243.4
833.7	7245.88
834.026	7251.31
834.351	7228.71
834.677	7165.89
835.003	7260.35
835.329	7209.05
835.654	7185.32
835.98	7178.99
836.306	7183.51
836.631	7155.49
836.956	7159.33
837.282	7189.16
837.607	7152.33
837.932	7091.31
838.258	7101.71
838.583	7064.87
838.908	7025.32
839.233	7103.97
839.558	7039.56
839.883	6997.08
840.208	6992.56
840.533	7029.17
840.858	7023.29
841.182	6996.62
841.507	7032.33
841.832	6965.66
842.156	6956.17
842.481	6976.29
842.805	6949.85
843.13	6939.45
843.454	6916.63
843.778	6817.42
844.103	6865.55
844.427	6841.6
844.751	6859.9
845.075	6883.63
845.399	6820.81
845.723	6773.8
846.047	6756.4
846.371	6720.7
846.695	6736.52
847.019	6738.1
847.343	6655.84
847.666	6593.7
847.99	6579.69
848.313	6602.28
848.637	6532.68
848.96	6522.06
849.284	6537.43
849.607	6470.76
849.931	6534.04
850.254	6407.49
850.577	6398.9
850.9	6334.27
851.223	6362.06
851.546	6360.03
851.869	6288.17
852.192	6283.65
852.515	6256.53
852.838	6219.7
853.161	6230.99
853.483	6206.59
853.806	6126.59
854.129	6194.39
854.451	6177.21
854.774	6120.94
855.096	6105.35
855.419	6038.91
855.741	6087.95
856.063	6000.04
856.385	6024.9
856.708	5976.31
857.03	6005.46
857.352	5943.54
857.674	5983.09
857.996	5974.5
858.318	5882.98
858.64	5920.72
858.961	5912.58
859.283	5842.76
859.605	5857.44
859.926	5875.3
860.248	5840.5
860.57	5835.07
860.891	5803.66
861.212	5780.16
861.534	5780.16
861.855	5751.01
862.176	5762.08
862.498	5792.36
862.819	5787.84
863.14	5744.91
863.461	5773.83
863.782	5741.29
864.103	5717.34
864.424	5717.79
864.745	5697
865.065	5663.78
865.386	5679.37
865.707	5619.26
866.027	5646.38
866.348	5631.91
866.668	5621.97
866.989	5618.58
867.309	5579.03
867.63	5609.54
867.95	5573.38
868.27	5527.28
868.59	5567.51
868.91	5592.37
869.23	5524.8
869.55	5517.57
869.87	5537.68
870.19	5532.93
870.51	5522.99
870.83	5511.69
871.15	5504.91
871.469	5445.7
871.789	5474.63
872.109	5498.36
872.428	5456.55
872.748	5478.25
873.067	5485.7
873.386	5493.16
873.706	5509.43
874.025	5473.5
874.344	5377.91
874.663	5402.99
874.982	5381.07
875.301	5426.5
875.62	5396.44
875.939	5419.94
876.258	5379.04
876.577	5354.63
876.896	5327.29
877.214	5374.29
877.533	5307.85
877.852	5326.16
878.17	5334.52
878.489	5333.62
878.807	5352.6
879.125	5267.4
879.444	5278.93
879.762	5361.19
880.08	5279.38
880.398	5203.9
880.716	5306.95
881.034	5245.94
881.352	5236.9
881.67	5221.76
881.988	5235.31
882.306	5205.48
882.624	5219.95
882.941	5193.51
883.259	5157.35
883.577	5143.57
883.894	5135.66
884.212	5201.87
884.529	5135.43
884.846	5118.71
885.164	5119.39
885.481	5113.96
885.798	5085.26
886.115	5087.07
886.432	5059.73
886.75	5043.91
887.067	5084.81
887.383	5033.51
887.7	5049.78
888.017	4997.35
888.334	5011.37
888.651	5035.09
888.967	5014.3
889.284	4999.84
889.6	4950.8
889.917	4933.85
890.233	4955.1
890.55	4934.98
890.866	4950.8
891.182	4889.56
891.498	4881.65
891.815	4899.5
892.131	4863.8
892.447	4834.87
892.763	4836
893.079	4824.03
893.395	4833.74
893.71	4812.27
894.026	4758.26
894.342	4793.52
894.657	4742.9
894.973	4757.59
895.289	4767.3
895.604	4733.18
895.92	4706.51
896.235	4710.13
896.55	4692.96
896.865	4685.05
897.181	4684.59
897.496	4703.12
897.811	4671.26
898.126	4614.09
898.441	4614.09
898.756	4602.11
899.071	4606.86
899.386	4653.63
899.7	4555.56
900.015	4545.84
900.33	4544.26
900.644	4557.82
900.959	4502.23
901.273	4522.79
901.588	4509.46
901.902	4486.41
902.216	4475.79
902.531	4485.5
902.845	4419.29
903.159	4417.26
903.473	4399.4
903.787	4374.77
904.101	4342.23
904.415	4360.76
904.729	4363.47
905.042	4310.37
905.356	4295
905.67	4275.57
905.984	4296.36
906.297	4280.31
906.611	4253.87
906.924	4275.57
907.237	4218.17
907.551	4239.41
907.864	4200.77
908.177	4181.33
908.491	4197.38
908.804	4167.09
909.117	4131.39
909.43	4159.41
909.743	4124.84
910.056	4111.28
910.368	4059.75
910.681	4083.25
910.994	4025.18
911.307	4054.78
911.619	3996.25
911.932	4003.26
912.244	3977.95
912.557	4010.04
912.869	3998.51
913.181	3961.68
913.494	3969.58
913.806	3917.61
914.118	3942.24
914.43	3863.82
914.742	3895.24
915.054	3854.11
915.366	3891.85
915.678	3869.93
915.99	3793.09
916.302	3829.02
916.613	3819.31
916.925	3789.02
917.236	3800.78
917.548	3777.05
917.859	3757.84
918.171	3735.92
918.482	3718.07
918.794	3712.19
919.105	3666.77
919.416	3669.25
919.727	3679.65
920.038	3653.21
920.349	3622.25
920.66	3591.29
920.971	3634.23
921.282	3612.08
921.593	3573.89
921.903	3570.05
922.214	3584.06
922.525	3556.04
922.835	3565.53
923.146	3503.16
923.456	3530.27
923.767	3493.67
924.077	3488.47
924.387	3445.53
924.697	3455.25
925.008	3460.9
925.318	3420.22
925.628	3408.24
925.938	3462.93
926.248	3397.4
926.558	3387.91
926.867	3378.87
927.177	3377.06
927.487	3361.01
927.796	3345.42
928.106	3323.5
928.416	3337.51
928.725	3320.11
929.034	3317.4
929.344	3297.74
929.653	3281.69
929.962	3239.21
930.271	3221.13
930.581	3254.12
930.89	3221.81
931.199	3208.25
931.508	3176.84
931.817	3234.24
932.125	3165.99
932.434	3208.93
932.743	3114.69
933.051	3139.1
933.36	3145.2
933.669	3125.31
933.977	3106.78
934.286	3097.07
934.594	3071.08
934.902	3093.45
935.21	3068.82
935.519	3010.51
935.827	3019.33
936.135	3083.28
936.443	3024.98
936.751	3042.6
937.059	3015.26
937.367	2994.24
937.674	2978.65
937.982	2974.13
938.29	2952.21
938.597	2929.84
938.905	2912.21
939.213	2893.91
939.52	2921.25
939.827	2904.98
940.135	2878.54
940.442	2876.05
940.749	2857.98
941.056	2885.55
941.363	2865.43
941.67	2809.16
941.977	2816.39
942.284	2798.99
942.591	2793.57
942.898	2828.82
943.205	2749.73
943.511	2720.58
943.818	2779.79
944.125	2771.42
944.431	2744.53
944.738	2776.4
945.044	2699.56
945.35	2704.53
945.657	2682.84
945.963	2676.96
946.269	2673.8
946.575	2646.68
946.881	2646.23
947.187	2661.14
947.493	2604.65
947.799	2626.12
948.105	2601.71
948.41	2606
948.716	2644.87
949.022	2584.31
949.327	2592.22
949.633	2554.25
949.938	2599.68
950.244	2592.67
950.549	2513.58
950.854	2522.39
951.16	2575.27
951.465	2511.32
951.77	2501.6
952.075	2489.17
952.38	2513.8
952.685	2458.66
952.99	2471.77
953.294	2454.14
953.599	2449.62
953.904	2430.19
954.209	2407.14
954.513	2448.49
954.818	2423.64
955.122	2396.29
955.426	2377.54
955.731	2405.11
956.035	2396.97
956.339	2362.17
956.643	2362.85
956.948	2345.22
957.252	2351.55
957.556	2307.26
957.86	2348.16
958.163	2374.6
958.467	2324.88
958.771	2334.15
959.075	2318.78
959.378	2306.35
959.682	2305.67
959.985	2302.74
960.289	2253.92
960.592	2259.35
960.896	2240.36
961.199	2229.29
961.502	2251.89
961.805	2192.91
962.108	2204.66
962.411	2189.74
962.714	2196.3
963.017	2159.91
963.32	2180.93
963.623	2170.08
963.926	2137.99
964.228	2156.75
964.531	2130.76
964.833	2156.3
965.136	2135.06
965.438	2103.87
965.741	2128.5
966.043	2116.53
966.345	2098.9
966.648	2084.66
966.95	2055.96
967.252	2102.74
967.554	2059.58
967.856	2060.71
968.158	2049.41
968.46	2024.78
968.761	2032.69
969.063	2050.77
969.365	2006.02
969.666	2018.45
969.968	2025
970.269	2000.82
970.571	1989.75
970.872	2023.2
971.174	1970.54
971.475	1969.41
971.776	1962.86
972.077	1952.69
972.378	1911.11
972.679	1958.34
972.98	1969.64
973.281	1956.08
973.582	1907.72
973.883	1909.75
974.183	1889.41
974.484	1911.11
974.785	1895.97
975.085	1899.13
975.386	1895.52
975.686	1867.49
975.986	1835.63
976.287	1867.72
976.587	1864.33
976.887	1858.23
977.187	1846.02
977.487	1846.7
977.787	1837.66
978.087	1837.21
978.387	1804.9
978.687	1823.88
978.987	1817.33
979.286	1817.33
979.586	1781.39
979.885	1779.59
980.185	1771.22
980.484	1751.11
980.784	1773.26
981.083	1795.4
981.382	1759.25
981.682	1733.94
981.981	1729.42
982.28	1751.34
982.579	1706.37
982.878	1738.46
983.177	1694.39
983.475	1695.29
983.774	1677.67
984.073	1670.44
984.372	1669.31
984.67	1646.71
984.969	1687.39
985.267	1621.4
985.566	1664.11
985.864	1639.93
986.162	1635.18
986.461	1635.86
986.759	1579.14
987.057	1606.71
987.355	1627.95
987.653	1593.38
987.951	1609.42
988.249	1602.64
988.547	1577.33
988.844	1589.31
989.142	1577.33
989.44	1603.09
989.737	1580.95
990.035	1554.96
990.332	1572.59
990.63	1547.05
990.927	1508.86
991.224	1547.73
991.521	1543.21
991.819	1552.02
992.116	1537.33
992.413	1520.38
992.71	1494.85
993.006	1494.4
993.303	1481.29
993.6	1498.24
993.897	1495.3
994.193	1505.69
994.49	1482.87
994.787	1481.51
995.083	1496.2
995.379	1432.48
995.676	1458.01
995.972	1447.17
996.268	1451.01
996.565	1425.7
996.861	1408.07
997.157	1432.7
997.453	1420.05
997.749	1423.21
998.044	1424.79
998.34	1372.37
998.636	1415.98
998.932	1360.16
999.227	1365.13
999.523	1379.82
999.818	1370.56
1000.114	1360.61
1000.409	1332.37
1000.704	1334.63
1001	1319.71
1001.295	1344.34
1001.59	1315.19
1001.885	1330.78
1002.18	1296.66
1002.475	1299.6
1002.77	1302.08
1003.065	1275.64
1003.359	1273.38
1003.654	1313.61
1003.949	1251.69
1004.243	1259.83
1004.538	1267.51
1004.832	1226.83
1005.127	1225.7
1005.421	1259.15
1005.715	1234.74
1006.009	1250.56
1006.304	1238.81
1006.598	1217.11
1006.892	1233.39
1007.186	1192.93
1007.48	1202.88
1007.773	1194.29
1008.067	1201.75
1008.361	1194.74
1008.655	1175.76
1008.948	1189.32
1009.242	1178.02
1009.535	1144.57
1009.829	1142.99
1010.122	1140.05
1010.415	1170.56
1010.708	1124.91
1011.001	1137.12
1011.295	1133.95
1011.588	1121.52
1011.881	1089.89
1012.173	1110.68
1012.466	1121.3
1012.759	1083.79
1013.052	1107.29
1013.344	1090.56
1013.637	1092.6
1013.93	1062.77
1014.222	1088.53
1014.514	1074.52
1014.807	1055.76
1015.099	1085.59
1015.391	1061.86
1015.683	1067.51
1015.976	1054.41
1016.268	1048.31
1016.56	1006.95
1016.851	1015.31
1017.143	1038.59
1017.435	1006.27
1017.727	1012.83
1018.018	1000.85
1018.31	990
1018.602	1002.66
1018.893	992.71
1019.185	1003.56
1019.476	986.39
1019.767	999.27
1020.058	962.88
1020.35	971.02
1020.641	959.27
1020.932	947.29
1021.223	932.6
1021.514	906.84
1021.804	931.47
1022.095	944.58
1022.386	945.94
1022.677	947.74
1022.967	920.17
1023.258	888.31
1023.548	884.24
1023.839	900.51
1024.129	900.51
1024.419	890.12
1024.709	886.28
1025	884.24
1025.29	880.85
1025.58	902.55
1025.87	850.12
1026.16	857.12
1026.449	857.35
1026.739	874.98
1027.029	853.06
1027.319	849.44
1027.608	843.79
1027.898	846.05
1028.187	811.25
1028.477	831.81
1028.766	826.39
1029.055	819.39
1029.344	812.61
1029.634	810.57
1029.923	811.02
1030.212	833.62
1030.501	810.35
1030.79	786.39
1031.078	788.43
1031.367	804.02
1031.656	776.22
1031.945	767.86
1032.233	776.67
1032.522	765.83
1032.81	762.44
1033.099	751.14
1033.387	767.41
1033.675	746.84
1033.963	752.04
1034.251	729.67
1034.54	748.65
1034.828	734.19
1035.116	731.48
1035.403	719.5
1035.691	718.82
1035.979	743
1036.267	726.05
1036.554	717.47
1036.842	707.07
1037.129	698.48
1037.417	715.89
1037.704	704.13
1037.992	692.61
1038.279	684.02
1038.566	700.74
1038.853	700.74
1039.14	700.74
