Data from tablewood_dark_bookshelf_FLMS001491_00028.txt Node
Date: Wed Feb 08 14:14:06 GMT 2017
User: dcchb
Spectrometer: FLMS00149
Trigger mode: 0
Integration Time (sec): 2.000000E-2
Scans to average: 10
Electric dark correction enabled: true
Nonlinearity correction enabled: false
Boxcar width: 0
XAxis mode: Wavelengths
Number of Pixels in Spectrum: 2048
>>>>>Begin Spectral Data<<<<<
341.393	-27.64
341.776	-27.64
342.16	-27.64
342.543	-71.93
342.927	-76.23
343.31	-60.18
343.693	-74.19
344.077	-66.74
344.46	-62.44
344.843	-62.22
345.226	-18.83
345.61	-32.61
345.993	-42.1
346.376	5.35
346.759	22.08
347.142	20.72
347.525	37.44
347.908	60.04
348.291	88.06
348.674	97.78
349.057	87.84
349.44	119.7
349.823	124.9
350.206	158.57
350.588	169.87
350.971	202.86
351.354	215.52
351.737	221.17
352.119	237.66
352.502	240.38
352.884	262.07
353.267	256.87
353.65	279.7
354.032	281.96
354.414	286.25
354.797	298.45
355.179	292.8
355.562	301.84
355.944	318.57
356.326	314.95
356.709	318.57
357.091	313.37
357.473	317.44
357.855	337.55
358.238	320.82
358.62	327.38
359.002	328.51
359.384	339.13
359.766	340.71
360.148	333.25
360.53	336.19
360.912	328.06
361.294	329.64
361.676	310.2
362.057	327.15
362.439	329.86
362.821	331.22
363.203	325.12
363.584	321.73
363.966	314.72
364.348	307.49
364.729	344.78
365.111	313.14
365.493	309.3
365.874	332.35
366.256	298.23
366.637	309.75
367.019	305.46
367.4	314.05
367.781	308.4
368.163	295.29
368.544	307.94
368.925	317.44
369.306	318.11
369.688	291
370.069	292.58
370.45	310.88
370.831	293.48
371.212	301.16
371.593	312.01
371.974	314.05
372.355	289.87
372.736	313.59
373.117	310.88
373.498	323.76
373.879	300.94
374.26	321.5
374.641	308.17
375.021	327.15
375.402	304.33
375.783	319.92
376.163	330.77
376.544	312.92
376.925	317.44
377.305	315.85
377.686	319.69
378.066	319.24
378.447	324.44
378.827	307.27
379.208	327.83
379.588	333.93
379.968	323.76
380.349	308.85
380.729	310.88
381.109	326.02
381.489	331.67
381.87	323.54
382.25	336.19
382.63	340.03
383.01	344.1
383.39	343.42
383.77	329.41
384.15	346.59
384.53	347.49
384.91	346.59
385.29	342.29
385.67	356.98
386.049	367.83
386.429	336.19
386.809	347.04
387.189	370.77
387.568	353.82
387.948	370.99
388.328	349.98
388.707	356.98
389.087	359.24
389.466	370.99
389.846	369.86
390.225	375.96
390.605	374.38
390.984	360.82
391.363	356.76
391.743	370.99
392.122	391.11
392.501	386.13
392.881	386.36
393.26	385
393.639	378
394.018	395.85
394.397	398.56
394.776	411.9
395.155	395.4
395.534	391.11
395.913	390.88
396.292	379.58
396.671	391.33
397.05	395.85
397.429	405.34
397.808	413.25
398.186	389.75
398.565	410.31
398.944	411.44
399.323	435.17
399.701	404.66
400.08	422.29
400.458	410.77
400.837	426.58
401.215	436.08
401.594	418.22
401.972	428.39
402.351	428.84
402.729	452.35
403.107	440.14
403.486	434.27
403.864	441.27
404.242	445.34
404.62	445.12
404.999	431.33
405.377	456.41
405.755	437.88
406.133	438.11
406.511	458
406.889	457.32
407.267	464.55
407.645	439.92
408.023	463.42
408.401	469.97
408.779	475.4
409.156	476.53
409.534	484.66
409.912	470.65
410.29	479.46
410.667	478.56
411.045	483.76
411.422	488.5
411.8	491.22
412.178	521.72
412.555	515.4
412.933	518.33
413.31	532.8
413.687	492.35
414.065	531.89
414.442	529.18
414.819	537.09
415.197	544.55
415.574	551.1
415.951	545
416.328	566.92
416.705	572.57
417.082	539.8
417.46	538.22
417.837	557.43
418.214	580.03
418.591	572.34
418.967	547.49
419.344	575.73
419.721	574.38
420.098	573.93
420.475	586.58
420.852	585.45
421.228	590.2
421.605	622.51
421.982	599.69
422.358	605.56
422.735	613.7
423.111	598.78
423.488	602.4
423.864	604.43
424.241	644.66
424.617	620.25
424.994	651.89
425.37	626.13
425.746	644.66
426.123	664.09
426.499	652.12
426.875	665
427.251	663.41
427.627	682.17
428.003	681.27
428.379	668.61
428.756	679.23
429.132	711.1
429.507	693.24
429.883	692.57
430.259	696.18
430.635	725.33
431.011	728.72
431.387	713.13
431.763	746.58
432.138	747.71
432.514	740.93
432.89	766.69
433.265	750.19
433.641	757.42
434.016	781.38
434.392	784.99
434.767	759.46
435.143	787.25
435.518	782.96
435.894	823.18
436.269	818.89
436.644	827.25
437.02	822.28
437.395	845.56
437.77	851.21
438.145	837.2
438.52	851.43
438.895	878.1
439.271	855.95
439.646	863.86
440.021	879
440.395	883.07
440.77	860.7
441.145	891.88
441.52	914.48
441.895	908.61
442.27	894.6
442.645	910.64
443.019	933.01
443.394	926.46
443.769	895.5
444.143	905.22
444.518	919.23
444.892	916.06
445.267	911.54
445.641	944.54
446.016	951.32
446.39	953.58
446.764	958.1
447.139	980.02
447.513	970.53
447.887	981.37
448.262	999.68
448.636	995.61
449.01	1007.81
449.384	1012.56
449.758	997.64
450.132	1031.77
450.506	1013.24
450.88	1021.15
451.254	1029.96
451.628	1034.25
452.002	1079.9
452.376	1069.96
452.75	1065.66
453.123	1075.38
453.497	1085.1
453.871	1089.62
454.244	1126.68
454.618	1143.85
454.992	1112.67
455.365	1107.92
455.739	1141.82
456.112	1172.55
456.486	1189.28
456.859	1154.02
457.232	1197.86
457.606	1207.81
457.979	1206.9
458.352	1236.51
458.725	1242.61
459.099	1250.07
459.472	1256.39
459.845	1268.82
460.218	1300.23
460.591	1307.69
460.964	1325.32
461.337	1342.27
461.71	1343.4
462.083	1378.88
462.456	1366.9
462.829	1359.89
463.201	1373
463.574	1406.22
463.947	1406.22
464.32	1410.29
464.692	1430.85
465.065	1438.99
465.438	1492.77
465.81	1505.43
466.183	1501.36
466.555	1517.4
466.928	1563.28
467.3	1549.49
467.672	1561.47
468.045	1608.02
468.417	1622.49
468.789	1624.97
469.161	1603.05
469.534	1662.26
469.906	1684.86
470.278	1668.81
470.65	1706.78
471.022	1727.12
471.394	1756.27
471.766	1766.21
472.138	1783.61
472.51	1838.75
472.882	1850.95
473.253	1885.3
473.625	1882.14
473.997	1946.54
474.369	1922.59
474.74	1973.89
475.112	2020.67
475.484	2022.25
475.855	2045.75
476.227	2082.13
476.598	2099.54
476.97	2134.79
477.341	2154.45
477.713	2188.35
478.084	2192.64
478.455	2276.25
478.827	2263.15
479.198	2352.18
479.569	2343.14
479.94	2432.63
480.311	2456.81
480.682	2482.8
481.053	2534.78
481.424	2568.45
481.795	2575.68
482.166	2647.77
482.537	2646.87
482.908	2692.29
483.279	2731.16
483.65	2751.27
484.021	2829.69
484.391	2834.66
484.762	2859.06
485.133	2894.32
485.503	2924.6
485.874	3031.04
486.244	3040.75
486.615	3114.2
486.985	3109.23
487.356	3178.6
487.726	3171.37
488.097	3264.48
488.467	3259.28
488.837	3310.58
489.207	3342.67
489.578	3389.22
489.948	3422.44
490.318	3472.83
490.688	3494.75
491.058	3556.9
491.428	3562.55
491.798	3625.14
492.168	3684.8
492.538	3682.54
492.908	3706.72
493.278	3778.81
493.648	3766.61
494.017	3839.6
494.387	3890.45
494.757	3859.49
495.126	3941.07
495.496	3928.87
495.866	3998.69
496.235	4004.12
496.605	4034.85
496.974	4046.38
497.344	4116.43
497.713	4127.96
498.082	4188.52
498.452	4220.84
498.821	4224.23
499.19	4240.5
499.559	4263.09
499.928	4320.49
500.298	4340.15
500.667	4345.35
501.036	4355.75
501.405	4408.85
501.774	4410.21
502.143	4460.38
502.512	4490.21
502.88	4536.53
503.249	4506.7
503.618	4543.54
503.987	4642.07
504.356	4665.34
504.724	4672.57
505.093	4686.13
505.462	4696.08
505.83	4796.64
506.199	4790.54
506.567	4818.33
506.936	4825.57
507.304	4911.44
507.672	4942.4
508.041	4936.75
508.409	4969.52
508.777	5016.75
509.145	5030.76
509.514	5056.97
509.882	5117.31
510.25	5077.99
510.618	5139.23
510.986	5189.62
511.354	5225.78
511.722	5311.43
512.09	5310.75
512.458	5319.56
512.826	5390.75
513.193	5403.4
513.561	5414.02
513.929	5502.38
514.297	5456.51
514.664	5555.26
515.032	5583.06
515.4	5677.29
515.767	5669.61
516.135	5656.28
516.502	5689.5
516.869	5755.94
517.237	5761.59
517.604	5809.27
517.972	5887.46
518.339	5861.7
518.706	5935.14
519.073	5966.78
519.44	5948.25
519.808	6042.26
520.175	6117.28
520.542	6152.76
520.909	6140.11
521.276	6215.36
521.643	6235.7
522.009	6275.92
522.376	6356.15
522.743	6405.41
523.11	6464.17
523.477	6470.04
523.843	6527.22
524.21	6601.79
524.577	6724.27
524.943	6710.26
525.31	6755.91
525.676	6818.73
526.043	6781.67
526.409	6873.19
526.776	6937.37
527.142	6957.26
527.508	7025.51
527.874	7076.81
528.241	7159.97
528.607	7117.26
528.973	7169.68
529.339	7200.64
529.705	7263.24
530.071	7326.52
530.437	7403.8
530.803	7431.37
531.169	7460.3
531.535	7511.6
531.901	7523.57
532.267	7555.21
532.632	7659.16
532.998	7572.61
533.364	7709.56
533.73	7696.9
534.095	7775.54
534.461	7830.91
534.826	7825.49
535.192	7872.49
535.557	7943.22
535.923	7995.43
536.288	7996.33
536.653	7961.3
537.019	7948.42
537.384	8027.29
537.749	8092.37
538.114	8081.07
538.479	8176.21
538.845	8207.62
539.21	8181.41
539.575	8154.97
539.94	8269.99
540.305	8305.7
540.67	8309.99
541.034	8347.96
541.399	8380.5
541.764	8451.01
542.129	8471.12
542.494	8470.44
542.858	8503.43
543.223	8526.94
543.587	8559.03
543.952	8564.68
544.316	8591.79
544.681	8615.75
545.045	8693.94
545.41	8696.42
545.774	8766.7
546.138	8782.75
546.503	8809.87
546.867	8777.55
547.231	8858
547.595	8920.37
547.959	8946.59
548.324	8945.23
548.688	8924.89
549.052	9020.94
549.416	9007.83
549.779	9040.6
550.143	9116.75
550.507	9098.45
550.871	9187.03
551.235	9164.66
551.599	9235.84
551.962	9266.8
552.326	9308.84
552.689	9305.22
553.053	9309.97
553.417	9380.7
553.78	9530.53
554.143	9410.53
554.507	9490.75
554.87	9556.29
555.234	9632.44
555.597	9588.6
555.96	9733.91
556.323	9705.89
556.686	9767.81
557.05	9732.33
557.413	9910.4
557.776	9850.97
558.139	10008.25
558.502	9980.91
558.865	10021.81
559.228	10075.6
559.59	10116.73
559.953	10134.58
560.316	10321.01
560.679	10287.34
561.041	10291.41
561.404	10370.73
561.767	10422.48
562.129	10443.72
562.492	10535.47
562.854	10578.63
563.217	10539.77
563.579	10654.79
563.941	10688.46
564.304	10815.69
564.666	10886.2
565.028	10854.11
565.39	10877.61
565.753	10947.44
566.115	11013.65
566.477	11052.75
566.839	11125.96
567.201	11156.25
567.563	11214.32
567.925	11276.24
568.287	11342
568.648	11355.79
569.01	11409.35
569.372	11531.38
569.734	11448.67
570.095	11590.59
570.457	11636.46
570.819	11683.92
571.18	11694.76
571.542	11779.05
571.903	11858.15
572.265	11951.93
572.626	11950.35
572.987	12033.74
573.349	11982.44
573.71	12104.7
574.071	12106.73
574.432	12163
574.794	12261.3
575.155	12296.78
575.516	12218.59
575.877	12367.74
576.238	12344.01
576.599	12428.98
576.96	12454.07
577.32	12532.48
577.681	12600.05
578.042	12610.67
578.403	12637.11
578.763	12659.71
579.124	12758.69
579.485	12775.86
579.845	12919.14
580.206	12795.53
580.566	12830.78
580.927	12782.19
581.287	12895.18
581.648	12974.28
582.008	13046.59
582.368	13012.69
582.728	13016.31
583.089	13045.69
583.449	13060.38
583.809	13188.51
584.169	13164.55
584.529	13169.07
584.889	13175.63
585.249	13134.5
585.609	13208.85
585.969	13241.39
586.329	13255.4
586.688	13325.68
587.048	13433.47
587.408	13327.94
587.768	13323.87
588.127	13368.39
588.487	13367.94
588.846	13533.13
589.206	13328.62
589.565	13532
589.925	13486.13
590.284	13552.57
590.643	13600.02
591.003	13578.78
591.362	13640.02
591.721	13655.62
592.08	13740.59
592.44	13687.03
592.799	13749.85
593.158	13692.9
593.517	13755.5
593.876	13867.36
594.235	13799.57
594.593	13742.62
594.952	13884.31
595.311	13790.53
595.67	13884.31
596.029	13957.53
596.387	13865.1
596.746	13960.24
597.104	13966.57
597.463	13967.47
597.822	14071.88
598.18	13927.47
598.538	13996.17
598.897	14120.69
599.255	14041.37
599.613	14198.43
599.972	14166.79
600.33	14098.99
600.688	14196.84
601.046	14250.63
601.404	14253.79
601.762	14190.29
602.12	14248.59
602.478	14349.61
602.836	14334.24
603.194	14291.98
603.552	14320.68
603.91	14332.21
604.268	14428.02
604.625	14377.86
604.983	14479.55
605.341	14400.68
605.698	14463.73
606.056	14518.64
606.413	14481.58
606.771	14573.11
607.128	14599.32
607.485	14524.52
607.843	14648.58
608.2	14631.64
608.557	14711.18
608.914	14661.46
609.272	14679.54
609.629	14740.56
609.986	14897.39
610.343	14731.75
610.7	14929.48
611.057	14875.92
611.414	14820.78
611.771	14847.67
612.127	15019.2
612.484	14959.31
612.841	15034.11
613.198	14902.81
613.554	15012.87
613.911	15091.28
614.267	15061.23
614.624	15050.83
614.98	15099.42
615.337	15129.48
615.693	15101.91
616.05	15112.98
616.406	15198.63
616.762	15157.27
617.118	15220.32
617.475	15094.22
617.831	15204.05
618.187	15252.18
618.543	15240.66
618.899	15282.47
619.255	15337.38
619.611	15259.64
619.967	15269.58
620.323	15439.3
620.678	15332.18
621.034	15349.81
621.39	15315.01
621.746	15407.21
622.101	15510.71
622.457	15296.25
622.812	15382.12
623.168	15385.74
623.523	15442.69
623.879	15370.82
624.234	15383.48
624.589	15460.99
624.945	15432.07
625.3	15474.78
625.655	15388.68
626.01	15528.33
626.365	15475.23
626.72	15469.13
627.075	15493.08
627.43	15477.94
627.785	15410.37
628.14	15460.09
628.495	15491.73
628.85	15470.48
629.205	15416.93
629.559	15491.05
629.914	15289.02
630.269	15405.85
630.623	15324.05
630.978	15286.99
631.332	15482.01
631.687	15408.79
632.041	15345.97
632.396	15385.51
632.75	15349.81
633.104	15285.4
633.459	15298.06
633.813	15260.09
634.167	15378.06
634.521	15341.45
634.875	15289.92
635.229	15314.33
635.583	15279.98
635.937	15261.45
636.291	15166.31
636.645	15226.2
636.999	15216.48
637.352	15270.26
637.706	15081.34
638.06	15189.36
638.413	15186.65
638.767	15149.59
639.121	15060.55
639.474	15023.04
639.828	15067.78
640.181	15127.89
640.534	15055.13
640.888	15028.69
641.241	14934.9
641.594	15044.28
641.947	14975.35
642.301	15019.65
642.654	14924.28
643.007	14957.28
643.36	14978.52
643.713	14999.31
644.066	14985.98
644.419	14895.81
644.771	14794.79
645.124	14613.78
645.477	14576.04
645.83	14511.19
646.182	14467.8
646.535	14563.61
646.888	14503.95
647.24	14454.24
647.593	14507.12
647.945	14427.57
648.298	14486.78
648.65	14434.58
649.002	14375.14
649.355	14501.24
649.707	14446.1
650.059	14515.48
650.411	14540.34
650.763	14668.02
651.115	14766.55
651.467	14701.46
651.819	14727.9
652.171	14625.99
652.523	14671.86
652.875	14675.48
653.227	14585.08
653.578	14746.43
653.93	14717.73
654.282	14588.25
654.633	14625.08
654.985	14652.65
655.337	14628.7
655.688	14621.92
656.039	14709.15
656.391	14607.23
656.742	14528.36
657.094	14561.81
657.445	14701.69
657.796	14626.21
658.147	14634.35
658.498	14587.57
658.849	14664.63
659.2	14662.37
659.551	14602.71
659.902	14642.26
660.253	14661.92
660.604	14635.02
660.955	14501.02
661.306	14655.36
661.656	14548.02
662.007	14594.35
662.358	14601.35
662.708	14550.51
663.059	14585.99
663.409	14492.2
663.76	14650.39
664.11	14620.34
664.461	14566.33
664.811	14506.67
665.161	14491.3
665.511	14585.53
665.862	14479.32
666.212	14547.57
666.562	14531.52
666.912	14535.14
667.262	14532.2
667.612	14518.64
667.962	14612.88
668.312	14588.7
668.662	14680
669.011	14688.58
669.361	14630.73
669.711	14591.41
670.06	14542.15
670.41	14481.13
670.76	14546.21
671.109	14551.19
671.459	14514.8
671.808	14485.88
672.157	14478.64
672.507	14433
672.856	14578.3
673.205	14503.73
673.554	14581.01
673.904	14491.98
674.253	14510.51
674.602	14527.23
674.951	14330.4
675.3	14251.08
675.649	14485.42
675.998	14451.98
676.346	14447.01
676.695	14560.68
677.044	14409.95
677.393	14393.22
677.741	14463.73
678.09	14367.91
678.438	14361.13
678.787	14440.23
679.135	14393.45
679.484	14347.35
679.832	14421.92
680.181	14339.89
680.529	14315.71
680.877	14244.3
681.225	14370.85
681.573	14320
681.922	14296.5
682.27	14201.14
682.618	14196.39
682.966	14150.07
683.314	14156.17
683.661	14187.58
684.009	14069.84
684.357	14049.05
684.705	14080.01
685.053	14031.2
685.4	13998.88
685.748	13943.07
686.095	14086.79
686.443	13915.04
686.79	13877.3
687.138	14011.09
687.485	13911.65
687.832	13896.29
688.18	13824.65
688.527	13774.93
688.874	13908.04
689.221	13871.43
689.568	13757.53
689.915	13761.15
690.262	13791.88
690.609	13727.93
690.956	13679.8
691.303	13626.92
691.65	13568.16
691.997	13643.41
692.344	13492.46
692.69	13532.91
693.037	13517.31
693.383	13424.66
693.73	13445.45
694.077	13423.08
694.423	13412.23
694.769	13411.78
695.116	13287.94
695.462	13279.13
695.808	13318.68
696.155	13311.9
696.501	13139.92
696.847	13118.45
697.193	13071.45
697.539	13175.18
697.885	13058.57
698.231	13082.3
698.577	13077.55
698.923	13025.58
699.269	12890.66
699.614	12976.99
699.96	12859.48
700.306	12904
700.651	12756.66
700.997	12785.13
701.342	12738.35
701.688	12773.6
702.033	12664.23
702.379	12713.04
702.724	12647.28
703.069	12625.36
703.415	12575.42
703.76	12578.58
704.105	12537
704.45	12494.52
704.795	12446.16
705.14	12345.37
705.485	12433.73
705.83	12349.44
706.175	12359.83
706.52	12304.24
706.865	12282.09
707.209	12260.17
707.554	12177.46
707.899	12244.81
708.243	12189.21
708.588	12167.52
708.932	12131.81
709.277	12112.38
709.621	12088.43
709.966	11988.31
710.31	12014.75
710.654	11986.96
710.998	11992.16
711.342	12007.75
711.687	11919.39
712.031	11935.89
712.375	11873.97
712.719	11888.88
713.063	11835.78
713.407	11934.98
713.75	11827.87
714.094	11874.19
714.438	11753.29
714.782	11794.2
715.125	11722.33
715.469	11740.41
715.812	11711.26
716.156	11616.8
716.499	11646.63
716.843	11704.93
717.186	11514.65
717.53	11611.15
717.873	11693.18
718.216	11594.88
718.559	11579.06
718.902	11456.13
719.246	11551.94
719.589	11532.51
719.932	11450.02
720.275	11520.3
720.617	11481.89
720.96	11494.77
721.303	11447.31
721.646	11485.28
721.989	11360.99
722.331	11430.82
722.674	11376.35
723.016	11356.24
723.359	11323.7
723.701	11331.83
724.044	11388.78
724.386	11245.74
724.729	11404.83
725.071	11243.7
725.413	11310.82
725.755	11232.85
726.097	11224.49
726.439	11230.59
726.782	11181.56
727.124	11282.8
727.465	11227.43
727.807	11145.85
728.149	11181.56
728.491	11230.37
728.833	11143.37
729.175	11151.95
729.516	11116.47
729.858	11141.11
730.199	11223.14
730.541	11117.15
730.882	11074.44
731.224	11081.9
731.565	11036.02
731.906	11090.49
732.248	11097.72
732.589	10981.79
732.93	10989.02
733.271	10991.5
733.612	11022.24
733.953	11015.01
734.294	11016.36
734.635	10993.54
734.976	11080.77
735.317	11022.46
735.658	10975.46
735.999	11028.11
736.339	10993.76
736.68	11005.06
737.021	10991.73
737.361	11003.93
737.702	10984.73
738.042	11023.59
738.383	10988.79
738.723	10954.44
739.063	10924.16
739.404	10885.29
739.744	10903.6
740.084	10895.01
740.424	10957.16
740.764	10877.38
741.104	10934.11
741.444	10890.72
741.784	10764.39
742.124	10929.13
742.464	10878.97
742.804	10887.1
743.143	10797.84
743.483	10810.72
743.823	10774.56
744.162	10850.04
744.502	10850.04
744.841	10812.98
745.181	10848.91
745.52	10784.96
745.86	10809.36
746.199	10788.35
746.538	10833.99
746.877	10776.14
747.216	10761.45
747.556	10772.75
747.895	10731.85
748.234	10685.3
748.573	10721.23
748.911	10666.32
749.25	10697.5
749.589	10646.88
749.928	10649.14
750.267	10752.42
750.605	10674.22
750.944	10682.59
751.283	10587.67
751.621	10681.46
751.96	10626.99
752.298	10657.73
752.636	10572.53
752.975	10565.08
753.313	10546.09
753.651	10632.42
753.989	10525.08
754.327	10422.48
754.666	10459.54
755.004	10497.96
755.342	10467.9
755.679	10447.79
756.017	10452.99
756.355	10406.44
756.693	10396.94
757.031	10447.79
757.368	10302.03
757.706	10375.93
758.044	10391.75
758.381	10396.94
758.719	10287.34
759.056	10273.11
759.394	10217.06
759.731	10225.2
760.068	10152.43
760.405	10200.34
760.743	10117.63
761.08	10134.13
761.417	10125.54
761.754	9999.44
762.091	10006.67
762.428	10108.14
762.765	9963.74
763.102	9935.49
763.438	9959.67
763.775	9849.61
764.112	9905.43
764.449	9872.89
764.785	9813.46
765.122	9746.34
765.458	9733.46
765.795	9727.13
766.131	9645.33
766.467	9687.58
766.804	9592.9
767.14	9574.14
767.476	9605.1
767.812	9497.53
768.148	9578.43
768.485	9454.82
768.821	9483.75
769.157	9441.26
769.492	9372.34
769.828	9420.92
770.164	9286.92
770.5	9300.25
770.836	9204.89
771.171	9244.21
771.507	9206.69
771.842	9208.27
772.178	9143.19
772.513	9127.37
772.849	9086.02
773.184	9126.92
773.519	9059.35
773.855	8976.64
774.19	8945.68
774.525	8895.29
774.86	8943.2
775.195	8919.92
775.53	8831.11
775.865	8823.88
776.2	8741.17
776.535	8734.39
776.87	8721.28
777.205	8697.55
777.539	8622.75
777.874	8687.38
778.209	8595.86
778.543	8554.51
778.878	8497.79
779.212	8469.54
779.547	8469.09
779.881	8516.99
780.215	8418.47
780.55	8481.06
780.884	8389.99
781.218	8333.27
781.552	8350.9
781.886	8289.43
782.22	8222.09
782.554	8232.03
782.888	8079.26
783.222	8089.66
783.556	8046.95
783.889	8095.08
784.223	8060.28
784.557	8056.89
784.89	8017.8
785.224	7944.13
785.557	7912.94
785.891	7904.81
786.224	7845.37
786.558	7892.38
786.891	7813.06
787.224	7732.83
787.557	7780.97
787.891	7753.62
788.224	7739.39
788.557	7718.82
788.89	7723.12
789.223	7715.66
789.556	7663.91
789.888	7612.38
790.221	7594.31
790.554	7549.56
790.887	7494.65
791.219	7432.05
791.552	7478.15
791.884	7421.2
792.217	7396.8
792.549	7333.07
792.882	7336.91
793.214	7296.91
793.546	7284.94
793.879	7282.68
794.211	7213.3
794.543	7229.12
794.875	7176.46
795.207	7251.49
795.539	7205.84
795.871	7142.57
796.203	7144.83
796.535	7067.09
796.867	7098.73
797.198	7070.03
797.53	7025.96
797.862	7011.72
798.193	6992.51
798.525	6966.98
798.856	7047.43
799.188	6923.36
799.519	6880.65
799.85	6873.87
800.182	6831.16
800.513	6858.51
800.844	6756.59
801.175	6854.44
801.506	6811.95
801.837	6767.89
802.168	6709.36
802.499	6683.82
802.83	6654.9
803.161	6629.81
803.491	6640.21
803.822	6636.59
804.153	6659.64
804.483	6531.96
804.814	6515.01
805.145	6465.97
805.475	6427.11
805.805	6487.67
806.136	6504.17
806.466	6476.6
806.796	6476.6
807.126	6419.65
807.457	6420.55
807.787	6361.34
808.117	6328.58
808.447	6384.17
808.777	6341.46
809.107	6421.46
809.436	6325.19
809.766	6326.32
810.096	6243.83
810.426	6236.6
810.755	6247.22
811.085	6192.53
811.414	6209.48
811.744	6162.71
812.073	6188.69
812.403	6168.58
812.732	6147.56
813.061	6180.33
813.39	6101.69
813.719	6114.8
814.049	6117.51
814.378	6135.81
814.707	6042.71
815.036	6039.54
815.365	6013.56
815.693	5943.5
816.022	5947.8
816.351	5933.56
816.68	5957.06
817.008	5927.23
817.337	5873.67
817.665	5877.74
817.994	5866.89
818.322	5876.61
818.651	5877.74
818.979	5811.3
819.307	5858.53
819.636	5842.26
819.964	5781.25
820.292	5803.84
820.62	5841.58
820.948	5811.98
821.276	5815.37
821.604	5740.12
821.932	5742.83
822.259	5803.84
822.587	5790.29
822.915	5733.34
823.243	5831.19
823.57	5796.84
823.898	5817.63
824.225	5756.39
824.553	5753.68
824.88	5769.95
825.207	5781.7
825.535	5756.84
825.862	5734.92
826.189	5763.85
826.516	5759.78
826.843	5772.66
827.17	5699.44
827.497	5732.66
827.824	5741.93
828.151	5772.88
828.478	5762.26
828.805	5745.09
829.131	5718.65
829.458	5723.85
829.785	5684.75
830.111	5728.59
830.438	5708.93
830.764	5747.8
831.09	5770.85
831.417	5668.71
831.743	5740.57
832.069	5717.52
832.395	5698.31
832.722	5655.83
833.048	5689.5
833.374	5692.21
833.7	5656.5
834.026	5691.76
834.351	5714.81
834.677	5670.74
835.003	5709.16
835.329	5619.89
835.654	5667.35
835.98	5623.74
836.306	5656.28
836.631	5663.51
836.956	5616.73
837.282	5620.57
837.607	5624.19
837.932	5616.73
838.258	5531.76
838.583	5592.55
838.908	5597.07
839.233	5596.17
839.558	5608.6
839.883	5543.06
840.208	5519.78
840.533	5492.44
840.858	5491.99
841.182	5532.44
841.507	5495.38
841.832	5430.52
842.156	5524.98
842.481	5452.44
842.805	5424.19
843.13	5435.72
843.454	5426.91
843.778	5378.09
844.103	5394.36
844.427	5349.39
844.751	5401.37
845.075	5383.29
845.399	5365.44
845.723	5359.79
846.047	5332.44
846.371	5294.48
846.695	5316.17
847.019	5238.44
847.343	5278.89
847.666	5227.81
847.99	5169.51
848.313	5161.38
848.637	5163.86
848.96	5150.98
849.284	5109.63
849.607	5056.07
849.931	5106.24
850.254	5069.85
850.577	5057.2
850.9	5006.8
851.223	5052.23
851.546	4942.4
851.869	4974.49
852.192	4965.9
852.515	4944.21
852.838	4922.29
853.161	4882.74
853.483	4861.72
853.806	4894.49
854.129	4884.32
854.451	4843.87
854.774	4822.18
855.096	4812.68
855.419	4767.26
855.741	4805.45
856.063	4722.52
856.385	4742.63
856.708	4713.7
857.03	4755.96
857.352	4740.14
857.674	4695.17
857.996	4689.52
858.318	4693.14
858.64	4709.86
858.961	4660.82
859.283	4600.49
859.605	4624.89
859.926	4633.25
860.248	4592.8
860.57	4598.45
860.891	4608.4
861.212	4661.73
861.534	4540.15
861.855	4584.22
862.176	4523.88
862.498	4525.23
862.819	4528.17
863.14	4524.78
863.461	4524.78
863.782	4495.18
864.103	4525.46
864.424	4499.02
864.745	4521.39
865.065	4471.68
865.386	4466.25
865.707	4486.37
866.027	4469.64
866.348	4443.2
866.668	4440.49
866.989	4414.28
867.309	4386.25
867.63	4442.98
867.95	4437.78
868.27	4363.43
868.59	4379.93
868.91	4379.7
869.23	4396.65
869.55	4366.37
869.87	4353.26
870.19	4370.44
870.51	4394.84
870.83	4365.46
871.15	4319.59
871.469	4350.1
871.789	4354.17
872.109	4377.22
872.428	4341.74
872.748	4330.89
873.067	4350.32
873.386	4341.51
873.706	4316.88
874.025	4282.98
874.344	4300.38
874.663	4280.72
874.982	4330.21
875.301	4290.21
875.62	4274.85
875.939	4253.6
876.258	4276.65
876.577	4219.93
876.896	4253.15
877.214	4228.07
877.533	4223.55
877.852	4204.11
878.17	4243.66
878.489	4244.34
878.807	4248.86
879.125	4220.16
879.444	4237.33
879.762	4232.81
880.08	4195.75
880.398	4176.32
880.716	4186.03
881.034	4251.12
881.352	4181.06
881.67	4148.97
881.988	4147.84
882.306	4179.48
882.624	4143.1
882.941	4085.47
883.259	4076.21
883.577	4119.82
883.894	4110.56
884.212	4087.73
884.529	4078.92
884.846	4062.42
885.164	4056.55
885.481	4030.56
885.798	4071.69
886.115	4019.26
886.432	3991.46
886.75	4044.79
887.067	4018.35
887.383	4007.96
887.7	4003.21
888.017	4006.83
888.334	4001.41
888.651	3979.94
888.967	3968.86
889.284	3922.76
889.6	3885.02
889.917	3901.3
890.233	3967.51
890.55	3901.07
890.866	3945.36
891.182	3910.11
891.498	3910.11
891.815	3905.59
892.131	3866.95
892.447	3872.82
892.763	3878.02
893.079	3817
893.395	3860.84
893.71	3828.76
894.026	3791.92
894.342	3812.94
894.657	3786.95
894.973	3755.54
895.289	3783.56
895.604	3760.96
895.92	3753.5
896.235	3685.71
896.55	3743.11
896.865	3722.54
897.181	3724.58
897.496	3713.96
897.811	3711.7
898.126	3696.1
898.441	3671.25
898.756	3660.85
899.071	3666.5
899.386	3625.82
899.7	3604.81
900.015	3632.15
900.33	3586.05
900.644	3573.62
900.959	3572.04
901.273	3542.89
901.588	3551.25
901.902	3581.53
902.216	3495.43
902.531	3518.71
902.845	3498.82
903.159	3503.79
903.473	3530.01
903.787	3462.66
904.101	3440.29
904.415	3437.35
904.729	3448.88
905.042	3424.92
905.356	3365.49
905.67	3422.89
905.984	3435.55
906.297	3382.21
906.611	3350.35
906.924	3383.8
907.237	3357.13
907.551	3340.86
907.864	3318.71
908.177	3315.32
908.491	3336.56
908.804	3304.7
909.117	3263.12
909.43	3304.7
909.743	3283.46
910.056	3269.67
910.368	3225.16
910.681	3232.39
910.994	3243.91
911.307	3237.36
911.619	3208.21
911.932	3179.05
912.244	3216.12
912.557	3191.94
912.869	3162.56
913.181	3156.91
913.494	3132.28
913.806	3125.04
914.118	3126.85
914.43	3106.29
914.742	3102.67
915.054	3068.1
915.366	3047.76
915.678	3074.65
915.99	3097.02
916.302	3069
916.613	3027.65
916.925	2998.04
917.236	3044.82
917.548	3017.25
917.859	3000.08
918.171	3005.5
918.482	3020.64
918.794	2959.17
919.105	2919.17
919.416	2913.75
919.727	2928.89
920.038	2925.95
920.349	2910.14
920.66	2933.64
920.971	2878.72
921.282	2865.62
921.593	2856.13
921.903	2851.83
922.214	2835.34
922.525	2831.49
922.835	2868.55
923.146	2813.87
923.456	2805.73
923.767	2822.45
924.077	2763.92
924.387	2760.99
924.697	2780.2
925.008	2754.21
925.318	2744.49
925.628	2741.33
925.938	2721.21
926.248	2711.04
926.558	2684.15
926.867	2704.49
927.177	2697.26
927.487	2662.68
927.796	2675.34
928.106	2678.95
928.416	2667.2
928.725	2661.33
929.034	2666.98
929.344	2624.72
929.653	2625.4
929.962	2606.19
930.271	2587.43
930.581	2593.76
930.89	2560.09
931.199	2547.66
931.508	2542.01
931.817	2548.79
932.125	2551.05
932.434	2529.58
932.743	2500.65
933.051	2480.77
933.36	2495.01
933.669	2449.13
933.977	2475.57
934.286	2496.81
934.594	2467.89
934.902	2471.5
935.21	2467.21
935.519	2447.77
935.827	2448.9
936.135	2426.08
936.443	2409.58
936.751	2393.76
937.059	2402.8
937.367	2387.66
937.674	2389.92
937.982	2377.27
938.29	2355.35
938.597	2363.26
938.905	2330.49
939.213	2349.02
939.52	2333.2
939.827	2306.08
940.135	2295.24
940.442	2287.78
940.749	2289.36
941.056	2322.13
941.363	2267.67
941.67	2265.63
941.977	2265.86
942.284	2250.49
942.591	2248.91
942.898	2238.97
943.205	2236.93
943.511	2201.45
943.818	2209.36
944.125	2241.9
944.431	2170.04
944.738	2205.3
945.044	2172.75
945.35	2169.36
945.657	2181.79
945.963	2147.67
946.269	2178.18
946.575	2126.43
946.881	2167.56
947.187	2128.46
947.493	2111.96
947.799	2099.99
948.105	2108.57
948.41	2087.33
948.716	2085.07
949.022	2063.6
949.327	2062.7
949.633	2071.97
949.938	2062.7
950.244	2030.16
950.549	2036.26
950.854	2049.14
951.16	2029.03
951.465	2042.81
951.77	2008.01
952.075	2040.78
952.38	2015.24
952.685	2001.46
952.99	1988.8
953.294	1993.32
953.599	1981.35
953.904	1960.1
954.209	1976.37
954.513	1949.48
954.818	1953.78
955.122	1938.64
955.426	1956.49
955.731	1935.47
956.035	1924.62
956.339	1936.6
956.643	1918.97
956.948	1917.62
957.252	1924.4
957.556	1889.6
957.86	1869.94
958.163	1863.16
958.467	1840.33
958.771	1865.64
959.075	1890.5
959.378	1845.08
959.682	1873.78
959.985	1821.12
960.289	1821.12
960.592	1819.32
960.896	1812.09
961.199	1797.62
961.502	1785.19
961.805	1799.43
962.108	1778.19
962.411	1789.94
962.714	1763.5
963.017	1771.63
963.32	1741.58
963.623	1765.53
963.926	1780.22
964.228	1758.98
964.531	1756.49
964.833	1731.64
965.136	1718.3
965.438	1723.5
965.741	1722.14
966.043	1729.83
966.345	1688.02
966.648	1685.53
966.95	1686.66
967.252	1649.83
967.554	1666.78
967.856	1655.03
968.158	1675.14
968.46	1634.24
968.761	1664.52
969.063	1650.73
969.365	1626.78
969.666	1613.22
969.968	1644.63
970.269	1638.08
970.571	1610.28
970.872	1624.07
971.174	1603.96
971.475	1596.5
971.776	1584.97
972.077	1601.7
972.378	1562.37
972.679	1589.27
972.98	1540.91
973.281	1550.62
973.582	1568.93
973.883	1577.97
974.183	1530.06
974.484	1533
974.785	1557.4
975.085	1529.38
975.386	1545.65
975.686	1529.38
975.986	1515.14
976.287	1531.87
976.587	1521.02
976.887	1518.08
977.187	1513.34
977.487	1484.86
977.787	1476.73
978.087	1470.4
978.387	1465.88
978.687	1478.76
978.987	1442.83
979.286	1411.64
979.586	1453.22
979.885	1437.63
980.185	1423.17
980.484	1449.38
980.784	1424.75
981.083	1431.53
981.382	1424.75
981.682	1400.34
981.981	1408.71
982.28	1416.39
982.579	1392.66
982.878	1421.13
983.177	1394.02
983.475	1381.36
983.774	1373
984.073	1377.97
984.372	1352.44
984.67	1363.96
984.969	1347.69
985.267	1364.19
985.566	1350.4
985.864	1340.46
986.162	1369.61
986.461	1323.51
986.759	1318.09
987.057	1326.22
987.355	1352.89
987.653	1315.83
987.951	1328.03
988.249	1280.8
988.547	1317.63
988.844	1322.61
989.142	1293
989.44	1287.81
989.737	1283.29
990.035	1273.57
990.332	1266.11
990.63	1268.37
990.927	1270.4
991.224	1258.65
991.521	1235.15
991.819	1259.56
992.116	1246
992.413	1264.53
992.71	1231.08
993.006	1238.99
993.303	1214.59
993.6	1222.5
993.897	1219.33
994.193	1215.26
994.49	1229.73
994.787	1208.26
995.083	1213.46
995.379	1196.28
995.676	1174.14
995.972	1189.95
996.268	1184.53
996.565	1196.73
996.861	1163.74
997.157	1195.38
997.453	1149.28
997.749	1133.23
998.044	1154.93
998.34	1135.27
998.636	1182.27
998.932	1150.63
999.227	1129.84
999.523	1162.61
999.818	1107.02
1000.114	1113.57
1000.409	1082.16
1000.704	1093.91
1001	1103.63
1001.295	1093.91
1001.59	1103.18
1001.885	1091.88
1002.18	1074.03
1002.475	1071.09
1002.77	1069.28
1003.065	1075.16
1003.359	1047.59
1003.654	1053.91
1003.949	1056.17
1004.243	1060.01
1004.538	1055.95
1004.832	1054.36
1005.127	1031.99
1005.421	1024.76
1005.715	1015.95
1006.009	1037.42
1006.304	1022.5
1006.598	1005.1
1006.892	1018.21
1007.186	988.38
1007.48	1006.91
1007.773	987.02
1008.067	994.93
1008.361	972.11
1008.655	995.16
1008.948	973.46
1009.242	977.98
1009.535	988.6
1009.829	978.43
1010.122	953.58
1010.415	938.21
1010.708	925.33
1011.001	943.86
1011.295	919.68
1011.588	911.09
1011.881	950.86
1012.173	930.07
1012.466	902.96
1012.759	895.73
1013.052	934.14
1013.344	906.35
1013.637	890.98
1013.93	912.45
1014.222	886.69
1014.514	912.67
1014.807	882.17
1015.099	879.45
1015.391	888.72
1015.683	883.52
1015.976	896.4
1016.268	880.81
1016.56	876.29
1016.851	858.89
1017.143	854.37
1017.435	841.72
1017.727	850.08
1018.018	858.44
1018.31	841.26
1018.602	836.07
1018.893	833.35
1019.185	851.88
1019.476	843.75
1019.767	823.18
1020.058	819.12
1020.35	794.94
1020.641	813.69
1020.932	791.32
1021.223	795.39
1021.514	802.62
1021.804	783.64
1022.095	789.06
1022.386	806.46
1022.677	781.15
1022.967	765.56
1023.258	772.34
1023.548	752.23
1023.839	782.96
1024.129	740.02
1024.419	755.16
1024.709	747.93
1025	732.11
1025.29	754.94
1025.58	757.2
1025.87	755.62
1026.16	740.02
1026.449	746.8
1026.739	727.59
1027.029	728.95
1027.319	732.79
1027.608	731.21
1027.898	711.1
1028.187	718.55
1028.477	729.4
1028.766	707.48
1029.055	698.89
1029.344	712.23
1029.634	704.77
1029.923	697.76
1030.212	687.14
1030.501	698.44
1030.79	691.66
1031.078	679.91
1031.367	666.8
1031.656	679.01
1031.945	652.34
1032.233	676.97
1032.522	668.84
1032.81	662.96
1033.099	668.39
1033.387	642.85
1033.675	651.66
1033.963	661.61
1034.251	635.62
1034.54	642.4
1034.828	637.2
1035.116	612.34
1035.403	625.68
1035.691	647.14
1035.979	632.68
1036.267	602.17
1036.554	635.62
1036.842	604.66
1037.129	614.38
1037.417	602.85
1037.704	610.99
1037.992	624.09
1038.279	615.96
1038.566	593.59
1038.853	593.59
1039.14	593.59
