Data from tablewood_dark_bookshelf_FLMS001491_00011.txt Node
Date: Wed Feb 08 14:13:42 GMT 2017
User: dcchb
Spectrometer: FLMS00149
Trigger mode: 0
Integration Time (sec): 2.000000E-2
Scans to average: 10
Electric dark correction enabled: true
Nonlinearity correction enabled: false
Boxcar width: 0
XAxis mode: Wavelengths
Number of Pixels in Spectrum: 2048
>>>>>Begin Spectral Data<<<<<
341.393	2.23
341.776	2.23
342.16	2.23
342.543	-55.62
342.927	-72.34
343.31	-55.85
343.693	-65.34
344.077	-76.41
344.46	-58.78
344.843	-46.58
345.226	-56.3
345.61	-9.52
345.993	-39.8
346.376	-10.2
346.759	9.01
347.142	35.9
347.525	61.21
347.908	51.04
348.291	99.18
348.674	64.83
349.057	97.6
349.44	128.56
349.823	135.11
350.206	142.34
350.588	183.24
350.971	196.12
351.354	218.72
351.737	220.98
352.119	246.52
352.502	273.86
352.884	268.67
353.267	285.39
353.65	298.04
354.032	282
354.414	291.94
354.797	307.76
355.179	311.83
355.562	330.58
355.944	319.51
356.326	322.22
356.709	333.07
357.091	319.96
357.473	352.05
357.855	332.17
358.238	339.62
358.62	351.6
359.002	326.74
359.384	327.19
359.766	341.66
360.148	327.87
360.53	314.77
360.912	324.03
361.294	338.27
361.676	329.45
362.057	322.45
362.439	334.2
362.821	321.09
363.203	343.69
363.584	328.55
363.966	340.08
364.348	324.93
364.729	328.55
365.111	313.86
365.493	328.1
365.874	330.81
366.256	315.44
366.637	317.48
367.019	304.6
367.4	328.1
367.781	324.71
368.163	313.18
368.544	320.19
368.925	299.4
369.306	312.28
369.688	330.81
370.069	322
370.45	306.18
370.831	313.64
371.212	326.06
371.593	319.96
371.974	328.32
372.355	306.4
372.736	349.12
373.117	310.92
373.498	305.05
373.879	329.91
374.26	320.87
374.641	296.69
375.021	341.43
375.402	327.65
375.783	329.45
376.163	352.5
376.544	343.01
376.925	314.77
377.305	343.47
377.686	326.74
378.066	325.61
378.447	347.99
378.827	352.28
379.208	317.7
379.588	339.4
379.968	336.91
380.349	374.43
380.729	345.05
381.109	353.63
381.489	336.91
381.87	343.92
382.25	351.37
382.63	360.19
383.01	348.66
383.39	350.47
383.77	369.68
384.15	380.75
384.53	366.29
384.91	345.27
385.29	365.84
385.67	368.78
386.049	370.13
386.429	371.49
386.809	370.58
387.189	369.91
387.568	380.75
387.948	364.26
388.328	391.83
388.707	375.78
389.087	368.55
389.466	390.92
389.846	390.02
390.225	373.52
390.605	396.8
390.984	381.66
391.363	397.93
391.743	390.92
392.122	387.31
392.501	398.15
392.881	404.03
393.26	398.15
393.639	401.32
394.018	416.91
394.397	415.33
394.776	435.89
395.155	434.31
395.534	383.46
395.913	424.59
396.292	423.46
396.671	433.63
397.05	417.59
397.429	419.62
397.808	437.02
398.186	431.82
398.565	443.35
398.944	451.03
399.323	433.18
399.701	436.12
400.08	452.39
400.458	446.29
400.837	443.12
401.215	468.21
401.594	444.25
401.972	458.72
402.351	453.52
402.729	455.55
403.107	460.75
403.486	469.79
403.864	464.82
404.242	474.54
404.62	471.37
404.999	501.65
405.377	487.42
405.755	495.1
406.133	496.46
406.511	492.39
406.889	518.6
407.267	508.88
407.645	487.64
408.023	510.69
408.401	484.93
408.779	489
409.156	519.51
409.534	494.42
409.912	529
410.29	532.16
410.667	524.03
411.045	547.75
411.422	541.2
411.8	533.29
412.178	554.76
412.555	553.86
412.933	536.68
413.31	571.03
413.687	579.62
414.065	584.59
414.442	560.63
414.819	573.97
415.197	584.82
415.574	576.91
415.951	584.59
416.328	594.98
416.705	573.52
417.082	604.7
417.46	598.6
417.837	614.19
418.214	618.94
418.591	642.67
418.967	622.55
419.344	598.6
419.721	618.26
420.098	620.75
420.475	636.11
420.852	634.53
421.228	648.32
421.605	645.38
421.982	656.23
422.358	676.11
422.735	685.15
423.111	671.82
423.488	669.11
423.864	684.7
424.241	704.81
424.617	701.2
424.994	705.26
425.37	720.18
425.746	702.33
426.123	730.8
426.499	698.03
426.875	711.14
427.251	726.51
427.627	752.49
428.003	753.4
428.379	740.74
428.756	782.32
429.132	767.86
429.507	785.49
429.883	790.23
430.259	787.3
430.635	800.63
431.011	782.78
431.387	814.19
431.763	823.23
432.138	813.96
432.514	823.9
432.89	851.02
433.265	838.14
433.641	869.55
434.016	847.18
434.392	883.79
434.767	884.02
435.143	894.64
435.518	926.28
435.894	902.77
436.269	907.74
436.644	934.41
437.02	915.2
437.395	950
437.77	919.72
438.145	961.98
438.52	959.95
438.895	992.26
439.271	983.22
439.646	986.84
440.021	999.27
440.395	981.64
440.77	966.95
441.145	994.07
441.52	1013.5
441.895	1032.26
442.27	1002.66
442.645	1036.33
443.019	1012.37
443.394	1032.26
443.769	1052.15
444.143	1028.42
444.518	1065.25
444.892	1077.01
445.267	1053.73
445.641	1080.85
446.016	1095.76
446.39	1066.38
446.764	1103.22
447.139	1101.19
447.513	1094.63
447.887	1091.69
448.262	1132.82
448.636	1113.84
449.01	1139.38
449.384	1143.22
449.758	1153.16
450.132	1145.93
450.506	1160.62
450.88	1176.21
451.254	1161.07
451.628	1174.86
452.002	1206.27
452.376	1210.11
452.75	1213.05
453.123	1227.51
453.497	1218.92
453.871	1271.12
454.244	1253.05
454.618	1271.8
454.992	1290.11
455.365	1309.77
455.739	1323.1
456.112	1335.3
456.486	1344.57
456.859	1362.87
457.232	1371.46
457.606	1373.95
457.979	1399.26
458.352	1451.01
458.725	1425.7
459.099	1467.05
459.472	1465.92
459.845	1470.89
460.218	1495.75
460.591	1488.97
460.964	1521.97
461.337	1510.89
461.71	1559.03
462.083	1556.77
462.456	1581.17
462.829	1561.06
463.201	1594.96
463.574	1597.44
463.947	1641.74
464.32	1678.57
464.692	1676.76
465.065	1704.79
465.438	1705.69
465.81	1731.45
466.183	1752.47
466.555	1744.56
466.928	1783.2
467.3	1816.42
467.672	1840.83
468.045	1842.64
468.417	1834.27
468.789	1854.39
469.161	1928.06
469.534	1936.87
469.906	1944.33
470.278	1990.43
470.65	1978.45
471.022	2051.22
471.394	2076.08
471.766	2075.4
472.138	2067.49
472.51	2131.89
472.882	2169.63
473.253	2204.89
473.625	2231.78
473.997	2257.09
474.369	2254.15
474.74	2292.79
475.112	2343.19
475.484	2355.84
475.855	2395.39
476.227	2412.79
476.598	2473.35
476.97	2497.53
477.341	2569.4
477.713	2587.47
478.084	2588.38
478.455	2675.61
478.827	2702.73
479.198	2781.59
479.569	2766.23
479.94	2824.08
480.311	2876.73
480.682	2922.61
481.053	2980.91
481.424	3021.81
481.795	3032.21
482.166	3085.77
482.537	3162.37
482.908	3161.92
483.279	3216.84
483.65	3257.74
484.021	3311.52
484.391	3387.91
484.762	3381.13
485.133	3419.54
485.503	3492.54
485.874	3551.29
486.244	3568.24
486.615	3622.93
486.985	3703.83
487.356	3742.02
487.726	3777.27
488.097	3834.22
488.467	3877.16
488.837	3925.74
489.207	3995.35
489.578	4032.41
489.948	4073.31
490.318	4116.02
490.688	4133.2
491.058	4160.77
491.428	4232.18
491.798	4248
492.168	4364.15
492.538	4367.99
492.908	4433.3
493.278	4461.32
493.648	4465.62
494.017	4556.91
494.387	4609.57
494.757	4623.35
495.126	4627.42
495.496	4667.19
495.866	4713.29
496.235	4739.51
496.605	4801.2
496.974	4838.04
497.344	4857.92
497.713	4871.03
498.082	4926.62
498.452	4959.84
498.821	4977.02
499.19	5014.76
499.559	5094.08
499.928	5123
500.298	5116.22
500.667	5168.42
501.036	5221.08
501.405	5237.35
501.774	5260.85
502.143	5327.97
502.512	5336.78
502.88	5372.49
503.249	5375.2
503.618	5458.13
503.987	5405.93
504.356	5499.49
504.724	5546.72
505.093	5540.62
505.462	5583.55
505.83	5607.28
506.199	5689.31
506.567	5741.52
506.936	5793.04
507.304	5824
507.672	5817.67
508.041	5862.87
508.409	5887.5
508.777	5965.69
509.145	6044.56
509.514	5989.87
509.882	6083.2
510.25	6077.33
510.618	6088.85
510.986	6162.07
511.354	6252.24
511.722	6269.86
512.09	6311.67
512.458	6378.56
512.826	6455.4
513.193	6441.38
513.561	6406.58
513.929	6518.22
514.297	6593.7
514.664	6583.08
515.032	6610.42
515.4	6706.69
515.767	6730.42
516.135	6781.49
516.502	6776.97
516.869	6908.49
517.237	6891.09
517.604	6851.09
517.972	7049.73
518.339	7004.31
518.706	7071.42
519.073	7139.9
519.44	7170.4
519.808	7261.48
520.175	7242.72
520.542	7353.22
520.909	7313
521.276	7427.12
521.643	7527.01
522.009	7550.96
522.376	7656.27
522.743	7655.14
523.11	7773.78
523.477	7782.37
523.843	7879.99
524.21	7935.81
524.577	7965.19
524.943	8090.15
525.31	8100.78
525.676	8138.97
526.043	8194.33
526.409	8266.2
526.776	8379.64
527.142	8436.59
527.508	8442.46
527.874	8493.08
528.241	8544.15
528.607	8512.52
528.973	8646.52
529.339	8692.17
529.705	8748.44
530.071	8782.79
530.437	8835.45
530.803	8850.59
531.169	8914.09
531.535	8977.36
531.901	8988.89
532.267	9092.39
532.632	9099.62
532.998	9162.22
533.364	9225.04
533.73	9273.17
534.095	9281.31
534.461	9342.55
534.826	9386.62
535.192	9452.38
535.557	9521.08
535.923	9507.97
536.288	9579.83
536.653	9606.05
537.019	9651.47
537.384	9680.85
537.749	9705.03
538.114	9748.64
538.479	9777.34
538.845	9861.41
539.21	9839.04
539.575	9888.98
539.94	9953.61
540.305	9975.98
540.67	10058.69
541.034	10061.85
541.399	10131.46
541.764	10099.59
542.129	10198.8
542.494	10165.58
542.858	10266.82
543.223	10234.5
543.587	10350.89
543.952	10357.89
544.316	10382.98
544.681	10331
545.045	10436.99
545.41	10501.62
545.774	10491.45
546.138	10556.98
546.503	10637.21
546.867	10597.66
547.231	10759.91
547.595	10696.19
547.959	10778.9
548.324	10775.73
548.688	10842.85
549.052	10820.7
549.416	10893.7
549.779	10893.92
550.143	10956.52
550.507	11029.96
550.871	11064.99
551.235	11071.77
551.599	11171.66
551.962	11137.98
552.326	11275.83
552.689	11335.72
553.053	11289.62
553.417	11361.71
553.78	11528.71
554.143	11455.26
554.507	11453.23
554.87	11533.23
555.234	11746.1
555.597	11546.56
555.96	11692.77
556.323	11770.06
556.686	11779.32
557.05	11867.91
557.413	11963.5
557.776	11959.88
558.139	12073.1
558.502	12125.08
558.865	12135.47
559.228	12227.9
559.59	12381.79
559.953	12317.61
560.316	12494.33
560.679	12503.15
561.041	12609.58
561.404	12626.08
561.767	12665.85
562.129	12706.3
562.492	12853.65
562.854	12871.5
563.217	12862.68
563.579	12949.01
563.941	13031.49
564.304	13128.21
564.666	13219.96
565.028	13244.6
565.39	13387.64
565.753	13405.95
566.115	13390.35
566.477	13561.88
566.839	13539.28
567.201	13681.65
567.563	13716.67
567.925	13815.65
568.287	13821.3
568.648	13915.31
569.01	13959.83
569.372	14027.85
569.734	14006.84
570.095	14136.55
570.457	14333.38
570.819	14314.17
571.18	14259.03
571.542	14489.08
571.903	14452.93
572.265	14521.85
572.626	14593.26
572.987	14671.45
573.349	14748.06
573.71	14788.06
574.071	14888.85
574.432	14908.73
574.794	15084.32
575.155	14997.32
575.516	15046.58
575.877	15122.96
576.238	15182.85
576.599	15315.5
576.96	15240.7
577.32	15262.85
577.681	15381.94
578.042	15529.96
578.403	15615.38
578.763	15532.22
579.124	15583.74
579.485	15683.4
579.845	15820.12
580.206	15701.03
580.566	15729.05
580.927	15741.7
581.287	15932.89
581.648	15902.83
582.008	15967.91
582.368	15960
582.728	16100.57
583.089	16065.54
583.449	16065.54
583.809	16152.99
584.169	16168.36
584.529	16112.09
584.889	16338.75
585.249	16196.61
585.609	16362.48
585.969	16340.79
586.329	16311.86
586.688	16457.17
587.048	16428.47
587.408	16455.81
587.768	16504.4
588.127	16420.56
588.487	16506.2
588.846	16610.83
589.206	16502.14
589.565	16546.2
589.925	16658.74
590.284	16696.48
590.643	16686.31
591.003	16765.63
591.362	16787.55
591.721	16728.57
592.08	16788.46
592.44	16834.78
592.799	16865.97
593.158	16870.71
593.517	16909.81
593.876	17028.9
594.235	16951.84
594.593	17128.33
594.952	17139.41
595.311	17046.98
595.67	17171.27
596.029	17209.69
596.387	17239.52
596.746	17298.73
597.104	17216.02
597.463	17153.65
597.822	17451.26
598.18	17214.43
598.538	17301.21
598.897	17311.83
599.255	17321.78
599.613	17576.23
599.972	17474.09
600.33	17563.58
600.688	17551.15
601.046	17554.31
601.404	17686.74
601.762	17653.52
602.12	17767.87
602.478	17677.47
602.836	17725.38
603.194	17725.38
603.552	17724.25
603.91	17699.62
604.268	17864.81
604.625	17767.19
604.983	17913.17
605.341	17919.05
605.698	17939.16
606.056	17980.74
606.413	18062.1
606.771	18142.55
607.128	18072.49
607.485	18124.47
607.843	18090.34
608.2	18276.55
608.557	18290.34
608.914	18158.82
609.272	18289.43
609.629	18330.56
609.986	18433.61
610.343	18326.95
610.7	18508.86
611.057	18413.05
611.414	18456.21
611.771	18439.26
612.127	18570.56
612.484	18566.72
612.841	18576.43
613.198	18548.64
613.554	18575.98
613.911	18706.15
614.267	18701.63
614.624	18787.27
614.98	18813.94
615.337	18816.2
615.693	18740.95
616.05	18815.07
616.406	18978
616.762	18919.02
617.118	18847.16
617.475	18865.01
617.831	18951.79
618.187	18940.94
618.543	19016.65
618.899	19068.62
619.255	18986.59
619.611	18998.79
619.967	19079.47
620.323	19203.76
620.678	19168.06
621.034	19077.66
621.39	19136.42
621.746	19067.49
622.101	19319.46
622.457	19211.9
622.812	19271.1
623.168	19229.97
623.523	19297.77
623.879	19257.09
624.234	19213.48
624.589	19328.73
624.945	19199.92
625.3	19290.31
625.655	19229.52
626.01	19281.5
626.365	19362.4
626.72	19271.56
627.075	19284.89
627.43	19217.77
627.785	19111.79
628.14	19208.28
628.495	19213.7
628.85	19195.4
629.205	19090.09
629.559	19291.44
629.914	19135.74
630.269	19204.44
630.623	19119.24
630.978	19218.45
631.332	19229.75
631.687	19224.33
632.041	19066.36
632.396	19215.96
632.75	19118.79
633.104	19164.67
633.459	19076.31
633.813	19086.25
634.167	19026.14
634.521	19025.46
634.875	19048.28
635.229	19060.71
635.583	18947.5
635.937	18943.88
636.291	18907.95
636.645	18984.78
636.999	18973.71
637.352	19029.53
637.706	18864.56
638.06	18888.51
638.413	18833.83
638.767	18808.52
639.121	18907.5
639.474	18747.28
639.828	18758.12
640.181	18795.18
640.534	18854.39
640.888	18703.89
641.241	18710.89
641.594	18692.36
641.947	18698.01
642.301	18516.77
642.654	18709.99
643.007	18763.09
643.36	18718.8
643.713	18689.65
644.066	18717.22
644.419	18600.84
644.771	18484.46
645.124	18363.78
645.477	18278.36
645.83	18183.22
646.182	18104.81
646.535	18033.85
646.888	18129.66
647.24	17939.16
647.593	18075.2
647.945	18066.62
648.298	17870.69
648.65	17945.71
649.002	17950.46
649.355	18033.62
649.707	17974.19
650.059	18085.6
650.411	18279.27
650.763	18302.77
651.115	18465.02
651.467	18505.7
651.819	18389.77
652.171	18404.91
652.523	18323.56
652.875	18327.17
653.227	18325.59
653.578	18364.46
653.93	18231.36
654.282	18223.22
654.633	18212.6
654.985	18262.77
655.337	18272.26
655.688	18314.74
656.039	18374.86
656.391	18185.93
656.742	18274.75
657.094	18299.83
657.445	18326.27
657.796	18199.72
658.147	18204.46
658.498	18232.71
658.849	18174.18
659.2	18211.92
659.551	18203.56
659.902	18248.98
660.253	18244.92
660.604	18202.21
660.955	18148.42
661.306	18125.37
661.656	18167.18
662.007	18121.76
662.358	18169.89
662.708	18137.12
663.059	18074.3
663.409	18016.67
663.76	18257.57
664.11	18184.35
664.461	18261.41
664.811	18179.83
665.161	18160.62
665.511	18135.54
665.862	18118.82
666.212	18207.4
666.562	18202.66
666.912	18240.62
667.262	18088.76
667.612	18094.19
667.962	18177.12
668.312	18085.82
668.662	18108.65
669.011	18194.07
669.361	18055.77
669.711	18116.11
670.06	18170.57
670.41	18105.48
670.76	18092.6
671.109	18214.63
671.459	18200.85
671.808	18163.34
672.157	18159.72
672.507	18069.1
672.856	18045.82
673.205	18098.7
673.554	18132.83
673.904	18003.79
674.253	18165.6
674.602	18113.17
674.951	17826.17
675.3	17730.13
675.649	18036.33
675.998	18069.78
676.346	18003.57
676.695	18130.79
677.044	17879.95
677.393	18064.81
677.741	18090.8
678.09	18020.74
678.438	17976.9
678.787	17986.17
679.135	17924.47
679.484	17893.51
679.832	17923.79
680.181	17863.23
680.529	17893.29
680.877	17932.61
681.225	17806.96
681.573	18007.63
681.922	17865.26
682.27	17733.97
682.618	17648.77
682.966	17712.27
683.314	17739.62
683.661	17700.3
684.009	17707.08
684.357	17510.47
684.705	17571.04
685.053	17597.02
685.4	17582.56
685.748	17602.9
686.095	17532.84
686.443	17459.17
686.79	17402.45
687.138	17473.64
687.485	17434.99
687.832	17500.75
688.18	17508.44
688.527	17399.51
688.874	17301.44
689.221	17338.27
689.568	17309.35
689.915	17296.92
690.262	17235.68
690.609	17202.46
690.956	17186.19
691.303	17105.51
691.65	16996.81
691.997	16984.84
692.344	16959.53
692.69	16960.66
693.037	16934.44
693.383	16883.82
693.73	16848.79
694.077	16857.38
694.423	16820.55
694.769	16704.62
695.116	16752.75
695.462	16825.07
695.808	16621.46
696.155	16658.74
696.501	16611.96
696.847	16627.11
697.193	16515.02
697.539	16483.15
697.885	16465.08
698.231	16328.81
698.577	16371.52
698.923	16304.63
699.269	16248.58
699.614	16205.87
699.96	16203.84
700.306	16180.79
700.651	16091.07
700.997	15983.51
701.342	16020.12
701.688	16044.52
702.033	15984.18
702.379	15961.13
702.724	15931.53
703.069	15967.46
703.415	15827.35
703.76	15797.07
704.105	15797.75
704.45	15769.27
704.795	15710.29
705.14	15728.82
705.485	15681.59
705.83	15505.1
706.175	15435.5
706.52	15479.34
706.865	15508.94
707.209	15456.97
707.554	15445.44
707.899	15474.82
708.243	15452.67
708.588	15382.39
708.932	15290.64
709.277	15322.96
709.621	15330.42
709.966	15266.69
710.31	15237.99
710.654	15077.99
710.998	15045.45
711.342	15152.79
711.687	15160.93
712.031	15108.5
712.375	15033.7
712.719	15004.55
713.063	15035.96
713.407	15016.07
713.75	14934.27
714.094	14901.5
714.438	14906.02
714.782	14956.64
715.125	14843.42
715.469	14843.65
715.812	14794.39
716.156	14750.54
716.499	14756.42
716.843	14821.28
717.186	14697.89
717.53	14780.6
717.873	14785.12
718.216	14681.85
718.559	14601.85
718.902	14568.85
719.246	14623.99
719.589	14558.01
719.932	14495.64
720.275	14593.49
720.617	14496.54
720.96	14516.65
721.303	14496.99
721.646	14556.65
721.989	14527.73
722.331	14487.5
722.674	14416.09
723.016	14469.2
723.359	14407.28
723.701	14437.78
724.044	14340.39
724.386	14266.94
724.729	14350.1
725.071	14253.83
725.413	14288.41
725.755	14312.59
726.097	14232.59
726.439	14166.6
726.782	14214.74
727.124	14173.61
727.465	14142.88
727.807	14142.65
728.149	14210.22
728.491	14148.07
728.833	14148.53
729.175	14093.61
729.516	14072.14
729.858	13996.44
730.199	14013.16
730.541	14041.86
730.882	14048.64
731.224	14032.6
731.565	14054.74
731.906	13967.74
732.248	14030.34
732.589	13923
732.93	13906.27
733.271	14005.03
733.612	13964.35
733.953	13974.07
734.294	13899.95
734.635	13860.17
734.976	13922.09
735.317	13836.22
735.658	13843.68
735.999	13887.74
736.339	13825.14
736.68	13803.45
737.021	13804.35
737.361	13745.37
737.702	13810.23
738.042	13821.08
738.383	13663.57
738.723	13805.71
739.063	13711.48
739.404	13698.14
739.744	13624.02
740.084	13725.94
740.424	13661.99
740.764	13586.51
741.104	13672.61
741.444	13572.04
741.784	13553.29
742.124	13605.26
742.464	13558.03
742.804	13522.33
743.143	13529.79
743.483	13599.16
743.823	13486.4
744.162	13504.25
744.502	13499.5
744.841	13461.09
745.181	13508.77
745.52	13405.72
745.86	13412.5
746.199	13364.59
746.538	13409.11
746.877	13429
747.216	13452.27
747.556	13367.3
747.895	13348.77
748.234	13290.92
748.573	13313.07
748.911	13263.35
749.25	13339.51
749.589	13211.38
749.928	13304.48
750.267	13283.92
750.605	13234.43
750.944	13175.22
751.283	13185.39
751.621	13216.57
751.96	13107.65
752.298	13153.52
752.636	13078.95
752.975	12958.95
753.313	12981.55
753.651	12984.94
753.989	12916.47
754.327	12938.61
754.666	12993.08
755.004	12939.97
755.342	13021.32
755.679	12946.07
756.017	12878.28
756.355	12890.03
756.693	12779.97
757.031	12766.64
757.368	12746.76
757.706	12731.39
758.044	12675.8
758.381	12641
758.719	12625.18
759.056	12660.66
759.394	12665.63
759.731	12393.54
760.068	12494.78
760.405	12494.11
760.743	12437.84
761.08	12442.58
761.417	12330.95
761.754	12293.43
762.091	12238.75
762.428	12243.72
762.765	12216.15
763.102	12244.17
763.438	12140.44
763.775	12066.77
764.112	12074.91
764.449	12121.23
764.785	12026.32
765.122	11897.74
765.458	11908.36
765.795	11901.58
766.131	11808.93
766.467	11829.04
766.804	11787.46
767.14	11725.54
767.476	11748.36
767.812	11672.66
768.148	11608.25
768.485	11559.22
768.821	11423.85
769.157	11412.33
769.492	11481.7
769.828	11478.99
770.164	11360.58
770.5	11385.89
770.836	11310.18
771.171	11273.57
771.507	11247.81
771.842	11151.99
772.178	11137.98
772.513	11065.44
772.849	11080.81
773.184	11053.69
773.519	10955.39
773.855	10975.73
774.19	10956.29
774.525	10854.6
774.86	10890.76
775.195	10820.03
775.53	10749.29
775.865	10801.72
776.2	10575.74
776.535	10663.42
776.87	10676.08
777.205	10505.91
777.539	10528.73
777.874	10517.66
778.209	10421.62
778.543	10394.05
778.878	10414.39
779.212	10301.62
779.547	10263.2
779.881	10293.26
780.215	10195.64
780.55	10351.11
780.884	10134.62
781.218	10131.91
781.552	10137.33
781.886	10116.32
782.22	10036.77
782.554	9946.6
782.888	9979.37
783.222	9860.05
783.556	9854.85
783.889	9787.74
784.223	9712.26
784.557	9667.29
784.89	9730.34
785.224	9735.99
785.557	9535.77
785.891	9628.65
786.224	9575.99
786.558	9586.84
786.891	9439.95
787.224	9493.96
787.557	9405.15
787.891	9383
788.224	9360.18
788.557	9364.7
788.89	9314.98
789.223	9344.13
789.556	9203.57
789.888	9271.59
790.221	9213.29
790.554	9104.37
790.887	9168.09
791.219	9118.83
791.552	9014.88
791.884	9010.36
792.217	9005.38
792.549	8960.41
792.882	8863.02
793.214	8830.93
793.546	8808.33
793.879	8785.73
794.211	8696.01
794.543	8779.18
794.875	8716.13
795.207	8690.36
795.539	8665.05
795.871	8698.27
796.203	8641.33
796.535	8564.94
796.867	8547.32
797.198	8546.64
797.53	8489.92
797.862	8462.35
798.193	8412.41
798.525	8337.83
798.856	8382.12
799.188	8318.85
799.519	8260.09
799.85	8284.27
800.182	8268.68
800.513	8267.78
800.844	8159.08
801.175	8210.38
801.506	8150.94
801.837	8122.47
802.168	8128.57
802.499	8113.88
802.83	8094.9
803.161	8016.26
803.491	8021.68
803.822	8036.6
804.153	7993.89
804.483	7930.38
804.814	7883.61
805.145	7896.71
805.475	7884.06
805.805	7829.14
806.136	7859.43
806.466	7842.93
806.796	7800.44
807.126	7709.37
807.457	7695.14
807.787	7733.55
808.117	7694.68
808.447	7615.14
808.777	7646.55
809.107	7607.46
809.436	7634.57
809.766	7619.66
810.096	7505.76
810.426	7557.06
810.755	7557.29
811.085	7491.75
811.414	7505.99
811.744	7457.4
812.073	7421.47
812.403	7383.73
812.732	7340.57
813.061	7310.29
813.39	7285.88
813.719	7267.13
814.049	7312.55
814.378	7308.25
814.707	7223.28
815.036	7263.06
815.365	7238.88
815.693	7183.06
816.022	7122.27
816.351	7177.18
816.68	7090.86
817.008	7128.6
817.337	7058.32
817.665	7035.49
817.994	7064.64
818.322	7087.69
818.651	7051.54
818.979	6975.16
819.307	6962.27
819.636	6988.49
819.964	6958.21
820.292	7015.38
820.62	6944.65
820.948	6906.68
821.276	6928.6
821.604	6967.25
821.932	6920.02
822.259	6892.67
822.587	6937.42
822.915	6925.44
823.243	6927.02
823.57	6885.89
823.898	6879.34
824.225	6891.99
824.553	6867.59
824.88	6942.84
825.207	6911.2
825.535	6915.04
825.862	6883.63
826.189	6931.77
826.516	6918.89
826.843	6950.52
827.17	6887.25
827.497	6911.65
827.824	6906.91
828.151	6943.97
828.478	6859
828.805	6919.56
829.131	6859.23
829.458	6799.57
829.785	6823.75
830.111	6847.25
830.438	6882.05
830.764	6852.67
831.09	6880.24
831.417	6876.85
831.743	6779.23
832.069	6778.78
832.395	6843.41
832.722	6828.27
833.048	6821.49
833.374	6801.83
833.7	6721.38
834.026	6819.68
834.351	6791.43
834.677	6768.61
835.003	6749.85
835.329	6786.46
835.654	6753.92
835.98	6690.87
836.306	6736.29
836.631	6683.41
836.956	6731.09
837.282	6746.69
837.607	6695.61
837.932	6636.63
838.258	6728.83
838.583	6625.11
838.908	6632.79
839.233	6637.31
839.558	6646.58
839.883	6612
840.208	6547.37
840.533	6566.13
840.858	6584.43
841.182	6579.23
841.507	6533.13
841.832	6522.06
842.156	6547.37
842.481	6476.19
842.805	6493.59
843.13	6500.37
843.454	6458.56
843.778	6400.71
844.103	6421.05
844.427	6366.81
844.751	6444.55
845.075	6403.42
845.399	6407.71
845.723	6339.69
846.047	6342.18
846.371	6300.15
846.695	6314.16
847.019	6224.89
847.343	6219.47
847.666	6199.13
847.99	6198.23
848.313	6158.23
848.637	6107.83
848.96	6127.72
849.284	6087.27
849.607	6006.59
849.931	6035.52
850.254	5998.46
850.577	5994.39
850.9	5919.14
851.223	5946.26
851.546	5899.93
851.869	5898.57
852.192	5929.76
852.515	5852.7
852.838	5842.53
853.161	5802.98
853.483	5746.26
853.806	5790.33
854.129	5752.36
854.451	5747.84
854.774	5774.96
855.096	5712.82
855.419	5719.37
855.741	5652.7
856.063	5694.29
856.385	5625.59
856.708	5620.61
857.03	5611.12
857.352	5594.63
857.674	5633.72
857.996	5597.79
858.318	5506.49
858.64	5567.73
858.961	5542.2
859.283	5520.96
859.605	5440.05
859.926	5473.27
860.248	5490.22
860.57	5462.65
860.891	5461.3
861.212	5400.06
861.534	5380.85
861.855	5418.59
862.176	5413.39
862.498	5433.05
862.819	5394.86
863.14	5363.9
863.461	5433.28
863.782	5360.28
864.103	5372.03
864.424	5359.6
864.745	5339.94
865.065	5292.71
865.386	5327.29
865.707	5303.34
866.027	5301.08
866.348	5255.43
866.668	5224.02
866.989	5261.98
867.309	5225.6
867.63	5237.35
867.95	5252.94
868.27	5189.67
868.59	5261.75
868.91	5257.91
869.23	5220.4
869.55	5188.31
869.87	5232.15
870.19	5199.61
870.51	5201.42
870.83	5206.84
871.15	5169.55
871.469	5135.66
871.789	5144.24
872.109	5172.49
872.428	5088.88
872.748	5105.37
873.067	5152.6
873.386	5103.57
873.706	5133.17
874.025	5047.75
874.344	5070.12
874.663	5076.22
874.982	5061.08
875.301	5068.54
875.62	5085.49
875.939	5033.06
876.258	5023.57
876.577	5017.92
876.896	5003.23
877.214	5018.6
877.533	5057.47
877.852	5008.65
878.17	5054.08
878.489	5014.76
878.807	5011.59
879.125	4976.34
879.444	4970.46
879.762	4958.94
880.08	4964.36
880.398	4920.29
880.716	4900.41
881.034	4962.1
881.352	4893.85
881.67	4890.24
881.988	4909.45
882.306	4931.14
882.624	4913.97
882.941	4854.53
883.259	4868.32
883.577	4881.88
883.894	4840.52
884.212	4843.69
884.529	4822.22
884.846	4835.55
885.164	4799.17
885.481	4794.65
885.798	4835.78
886.115	4748.32
886.432	4776.8
886.75	4734.99
887.067	4762.11
887.383	4731.6
887.7	4728.21
888.017	4734.31
888.334	4729.56
888.651	4657.25
888.967	4692.96
889.284	4687.53
889.6	4661.77
889.917	4625.61
890.233	4674.65
890.55	4624.48
890.866	4618.16
891.182	4599.85
891.498	4579.29
891.815	4595.56
892.131	4600.3
892.447	4570.25
892.763	4533.86
893.079	4537.03
893.395	4535.22
893.71	4514.66
894.026	4506.75
894.342	4499.74
894.657	4466.75
894.973	4469.68
895.289	4437.6
895.604	4463.58
895.92	4413.64
896.235	4440.08
896.55	4362.79
896.865	4417.03
897.181	4397.82
897.496	4373.42
897.811	4367.99
898.126	4333.64
898.441	4352.85
898.756	4369.12
899.071	4292.29
899.386	4293.64
899.7	4303.36
900.015	4263.81
900.33	4243.7
900.644	4237.37
900.959	4237.6
901.273	4218.84
901.588	4186.53
901.902	4170.26
902.216	4145.63
902.531	4174.33
902.845	4167.09
903.159	4135.23
903.473	4153.53
903.787	4122.58
904.101	4106.76
904.415	4104.95
904.729	4071.96
905.042	4080.77
905.356	4049.36
905.67	4012.3
905.984	4066.98
906.297	4008.91
906.611	4013.2
906.924	3977.27
907.237	3970.26
907.551	3948.34
907.864	3975.01
908.177	3928.46
908.491	3920.09
908.804	3913.99
909.117	3900.89
909.43	3879.19
909.743	3879.19
910.056	3918.96
910.368	3813.2
910.681	3853.66
910.994	3780.66
911.307	3817.05
911.619	3774.79
911.932	3796.26
912.244	3758.97
912.557	3805.07
912.869	3737.95
913.181	3765.52
913.494	3714.22
913.806	3689.59
914.118	3676.03
914.43	3689.14
914.742	3661.34
915.054	3625.87
915.366	3654.34
915.678	3611.63
915.99	3589.93
916.302	3583.38
916.613	3570.05
916.925	3560.1
917.236	3558.75
917.548	3527.34
917.859	3517.62
918.171	3491.18
918.482	3526.88
918.794	3432.42
919.105	3497.96
919.416	3474.23
919.727	3462.48
920.038	3469.94
920.349	3418.64
920.66	3431.29
920.971	3424.97
921.282	3406.21
921.593	3381.35
921.903	3376.61
922.214	3357.62
922.525	3329.15
922.835	3319.88
923.146	3316.95
923.456	3363.5
923.767	3325.08
924.077	3296.83
924.387	3256.61
924.697	3262.26
925.008	3262.48
925.318	3245.54
925.628	3279.66
925.938	3214.35
926.248	3231.75
926.558	3227.23
926.867	3225.2
927.177	3177.74
927.487	3148.36
927.796	3128.7
928.106	3189.72
928.416	3091.19
928.725	3141.13
929.034	3102.94
929.344	3091.19
929.653	3085.77
929.962	3040.8
930.271	3093.22
930.581	3048.71
930.89	3028.82
931.199	3036.5
931.508	3032.21
931.817	3032.66
932.125	2965.09
932.434	2957.86
932.743	2968.71
933.051	2945.66
933.36	2940.01
933.669	2897.52
933.977	2907.24
934.286	2883.29
934.594	2936.17
934.902	2850.29
935.21	2864.3
935.519	2913.12
935.827	2863.17
936.135	2874.02
936.443	2804.64
936.751	2815.49
937.059	2818.2
937.367	2829.73
937.674	2805.55
937.982	2816.39
938.29	2833.57
938.597	2773.91
938.905	2756.06
939.213	2761.26
939.52	2732.78
939.827	2771.42
940.135	2753.57
940.442	2720.13
940.749	2714.93
941.056	2707.47
941.363	2711.99
941.67	2679.22
941.977	2645.78
942.284	2641.26
942.591	2635.61
942.898	2628.83
943.205	2632.67
943.511	2629.28
943.818	2604.88
944.125	2592.67
944.431	2610.52
944.738	2607.36
945.044	2592.22
945.35	2560.81
945.657	2566.46
945.963	2541.83
946.269	2559
946.575	2551.32
946.881	2494.37
947.187	2495.27
947.493	2499.79
947.799	2508.83
948.105	2491.21
948.41	2461.38
948.716	2454.82
949.022	2450.3
949.327	2453.92
949.633	2447.59
949.938	2413.47
950.244	2411.66
950.549	2408.5
950.854	2421.83
951.16	2367.14
951.465	2396.07
951.77	2345.22
952.075	2328.5
952.38	2347.71
952.685	2365.33
952.99	2330.76
953.294	2321.04
953.599	2334.83
953.904	2314.49
954.209	2295.5
954.513	2316.3
954.818	2272
955.122	2263.42
955.426	2273.58
955.731	2243.3
956.035	2246.92
956.339	2281.95
956.643	2256.86
956.948	2242.4
957.252	2223.87
957.556	2243.75
957.86	2232.46
958.163	2220.25
958.467	2219.8
958.771	2187.26
959.075	2194.26
959.378	2143.42
959.682	2159.46
959.985	2172.12
960.289	2128.05
960.592	2133.25
960.896	2132.57
961.199	2120.14
961.502	2100.26
961.805	2096.64
962.108	2095.51
962.411	2114.04
962.714	2090.09
963.017	2104.1
963.32	2111.55
963.623	2033.82
963.926	2035.85
964.228	2055.96
964.531	2017.55
964.833	2013.48
965.136	2018.9
965.438	2032.91
965.741	2004.66
966.043	2010.77
966.345	1968.96
966.648	1990.88
966.95	1988.62
967.252	1968.28
967.554	1973.48
967.856	1938.68
968.158	1961.5
968.46	1951.33
968.761	1920.15
969.063	1946.81
969.365	1925.12
969.666	1912.24
969.968	1902.07
970.269	1880.83
970.571	1885.57
970.872	1890.09
971.174	1864.33
971.475	1885.8
971.776	1875.63
972.077	1857.55
972.378	1868.17
972.679	1873.37
972.98	1860.94
973.281	1834.27
973.582	1820.94
973.883	1827.49
974.183	1796.31
974.484	1785.01
974.785	1737.33
975.085	1796.08
975.386	1803.77
975.686	1764.22
975.986	1789.3
976.287	1775.52
976.587	1776.2
976.887	1741.39
977.187	1777.1
977.487	1741.17
977.787	1747.04
978.087	1718.57
978.387	1712.92
978.687	1731.9
978.987	1705.24
979.286	1713.37
979.586	1702.3
979.885	1689.42
980.185	1661.4
980.484	1659.14
980.784	1662.3
981.083	1669.31
981.382	1691.9
981.682	1671.57
981.981	1655.75
982.28	1643.09
982.579	1617.56
982.878	1620.04
983.177	1637.22
983.475	1621.17
983.774	1621.4
984.073	1617.33
984.372	1602.42
984.67	1600.61
984.969	1564
985.267	1594.28
985.566	1568.52
985.864	1581.85
986.162	1571.23
986.461	1569.2
986.759	1562.42
987.057	1551.34
987.355	1547.5
987.653	1511.57
987.951	1522.87
988.249	1534.62
988.547	1500.5
988.844	1517.67
989.142	1517.45
989.44	1476.09
989.737	1514.51
990.035	1521.29
990.332	1480.61
990.63	1486.94
990.927	1452.81
991.224	1468.41
991.521	1440.39
991.819	1427.73
992.116	1476.09
992.413	1457.33
992.71	1447.62
993.006	1429.76
993.303	1399.26
993.6	1430.89
993.897	1424.12
994.193	1399.48
994.49	1392.03
994.787	1394.51
995.083	1385.02
995.379	1398.58
995.676	1387.05
995.972	1376.66
996.268	1328.75
996.565	1338.92
996.861	1352.7
997.157	1386.15
997.453	1330.33
997.749	1344.57
998.044	1330.11
998.34	1349.31
998.636	1322.42
998.932	1338.02
999.227	1311.58
999.523	1330.33
999.818	1274.74
1000.114	1293.5
1000.409	1281.52
1000.704	1277
1001	1265.48
1001.295	1279.71
1001.59	1286.27
1001.885	1279.71
1002.18	1258.92
1002.475	1264.35
1002.77	1242.65
1003.065	1224.57
1003.359	1224.8
1003.654	1227.51
1003.949	1219.37
1004.243	1222.99
1004.538	1223.44
1004.832	1195.42
1005.127	1221.63
1005.421	1180.28
1005.715	1208.75
1006.009	1206.04
1006.304	1190.9
1006.598	1154.74
1006.892	1172.82
1007.186	1147.06
1007.48	1134.41
1007.773	1142.99
1008.067	1124.69
1008.361	1154.97
1008.655	1145.7
1008.948	1152.71
1009.242	1102.32
1009.535	1117.23
1009.829	1093.5
1010.122	1106.16
1010.415	1099.83
1010.708	1091.47
1011.001	1077.46
1011.295	1058.47
1011.588	1027.74
1011.881	1061.86
1012.173	1066.38
1012.466	1085.37
1012.759	1062.32
1013.052	1046.05
1013.344	1028.42
1013.637	1045.37
1013.93	1022.32
1014.222	1038.59
1014.514	1026.61
1014.807	1004.01
1015.099	1017.35
1015.391	1006.05
1015.683	1002.21
1015.976	1020.51
1016.268	994.3
1016.56	1012.6
1016.851	990.45
1017.143	986.39
1017.435	988.65
1017.727	994.97
1018.018	956.33
1018.31	938.48
1018.602	955.65
1018.893	938.48
1019.185	934.18
1019.476	914.3
1019.767	949.55
1020.058	932.15
1020.35	932.15
1020.641	918.14
1020.932	931.25
1021.223	906.39
1021.514	894.86
1021.804	880.17
1022.095	916.56
1022.386	894.41
1022.677	884.92
1022.967	904.35
1023.258	872.49
1023.548	863.9
1023.839	860.97
1024.129	871.36
1024.419	845.37
1024.709	877.69
1025	854.64
1025.29	853.96
1025.58	844.02
1025.87	852.6
1026.16	811.93
1026.449	816.45
1026.739	826.39
1027.029	839.05
1027.319	820.74
1027.608	818.48
1027.898	830.46
1028.187	809.44
1028.477	799.72
1028.766	794.08
1029.055	792.04
1029.344	781.42
1029.634	806.5
1029.923	763.12
1030.212	766.51
1030.501	776.22
1030.79	772.38
1031.078	770.12
1031.367	770.57
1031.656	753.85
1031.945	753.17
1032.233	740.52
1032.522	748.88
1032.81	733.06
1033.099	732.61
1033.387	725.38
1033.675	726.96
1033.963	730.12
1034.251	744.36
1034.54	708.65
1034.828	710.24
1035.116	738.26
1035.403	701.2
1035.691	710.69
1035.979	681.76
1036.267	691.03
1036.554	677.02
1036.842	700.97
1037.129	676.79
1037.417	686.51
1037.704	689.9
1037.992	666.62
1038.279	664.14
1038.566	665.04
1038.853	665.04
1039.14	665.04
