Data from tablewood_brown_FLMS001491_051.txt Node
Date: Tue Feb 07 11:10:41 GMT 2017
User: dcchb
Spectrometer: FLMS00149
Trigger mode: 0
Integration Time (sec): 2.000000E-2
Scans to average: 10
Electric dark correction enabled: true
Nonlinearity correction enabled: false
Boxcar width: 0
XAxis mode: Wavelengths
Number of Pixels in Spectrum: 2048
>>>>>Begin Spectral Data<<<<<
341.393	-9.45
341.776	-9.45
342.16	-9.45
342.543	-40.18
342.927	-49.22
343.31	-58.26
343.693	-77.24
344.077	-66.17
344.46	-70.46
344.843	-49.45
345.226	-32.95
345.61	-4.7
345.993	-15.78
346.376	-10.35
346.759	2.08
347.142	33.26
347.525	27.16
347.908	56.31
348.291	84.56
348.674	89.98
349.057	92.02
349.44	132.69
349.823	143.99
350.206	191.22
350.588	200.49
350.971	225.57
351.354	214.27
351.737	240.49
352.119	272.13
352.502	271.45
352.884	253.6
353.267	263.76
353.65	309.41
354.032	280.49
354.414	297.66
354.797	328.62
355.179	326.36
355.562	346.47
355.944	345.8
356.326	325.46
356.709	344.67
357.091	348.51
357.473	343.99
357.855	344.67
358.238	365.46
358.62	369.98
359.002	347.15
359.384	369.52
359.766	340.82
360.148	344.21
360.53	348.51
360.912	335.63
361.294	342.18
361.676	349.19
362.057	348.51
362.439	340.15
362.821	330.88
363.203	325.68
363.584	342.86
363.966	343.54
364.348	335.85
364.729	330.88
365.111	310.99
365.493	320.03
365.874	343.54
366.256	335.85
366.637	330.66
367.019	322.97
367.4	346.47
367.781	340.37
368.163	318
368.544	316.64
368.925	349.64
369.306	335.17
369.688	333.37
370.069	325.23
370.45	333.37
370.831	327.49
371.212	339.24
371.593	348.73
371.974	343.08
372.355	345.8
372.736	322.52
373.117	339.69
373.498	348.51
373.879	347.6
374.26	342.63
374.641	324.1
375.021	334.72
375.402	343.31
375.783	347.83
376.163	351.9
376.544	356.64
376.925	339.92
377.305	345.12
377.686	361.16
378.066	354.84
378.447	361.16
378.827	357.55
379.208	374.27
379.588	373.37
379.968	376.53
380.349	379.47
380.729	364.55
381.109	374.27
381.489	365.91
381.87	381.95
382.25	386.7
382.63	385.79
383.01	382.86
383.39	387.15
383.77	392.12
384.15	403.42
384.53	390.99
384.91	380.82
385.29	395.29
385.67	405.91
386.049	423.08
386.429	404.1
386.809	400.71
387.189	407.26
387.568	420.37
387.948	397.77
388.328	406.81
388.707	408.85
389.087	427.83
389.466	436.19
389.846	458.79
390.225	423.76
390.605	447.26
390.984	439.8
391.363	439.35
391.743	464.66
392.122	469.18
392.501	454.49
392.881	471.22
393.26	485
393.639	460.14
394.018	460.6
394.397	469.41
394.776	489.3
395.155	473.02
395.534	477.77
395.913	481.84
396.292	485.68
396.671	508.5
397.05	498.79
397.429	490.2
397.808	493.59
398.186	504.66
398.565	504.89
398.944	484.32
399.323	516.19
399.701	528.16
400.08	538.11
400.458	527.94
400.837	519.12
401.215	514.61
401.594	536.98
401.972	547.15
402.351	550.76
402.729	576.98
403.107	562.51
403.486	566.58
403.864	556.64
404.242	551.21
404.62	578.56
404.999	584.43
405.377	593.25
405.755	581.72
406.133	597.54
406.511	616.98
406.889	595.96
407.267	613.13
407.645	619.91
408.023	621.27
408.401	634.15
408.779	603.42
409.156	629.18
409.534	645.45
409.912	635.96
410.29	666.69
410.667	668.5
411.045	670.99
411.422	672.12
411.8	691.55
412.178	710.08
412.555	680.7
412.933	713.47
413.31	722.06
413.687	720.93
414.065	743.98
414.442	720.02
414.819	736.97
415.197	731.55
415.574	760.02
415.951	787.59
416.328	773.36
416.705	785.33
417.082	795.28
417.46	788.5
417.837	801.83
418.214	814.48
418.591	819.46
418.967	801.83
419.344	805.67
419.721	823.07
420.098	841.15
420.475	822.39
420.852	878.66
421.228	886.57
421.605	829.17
421.982	857.87
422.358	887.93
422.735	891.09
423.111	892.45
423.488	897.42
423.864	869.85
424.241	919.34
424.617	951.2
424.994	950.53
425.37	935.61
425.746	931.77
426.123	938.55
426.499	923.18
426.875	976.97
427.251	977.64
427.627	973.35
428.003	1008.83
428.379	1033.24
428.756	1025.55
429.132	1019.68
429.507	1037.08
429.883	1078.43
430.259	1050.41
430.635	1062.61
431.011	1070.3
431.387	1091.77
431.763	1109.62
432.138	1112.33
432.514	1119.79
432.89	1128.6
433.265	1160.01
433.641	1134.48
434.016	1189.16
434.392	1174.47
434.767	1222.84
435.143	1234.81
435.518	1225.55
435.894	1223.51
436.269	1234.13
436.644	1293.57
437.02	1271.65
437.395	1279.1
437.77	1328.6
438.145	1282.72
438.52	1346.45
438.895	1366.56
439.271	1348.71
439.646	1404.98
440.021	1391.19
440.395	1412.43
440.77	1403.4
441.145	1410.17
441.52	1434.35
441.895	1428.48
442.27	1435.94
442.645	1449.5
443.019	1460.12
443.394	1466.22
443.769	1479.33
444.143	1519.32
444.518	1533.79
444.892	1500.34
445.267	1517.52
445.641	1560
446.016	1524.75
446.39	1544.18
446.764	1578.76
447.139	1578.31
447.513	1617.17
447.887	1579.44
448.262	1605.65
448.636	1617.63
449.01	1637.29
449.384	1645.65
449.758	1681.58
450.132	1681.13
450.506	1676.83
450.88	1677.06
451.254	1702.14
451.628	1747.34
452.002	1760
452.376	1736.49
452.75	1767.91
453.123	1757.51
453.497	1796.61
453.871	1821.01
454.244	1849.94
454.618	1876.15
454.992	1886.32
455.365	1900.78
455.739	1925.19
456.112	1953.66
456.486	1973.1
456.859	1982.82
457.232	2027.56
457.606	2022.36
457.979	2009.26
458.352	2075.47
458.725	2094.45
459.099	2106.2
459.472	2165.18
459.845	2167.22
460.218	2215.35
460.591	2202.92
460.964	2258.29
461.337	2278.17
461.71	2328.57
462.083	2363.6
462.456	2350.04
462.829	2380.54
463.201	2416.48
463.574	2424.16
463.947	2445.85
464.32	2528.79
464.692	2549.13
465.065	2591.84
465.438	2585.96
465.81	2627.77
466.183	2653.76
466.555	2695.56
466.928	2740.54
467.3	2783.92
467.672	2799.74
468.045	2876.8
468.417	2863.47
468.789	2926.75
469.161	2971.94
469.534	3020.53
469.906	3077.93
470.278	3104.59
470.65	3120.41
471.022	3200.86
471.394	3321.08
471.766	3314.76
472.138	3374.19
472.51	3417.13
472.882	3521.53
473.253	3498.71
473.625	3605.6
473.997	3659.16
474.369	3688.98
474.74	3714.52
475.112	3878.13
475.484	3901.86
475.855	4013.27
476.227	4005.59
476.598	4163.55
476.97	4194.28
477.341	4277.67
477.713	4340.49
478.084	4424.56
478.455	4575.97
478.827	4543.65
479.198	4752.46
479.569	4758.34
479.94	4906.13
480.311	4958.78
480.682	5044.66
481.053	5136.86
481.424	5281.94
481.795	5373.46
482.166	5472.21
482.537	5566
482.908	5680.8
483.279	5722.15
483.65	5827.23
484.021	5948.36
484.391	6043.73
484.762	6117.4
485.133	6147.45
485.503	6198.75
485.874	6358.97
486.244	6462.92
486.615	6661.11
486.985	6701.11
487.356	6803.71
487.726	6924.38
488.097	7085.05
488.467	7070.36
488.837	7212.73
489.207	7310.36
489.578	7435.33
489.948	7504.25
490.318	7594.42
490.688	7662.89
491.058	7814.98
491.428	7909.44
491.798	7972.71
492.168	8220.84
492.538	8217
492.908	8312.14
493.278	8400.05
493.648	8447.73
494.017	8558.24
494.387	8606.37
494.757	8675.07
495.126	8896.53
495.496	8874.84
495.866	8925.68
496.235	9045.45
496.605	9158.22
496.974	9168.16
497.344	9331.55
497.713	9337.88
498.082	9465.1
498.452	9448.61
498.821	9530.41
499.19	9585.55
499.559	9745.77
499.928	9756.4
500.298	9868.26
500.667	10016.28
501.036	9908.48
501.405	10126.1
501.774	10156.39
502.143	10215.59
502.512	10240
502.88	10381.24
503.249	10426.66
503.618	10535.81
503.987	10569.93
504.356	10611.51
504.724	10679.08
505.093	10835.24
505.462	10800.66
505.83	10934.67
506.199	11025.29
506.567	11206.98
506.936	11216.47
507.304	11337.82
507.672	11419.18
508.041	11404.49
508.409	11589.57
508.777	11671.37
509.145	11715.21
509.514	11786.63
509.882	11868.2
510.25	12004.47
510.618	12096.9
510.986	12143.23
511.354	12229.33
511.722	12288.31
512.09	12471.35
512.458	12565.59
512.826	12584.57
513.193	12689.88
513.561	12783.21
513.929	12951.34
514.297	13051.22
514.664	13166.25
515.032	13151.56
515.4	13388.84
515.767	13486.02
516.135	13551.78
516.502	13501.16
516.869	13738.89
517.237	13776.18
517.604	13740.7
517.972	14040.13
518.339	14213.45
518.706	14149.95
519.073	14202.38
519.44	14351.08
519.808	14591.98
520.175	14566.89
520.542	14777.05
520.909	14925.07
521.276	14860.44
521.643	15145.18
522.009	15188.12
522.376	15320.54
522.743	15484.16
523.11	15565.28
523.477	15746.97
523.843	15868.78
524.21	16004.37
524.577	16194.19
524.943	16228.54
525.31	16341.99
525.676	16504.02
526.043	16591.47
526.409	16681.86
526.776	16886.6
527.142	17088.86
527.508	17083.66
527.874	17200.04
528.241	17395.97
528.607	17421.28
528.973	17594.16
529.339	17688.84
529.705	17895.84
530.071	17862.17
530.437	17962.06
530.803	18131.99
531.169	18223.97
531.535	18279.56
531.901	18349.39
532.267	18452.66
532.632	18679.55
532.998	18717.29
533.364	18807.23
533.73	18982.82
534.095	18967.23
534.461	19075.7
534.826	19229.14
535.192	19214.23
535.557	19335.58
535.923	19404.5
536.288	19479.08
536.653	19628.9
537.019	19564.27
537.384	19720.2
537.749	19863.02
538.114	19893.3
538.479	19890.82
538.845	20124.48
539.21	19983.47
539.575	20190.92
539.94	20289.68
540.305	20387.3
540.67	20363.35
541.034	20516.11
541.399	20487.41
541.764	20618.26
542.129	20675.66
542.494	20787.74
542.858	20847.4
543.223	20904.13
543.587	21017.34
543.952	21065.25
544.316	21099.6
544.681	21042.2
545.045	21240.84
545.41	21466.82
545.774	21407.84
546.138	21423.21
546.503	21597.89
546.867	21651.68
547.231	21785.91
547.595	21798.34
547.959	21936.87
548.324	22033.14
548.688	21992.46
549.052	22230.87
549.416	22264.54
549.779	22271.1
550.143	22441.94
550.507	22611.2
550.871	22605.1
551.235	22674.47
551.599	22839.22
551.962	22950.4
552.326	23108.36
552.689	23255.48
553.053	23178.42
553.417	23217.29
553.78	23647.33
554.143	23580.21
554.507	23605.3
554.87	23699.53
555.234	24037.6
555.597	23943.14
555.96	24172.97
556.323	24251.61
556.686	24354.88
557.05	24660.41
557.413	24787.19
557.776	24765.27
558.139	24979.72
558.502	25108.53
558.865	25286.16
559.228	25442.31
559.59	25537.22
559.953	25725.02
560.316	26078
560.679	26161.16
561.041	26245.45
561.404	26557.54
561.767	26635.73
562.129	26494.71
562.492	26922.5
562.854	26996.62
563.217	27100.8
563.579	27303.51
563.941	27625.3
564.304	27765.41
564.666	27942.81
565.028	28059.19
565.39	28227.55
565.753	28422.8
566.115	28662.11
566.477	28825.05
566.839	28955.89
567.201	29175.55
567.563	29391.13
567.925	29658.92
568.287	29604.91
568.648	29777.56
569.01	30074.96
569.372	30263.65
569.734	30368.96
570.095	30729.86
570.457	30744.32
570.819	31111.77
571.18	31099.34
571.542	31552.21
571.903	31452.32
572.265	31622.94
572.626	31820
572.987	32120.78
573.349	32266.09
573.71	32578.17
574.071	32605.29
574.432	32792.85
574.794	33108.1
575.155	33227.19
575.516	33172.28
575.877	33378.37
576.238	33601.87
576.599	33828.76
576.96	33896.33
577.32	34069.88
577.681	34154.4
578.042	34264.9
578.403	34350.1
578.763	34416.99
579.124	34601.39
579.485	34813.36
579.845	35042.51
580.206	35053.81
580.566	35143.75
580.927	35180.13
581.287	35549.39
581.648	35468.71
582.008	35593.23
582.368	35739.44
582.728	35819.44
583.089	35801.13
583.449	35910.74
583.809	35844.52
584.169	36009.94
584.529	36058.08
584.889	36345.3
585.249	36116.38
585.609	36242.48
585.969	36396.6
586.329	36434.79
586.688	36513.88
587.048	36545.75
587.408	36404.06
587.768	36493.09
588.127	36434.34
588.487	36427.56
588.846	36853.99
589.206	36701.68
589.565	36648.57
589.925	36968.11
590.284	36906.42
590.643	36848.79
591.003	36977.15
591.362	37000.65
591.721	37123.81
592.08	37011.5
592.44	37114.55
592.799	37230.7
593.158	37048.33
593.517	37223.92
593.876	37178.95
594.235	37257.14
594.593	37256.69
594.952	37371.26
595.311	37328.78
595.67	37231.15
596.029	37517.02
596.387	37543.46
596.746	37632.73
597.104	37370.13
597.463	37580.52
597.822	37713.63
598.18	37584.14
598.538	37596.79
598.897	37674.53
599.255	37560.86
599.613	38046.73
599.972	37775.32
600.33	37988.65
600.688	37872.72
601.046	37867.3
601.404	38060.96
601.762	37959.5
602.12	38188.42
602.478	38054.86
602.836	38243.33
603.194	38080.17
603.552	38177.8
603.91	38058.93
604.268	38153.62
604.625	38089.21
604.983	38281.97
605.341	38159.04
605.698	38347.51
606.056	38510.89
606.413	38332.14
606.771	38445.81
607.128	38614.39
607.485	38409.2
607.843	38481.29
608.2	38640.16
608.557	38790.43
608.914	38688.06
609.272	38773.26
609.629	38785.92
609.986	39016.19
610.343	38836.76
610.7	38937.32
611.057	38895.52
611.414	38825.24
611.771	38871.34
612.127	39175.74
612.484	39140.26
612.841	39134.15
613.198	39165.11
613.554	39299.57
613.911	39435.62
614.267	39431.32
614.624	39213.25
614.98	39344.09
615.337	39556.74
615.693	39468.61
616.05	39337.31
616.406	39657.98
616.762	39563.97
617.118	39606.46
617.475	39510.87
617.831	39675.38
618.187	39702.73
618.543	39694.37
618.899	39938.88
619.255	39853.23
619.611	39829.05
619.967	39902.72
620.323	39994.92
620.678	39934.59
621.034	39794.93
621.39	39706.79
621.746	39874.7
622.101	40216.84
622.457	40002.61
622.812	40136.16
623.168	40020.91
623.523	40127.8
623.879	40287.34
624.234	39971.42
624.589	40139.55
624.945	40095.49
625.3	40204.86
625.655	40130.29
626.01	40244.41
626.365	40145.88
626.72	40079.89
627.075	39993.57
627.43	40004.41
627.785	39956.05
628.14	40034.02
628.495	40052.1
628.85	40034.02
629.205	39958.99
629.559	40123.96
629.914	39952.66
630.269	39874.47
630.623	39866.34
630.978	39622.28
631.332	39967.81
631.687	40024.98
632.041	39823.85
632.396	39803.29
632.75	39510.19
633.104	39778.21
633.459	39554.03
633.813	39544.54
634.167	39593.35
634.521	39440.14
634.875	39556.06
635.229	39519.46
635.583	39399.68
635.937	39374.15
636.291	39354.26
636.645	39470.42
636.999	39331.44
637.352	39196.75
637.706	39032.24
638.06	39118.11
638.413	39081.95
638.767	39029.98
639.121	39146.81
639.474	38786.37
639.828	38902.07
640.181	38939.13
640.534	38922.41
640.888	38710.89
641.241	38614.39
641.594	38770.55
641.947	38795.41
642.301	38585.24
642.654	38588.63
643.007	38610.33
643.36	38662.75
643.713	38530.78
644.066	38616.65
644.419	38483.78
644.771	38389.32
645.124	38045.37
645.477	38026.84
645.83	37714.76
646.182	37660.52
646.535	37476.57
646.888	37513.41
647.24	37121.33
647.593	37422.34
647.945	37262.57
648.298	37193.64
648.65	37015.57
649.002	37126.98
649.355	37193.64
649.707	37159.29
650.059	37320.42
650.411	37690.12
650.763	37852.38
651.115	38121.3
651.467	38026.61
651.819	38074.52
652.171	38026.16
652.523	37915.88
652.875	37872.04
653.227	37777.13
653.578	37935.09
653.93	37867.3
654.282	37766.96
654.633	37559.51
654.985	37696.68
655.337	37675.44
655.688	37782.1
656.039	37835.43
656.391	37557.47
656.742	37599.51
657.094	37679.05
657.445	37792.49
657.796	37733.29
658.147	37504.82
658.498	37633.18
658.849	37576.46
659.2	37691.93
659.551	37525.16
659.902	37575.78
660.253	37521.32
660.604	37693.97
660.955	37284.03
661.306	37604.25
661.656	37436.57
662.007	37566.74
662.358	37559.73
662.708	37473.18
663.059	37509.79
663.409	37197.03
663.76	37412.39
664.11	37374.88
664.461	37492.39
664.811	37450.81
665.161	37421.43
665.511	37269.57
665.862	37352.05
666.212	37498.94
666.562	37398.38
666.912	37414.65
667.262	37379.85
667.612	37235
667.962	37252.62
668.312	37338.5
668.662	37494.88
669.011	37345.73
669.361	37302.79
669.711	37301.43
670.06	37232.74
670.41	37178.27
670.76	36969.47
671.109	37175.79
671.459	37145.05
671.808	37022.57
672.157	37167.65
672.507	37021.44
672.856	36890.37
673.205	37024.61
673.554	37070.03
673.904	37013.53
674.253	37069.8
674.602	36951.61
674.951	36504.17
675.3	36295.81
675.649	36893.76
675.998	36830.03
676.346	36797.27
676.695	36926.98
677.044	36609.25
677.393	36827.1
677.741	36704.61
678.09	36581
678.438	36542.13
678.787	36572.19
679.135	36558.86
679.484	36374.45
679.832	36430.27
680.181	36294
680.529	36326.54
680.877	36284.96
681.225	36251.52
681.573	36458.07
681.922	36273.89
682.27	36000
682.618	36065.08
682.966	35782.38
683.314	36003.62
683.661	35834.13
684.009	35762.04
684.357	35748.48
684.705	35611.99
685.053	35692.21
685.4	35576.06
685.748	35480.47
686.095	35466.91
686.443	35308.04
686.79	35120.47
687.138	35219.91
687.485	35286.35
687.832	34986.24
688.18	35059.46
688.527	34849.97
688.874	34897.66
689.221	34779.69
689.568	34639.36
689.915	34599.13
690.262	34428.74
690.609	34330.21
690.956	34356.65
691.303	34252.7
691.65	34213.38
691.997	34143.1
692.344	34019.71
692.69	33890.45
693.037	33873.28
693.383	33665.6
693.73	33849.77
694.077	33516
694.423	33640.51
694.769	33389.67
695.116	33370.92
695.462	33263.35
695.808	33054.99
696.155	33116.69
696.501	32745.85
696.847	32912.17
697.193	32587.66
697.539	32667.88
697.885	32565.29
698.231	32298.85
698.577	32323.94
698.923	32190.61
699.269	32078.97
699.614	31798.3
699.96	31902.25
700.306	31841.24
700.651	31683.73
700.997	31565.09
701.342	31551.76
701.688	31489.61
702.033	31401.48
702.379	31290.97
702.724	31178.88
703.069	31242.84
703.415	30935.05
703.76	30908.38
704.105	30948.38
704.45	30796.07
704.795	30691.44
705.14	30548.62
705.485	30469.52
705.83	30378.45
706.175	30381.62
706.52	30212.13
706.865	30149.53
707.209	30142.98
707.554	30065.69
707.899	30085.58
708.243	29900.95
708.588	29802.65
708.932	29594.52
709.277	29711.58
709.621	29701.41
709.966	29365.6
710.31	29472.94
710.654	29239.05
710.998	29342.77
711.342	29272.27
711.687	29139.84
712.031	28893.52
712.375	28996.34
712.719	29005.61
713.063	28855.55
713.407	29015.1
713.75	28746.18
714.094	28782.34
714.438	28569.46
714.782	28651.94
715.125	28477.94
715.469	28707.31
715.812	28506.64
716.156	28255.12
716.499	28259.41
716.843	28361.78
717.186	28082.92
717.53	28318.62
717.873	28312.52
718.216	28218.06
718.559	28080.43
718.902	27969.93
719.246	28002.24
719.589	28091.96
719.932	27884.73
720.275	27818.07
720.617	28004.73
720.96	27749.6
721.303	27834.34
721.646	27787.33
721.989	27614.68
722.331	27717.51
722.674	27602.25
723.016	27690.61
723.359	27616.72
723.701	27546.89
724.044	27497.62
724.386	27388.47
724.729	27552.76
725.071	27358.42
725.413	27348.93
725.755	27401.36
726.097	27289.72
726.439	27224.64
726.782	27269.61
727.124	27307.57
727.465	27129.5
727.807	27134.92
728.149	27077.75
728.491	26978.32
728.833	27118.43
729.175	27063.29
729.516	26872.78
729.858	26969.5
730.199	27071.65
730.541	26971.99
730.882	26866.68
731.224	26961.37
731.565	26908.26
731.906	26876.17
732.248	26931.31
732.589	26736.06
732.93	26755.72
733.271	26903.29
733.612	26788.94
733.953	26805.67
734.294	26639.12
734.635	26748.49
734.976	26821.71
735.317	26664.2
735.658	26663.07
735.999	26690.64
736.339	26635.5
736.68	26660.58
737.021	26610.64
737.361	26475.5
737.702	26628.72
738.042	26605.67
738.383	26607.03
738.723	26604.09
739.063	26487.48
739.404	26545.33
739.744	26635.05
740.084	26449.52
740.424	26494.04
740.764	26401.61
741.104	26524.99
741.444	26390.99
741.784	26333.59
742.124	26425.79
742.464	26279.8
742.804	26334.49
743.143	26288.16
743.483	26311.21
743.823	26243.19
744.162	26273.48
744.502	26308.05
744.841	26110.54
745.181	26364.32
745.52	26229.86
745.86	26229.86
746.199	26334.49
746.538	26254.04
746.877	26353.93
747.216	26200.71
747.556	26249.75
747.895	26118.45
748.234	26030.77
748.573	25996.19
748.911	26082.52
749.25	25986.03
749.589	25894.28
749.928	25974.95
750.267	26031.45
750.605	26061.05
750.944	25972.47
751.283	25870.1
751.621	25962.07
751.96	25738.12
752.298	25765.92
752.636	25798.69
752.975	25646.37
753.313	25614.74
753.651	25712.36
753.989	25578.8
754.327	25552.59
754.666	25403.22
755.004	25518.69
755.342	25455.64
755.679	25484.57
756.017	25193.5
756.355	25532.25
756.693	25316.89
757.031	25338.81
757.368	25152.38
757.706	25139.04
758.044	25084.58
758.381	24989.44
758.719	24999.61
759.056	25004.58
759.394	24926.62
759.731	24791.48
760.068	24770.69
760.405	24641.65
760.743	24556.46
761.08	24597.81
761.417	24480.98
761.754	24431.72
762.091	24374.09
762.428	24258.39
762.765	24183.59
763.102	24287.31
763.438	24189.46
763.775	24140.2
764.112	24015.23
764.449	24010.48
764.785	23983.82
765.122	23654.34
765.458	23703.15
765.795	23615.92
766.131	23683.71
766.467	23488.69
766.804	23376.6
767.14	23340.67
767.476	23364.63
767.812	23248.47
768.148	23317.4
768.485	23044.63
768.821	22934.81
769.157	22941.36
769.492	22846.9
769.828	22868.37
770.164	22554.03
770.5	22645.77
770.836	22613.91
771.171	22563.52
771.507	22443.75
771.842	22289.17
772.178	22244.43
772.513	22325.56
772.849	22151.78
773.184	22141.83
773.519	22064.55
773.855	21930.09
774.19	21756.98
774.525	21791.11
774.86	21770.54
775.195	21719.02
775.53	21637.21
775.865	21572.81
776.2	21377.11
776.535	21180.5
776.87	21286.49
777.205	21105.02
777.539	21012.37
777.874	21076.55
778.209	20869.55
778.543	20955.88
778.878	20744.36
779.212	20736.45
779.547	20661.65
779.881	20698.03
780.215	20451.48
780.55	20531.93
780.884	20340.52
781.218	20219.4
781.552	20326.51
781.886	20139.17
782.22	20061.44
782.554	20020.31
782.888	19795.45
783.222	19768.79
783.556	19717.26
783.889	19706.42
784.223	19488.57
784.557	19485.18
784.89	19580.54
785.224	19515.24
785.557	19270.5
785.891	19204.51
786.224	19176.49
786.558	19097.17
786.891	18951.41
787.224	19046.55
787.557	18889.26
787.891	18893.56
788.224	18870.96
788.557	18785.31
788.89	18703.05
789.223	18722.49
789.556	18536.73
789.888	18508.71
790.221	18538.99
790.554	18373.12
790.887	18286.34
791.219	18193.46
791.552	18200.24
791.884	18096.97
792.217	18068.95
792.549	18000.47
792.882	17812.46
793.214	17794.38
793.546	17832.12
793.879	17676.64
794.211	17593.25
794.543	17743.08
794.875	17594.61
795.207	17674.61
795.539	17513.48
795.871	17444.56
796.203	17337.67
796.535	17179.03
796.867	17266.93
797.198	17239.36
797.53	17174.28
797.862	17083.43
798.193	17162.53
798.525	16949.43
798.856	17013.15
799.188	16846.61
799.519	16763.22
799.85	16615.2
800.182	16624.92
800.513	16585.14
800.844	16526.84
801.175	16556.22
801.506	16460.63
801.837	16444.36
802.168	16365.94
802.499	16315.55
802.83	16225.6
803.161	16245.49
803.491	16191.93
803.822	16219.73
804.153	16131.14
804.483	15974.54
804.814	15960.07
805.145	15939.06
805.475	15904.71
805.805	15877.82
806.136	15797.82
806.466	15833.75
806.796	15789.01
807.126	15674.43
807.457	15646.41
807.787	15667.43
808.117	15599.41
808.447	15559.86
808.777	15486.87
809.107	15419.98
809.436	15414.33
809.766	15412.52
810.096	15367.32
810.426	15298.85
810.755	15171.85
811.085	15222.24
811.414	15156.71
811.744	15045.07
812.073	15015.92
812.403	15004.85
812.732	14943.15
813.061	14917.62
813.39	14933.21
813.719	14789.26
814.049	14924.62
814.378	14910.38
814.707	14764.17
815.036	14689.83
815.365	14675.81
815.693	14493.9
816.022	14517.4
816.351	14462.94
816.68	14366.22
817.008	14487.12
817.337	14340.68
817.665	14328.03
817.994	14389.95
818.322	14333.68
818.651	14292.77
818.979	14231.76
819.307	14231.31
819.636	14204.87
819.964	14118.77
820.292	14247.13
820.62	14201.48
820.948	14166.22
821.276	14143.17
821.604	14091.65
821.932	14126.9
822.259	14123.74
822.587	14053.01
822.915	13907.47
823.243	14053.68
823.57	14043.51
823.898	14093.91
824.225	14066.57
824.553	14031.99
824.88	13964.19
825.207	14082.84
825.535	14047.36
825.862	13991.09
826.189	13986.12
826.516	13972.78
826.843	14050.52
827.17	14003.29
827.497	13991.99
827.824	14010.75
828.151	14146.56
828.478	13996.51
828.805	14078.32
829.131	13954.93
829.458	14075.6
829.785	13941.6
830.111	14004.87
830.438	14011.88
830.764	14012.33
831.09	13935.72
831.417	13914.48
831.743	13899.56
832.069	13980.24
832.395	13908.83
832.722	13952.67
833.048	13872.45
833.374	13885.78
833.7	13831.09
834.026	13886
834.351	13834.71
834.677	13858.44
835.003	13838.32
835.329	13827.48
835.654	13786.35
835.98	13702.96
836.306	13799.45
836.631	13680.13
836.956	13793.35
837.282	13751.32
837.607	13705.44
837.932	13563.3
838.258	13638.1
838.583	13566.47
838.908	13406.47
839.233	13510.42
839.558	13509.07
839.883	13462.06
840.208	13499.57
840.533	13450.54
840.858	13441.5
841.182	13419.8
841.507	13418.45
841.832	13311.1
842.156	13325.12
842.481	13351.56
842.805	13329.18
843.13	13203.54
843.454	13209.64
843.778	13133.71
844.103	13187.49
844.427	13052.13
844.751	13145.01
845.075	13079.92
845.399	12934.62
845.723	12928.29
846.047	13004.45
846.371	12829.31
846.695	12808.75
847.019	12746.83
847.343	12740.05
847.666	12628.64
847.99	12578.47
848.313	12476.32
848.637	12506.83
848.96	12446.49
849.284	12465.93
849.607	12323.33
849.931	12306.16
850.254	12243.34
850.577	12188.2
850.9	12088.09
851.223	12094.41
851.546	12032.04
851.869	11926.06
852.192	12011.93
852.515	11893.06
852.838	11887.41
853.161	11794.08
853.483	11729
853.806	11679.06
854.129	11656.23
854.451	11639.74
854.774	11560.19
855.096	11583.69
855.419	11557.93
855.741	11528.55
856.063	11449.23
856.385	11494.43
856.708	11491.72
857.03	11330.59
857.352	11402.91
857.674	11279.29
857.996	11328.78
858.318	11174.66
858.64	11206.3
858.961	11213.08
859.283	11148.9
859.605	11110.48
859.926	11088.79
860.248	11043.82
860.57	10972.86
860.891	11054.21
861.212	10945.29
861.534	10955.46
861.855	10882.47
862.176	10954.56
862.498	10900.09
862.819	10900.55
863.14	10864.16
863.461	10860.1
863.782	10738.07
864.103	10770.15
864.424	10738.97
864.745	10715.24
865.065	10663.26
865.386	10682.7
865.707	10635.92
866.027	10702.59
866.348	10653.77
866.668	10607.22
866.989	10577.39
867.309	10525.19
867.63	10543.72
867.95	10528.81
868.27	10457.62
868.59	10594.34
868.91	10482.48
869.23	10502.59
869.55	10425.76
869.87	10388.02
870.19	10415.14
870.51	10485.87
870.83	10385.53
871.15	10327.91
871.469	10405.64
871.789	10360.22
872.109	10370.17
872.428	10274.35
872.748	10327.23
873.067	10265.99
873.386	10309.83
873.706	10267.12
874.025	10167.46
874.344	10131.08
874.663	10213.79
874.982	10157.29
875.301	10128.36
875.62	10145.76
875.939	10010.4
876.258	10095.82
876.577	10035.48
876.896	10014.24
877.214	10028.03
877.533	10014.24
877.852	9961.14
878.17	10002.49
878.489	9994.13
878.807	9989.38
879.125	9950.74
879.444	9964.75
879.762	9906.67
880.08	9911.42
880.398	9748.71
880.716	9823.06
881.034	9767.92
881.352	9788.49
881.67	9743.51
881.988	9743.74
882.306	9718.66
882.624	9720.24
882.941	9659
883.259	9704.19
883.577	9685.21
883.894	9642.5
884.212	9616.06
884.529	9583.97
884.846	9582.84
885.164	9588.26
885.481	9503.75
885.798	9533.13
886.115	9406.12
886.432	9478.66
886.75	9444.77
887.067	9440.25
887.383	9377.87
887.7	9384.2
888.017	9370.87
888.334	9324.54
888.651	9306.01
888.967	9263.75
889.284	9251.55
889.6	9301.27
889.917	9123.64
890.233	9182.17
890.55	9135.85
890.866	9122.29
891.182	9101.27
891.498	9033.48
891.815	9045.23
892.131	9037.32
892.447	8997.55
892.763	8941.73
893.079	8940.82
893.395	8897.21
893.71	8861.96
894.026	8833.48
894.342	8872.58
894.657	8849.53
894.973	8794.16
895.289	8773.6
895.604	8685.46
895.92	8662.87
896.235	8603.88
896.55	8655.86
896.865	8643.88
897.181	8582.19
897.496	8532.7
897.811	8512.81
898.126	8518.69
898.441	8424.91
898.756	8413.61
899.071	8372.48
899.386	8434.4
899.7	8368.18
900.015	8263.1
900.33	8242.09
900.644	8216.1
900.959	8314.63
901.273	8153.27
901.588	8228.3
901.902	8089.32
902.216	8107.4
902.531	8093.84
902.845	8057.46
903.159	8087.29
903.473	7987.4
903.787	7995.31
904.101	7990.79
904.415	7964.35
904.729	7864.69
905.042	7869.89
905.356	7851.36
905.67	7796.67
905.984	7812.49
906.297	7728.65
906.611	7704.02
906.924	7706.96
907.237	7766.84
907.551	7636.23
907.864	7621.99
908.177	7619.96
908.491	7513.07
908.804	7490.69
909.117	7461.77
909.43	7404.37
909.743	7442.78
910.056	7444.59
910.368	7304.94
910.681	7299.96
910.994	7278.72
911.307	7231.49
911.619	7184.49
911.932	7198.72
912.244	7131.15
912.557	7204.6
912.869	7131.15
913.181	7073.98
913.494	7032.17
913.806	7024.26
914.118	7083.47
914.43	6996.47
914.742	6950.37
915.054	6913.76
915.366	6892.29
915.678	6840.31
915.99	6817.04
916.302	6805.51
916.613	6728.9
916.925	6755.57
917.236	6733.88
917.548	6694.1
917.859	6707.66
918.171	6616.14
918.482	6659.53
918.794	6590.15
919.105	6550.83
919.416	6440.33
919.727	6473.77
920.038	6474.67
920.349	6387.9
920.66	6407.33
920.971	6440.1
921.282	6362.81
921.593	6289.82
921.903	6325.98
922.214	6231.97
922.525	6272.19
922.835	6218.18
923.146	6214.12
923.456	6156.94
923.767	6180.22
924.077	6144.29
924.387	6119.2
924.697	6109.26
925.008	6101.35
925.318	6070.17
925.628	6041.92
925.938	5976.16
926.248	5930.73
926.558	5924.63
926.867	5930.06
927.177	5874.24
927.487	5862.49
927.796	5799.89
928.106	5781.36
928.416	5776.61
928.725	5787.23
929.034	5736.16
929.344	5745.43
929.653	5694.58
929.962	5680.57
930.271	5668.14
930.581	5622.04
930.89	5593.34
931.199	5570.74
931.508	5514.02
931.817	5530.74
932.125	5539.11
932.434	5522.61
932.743	5445.77
933.051	5448.26
933.36	5438.32
933.669	5339.56
933.977	5359.9
934.286	5332.11
934.594	5326
934.902	5277.87
935.21	5222.05
935.519	5225.67
935.827	5228.83
936.135	5213.46
936.443	5172.34
936.751	5124.43
937.059	5133.92
937.367	5126.01
937.674	5098.67
937.982	5072.68
938.29	5037.2
938.597	5015.28
938.905	4987.93
939.213	5004.2
939.52	4954.04
939.827	4965.79
940.135	4909.07
940.442	4908.39
940.749	4875.17
941.056	4905.68
941.363	4849.18
941.67	4840.37
941.977	4833.14
942.284	4743.87
942.591	4699.35
942.898	4736.19
943.205	4726.7
943.511	4700.03
943.818	4664.78
944.125	4621.62
944.431	4643.99
944.738	4588.62
945.044	4613.48
945.35	4566.93
945.657	4544.78
945.963	4543.2
946.269	4489.19
946.575	4502.07
946.881	4432.69
947.187	4414.39
947.493	4417.33
947.799	4455.74
948.105	4385.92
948.41	4384.11
948.716	4348.18
949.022	4346.59
949.327	4329.87
949.633	4292.58
949.938	4308.18
950.244	4302.98
950.549	4259.37
950.854	4228.86
951.16	4195.64
951.465	4180.5
951.77	4177.11
952.075	4153.83
952.38	4124.23
952.685	4183.66
952.99	4061.86
953.294	4076.55
953.599	4067.96
953.904	4044.91
954.209	4005.59
954.513	3998.13
954.818	3991.8
955.122	3970.33
955.426	3989.99
955.731	3983.21
956.035	3952.48
956.339	3914.06
956.643	3894.63
956.948	3841.07
957.252	3839.72
957.556	3812.6
957.86	3864.12
958.163	3843.78
958.467	3799.94
958.771	3805.82
959.075	3764.69
959.378	3768.3
959.682	3772.37
959.985	3723.11
960.289	3684.92
960.592	3689.21
960.896	3673.62
961.199	3658.93
961.502	3627.29
961.805	3575.54
962.108	3567.86
962.411	3619.83
962.714	3592.94
963.017	3555.66
963.32	3573.28
963.623	3533.28
963.926	3554.53
964.228	3474.53
964.531	3516.33
964.833	3462.1
965.136	3457.13
965.438	3443.57
965.741	3439.5
966.043	3406.51
966.345	3409.22
966.648	3392.04
966.95	3383.68
967.252	3329.22
967.554	3337.58
967.856	3316.79
968.158	3319.28
968.46	3307.98
968.761	3294.65
969.063	3282.89
969.365	3259.39
969.666	3282.67
969.968	3217.13
970.269	3196.79
970.571	3183.91
970.872	3139.62
971.174	3158.6
971.475	3160.41
971.776	3135.55
972.077	3108.66
972.378	3154.31
972.679	3135.33
972.98	3113.18
973.281	3108.21
973.582	3089
973.883	3008.78
974.183	3033.86
974.484	3060.3
974.785	2964.03
975.085	3030.7
975.386	2980.3
975.686	2994.99
975.986	2989.12
976.287	2955.67
976.587	2896.92
976.887	2931.26
977.187	2893.3
977.487	2883.36
977.787	2911.83
978.087	2856.46
978.387	2884.49
978.687	2846.75
978.987	2849.91
979.286	2831.83
979.586	2802.68
979.885	2816.24
980.185	2782.12
980.484	2771.04
980.784	2747.31
981.083	2748.22
981.382	2713.19
981.682	2694.66
981.981	2693.76
982.28	2699.86
982.579	2658.96
982.878	2686.3
983.177	2667.99
983.475	2657.15
983.774	2625.51
984.073	2614.66
984.372	2575.34
984.67	2603.59
984.969	2624.83
985.267	2583.48
985.566	2554.78
985.864	2601.78
986.162	2525.85
986.461	2502.35
986.759	2533.31
987.057	2509.35
987.355	2452.18
987.653	2525.63
987.951	2458.73
988.249	2481.56
988.547	2468.9
988.844	2410.15
989.142	2416.7
989.44	2407.44
989.737	2407.44
990.035	2401.79
990.332	2371.28
990.63	2394.56
990.927	2364.27
991.224	2355.46
991.521	2315.24
991.819	2348.91
992.116	2327.21
992.413	2302.81
992.71	2272.75
993.006	2277.5
993.303	2309.36
993.6	2306.2
993.897	2280.66
994.193	2236.82
994.49	2237.27
994.787	2233.66
995.083	2210.38
995.379	2219.87
995.676	2197.72
995.972	2153.66
996.268	2173.09
996.565	2162.7
996.861	2120.66
997.157	2156.6
997.453	2134.68
997.749	2126.09
998.044	2121.34
998.34	2112.98
998.636	2097.39
998.932	2092.42
999.227	2095.13
999.523	2070.04
999.818	2044.06
1000.114	2051.97
1000.409	2061.91
1000.704	2011.97
1001	2021.91
1001.295	1999.54
1001.59	2007.9
1001.885	2009.71
1002.18	1990.72
1002.475	1974
1002.77	1935.58
1003.065	1956.83
1003.359	1931.29
1003.654	1955.02
1003.949	1893.78
1004.243	1895.13
1004.538	1861.69
1004.832	1884.29
1005.127	1879.09
1005.421	1844.06
1005.715	1854.23
1006.009	1855.13
1006.304	1832.31
1006.598	1830.28
1006.892	1783.95
1007.186	1790.28
1007.48	1822.14
1007.773	1783.95
1008.067	1784.85
1008.361	1731.97
1008.655	1762.93
1008.948	1710.73
1009.242	1727.45
1009.535	1712.99
1009.829	1702.82
1010.122	1708.92
1010.415	1710.96
1010.708	1640.23
1011.001	1645.42
1011.295	1632.99
1011.588	1639.1
1011.881	1642.94
1012.173	1603.84
1012.466	1622.6
1012.759	1627.57
1013.052	1604.52
1013.344	1606.1
1013.637	1585.09
1013.93	1569.27
1014.222	1609.49
1014.514	1556.16
1014.807	1569.04
1015.099	1541.02
1015.391	1520.45
1015.683	1524.52
1015.976	1516.61
1016.268	1509.38
1016.56	1529.95
1016.851	1497.63
1017.143	1480
1017.435	1496.73
1017.727	1449.27
1018.018	1446.11
1018.31	1450.17
1018.602	1442.49
1018.893	1434.81
1019.185	1431.87
1019.476	1387.35
1019.767	1386.45
1020.058	1402.49
1020.35	1374.02
1020.641	1369.27
1020.932	1394.36
1021.223	1354.36
1021.514	1358.42
1021.804	1321.59
1022.095	1320.01
1022.386	1318.43
1022.677	1333.11
1022.967	1297.64
1023.258	1291.76
1023.548	1299.44
1023.839	1285.21
1024.129	1275.04
1024.419	1270.52
1024.709	1229.39
1025	1238.43
1025.29	1222.61
1025.58	1254.02
1025.87	1211.31
1026.16	1213.12
1026.449	1201.37
1026.739	1200.69
1027.029	1175.6
1027.319	1153.91
1027.608	1186.23
1027.898	1176.96
1028.187	1167.47
1028.477	1190.97
1028.766	1154.14
1029.055	1155.04
1029.344	1149.62
1029.634	1160.69
1029.923	1105.32
1030.212	1117.08
1030.501	1102.39
1030.79	1121.37
1031.078	1066.46
1031.367	1087.02
1031.656	1089.73
1031.945	1073.69
1032.233	1091.54
1032.522	1042.73
1032.81	1054.25
1033.099	1039.34
1033.387	1029.62
1033.675	1023.74
1033.963	1047.7
1034.251	1048.6
1034.54	997.08
1034.828	994.14
1035.116	978.32
1035.403	1001.37
1035.691	943.52
1035.979	981.94
1036.267	964.54
1036.554	948.72
1036.842	939.23
1037.129	963.41
1037.417	955.5
1037.704	957.76
1037.992	946.91
1038.279	938.77
1038.566	929.28
1038.853	929.28
1039.14	929.28
