Data from tablewood_brown_FLMS001491_042.txt Node
Date: Tue Feb 07 11:10:30 GMT 2017
User: dcchb
Spectrometer: FLMS00149
Trigger mode: 0
Integration Time (sec): 2.000000E-2
Scans to average: 10
Electric dark correction enabled: true
Nonlinearity correction enabled: false
Boxcar width: 0
XAxis mode: Wavelengths
Number of Pixels in Spectrum: 2048
>>>>>Begin Spectral Data<<<<<
341.393	-5.42
341.776	-5.42
342.16	-5.42
342.543	-41.13
342.927	-72.77
343.31	-51.3
343.693	-58.76
344.077	-65.54
344.46	-70.28
344.843	-54.91
345.226	-35.48
345.61	-41.13
345.993	-2.03
346.376	-9.72
346.759	26.67
347.142	10.4
347.525	30.73
347.908	60.79
348.291	80.68
348.674	84.07
349.057	95.82
349.44	123.39
349.823	134.69
350.206	158.87
350.588	201.35
350.971	206.77
351.354	246.32
351.737	231.41
352.119	259.65
352.502	260.11
352.884	273.21
353.267	292.87
353.65	287.9
354.032	315.47
354.414	310.27
354.797	324.74
355.179	298.98
355.562	338.97
355.944	335.36
356.326	324.06
356.709	331.74
357.091	335.58
357.473	351.63
357.855	336.26
358.238	340.56
358.62	363.38
359.002	334.91
359.384	348.01
359.766	333.1
360.148	330.84
360.53	342.82
360.912	360.22
361.294	337.62
361.676	331.29
362.057	329.48
362.439	335.36
362.821	329.93
363.203	324.06
363.584	330.39
363.966	321.35
364.348	334.91
364.729	322.25
365.111	347.34
365.493	344.4
365.874	323.83
366.256	313.89
366.637	332.87
367.019	322.03
367.4	333.78
367.781	312.31
368.163	341.46
368.544	316.15
368.925	315.02
369.306	336.49
369.688	322.48
370.069	305.08
370.45	314.34
370.831	311.63
371.212	313.89
371.593	322.48
371.974	329.71
372.355	326.09
372.736	363.15
373.117	322.48
373.498	329.93
373.879	341.91
374.26	328.58
374.641	312.08
375.021	323.61
375.402	336.49
375.783	347.79
376.163	358.86
376.544	322.03
376.925	353.21
377.305	362.7
377.686	371.74
378.066	350.95
378.447	365.87
378.827	344.62
379.208	358.63
379.588	362.02
379.968	361.35
380.349	336.49
380.729	367.22
381.109	334.23
381.489	334.23
381.87	353.44
382.25	347.79
382.63	362.93
383.01	368.8
383.39	368.8
383.77	368.35
384.15	358.63
384.53	377.62
384.91	378.52
385.29	381.68
385.67	371.52
386.049	370.84
386.429	401.12
386.809	411.06
387.189	364.96
387.568	370.39
387.948	376.94
388.328	403.83
388.707	381.23
389.087	381.46
389.466	396.6
389.846	391.18
390.225	395.92
390.605	395.24
390.984	414.45
391.363	424.62
391.743	409.48
392.122	413.32
392.501	411.74
392.881	422.14
393.26	441.12
393.639	438.63
394.018	426.66
394.397	430.5
394.776	432.31
395.155	433.43
395.534	461.68
395.913	453.1
396.292	455.58
396.671	442.25
397.05	468.91
397.429	457.16
397.808	441.34
398.186	482.93
398.565	448.58
398.944	479.31
399.323	463.26
399.701	447.9
400.08	470.95
400.458	496.71
400.837	488.57
401.215	477.95
401.594	477.73
401.972	484.51
402.351	500.1
402.729	502.13
403.107	529.48
403.486	490.16
403.864	509.14
404.242	515.47
404.62	511.85
404.999	516.37
405.377	511.4
405.755	524.28
406.133	512.75
406.511	537.16
406.889	556.14
407.267	538.97
407.645	575.35
408.023	560.89
408.401	554.56
408.779	570.15
409.156	551.17
409.534	558.63
409.912	600.89
410.29	599.08
410.667	599.08
411.045	595.92
411.422	569.02
411.8	579.65
412.178	606.09
412.555	619.42
412.933	614.9
413.31	618.97
413.687	647.89
414.065	638.18
414.442	635.69
414.819	645.18
415.197	630.94
415.574	650.15
415.951	664.84
416.328	640.89
416.705	660.77
417.082	669.81
417.46	665.29
417.837	678.63
418.214	712.07
418.591	699.42
418.967	686.54
419.344	690.38
419.721	711.85
420.098	724.73
420.475	728.12
420.852	719.53
421.228	722.01
421.605	730.83
421.982	731.05
422.358	744.39
422.735	759.53
423.111	756.36
423.488	745.07
423.864	768.12
424.241	765.18
424.617	767.21
424.994	765.18
425.37	806.53
425.746	800.2
426.123	778.28
426.499	805.85
426.875	818.06
427.251	810.83
427.627	840.88
428.003	848.34
428.379	838.85
428.756	841.11
429.132	868.9
429.507	885.17
429.883	857.6
430.259	878.17
430.635	883.14
431.011	896.7
431.387	943.48
431.763	927.43
432.138	918.62
432.514	929.24
432.89	943.93
433.265	925.63
433.641	944.16
434.016	990.93
434.392	998.17
434.767	990.26
435.143	1011.5
435.518	1001.78
435.894	1043.14
436.269	1024.38
436.644	1026.64
437.02	1060.31
437.395	1073.87
437.77	1077.94
438.145	1086.53
438.52	1091.04
438.895	1107.77
439.271	1128.56
439.646	1139.86
440.021	1137.37
440.395	1136.24
440.77	1134.43
441.145	1137.6
441.52	1154.32
441.895	1154.55
442.27	1162.23
442.645	1195.9
443.019	1187.54
443.394	1204.49
443.769	1190.25
444.143	1220.98
444.518	1237.48
444.892	1215.56
445.267	1230.48
445.641	1240.19
446.016	1261.44
446.39	1253.98
446.764	1281.1
447.139	1258.5
447.513	1276.12
447.887	1278.38
448.262	1273.64
448.636	1304.15
449.01	1290.14
449.384	1318.84
449.758	1346.63
450.132	1345.05
450.506	1366.74
450.88	1356.12
451.254	1351.15
451.628	1385.27
452.002	1400.19
452.376	1420.3
452.75	1432.5
453.123	1399.96
453.497	1437.48
453.871	1457.36
454.244	1480.64
454.618	1452.84
454.992	1453.97
455.365	1480.64
455.739	1518.83
456.112	1548.21
456.486	1551.6
456.859	1570.81
457.232	1579.39
457.606	1584.82
457.979	1605.61
458.352	1653.74
458.725	1625.95
459.099	1645.83
459.472	1675.89
459.845	1681.99
460.218	1719.28
460.591	1741.2
460.964	1696.68
461.337	1797.47
461.71	1819.39
462.083	1825.71
462.456	1831.36
462.829	1858.71
463.201	1847.64
463.574	1861.87
463.947	1911.59
464.32	1986.84
464.692	1979.38
465.065	1989.33
465.438	2036.78
465.81	2050.57
466.183	2062.54
466.555	2119.72
466.928	2135.31
467.3	2119.94
467.672	2158.81
468.045	2233.84
468.417	2200.62
468.789	2244.01
469.161	2290.11
469.534	2300.28
469.906	2391.58
470.278	2396.32
470.65	2431.8
471.022	2502.31
471.394	2490.33
471.766	2555.86
472.138	2556.09
472.51	2632.02
472.882	2696.2
473.253	2699.36
473.625	2783.66
473.997	2874.5
474.369	2849.42
474.74	2913.82
475.112	2983.88
475.484	3049.19
475.855	3042.18
476.227	3139.13
476.598	3209.86
476.97	3263.19
477.341	3326.92
477.713	3342.74
478.084	3417.76
478.455	3545.44
478.827	3527.36
479.198	3640.36
479.569	3648.04
479.94	3788.83
480.311	3823.85
480.682	3890.52
481.053	4052.77
481.424	4066.56
481.795	4168.48
482.166	4187.91
482.537	4284.41
482.908	4375.25
483.279	4408.25
483.65	4514.01
484.021	4608.47
484.391	4652.08
484.762	4709.48
485.133	4749.48
485.503	4845.07
485.874	4976.37
486.244	5004.84
486.615	5094.1
486.985	5214.78
487.356	5228.79
487.726	5330.26
488.097	5471.95
488.467	5467.65
488.837	5629.23
489.207	5669.68
489.578	5707.65
489.948	5789.9
490.318	5891.6
490.688	5881.65
491.058	5972.27
491.428	6097.01
491.798	6133.85
492.168	6245.03
492.538	6311.25
492.908	6319.83
493.278	6502.2
493.648	6480.96
494.017	6569.32
494.387	6637.34
494.757	6603.89
495.126	6752.36
495.496	6807.5
495.866	6881.63
496.235	6943.32
496.605	6940.38
496.974	7047.5
497.344	7106.71
497.713	7167.5
498.082	7238.23
498.452	7341.5
498.821	7304.89
499.19	7336.3
499.559	7427.6
499.928	7529.97
500.298	7527.03
500.667	7643.41
501.036	7605.68
501.405	7747.82
501.774	7731.32
502.143	7867.14
502.512	7861.26
502.88	7993.69
503.249	7956.63
503.618	8016.06
503.987	8087.47
504.356	8171.08
504.724	8157.75
505.093	8214.25
505.462	8254.25
505.83	8296.73
506.199	8357.52
506.567	8519.1
506.936	8570.4
507.304	8621.02
507.672	8680
508.041	8741.69
508.409	8806.32
508.777	8871.18
509.145	8958.86
509.514	8973.32
509.882	9075.47
510.25	9128.8
510.618	9188.23
510.986	9198.4
511.354	9421.45
511.722	9404.05
512.09	9504.38
512.458	9571.27
512.826	9668.9
513.193	9699.18
513.561	9776.24
513.929	9817.14
514.297	9938.04
514.664	10023.47
515.032	10025.95
515.4	10239.96
515.767	10261.2
516.135	10281.54
516.502	10280.18
516.869	10493.96
517.237	10528.54
517.604	10514.53
517.972	10613.28
518.339	10710.9
518.706	10866.15
519.073	10806.72
519.44	10948.86
519.808	11052.82
520.175	11048.07
520.542	11254.85
520.909	11344.56
521.276	11392.02
521.643	11535.97
522.009	11525.8
522.376	11672.01
522.743	11774.38
523.11	11873.81
523.477	11992.23
523.843	12111.55
524.21	12145.67
524.577	12325.33
524.943	12387.7
525.31	12476.51
525.676	12603.96
526.043	12709.5
526.409	12712.43
526.776	12873.56
527.142	12903.84
527.508	13010.73
527.874	13171.41
528.241	13245.53
528.607	13276.26
528.973	13410.72
529.339	13365.3
529.705	13582.69
530.071	13649.13
530.437	13713.99
530.803	13754.67
531.169	13919.86
531.535	13911.5
531.901	14007.99
532.267	14082.34
532.632	14173.41
532.998	14276.91
533.364	14384.03
533.73	14356.23
534.095	14469.9
534.461	14528.66
534.826	14586.28
535.192	14660.63
535.557	14869.89
535.923	14731.14
536.288	14883
536.653	14943.79
537.019	14905.82
537.384	15058.36
537.749	15139.26
538.114	15202.31
538.479	15066.72
538.845	15323.89
539.21	15339.48
539.575	15382.42
539.94	15552.13
540.305	15545.35
540.67	15464.45
541.034	15632.81
541.399	15668.74
541.764	15735.63
542.129	15846.59
542.494	15850.2
542.858	15891.33
543.223	15915.29
543.587	16073.93
543.952	16030.31
544.316	16181.5
544.681	16096.3
545.045	16210.2
545.41	16283.19
545.774	16362.06
546.138	16449.51
546.503	16370.64
546.867	16502.16
547.231	16652.22
547.595	16654.48
547.959	16818.31
548.324	16812.67
548.688	16858.31
549.052	16945.09
549.416	17036.61
549.779	16977.86
550.143	17086.78
550.507	17268.7
550.871	17358.19
551.235	17382.37
551.599	17550.5
551.962	17660.55
552.326	17640.89
552.689	17744.17
553.053	17701.91
553.417	17808.12
553.78	18133.08
554.143	18060.54
554.507	18302.8
554.87	18323.81
555.234	18519.74
555.597	18438.61
555.96	18665.72
556.323	18760.41
556.686	18734.65
557.05	19062.55
557.413	19000.18
557.776	19132.15
558.139	19278.14
558.502	19449.88
558.865	19449.88
559.228	19624.57
559.59	19726.49
559.953	19791.34
560.316	20014.61
560.679	20113.82
561.041	20215.97
561.404	20504.55
561.767	20588.39
562.129	20578.44
562.492	20835.61
562.854	20997.19
563.217	21022.05
563.579	21141.59
563.941	21391.53
564.304	21527.12
564.666	21747.9
565.028	21749.26
565.39	21942.47
565.753	22124.16
566.115	22218.4
566.477	22397.83
566.839	22637.82
567.201	22887.99
567.563	22851.15
567.925	23172.72
568.287	23117.36
568.648	23261.99
569.01	23578.59
569.372	23709.43
569.734	23765.48
570.095	23965.25
570.457	24201.85
570.819	24273.26
571.18	24408.85
571.542	24549.19
571.903	24759.57
572.265	24918.21
572.626	25062.39
572.987	25144.65
573.349	25391.65
573.71	25473.68
574.071	25695.82
574.432	25621.02
574.794	26095.59
575.155	26156.15
575.516	26071.4
575.877	26452.64
576.238	26602.24
576.599	26700.54
576.96	26764.72
577.32	26864.6
577.681	27043.58
578.042	27115.67
578.403	27183.47
578.763	27421.2
579.124	27426.17
579.485	27645.83
579.845	27712.49
580.206	27750.46
580.566	27780.51
580.927	27989.55
581.287	28183.67
581.648	28242.2
582.008	28364
582.368	28394.73
582.728	28538.68
583.089	28547.95
583.449	28531.23
583.809	28598.34
584.169	28774.16
584.529	28787.72
584.889	29069.52
585.249	28910.88
585.609	29000.59
585.969	29022.06
586.329	29016.19
586.688	29201.49
587.048	29143.87
587.408	29084.21
587.768	29258.44
588.127	29331.21
588.487	29236.97
588.846	29560.58
589.206	29345.67
589.565	29366.91
589.925	29564.87
590.284	29559.67
590.643	29574.14
591.003	29674.47
591.362	29693
591.721	29726.9
592.08	29814.36
592.44	29808.03
592.799	29922.83
593.158	29803.06
593.517	29869.27
593.876	29839.44
594.235	29742.27
594.593	29892.55
594.952	29876.73
595.311	29829.72
595.67	29881.02
596.029	30156.95
596.387	30172.09
596.746	30260
597.104	30216.83
597.463	30148.36
597.822	30379.31
598.18	30161.47
598.538	30129.38
598.897	30208.02
599.255	30106.1
599.613	30461.8
599.972	30272.2
600.33	30487.33
600.688	30421.8
601.046	30577.05
601.404	30597.61
601.762	30525.75
602.12	30701.11
602.478	30627.9
602.836	30615.24
603.194	30520.78
603.552	30709.25
603.91	30463.15
604.268	30694.33
604.625	30544.28
604.983	30703.83
605.341	30556.94
605.698	30831.96
606.056	30925.74
606.413	30811.62
606.771	30953.99
607.128	31013.87
607.485	30796.03
607.843	30942.24
608.2	31020.65
608.557	31149.92
608.914	30984.95
609.272	31107.66
609.629	31164.15
609.986	31296.35
610.343	31186.75
610.7	31352.17
611.057	31310.59
611.414	31342.23
611.771	31454.54
612.127	31544.26
612.484	31598.04
612.841	31600.98
613.198	31416.35
613.554	31669.22
613.911	31715.55
614.267	31735.21
614.624	31689.79
614.98	31800.97
615.337	31882.1
615.693	31775.21
616.05	31814.08
616.406	31809.11
616.762	31767.75
617.118	31683.23
617.475	31861.31
617.831	31913.06
618.187	31955.54
618.543	31963.23
618.899	32069.21
619.255	32064.47
619.611	32108.53
619.967	32148.99
620.323	32109.21
620.678	32283.22
621.034	32050.46
621.39	32113.51
621.746	32066.5
622.101	32403.22
622.457	32058.82
622.812	32287.74
623.168	32150.34
623.523	32280.96
623.879	32290
624.234	32167.74
624.589	32244.58
624.945	32373.39
625.3	32250
625.655	32318.25
626.01	32303.33
626.365	32393.27
626.72	32333.61
627.075	32393.95
627.43	32341.75
627.785	32200.74
628.14	32388.98
628.495	32403.67
628.85	32454.51
629.205	32287.96
629.559	32423.1
629.914	32153.28
630.269	32195.99
630.623	32136.56
630.978	32034.86
631.332	32254.97
631.687	32272.37
632.041	31981.98
632.396	32082.32
632.75	31999.16
633.104	31902.21
633.459	31946.05
633.813	31917.13
634.167	31793.29
634.521	31829.45
634.875	31995.54
635.229	31905.38
635.583	31767.53
635.937	31676.68
636.291	31686.17
636.645	31724.82
636.999	31469.46
637.352	31741.76
637.706	31503.35
638.06	31647.98
638.413	31586.29
638.767	31444.37
639.121	31440.53
639.474	31315.79
639.828	31364.83
640.181	31316.46
640.534	31518.27
640.888	31344.26
641.241	31127.32
641.594	31351.04
641.947	31262.23
642.301	31222.46
642.654	31177.94
643.007	31123.48
643.36	31145.17
643.713	31072.18
644.066	31199.41
644.419	30889.58
644.771	30820.88
645.124	30531.4
645.477	30568.91
645.83	30348.81
646.182	30142.71
646.535	30091.86
646.888	30257.96
647.24	29961.7
647.593	30302.25
647.945	30211.18
648.298	29965.54
648.65	29942.26
649.002	29845.54
649.355	30184.74
649.707	30010.96
650.059	30136.16
650.411	30384.96
650.763	30469.48
651.115	30861.79
651.467	30609.14
651.819	30737.95
652.171	30529.82
652.523	30595.13
652.875	30683.71
653.227	30479.2
653.578	30762.58
653.93	30662.47
654.282	30490.05
654.633	30403.49
654.985	30505.86
655.337	30494.11
655.688	30592.19
656.039	30674.9
656.391	30309.71
656.742	30334.34
657.094	30550.38
657.445	30509.25
657.796	30418.41
658.147	30395.81
658.498	30410.5
658.849	30576.37
659.2	30421.12
659.551	30248.47
659.902	30515.81
660.253	30383.61
660.604	30398.07
660.955	30383.16
661.306	30400.1
661.656	30328.02
662.007	30297.73
662.358	30287.57
662.708	30277.62
663.059	30345.19
663.409	30246.44
663.76	30427
664.11	30325.3
664.461	30495.47
664.811	30285.31
665.161	30401.46
665.511	30252.54
665.862	30306.77
666.212	30513.55
666.562	30429.93
666.912	30337.06
667.262	30450.27
667.612	30409.37
667.962	30458.18
668.312	30215.02
668.662	30406.43
669.011	30350.84
669.361	30210.05
669.711	30297.28
670.06	30259.32
670.41	30081.02
670.76	29971.42
671.109	30185.2
671.459	30066.1
671.808	30020.23
672.157	30106.1
672.507	29848.25
672.856	29915.15
673.205	30064.29
673.554	30016.84
673.904	30002.15
674.253	30154.69
674.602	29918.08
674.951	29658.66
675.3	29521.48
675.649	29898.2
675.998	29935.48
676.346	29817.97
676.695	30010.06
677.044	29710.63
677.393	29793.57
677.741	29832.44
678.09	29726.68
678.438	29745.88
678.787	29732.78
679.135	29649.62
679.484	29532.56
679.832	29663.63
680.181	29297.99
680.529	29587.47
680.877	29417.53
681.225	29453.91
681.573	29434.25
681.922	29304.77
682.27	29344.77
682.618	29178.22
682.966	29173.24
683.314	29213.02
683.661	29121.04
684.009	29035.85
684.357	28959.24
684.705	28901.84
685.053	28852.35
685.4	29006.92
685.748	28760.83
686.095	28747.27
686.443	28608.51
686.79	28499.59
687.138	28669.3
687.485	28518.35
687.832	28410.78
688.18	28402.42
688.527	28260.05
688.874	28191.58
689.221	28150.45
689.568	28057.57
689.915	28042.2
690.262	27910.23
690.609	27940.73
690.956	27781.87
691.303	27774.64
691.65	27655.54
691.997	27547.75
692.344	27409.67
692.69	27416.91
693.037	27386.4
693.383	27137.59
693.73	27339.39
694.077	27127.42
694.423	27037.71
694.769	27030.25
695.116	26806.53
695.462	26819.63
695.808	26666.87
696.155	26798.84
696.501	26454.22
696.847	26515.46
697.193	26348.46
697.539	26573.76
697.885	26162.93
698.231	26176.49
698.577	26160.89
698.923	26131.52
699.269	25938.98
699.614	25811.98
699.96	25775.14
700.306	25751.87
700.651	25692.21
700.997	25440.91
701.342	25519.78
701.688	25317.98
702.033	25240.69
702.379	25336.51
702.724	25142.16
703.069	25216.51
703.415	24841.15
703.76	24926.12
704.105	24986.46
704.45	24768.39
704.795	24596.42
705.14	24572.01
705.485	24687.03
705.83	24516.42
706.175	24462.63
706.52	24478
706.865	24289.98
707.209	24202.53
707.554	24193.71
707.899	24259.93
708.243	24050.67
708.588	24058.12
708.932	23915.3
709.277	23904.68
709.621	23885.7
709.966	23753.05
710.31	23842.31
710.654	23513.51
710.998	23566.61
711.342	23633.05
711.687	23511.92
712.031	23466.28
712.375	23368.88
712.719	23388.09
713.063	23375.88
713.407	23406.62
713.75	23270.57
714.094	23253.63
714.438	23159.84
714.782	23175.89
715.125	23040.07
715.469	23161.88
715.812	23054.08
716.156	22873.3
716.499	22946.74
716.843	22965.5
717.186	22817.03
717.53	22862.45
717.873	22850.7
718.216	22838.72
718.559	22741.1
718.902	22587.2
719.246	22643.47
719.589	22530.71
719.932	22480.31
720.275	22454.32
720.617	22461.1
720.96	22380.43
721.303	22476.92
721.646	22469.01
721.989	22283.48
722.331	22324.38
722.674	22348.79
723.016	22292.75
723.359	22387.21
723.701	22289.81
724.044	22205.29
724.386	22216.14
724.729	22346.53
725.071	22183.37
725.413	22220.21
725.755	22301.56
726.097	22139.98
726.439	21964.85
726.782	22084.17
727.124	22152.64
727.465	22078.06
727.807	21985.41
728.149	21991.96
728.491	21965.3
728.833	22003.72
729.175	21912.64
729.516	21911.74
729.858	21943.38
730.199	21917.84
730.541	21820.44
730.882	21882.59
731.224	21960.55
731.565	21857.05
731.906	21847.11
732.248	21811.86
732.589	21836.71
732.93	21799.88
733.271	21678.98
733.612	21760.11
733.953	21807.56
734.294	21719.88
734.635	21629.94
734.976	21864.74
735.317	21710.16
735.658	21663.61
735.999	21621.58
736.339	21727.79
736.68	21711.07
737.021	21725.98
737.361	21608.92
737.702	21725.08
738.042	21714.91
738.383	21574.12
738.723	21742.71
739.063	21660.67
739.404	21690.73
739.744	21723.95
740.084	21594.69
740.424	21682.14
740.764	21710.39
741.104	21791.52
741.444	21653.89
741.784	21512.2
742.124	21597.4
742.464	21689.37
742.804	21578.19
743.143	21502.71
743.483	21551.75
743.823	21478.08
744.162	21493.9
744.502	21660.22
744.841	21427.46
745.181	21634.01
745.52	21524.41
745.86	21540.9
746.199	21455.93
746.538	21432.88
746.877	21530.96
747.216	21386.1
747.556	21430.62
747.895	21466.33
748.234	21495.25
748.573	21459.32
748.911	21509.94
749.25	21489.15
749.589	21363.05
749.928	21452.09
750.267	21550.85
750.605	21481.92
750.944	21373.45
751.283	21333.68
751.621	21438.98
751.96	21204.19
752.298	21298.65
752.636	21308.59
752.975	21195.83
753.313	21105.21
753.651	21267.01
753.989	21115.38
754.327	21115.15
754.666	20984.76
755.004	21144.08
755.342	21184.3
755.679	21172.32
756.017	20983.4
756.355	21048.49
756.693	20868.15
757.031	20952.44
757.368	20914.93
757.706	20862.28
758.044	20773.01
758.381	20844.42
758.719	20707.7
759.056	20651.89
759.394	20786.35
759.731	20559.46
760.068	20419.35
760.405	20479.46
760.743	20412.8
761.08	20438.56
761.417	20318.79
761.754	20293.93
762.091	20203.76
762.428	20169.87
762.765	20105.46
763.102	20180.49
763.438	20067.27
763.775	20007.16
764.112	19958.12
764.449	19997.67
764.785	19897.33
765.122	19691.01
765.458	19728.52
765.795	19629.99
766.131	19710.89
766.467	19633.16
766.804	19502.76
767.14	19469.54
767.476	19497.79
767.812	19330.34
768.148	19334.18
768.485	19314.29
768.821	19174.19
769.157	19166.28
769.492	19065.71
769.828	19024.58
770.164	18943
770.5	18864.59
770.836	18896.9
771.171	18731.26
771.507	18651.04
771.842	18654.65
772.178	18639.28
772.513	18477.93
772.849	18538.27
773.184	18411.27
773.519	18301.67
773.855	18313.87
774.19	18160.43
774.525	18139.41
774.86	18177.6
775.195	18094.44
775.53	18017.15
775.865	17986.65
776.2	17822.36
776.535	17759.53
776.87	17740.78
777.205	17630.95
777.539	17550.95
777.874	17620.1
778.209	17381.24
778.543	17414.68
778.878	17307.57
779.212	17260.34
779.547	17241.58
779.881	17287.91
780.215	17077.52
780.55	17093.79
780.884	17060.12
781.218	16952.77
781.552	16899.22
781.886	16856.73
782.22	16731.31
782.554	16716.62
782.888	16660.35
783.222	16504.88
783.556	16429.17
783.889	16482.5
784.223	16234.38
784.557	16258.56
784.89	16346.24
785.224	16069.41
785.557	16074.61
785.891	16085
786.224	16019.47
786.558	16056.07
786.891	15852.46
787.224	15704.45
787.557	15818.79
787.891	15782.86
788.224	15669.42
788.557	15682.53
788.89	15599.14
789.223	15638.68
789.556	15413.61
789.888	15482.3
790.221	15433.72
790.554	15313.27
790.887	15327.73
791.219	15211.8
791.552	15224.91
791.884	15176.55
792.217	15100.17
792.549	15017.23
792.882	14859.95
793.214	14893.85
793.546	14879.61
793.879	14815.66
794.211	14724.13
794.543	14753.28
794.875	14759.16
795.207	14690.46
795.539	14706.51
795.871	14664.93
796.203	14429.9
796.535	14400.75
796.867	14417.93
797.198	14343.58
797.53	14284.82
797.862	14221.32
798.193	14177.03
798.525	14169.8
798.856	14178.16
799.188	13993.3
799.519	14014.77
799.85	13949.92
800.182	13972.97
800.513	13920.54
800.844	13815.68
801.175	13898.62
801.506	13830.14
801.837	13777.26
802.168	13780.2
802.499	13701.79
802.83	13582.92
803.161	13606.87
803.491	13594.22
803.822	13539.08
804.153	13448.23
804.483	13364.85
804.814	13387.67
805.145	13338.63
805.475	13350.61
805.805	13308.12
806.136	13238.52
806.466	13210.95
806.796	13165.53
807.126	13032.65
807.457	13086.44
807.787	13043.27
808.117	13010.05
808.447	13007.57
808.777	13010.96
809.107	12896.61
809.436	12932.77
809.766	12851.87
810.096	12757.86
810.426	12731.42
810.755	12817.97
811.085	12720.8
811.414	12660.23
811.744	12623.4
812.073	12568.03
812.403	12625.66
812.732	12408.71
813.061	12516.51
813.39	12393.35
813.719	12355.16
814.049	12504.98
814.378	12311.54
814.707	12354.03
815.036	12318.77
815.365	12252.11
815.693	12181.83
816.022	12199.45
816.351	12168.49
816.68	12121.72
817.008	12192.9
817.337	12050.08
817.665	12041.72
817.994	12034.26
818.322	11989.06
818.651	11924.21
818.979	11898.9
819.307	11918.56
819.636	11869.52
819.964	11841.72
820.292	11864.77
820.62	11900.93
820.948	11858.22
821.276	11869.07
821.604	11781.16
821.932	11846.47
822.259	11838.56
822.587	11826.58
822.915	11806.02
823.243	11770.31
823.57	11791.1
823.898	11829.52
824.225	11749.75
824.553	11712.01
824.88	11707.04
825.207	11772.12
825.535	11749.52
825.862	11786.58
826.189	11794.04
826.516	11832.68
826.843	11802.85
827.17	11844.21
827.497	11806.02
827.824	11824.77
828.151	11853.7
828.478	11835.17
828.805	11806.92
829.131	11696.64
829.458	11742.52
829.785	11665.68
830.111	11672.91
830.438	11752.23
830.764	11699.58
831.09	11730.99
831.417	11643.54
831.743	11642.41
832.069	11694.38
832.395	11615.06
832.722	11687.6
833.048	11706.13
833.374	11693.7
833.7	11614.84
834.026	11681.27
834.351	11602.63
834.677	11557.44
835.003	11683.31
835.329	11663.65
835.654	11584.78
835.98	11568.51
836.306	11536.42
836.631	11532.13
836.956	11599.69
837.282	11514.27
837.607	11483.09
837.932	11525.8
838.258	11469.53
838.583	11454.16
838.908	11351.57
839.233	11471.11
839.558	11372.13
839.883	11312.92
840.208	11330.1
840.533	11285.8
840.858	11289.87
841.182	11276.31
841.507	11253.49
841.832	11203.55
842.156	11258.01
842.481	11200.38
842.805	11222.3
843.13	11122.65
843.454	11117
843.778	11112.02
844.103	11073.83
844.427	11086.04
844.751	10941.63
845.075	10969.66
845.399	10952.71
845.723	10920.62
846.047	10872.93
846.371	10820.96
846.695	10830.9
847.019	10795.65
847.343	10673.39
847.666	10630
847.99	10608.76
848.313	10589.33
848.637	10541.19
848.96	10535.09
849.284	10442.66
849.607	10412.38
849.931	10407.86
850.254	10284.93
850.577	10241.54
850.9	10160.41
851.223	10194.31
851.546	10107.3
851.869	10083.58
852.192	10127.19
852.515	10009.45
852.838	9986.18
853.161	10021.21
853.483	9973.52
853.806	9891.27
854.129	9873.41
854.451	9848.78
854.774	9853.3
855.096	9780.99
855.419	9764.04
855.741	9722.23
856.063	9696.24
856.385	9681.1
856.708	9683.14
857.03	9645.4
857.352	9608.56
857.674	9477.49
857.996	9531.05
858.318	9415.8
858.64	9422.8
858.961	9388.45
859.283	9343.48
859.605	9352.52
859.926	9380.09
860.248	9405.85
860.57	9263.03
860.891	9318.4
861.212	9256.03
861.534	9238.85
861.855	9265.07
862.176	9273.43
862.498	9198.4
862.819	9188.23
863.14	9160.89
863.461	9145.07
863.782	9107.11
864.103	9135.58
864.424	9065.52
864.745	9123.6
865.065	9042.25
865.386	9039.76
865.707	9013.77
866.027	9030.27
866.348	9017.84
866.668	9020.78
866.989	9016.26
867.309	8936.94
867.63	8929.71
867.95	8914.57
868.27	8852.2
868.59	8880.67
868.91	8856.94
869.23	8870.73
869.55	8832.76
869.87	8836.15
870.19	8851.07
870.51	8837.96
870.83	8823.72
871.15	8763.84
871.469	8780.11
871.789	8808.36
872.109	8771.29
872.428	8709.15
872.748	8648.13
873.067	8714.8
873.386	8694.91
873.706	8689.49
874.025	8634.12
874.344	8623.28
874.663	8600.9
874.982	8597.97
875.301	8616.72
875.62	8570.17
875.939	8515.03
876.258	8498.08
876.577	8498.08
876.896	8527.01
877.214	8516.39
877.533	8494.69
877.852	8508.7
878.17	8414.02
878.489	8500.79
878.807	8369.72
879.125	8404.75
879.444	8379.21
879.762	8453.11
880.08	8382.83
880.398	8352.77
880.716	8347.8
881.034	8292.21
881.352	8290.86
881.67	8325.88
881.988	8272.55
882.306	8258.31
882.624	8235.49
882.941	8159.33
883.259	8145.32
883.577	8152.1
883.894	8120.01
884.212	8171.54
884.529	8108.26
884.846	8112.33
885.164	8044.99
885.481	8068.49
885.798	8091.09
886.115	8059
886.432	7976.06
886.75	8056.29
887.067	7998.89
887.383	7942.84
887.7	7897.87
888.017	7937.42
888.334	7915.95
888.651	7908.49
888.967	7929.73
889.284	7867.14
889.6	7787.14
889.917	7772.45
890.233	7769.06
890.55	7732.23
890.866	7776.74
891.182	7766.35
891.498	7722.96
891.815	7662.4
892.131	7656.07
892.447	7661.95
892.763	7642.96
893.079	7593.25
893.395	7563.64
893.71	7544.43
894.026	7490.65
894.342	7500.82
894.657	7470.09
894.973	7455.85
895.289	7518.9
895.604	7456.08
895.92	7335.63
896.235	7296.76
896.55	7330.43
896.865	7322.07
897.181	7333.82
897.496	7285.68
897.811	7171.79
898.126	7201.39
898.441	7120.26
898.756	7129.08
899.071	7176.99
899.386	7182.86
899.7	7086.14
900.015	7081.62
900.33	6999.59
900.644	7024.22
900.959	7003.88
901.273	6927.05
901.588	6947.16
901.902	6924.34
902.216	6867.84
902.531	6881.4
902.845	6833.04
903.159	6806.6
903.473	6791.91
903.787	6719.15
904.101	6731.8
904.415	6723.21
904.729	6713.5
905.042	6714.17
905.356	6649.54
905.67	6598.24
905.984	6612.03
906.297	6595.53
906.611	6549.66
906.924	6570
907.237	6515.08
907.551	6477.34
907.864	6441.64
908.177	6427.4
908.491	6446.84
908.804	6431.24
909.117	6351.7
909.43	6303.56
909.743	6329.1
910.056	6289.1
910.368	6248.65
910.681	6184.47
910.994	6216.33
911.307	6179.5
911.619	6126.84
911.932	6154.64
912.244	6136.56
912.557	6091.37
912.869	6073.74
913.181	6032.84
913.494	6042.78
913.806	6008.66
914.118	5940.86
914.43	5917.36
914.742	5941.31
915.054	5897.92
915.366	5947.41
915.678	5873.07
915.99	5827.19
916.302	5780.86
916.613	5792.16
916.925	5738.61
917.236	5763.01
917.548	5676.91
917.859	5744.71
918.171	5670.59
918.482	5662.68
918.794	5578.61
919.105	5601.89
919.416	5611.15
919.727	5562.57
920.038	5584.03
920.349	5479.63
920.66	5502.45
920.971	5475.56
921.282	5401.89
921.593	5429.24
921.903	5383.59
922.214	5379.29
922.525	5333.87
922.835	5290.71
923.146	5287.09
923.456	5266.98
923.767	5227.21
924.077	5272.18
924.387	5241.22
924.697	5158.73
925.008	5175.01
925.318	5128.9
925.628	5123.48
925.938	5079.87
926.248	5061.79
926.558	5009.13
926.867	5009.59
927.177	5049.58
927.487	4975.91
927.796	4957.84
928.106	4930.72
928.416	4998.96
928.725	4923.26
929.034	4937.05
929.344	4900.89
929.653	4902.92
929.962	4859.76
930.271	4832.19
930.581	4799.87
930.89	4790.16
931.199	4758.52
931.508	4716.26
931.817	4717.39
932.125	4624.51
932.434	4725.53
932.743	4647.11
933.051	4671.52
933.36	4577.28
933.669	4572.08
933.977	4538.86
934.286	4599.2
934.594	4567.11
934.902	4469.26
935.21	4499.09
935.519	4521.46
935.827	4515.81
936.135	4444.4
936.443	4430.39
936.751	4371.64
937.059	4401.47
937.367	4338.19
937.674	4381.13
937.982	4321.02
938.29	4320.11
938.597	4284.86
938.905	4238.08
939.213	4223.17
939.52	4206.44
939.827	4231.98
940.135	4229.72
940.442	4199.89
940.749	4201.02
941.056	4177.97
941.363	4155.6
941.67	4146.11
941.977	4134.13
942.284	4090.51
942.591	4080.57
942.898	4076.05
943.205	4048.26
943.511	4053.9
943.818	3971.65
944.125	3992.44
944.431	3977.07
944.738	3971.2
945.044	3953.57
945.35	3935.94
945.657	3917.19
945.963	3871.54
946.269	3881.03
946.575	3859.33
946.881	3806
947.187	3836.28
947.493	3774.36
947.799	3775.72
948.105	3757.87
948.41	3780.69
948.716	3769.17
949.022	3711.31
949.327	3684.65
949.633	3636.51
949.938	3701.15
950.244	3701.82
950.549	3637.64
950.854	3637.42
951.16	3624.99
951.465	3610.53
951.77	3595.61
952.075	3582.5
952.38	3549.29
952.685	3562.84
952.99	3548.83
953.294	3515.61
953.599	3479.46
953.904	3485.78
954.209	3460.02
954.513	3465.45
954.818	3427.71
955.122	3420.25
955.426	3448.04
955.731	3412.57
956.035	3379.8
956.339	3365.34
956.643	3346.35
956.948	3347.48
957.252	3285.79
957.556	3311.78
957.86	3281.04
958.163	3341.16
958.467	3299.35
958.771	3273.36
959.075	3276.3
959.378	3231.1
959.682	3212.57
959.985	3232.46
960.289	3177.32
960.592	3175.51
960.896	3158.11
961.199	3180.26
961.502	3135.74
961.805	3135.96
962.108	3083.76
962.411	3111.33
962.714	3057.09
963.017	3094.38
963.32	3083.31
963.623	3020.94
963.926	3058.68
964.228	3032.24
964.531	2985.46
964.833	2997.89
965.136	2964.89
965.438	2992.69
965.741	2962.18
966.043	2947.04
966.345	2918.34
966.648	2938.91
966.95	2917.21
967.252	2946.59
967.554	2897.1
967.856	2872.69
968.158	2864.33
968.46	2809.19
968.761	2805.8
969.063	2825.01
969.365	2811.23
969.666	2797.67
969.968	2778.01
970.269	2784.33
970.571	2793.37
970.872	2773.03
971.174	2723.54
971.475	2727.16
971.776	2746.37
972.077	2675.41
972.378	2700.72
972.679	2681.96
972.98	2675.18
973.281	2694.17
973.582	2651.46
973.883	2671.57
974.183	2654.85
974.484	2599.71
974.785	2600.38
975.085	2606.49
975.386	2574.17
975.686	2585.92
975.986	2566.71
976.287	2547.96
976.587	2527.62
976.887	2517.9
977.187	2521.97
977.487	2502.31
977.787	2489.88
978.087	2484.45
978.387	2464.34
978.687	2446.04
978.987	2468.18
979.286	2418.47
979.586	2421.18
979.885	2413.04
980.185	2419.37
980.484	2425.47
980.784	2389.32
981.083	2402.2
981.382	2345.25
981.682	2358.58
981.981	2394.06
982.28	2394.29
982.579	2308.87
982.878	2311.13
983.177	2293.95
983.475	2320.62
983.774	2299.6
984.073	2252.37
984.372	2288.53
984.67	2237
984.969	2256.89
985.267	2227.06
985.566	2262.77
985.864	2230.9
986.162	2224.35
986.461	2200.85
986.759	2213.05
987.057	2187.51
987.355	2178.02
987.653	2158.81
987.951	2153.16
988.249	2140.73
988.547	2145.71
988.844	2143.67
989.142	2130.34
989.44	2086.72
989.737	2101.87
990.035	2107.29
990.332	2057.35
990.63	2095.54
990.927	2033.17
991.224	2049.66
991.521	2031.81
991.819	2038.59
992.116	2000.17
992.413	2007.18
992.71	2007.86
993.006	2009.66
993.303	2009.89
993.6	1974.19
993.897	1999.5
994.193	1942.32
994.49	1957.69
994.787	1947.07
995.083	1934.64
995.379	1923.34
995.676	1920.18
995.972	1912.72
996.268	1907.29
996.565	1884.02
996.861	1897.13
997.157	1858.71
997.453	1861.42
997.749	1890.35
998.044	1823.91
998.34	1836.11
998.636	1816.9
998.932	1832.27
999.227	1818.48
999.523	1789.11
999.818	1764.25
1000.114	1783.46
1000.409	1767.19
1000.704	1778.03
1001	1762.21
1001.295	1747.52
1001.59	1752.04
1001.885	1740.29
1002.18	1740.07
1002.475	1724.25
1002.77	1708.88
1003.065	1682.44
1003.359	1667.75
1003.654	1674.98
1003.949	1660.75
1004.243	1641.76
1004.538	1662.56
1004.832	1652.16
1005.127	1632.5
1005.421	1616.68
1005.715	1613.29
1006.009	1595.89
1006.304	1611.26
1006.598	1595.89
1006.892	1605.38
1007.186	1565.16
1007.48	1571.26
1007.773	1553.41
1008.067	1536.68
1008.361	1522.67
1008.655	1517.7
1008.948	1537.13
1009.242	1518.15
1009.535	1524.03
1009.829	1494.88
1010.122	1495.33
1010.415	1493.52
1010.708	1455.33
1011.001	1441.77
1011.295	1449.68
1011.588	1449.91
1011.881	1439.96
1012.173	1421.66
1012.466	1439.28
1012.759	1418.49
1013.052	1402.9
1013.344	1392.28
1013.637	1404.03
1013.93	1370.36
1014.222	1380.08
1014.514	1382.79
1014.807	1364.48
1015.099	1373.3
1015.391	1346.63
1015.683	1357.48
1015.976	1349.8
1016.268	1339.17
1016.56	1320.19
1016.851	1331.04
1017.143	1344.6
1017.435	1298.5
1017.727	1283.81
1018.018	1281.55
1018.31	1283.81
1018.602	1275.22
1018.893	1278.61
1019.185	1241.55
1019.476	1237.03
1019.767	1260.76
1020.058	1206.07
1020.35	1204.71
1020.641	1228.22
1020.932	1224.15
1021.223	1180.31
1021.514	1192.96
1021.804	1192.96
1022.095	1193.19
1022.386	1161.33
1022.677	1170.59
1022.967	1151.16
1023.258	1155.22
1023.548	1166.3
1023.839	1114.32
1024.129	1135.34
1024.419	1136.69
1024.709	1109.12
1025	1099.41
1025.29	1101.89
1025.58	1099.63
1025.87	1091.95
1026.16	1079.75
1026.449	1076.13
1026.739	1089.24
1027.029	1068.67
1027.319	1063.7
1027.608	1065.51
1027.898	1045.62
1028.187	1023.93
1028.477	1038.16
1028.766	1019.86
1029.055	1018.28
1029.344	1021.22
1029.634	1017.37
1029.923	983.48
1030.212	997.04
1030.501	999.07
1030.79	1007.88
1031.078	977.15
1031.367	977.6
1031.656	967.43
1031.945	964.72
1032.233	949.58
1032.522	976.47
1032.81	957.04
1033.099	936.7
1033.387	947.32
1033.675	906.64
1033.963	926.08
1034.251	924.95
1034.54	896.93
1034.828	902.58
1035.116	888.34
1035.403	888.56
1035.691	890.37
1035.979	925.63
1036.267	859.86
1036.554	863.25
1036.842	849.7
1037.129	856.7
1037.417	836.81
1037.704	860.99
1037.992	852.41
1038.279	874.55
1038.566	833.65
1038.853	833.65
1039.14	833.65
