Data from tablewood_brown_FLMS001491_070.txt Node
Date: Tue Feb 07 11:10:51 GMT 2017
User: dcchb
Spectrometer: FLMS00149
Trigger mode: 0
Integration Time (sec): 2.000000E-2
Scans to average: 10
Electric dark correction enabled: true
Nonlinearity correction enabled: false
Boxcar width: 0
XAxis mode: Wavelengths
Number of Pixels in Spectrum: 2048
>>>>>Begin Spectral Data<<<<<
341.393	-22.43
341.776	-22.43
342.16	-22.43
342.543	-62.65
342.927	-75.31
343.31	-67.4
343.693	-79.15
344.077	-53.39
344.46	-51.13
344.843	-57.91
345.226	-40.96
345.61	-28.08
345.993	-31.92
346.376	-9.55
346.759	22.54
347.142	31.13
347.525	58.93
347.908	55.76
348.291	77.23
348.674	80.62
349.057	93.27
349.44	107.06
349.823	140.73
350.206	160.39
350.588	200.84
350.971	217.79
351.354	236.77
351.737	238.58
352.119	251.91
352.502	266.38
352.884	297.34
353.267	294.17
353.65	286.72
354.032	293.72
354.414	293.04
354.797	305.25
355.179	333.95
355.562	312.48
355.944	335.08
356.326	348.63
356.709	305.92
357.091	320.84
357.473	349.76
357.855	327.62
358.238	344.34
358.62	354.06
359.002	325.58
359.384	335.08
359.766	355.19
360.148	354.06
360.53	339.6
360.912	334.62
361.294	310.44
361.676	339.6
362.057	323.55
362.439	315.42
362.821	337.34
363.203	319.94
363.584	325.36
363.966	352.48
364.348	334.85
364.729	329.2
365.111	333.27
365.493	314.74
365.874	336.43
366.256	329.43
366.637	317.68
367.019	318.81
367.4	305.7
367.781	303.44
368.163	299.37
368.544	297.79
368.925	326.26
369.306	354.06
369.688	340.05
370.069	327.17
370.45	306.6
370.831	341.63
371.212	324.91
371.593	324.91
371.974	317.22
372.355	315.19
372.736	324.45
373.117	341.86
373.498	330.56
373.879	337.34
374.26	334.85
374.641	310.67
375.021	319.71
375.402	314.51
375.783	311.12
376.163	333.72
376.544	322.65
376.925	330.1
377.305	336.43
377.686	336.66
378.066	346.83
378.447	328.97
378.827	343.89
379.208	345.02
379.588	356.09
379.968	359.93
380.349	377.33
380.729	339.14
381.109	347.05
381.489	360.39
381.87	353.38
382.25	355.87
382.63	356.77
383.01	353.38
383.39	383.21
383.77	366.94
384.15	358.35
384.53	359.71
384.91	368.3
385.29	385.92
385.67	340.27
386.049	366.94
386.429	392.7
386.809	386.6
387.189	396.77
387.568	372.36
387.948	401.29
388.328	396.54
388.707	418.24
389.087	401.51
389.466	401.06
389.846	403.32
390.225	397
390.605	426.82
390.984	410.78
391.363	404.45
391.743	406.03
392.122	403.32
392.501	433.83
392.881	427.95
393.26	431.57
393.639	442.42
394.018	441.51
394.397	421.18
394.776	446.94
395.155	449.88
395.534	456.88
395.913	436.09
396.292	451.23
396.671	461.17
397.05	457.11
397.429	466.15
397.808	457.78
398.186	455.98
398.565	465.92
398.944	469.99
399.323	481.06
399.701	468.41
400.08	479.03
400.458	461.63
400.837	495.3
401.215	478.35
401.594	521.29
401.972	499.82
402.351	488.52
402.729	497.56
403.107	524.22
403.486	514.05
403.864	512.47
404.242	523.32
404.62	530.55
404.999	530.78
405.377	545.24
405.755	533.26
406.133	528.97
406.511	538.46
406.889	533.04
407.267	553.6
407.645	554.28
408.023	555.64
408.401	572.58
408.779	565.35
409.156	580.49
409.534	576.88
409.912	579.36
410.29	583.43
410.667	589.53
411.045	594.05
411.422	607.39
411.8	618.01
412.178	624.56
412.555	648.06
412.933	647.84
413.31	644.67
413.687	649.64
414.065	660.27
414.442	658.46
414.819	666.59
415.197	664.56
415.574	671.79
415.951	676.08
416.328	677.44
416.705	698.68
417.082	682.64
417.46	676.54
417.837	665.46
418.214	697.33
418.591	703.43
418.967	731.22
419.344	726.48
419.721	733.48
420.098	723.54
420.475	737.78
420.852	740.71
421.228	711.34
421.605	771.22
421.982	738.68
422.358	775.74
422.735	745.46
423.111	763.09
423.488	759.92
423.864	760.83
424.241	785.91
424.617	779.36
424.994	807.83
425.37	801.05
425.746	799.92
426.123	822.29
426.499	806.02
426.875	851.67
427.251	856.64
427.627	858
428.003	867.94
428.379	883.99
428.756	875.85
429.132	875.4
429.507	929.64
429.883	918.79
430.259	890.09
430.635	901.84
431.011	938.68
431.387	937.77
431.763	951.33
432.138	956.3
432.514	959.69
432.89	978
433.265	997.43
433.641	1038.33
434.016	1001.73
434.392	1003.76
434.767	1010.09
435.143	1035.17
435.518	1043.08
435.894	1067.94
436.269	1076.07
436.644	1060.93
437.02	1090.76
437.395	1120.59
437.77	1095.06
438.145	1133.02
438.52	1139.57
438.895	1135.51
439.271	1147.03
439.646	1160.82
440.021	1195.62
440.395	1177.31
440.77	1172.57
441.145	1220.7
441.52	1182.29
441.895	1231.1
442.27	1199.69
442.645	1212.57
443.019	1241.27
443.394	1236.97
443.769	1272.23
444.143	1276.75
444.518	1267.03
444.892	1276.52
445.267	1268.84
445.641	1305.45
446.016	1284.66
446.39	1317.2
446.764	1347.7
447.139	1326.24
447.513	1322.85
447.887	1307.93
448.262	1368.5
448.636	1363.52
449.01	1363.98
449.384	1391.32
449.758	1382.51
450.132	1384.09
450.506	1396.74
450.88	1406.91
451.254	1392.68
451.628	1449.17
452.002	1437.19
452.376	1458.21
452.75	1504.76
453.123	1475.38
453.497	1511.54
453.871	1494.14
454.244	1542.05
454.618	1532.11
454.992	1554.03
455.365	1598.55
455.739	1600.13
456.112	1603.07
456.486	1663.85
456.859	1646
457.232	1683.97
457.606	1680.58
457.979	1671.31
458.352	1704.98
458.725	1737.75
459.099	1754.02
459.472	1773
459.845	1780.24
460.218	1819.56
460.591	1834.92
460.964	1830.4
461.337	1880.35
461.71	1901.36
462.083	1928.25
462.456	1924.19
462.829	1932.77
463.201	2009.61
463.574	2018.42
463.947	2020.91
464.32	2057.97
464.692	2099.55
465.065	2091.87
465.438	2118.76
465.81	2149.49
466.183	2191.07
466.555	2235.59
466.928	2243.27
467.3	2253.9
467.672	2294.8
468.045	2347
468.417	2358.75
468.789	2382.25
469.161	2454.57
469.534	2471.52
469.906	2537.28
470.278	2529.82
470.65	2573.44
471.022	2624.28
471.394	2636.71
471.766	2692.98
472.138	2751.06
472.51	2798.06
472.882	2851.17
473.253	2893.43
473.625	2960.54
473.997	3031.5
474.369	3044.16
474.74	3080.31
475.112	3147.21
475.484	3191.72
475.855	3267.2
476.227	3308.11
476.598	3406.86
476.97	3464.49
477.341	3492.73
477.713	3572.05
478.084	3613.86
478.455	3708.09
478.827	3761.88
479.198	3936.34
479.569	3935.43
479.94	4028.54
480.311	4087.75
480.682	4178.82
481.053	4295.42
481.424	4367.74
481.795	4414.52
482.166	4472.59
482.537	4537.9
482.908	4634.4
483.279	4691.8
483.65	4829.42
484.021	4923.43
484.391	4958.91
484.762	5023.09
485.133	5146.25
485.503	5190.99
485.874	5329.29
486.244	5376.75
486.615	5479.35
486.985	5539.23
487.356	5673.69
487.726	5686.57
488.097	5819
488.467	5797.31
488.837	5956.17
489.207	5992.33
489.578	6134.25
489.948	6169.5
490.318	6296.73
490.688	6318.65
491.058	6449.72
491.428	6529.94
491.798	6575.14
492.168	6728.58
492.538	6745.53
492.908	6762.03
493.278	6944.39
493.648	6945.07
494.017	6967.22
494.387	7084.5
494.757	7150.04
495.126	7273.2
495.496	7356.13
495.866	7378.96
496.235	7503.02
496.605	7532.17
496.974	7563.81
497.344	7650.14
497.713	7652.4
498.082	7769.23
498.452	7783.92
498.821	7887.19
499.19	7960.41
499.559	8105.95
499.928	8046.06
500.298	8107.75
500.667	8260.52
501.036	8257.13
501.405	8348.42
501.774	8266.17
502.143	8460.74
502.512	8525.82
502.88	8545.03
503.249	8633.84
503.618	8622.54
503.987	8714.06
504.356	8754.74
504.724	8834.74
505.093	8872.93
505.462	8909.77
505.83	9041.97
506.199	9110.89
506.567	9222.75
506.936	9242.86
507.304	9323.54
507.672	9403.31
508.041	9450.77
508.409	9541.84
508.777	9651.67
509.145	9686.92
509.514	9677.2
509.882	9790.65
510.25	9864.32
510.618	9920.81
510.986	9999.23
511.354	10056.63
511.722	10186.79
512.09	10271.31
512.458	10260.24
512.826	10377.3
513.193	10451.87
513.561	10562.38
513.929	10594.24
514.297	10813.44
514.664	10853.22
515.032	10866.78
515.4	11026.32
515.767	11055.7
516.135	11133.21
516.502	11068.13
516.869	11324.62
517.237	11401.9
517.604	11370.27
517.972	11562.35
518.339	11665.85
518.706	11671.05
519.073	11753.53
519.44	11859.29
519.808	12044.6
520.175	12046.18
520.542	12292.73
520.909	12248.44
521.276	12331.14
521.643	12415.21
522.009	12572.27
522.376	12593.96
522.743	12705.37
523.11	12910.79
523.477	13040.5
523.843	13106.04
524.21	13371.57
524.577	13283.89
524.943	13388.97
525.31	13491.34
525.676	13711.9
526.043	13749.64
526.409	13823.31
526.776	13934.72
527.142	14073.7
527.508	14171.32
527.874	14164.77
528.241	14414.71
528.607	14413.12
528.973	14597.07
529.339	14581.03
529.705	14863.28
530.071	14869.38
530.437	14929.95
530.803	14950.51
531.169	15119.55
531.535	15096.95
531.901	15238.64
532.267	15268.02
532.632	15392.31
532.998	15499.65
533.364	15493.32
533.73	15658.29
534.095	15722.47
534.461	15860.09
534.826	15873.88
535.192	15957.49
535.557	16043.36
535.923	16029.35
536.288	16089.24
536.653	16274.32
537.019	16209.46
537.384	16378.72
537.749	16373.75
538.114	16464.37
538.479	16411.72
538.845	16604.7
539.21	16580.52
539.575	16626.17
539.94	16816.45
540.305	16825.94
540.67	16780.29
541.034	16954.75
541.399	17066.39
541.764	17062.77
542.129	17138.93
542.494	17188.87
542.858	17270.9
543.223	17384.8
543.587	17421.18
543.952	17467.96
544.316	17446.94
544.681	17501.86
545.045	17547.73
545.41	17623.66
545.774	17734.17
546.138	17751.34
546.503	17853.49
546.867	17843.54
547.231	18020.26
547.595	18024.1
547.959	18191.33
548.324	18103.87
548.688	18286.47
549.052	18367.37
549.416	18454.6
549.779	18413.47
550.143	18574.6
550.507	18607.36
550.871	18719.68
551.235	18848.71
551.599	19062.04
551.962	19020.46
552.326	19150.85
552.689	19255.26
553.053	19161.25
553.417	19370.73
553.78	19620.67
554.143	19600.56
554.507	19779.54
554.87	19818.63
555.234	20082.13
555.597	20085.52
555.96	20207.1
556.323	20194.67
556.686	20274.44
557.05	20584.04
557.413	20711.26
557.776	20790.81
558.139	20837.14
558.502	20919.17
558.865	21047.75
559.228	21304.92
559.59	21580.39
559.953	21589.21
560.316	21851.35
560.679	21983.32
561.041	22099.02
561.404	22307.83
561.767	22397.77
562.129	22344.21
562.492	22679.35
562.854	22702.62
563.217	22749.85
563.579	22956.63
563.941	23175.15
564.304	23337.18
564.666	23484.07
565.028	23548.25
565.39	23764.29
565.753	24069.59
566.115	24185.52
566.477	24301.68
566.839	24453.76
567.201	24637.49
567.563	24779.86
567.925	24962.9
568.287	25039.29
568.648	25196.8
569.01	25437.01
569.372	25681.98
569.734	25750.68
570.095	25991.8
570.457	26159.71
570.819	26287.84
571.18	26402.64
571.542	26590.66
571.903	26724.89
572.265	26976.64
572.626	27100.25
572.987	27225.67
573.349	27385.44
573.71	27711.98
574.071	27785.88
574.432	27956.72
574.794	28097.28
575.155	28196.26
575.516	28233.33
575.877	28489.36
576.238	28628.8
576.599	28845.96
576.96	28946.53
577.32	28936.13
577.681	29218.84
578.042	29378.38
578.403	29506.51
578.763	29560.07
579.124	29834.19
579.485	29881.87
579.845	30038.93
580.206	30103.56
580.566	30099.27
580.927	30303.78
581.287	30496.09
581.648	30367.73
582.008	30667.84
582.368	30656.31
582.728	30676.43
583.089	30737.21
583.449	30830.77
583.809	30900.15
584.169	30971.33
584.529	30990.99
584.889	31336.75
585.249	31096.98
585.609	31161.16
585.969	31361.6
586.329	31264.66
586.688	31380.36
587.048	31496.29
587.408	31473.69
587.768	31540.58
588.127	31489.29
588.487	31614.48
588.846	31789.84
589.206	31669.39
589.565	31737.87
589.925	31866
590.284	31847.47
590.643	31915.94
591.003	31985.32
591.362	32045.2
591.721	31973.34
592.08	32056.05
592.44	32233.45
592.799	32142.83
593.158	32056.95
593.517	32189.15
593.876	32281.58
594.235	32132.88
594.593	32350.73
594.952	32447
595.311	32366.78
595.67	32232.09
596.029	32581.46
596.387	32507.34
596.746	32584.17
597.104	32522.25
597.463	32394.12
597.822	32628.92
598.18	32514.79
598.538	32499.88
598.897	32752.53
599.255	32533.55
599.613	32840.66
599.972	32756.82
600.33	32888.8
600.688	32715.47
601.046	32859.64
601.404	33037.72
601.762	32903.03
602.12	33075.23
602.478	33084.5
602.836	33077.94
603.194	32941.68
603.552	32987.78
603.91	32893.77
604.268	32974.9
604.625	32970.38
604.983	33068.45
605.341	32953.43
605.698	33146.64
606.056	33329.46
606.413	33274.55
606.771	33362.46
607.128	33307.32
607.485	33250.59
607.843	33269.8
608.2	33494.2
608.557	33398.39
608.914	33428.9
609.272	33633.64
609.629	33522.68
609.986	33791.15
610.343	33512.51
610.7	33919.5
611.057	33717.25
611.414	33757.7
611.771	33872.27
612.127	33861.43
612.484	33881.76
612.841	34060.74
613.198	33817.59
613.554	33938.49
613.911	34100.97
614.267	34090.57
614.624	34111.36
614.98	34231.36
615.337	34377.8
615.693	34258.03
616.05	34250.57
616.406	34344.8
616.762	34226.39
617.118	34279.49
617.475	34328.98
617.831	34420.06
618.187	34361.98
618.543	34476.78
618.899	34634.74
619.255	34543.89
619.611	34521.3
619.967	34516.55
620.323	34655.98
620.678	34684.23
621.034	34522.43
621.39	34522.2
621.746	34454.63
622.101	34995.63
622.457	34604.01
622.812	34792.93
623.168	34705.25
623.523	34826.82
623.879	34980.04
624.234	34736.21
624.589	34815.75
624.945	34829.76
625.3	34869.08
625.655	34774.4
626.01	34906.82
626.365	34753.38
626.72	34908.4
627.075	34753.15
627.43	34725.58
627.785	34672.25
628.14	34860.5
628.495	34727.84
628.85	34744.79
629.205	34631.35
629.559	34729.88
629.914	34791.35
630.269	34674.29
630.623	34532.14
630.978	34507.74
631.332	34786.37
631.687	34691.46
632.041	34519.94
632.396	34638.81
632.75	34495.08
633.104	34520.17
633.459	34230.68
633.813	34373.05
634.167	34310.91
634.521	34345.93
634.875	34383.22
635.229	34279.95
635.583	34155.2
635.937	34277.23
636.291	34063.23
636.645	34303
636.999	34197.46
637.352	34134.41
637.706	33999.95
638.06	34032.04
638.413	33938.71
638.767	33863.23
639.121	33976.45
639.474	33735.33
639.828	33887.87
640.181	33846.06
640.534	33801.31
640.888	33729
641.241	33609.46
641.594	33645.61
641.947	33860.75
642.301	33462.57
642.654	33686.97
643.007	33669.34
643.36	33549.8
643.713	33508.44
644.066	33707.31
644.419	33394.32
644.771	33248.56
645.124	33032.97
645.477	32954.78
645.83	32853.77
646.182	32659.42
646.535	32486.09
646.888	32589.37
647.24	32371.52
647.593	32687.67
647.945	32443.16
648.298	32390.96
648.65	32289.94
649.002	32293.56
649.355	32372.65
649.707	32316.61
650.059	32522.93
650.411	32843.6
650.763	32800.21
651.115	33170.14
651.467	33010.6
651.819	33013.31
652.171	32936.48
652.523	32938.74
652.875	32923.37
653.227	32905.52
653.578	33090.82
653.93	32982.81
654.282	32840.66
654.633	32862.36
654.985	32849.25
655.337	32856.48
655.688	32982.35
656.039	32956.37
656.391	32789.59
656.742	32786.88
657.094	32758.18
657.445	32973.54
657.796	32973.31
658.147	32818.97
658.498	32835.69
658.849	32909.36
659.2	32935.35
659.551	32780.32
659.902	32840.66
660.253	32678.41
660.604	32805.41
660.955	32575.13
661.306	32740.1
661.656	32755.01
662.007	32827.33
662.358	32750.49
662.708	32733.77
663.059	32753.43
663.409	32501.46
663.76	32767.44
664.11	32740.33
664.461	32827.33
664.811	32736.94
665.161	32686.54
665.511	32659.65
665.862	32697.16
666.212	32758.4
666.562	32642.02
666.912	32581.01
667.262	32686.32
667.612	32738.52
667.962	32776.71
668.312	32636.6
668.662	32811.96
669.011	32648.35
669.361	32597.28
669.711	32533.33
670.06	32508.02
670.41	32551.4
670.76	32344.63
671.109	32607.9
671.459	32437.28
671.808	32368.36
672.157	32439.77
672.507	32370.84
672.856	32218.31
673.205	32373.78
673.554	32381.46
673.904	32267.57
674.253	32387.34
674.602	32334.01
674.951	31748.49
675.3	31721.82
675.649	32157.29
675.998	32113.45
676.346	32243.39
676.695	32272.09
677.044	32061.02
677.393	32091.53
677.741	32160.68
678.09	31979.44
678.438	31981.7
678.787	32049.27
679.135	32064.86
679.484	31914.81
679.832	32040.68
680.181	31778.54
680.529	31874.81
680.877	31712.56
681.225	31631.43
681.573	31844.08
681.922	31565.22
682.27	31403.86
682.618	31624.65
682.966	31347.14
683.314	31520.92
683.661	31274.38
684.009	31277.31
684.357	31142.18
684.705	31119.13
685.053	31128.16
685.4	31166.36
685.748	30927.72
686.095	30980.82
686.443	30832.35
686.79	30830.32
687.138	30878.23
687.485	30846.59
687.832	30647.5
688.18	30653.37
688.527	30374.29
688.874	30458.58
689.221	30289.77
689.568	30202.99
689.915	30240.73
690.262	30157.57
690.609	29964.58
690.956	29860.4
691.303	29940.85
691.65	29828.99
691.997	29768.2
692.344	29618.83
692.69	29614.98
693.037	29583.57
693.383	29346.29
693.73	29378.61
694.077	29228.55
694.423	29256.8
694.769	29153.08
695.116	29005.51
695.462	29081.44
695.808	28897.04
696.155	28891.39
696.501	28680.32
696.847	28718.06
697.193	28407.33
697.539	28493.66
697.885	28330.72
698.231	28304.51
698.577	28267
698.923	28159.43
699.269	28051.18
699.614	27911.53
699.96	27797.4
700.306	27761.25
700.651	27754.92
700.997	27658.88
701.342	27589.27
701.688	27448.94
702.033	27441.48
702.379	27383.63
702.724	27227.93
703.069	27243.07
703.415	26909.29
703.76	26939.12
704.105	26980.25
704.45	26863.42
704.795	26739.13
705.14	26609.41
705.485	26665.91
705.83	26542.3
706.175	26500.72
706.52	26394.73
706.865	26244
707.209	26369.19
707.554	26162.42
707.899	26162.19
708.243	25998.58
708.588	26063.66
708.932	25784.8
709.277	25855.53
709.621	25871.81
709.966	25747.06
710.31	25830.22
710.654	25475.88
710.998	25641.98
711.342	25451.03
711.687	25393.4
712.031	25448.54
712.375	25265.04
712.719	25242.44
713.063	25179.85
713.407	25283.57
713.75	25110.47
714.094	25088.1
714.438	24931.27
714.782	24952.51
715.125	24929.46
715.469	24919.06
715.812	24721.55
716.156	24649.46
716.499	24691.27
716.843	24685.17
717.186	24499.41
717.53	24670.71
717.873	24652.4
718.216	24576.47
718.559	24507.55
718.902	24345.07
719.246	24470.03
719.589	24345.52
719.932	24361.11
720.275	24304.39
720.617	24244.05
720.96	24124.05
721.303	24280.89
721.646	24232.53
721.989	24075.92
722.331	24081.8
722.674	24167.9
723.016	24141.23
723.359	24139.42
723.701	24056.94
724.044	23961.35
724.386	23895.13
724.729	23947.79
725.071	23902.82
725.413	23970.61
725.755	23922.7
726.097	23870.05
726.439	23698.3
726.782	23918.64
727.124	23908.24
727.465	23814.23
727.807	23745.99
728.149	23669.6
728.491	23817.85
728.833	23746.21
729.175	23635.25
729.516	23635.25
729.858	23661.02
730.199	23683.84
730.541	23604.52
730.882	23561.13
731.224	23719.77
731.565	23544.64
731.906	23565.65
732.248	23553.9
732.589	23524.97
732.93	23373.34
733.271	23462.6
733.612	23563.39
733.953	23441.81
734.294	23411.31
734.635	23320.23
734.976	23585.09
735.317	23371.98
735.658	23345.77
735.999	23455.6
736.339	23377.63
736.68	23386.9
737.021	23320.91
737.361	23231.65
737.702	23491.53
738.042	23306.9
738.383	23410.85
738.723	23382.61
739.063	23294.92
739.404	23341.25
739.744	23354.81
740.084	23149.84
740.424	23266.9
740.764	23237.3
741.104	23309.16
741.444	23236.62
741.784	23166.57
742.124	23278.88
742.464	23132.44
742.804	23214.7
743.143	23074.82
743.483	23129.05
743.823	23171.09
744.162	23140.58
744.502	23223.74
744.841	23115.72
745.181	23176.06
745.52	23091.77
745.86	23055.38
746.199	23063.74
746.538	23129.5
746.877	23176.28
747.216	23081.6
747.556	23023.07
747.895	23061.71
748.234	23062.84
748.573	23058.55
748.911	22969.28
749.25	23017.42
749.589	22890.19
749.928	22964.54
750.267	22947.36
750.605	22857.42
750.944	22863.3
751.283	22922.05
751.621	22817.65
751.96	22796.86
752.298	22789.17
752.636	22849.74
752.975	22705.34
753.313	22592.12
753.651	22738.1
753.989	22695.62
754.327	22520.26
754.666	22452.91
755.004	22505.79
755.342	22546.02
755.679	22662.62
756.017	22504.44
756.355	22529.75
756.693	22334.95
757.031	22412.24
757.368	22329.53
757.706	22191.45
758.044	22144.22
758.381	22242.07
758.719	22076.65
759.056	22236.65
759.394	22090.21
759.731	22115.97
760.068	21989.42
760.405	21916.43
760.743	21777.9
761.08	21932.93
761.417	21744.23
761.754	21611.58
762.091	21725.47
762.428	21588.98
762.765	21537.46
763.102	21585.82
763.438	21446.16
763.775	21407.29
764.112	21489.1
764.449	21377.46
764.785	21174.98
765.122	21241.19
765.458	21060.18
765.795	20986.74
766.131	21019.05
766.467	20878.72
766.804	20842.79
767.14	20671.49
767.476	20727.08
767.812	20652.28
768.148	20605.96
768.485	20432.85
768.821	20364.15
769.157	20406.19
769.492	20287.32
769.828	20364.83
770.164	20088
770.5	20110.15
770.836	20089.81
771.171	20003.49
771.507	19916.26
771.842	19783.38
772.178	19857.95
772.513	19831.06
772.849	19716.04
773.184	19549.94
773.519	19622.7
773.855	19482.14
774.19	19511.97
774.525	19335.48
774.86	19410.28
775.195	19349.72
775.53	19214.35
775.865	18952.67
776.2	19019.33
776.535	18880.35
776.87	18857.75
777.205	18836.28
777.539	18667.48
777.874	18745.21
778.209	18602.62
778.543	18521.49
778.878	18516.52
779.212	18524.65
779.547	18292.34
779.881	18423.19
780.215	18229.52
780.55	18368.5
780.884	18168.05
781.218	17991.11
781.552	18158.56
781.886	18018.68
782.22	17890.55
782.554	17834.05
782.888	17841.28
783.222	17626.37
783.556	17615.75
783.889	17510.9
784.223	17432.71
784.557	17434.51
784.89	17379.83
785.224	17226.61
785.557	17126.72
785.891	17161.07
786.224	17148.42
786.558	17047.86
786.891	16936
787.224	16939.39
787.557	16879.5
787.891	16828.65
788.224	16778.94
788.557	16761.31
788.89	16663.69
789.223	16658.26
789.556	16520.87
789.888	16437.03
790.221	16475.22
790.554	16298.95
790.887	16305.05
791.219	16215.11
791.552	16185.05
791.884	16163.13
792.217	16033.87
792.549	16073.65
792.882	15924.04
793.214	15858.51
793.546	15772.64
793.879	15870.94
794.211	15661
794.543	15725.41
794.875	15781
795.207	15784.16
795.539	15598.18
795.871	15525.19
796.203	15517.28
796.535	15407.45
796.867	15337.39
797.198	15259.88
797.53	15370.84
797.862	15223.95
798.193	15228.92
798.525	15113.44
798.856	15156.16
799.188	14985.76
799.519	14867.35
799.85	14819.21
800.182	14827.58
800.513	14839.78
800.844	14744.87
801.175	14757.75
801.506	14752.55
801.837	14664.19
802.168	14612.44
802.499	14617.64
802.83	14454.93
803.161	14445.21
803.491	14536.74
803.822	14412.22
804.153	14357.31
804.483	14230.3
804.814	14276.18
805.145	14268.04
805.475	14200.02
805.805	14132.23
806.136	14013.59
806.466	14151.89
806.796	14106.92
807.126	13991.67
807.457	13923.19
807.787	13983.3
808.117	13797.77
808.447	13831.67
808.777	13859.01
809.107	13806.36
809.436	13765.23
809.766	13737.66
810.096	13720.26
810.426	13609.98
810.755	13700.83
811.085	13657.66
811.414	13502.19
811.744	13444.56
812.073	13484.33
812.403	13427.61
812.732	13332.47
813.061	13367.5
813.39	13244.79
813.719	13216.09
814.049	13283.66
814.378	13243.66
814.707	13228.52
815.036	13188.52
815.365	13088.86
815.693	13003.22
816.022	13053.61
816.351	12949.21
816.68	12806.84
817.008	12911.02
817.337	12822.43
817.665	12834.18
817.994	12808.42
818.322	12789.44
818.651	12801.19
818.979	12658.14
819.307	12737.91
819.636	12694.75
819.964	12673.96
820.292	12636.67
820.62	12626.28
820.948	12594.19
821.276	12591.02
821.604	12571.14
821.932	12651.14
822.259	12594.64
822.587	12587.86
822.915	12526.85
823.243	12671.47
823.57	12531.59
823.898	12510.58
824.225	12540.4
824.553	12468.99
824.88	12477.58
825.207	12460.18
825.535	12569.56
825.862	12570.91
826.189	12447.75
826.516	12604.36
826.843	12660.63
827.17	12475.1
827.497	12575.88
827.824	12525.94
828.151	12633.96
828.478	12552.83
828.805	12610.69
829.131	12510.8
829.458	12429
829.785	12461.54
830.111	12528.88
830.438	12504.93
830.764	12476.23
831.09	12617.01
831.417	12478.71
831.743	12478.03
832.069	12541.08
832.395	12423.8
832.722	12465.38
833.048	12462.67
833.374	12436.45
833.7	12368.88
834.026	12388.09
834.351	12504.7
834.677	12352.61
835.003	12393.74
835.329	12329.34
835.654	12324.14
835.98	12250.24
836.306	12327.53
836.631	12309.68
836.956	12342.67
837.282	12323.24
837.607	12292.95
837.932	12225.84
838.258	12208.44
838.583	12079.17
838.908	12162.79
839.233	12130.7
839.558	12170.24
839.883	12076.01
840.208	11923.47
840.533	12009.12
840.858	12086.18
841.182	12071.49
841.507	11963.47
841.832	11970.7
842.156	11871.04
842.481	11989.23
842.805	11896.58
843.13	11889.57
843.454	11768.22
843.778	11834.21
844.103	11798.28
844.427	11718.73
844.751	11702.69
845.075	11692.07
845.399	11637.6
845.723	11648
846.047	11583.14
846.371	11548.11
846.695	11486.42
847.019	11442.81
847.343	11360.77
847.666	11271.74
847.99	11210.27
848.313	11288.01
848.637	11240.33
848.96	11229.25
849.284	11146.54
849.607	11116.04
849.931	11014.8
850.254	10950.62
850.577	10884.18
850.9	10839.88
851.223	10848.47
851.546	10754.69
851.869	10689.83
852.192	10712.88
852.515	10691.87
852.838	10601.7
853.161	10664.97
853.483	10598.08
853.806	10525.99
854.129	10536.39
854.451	10491.19
854.774	10429.95
855.096	10437.41
855.419	10330.97
855.741	10354.25
856.063	10331.42
856.385	10282.61
856.708	10250.97
857.03	10196.96
857.352	10169.85
857.674	10209.39
857.996	10170.98
858.318	10094.59
858.64	9986.8
858.961	10037.19
859.283	9926.01
859.605	9906.58
859.926	10001.94
860.248	9999.68
860.57	9914.03
860.891	9871.55
861.212	9883.3
861.534	9853.47
861.855	9754.04
862.176	9826.13
862.498	9840.36
862.819	9818.22
863.14	9763.08
863.461	9719.01
863.782	9688.5
864.103	9697.54
864.424	9665.9
864.745	9691.44
865.065	9585.45
865.386	9579.58
865.707	9626.13
866.027	9655.73
866.348	9593.36
866.668	9582.74
866.989	9514.72
867.309	9466.36
867.63	9430.88
867.95	9433.14
868.27	9470.2
868.59	9433.37
868.91	9455.97
869.23	9426.81
869.55	9385.46
869.87	9428.4
870.19	9326.03
870.51	9381.17
870.83	9354.27
871.15	9242.19
871.469	9282.64
871.789	9353.14
872.109	9243.09
872.428	9244.9
872.748	9267.72
873.067	9216.2
873.386	9218.01
873.706	9215.52
874.025	9108.86
874.344	9110.21
874.663	9131.45
874.982	9114.05
875.301	9181.85
875.62	9115.86
875.939	9065.24
876.258	9134.17
876.577	9021.63
876.896	9066.82
877.214	8937.56
877.533	8991.57
877.852	9020.27
878.17	9011.46
878.489	8952.02
878.807	8979.37
879.125	8969.65
879.444	8976.2
879.762	8931.23
880.08	8920.61
880.398	8880.39
880.716	8930.56
881.034	8858.69
881.352	8858.69
881.67	8784.8
881.988	8809.43
882.306	8777.34
882.624	8844.68
882.941	8731.01
883.259	8670.22
883.577	8697.34
883.894	8663.44
884.212	8648.3
884.529	8603.79
884.846	8670.45
885.164	8637.68
885.481	8589.32
885.798	8566.72
886.115	8527.85
886.432	8580.28
886.75	8437.91
887.067	8503
887.383	8467.07
887.7	8450.12
888.017	8416.9
888.334	8454.86
888.651	8385.03
888.967	8444.02
889.284	8404.69
889.6	8342.1
889.917	8286.05
890.233	8286.73
890.55	8230.69
890.866	8183.01
891.182	8146.85
891.498	8226.17
891.815	8182.1
892.131	8156.79
892.447	8036.34
892.763	8065.95
893.079	8096
893.395	7992.05
893.71	8068.43
894.026	7984.82
894.342	7921.32
894.657	7846.52
894.973	7896.01
895.289	7884.93
895.604	7914.31
895.92	7778.27
896.235	7764.71
896.55	7806.29
896.865	7726.07
897.181	7731.27
897.496	7707.54
897.811	7687.42
898.126	7645.62
898.441	7593.87
898.756	7559.52
899.071	7593.42
899.386	7621.44
899.7	7553.19
900.015	7501.89
900.33	7405.4
900.644	7396.59
900.959	7364.27
901.273	7383.03
901.588	7290.15
901.902	7255.57
902.216	7307.55
902.531	7271.16
902.845	7241.11
903.159	7206.53
903.473	7213.31
903.787	7215.35
904.101	7160.43
904.415	7121.34
904.729	7076.14
905.042	7013.77
905.356	7048.57
905.67	7046.99
905.984	7035.01
906.297	6920.89
906.611	6937.61
906.924	6920.21
907.237	6928.12
907.551	6936.48
907.864	6833.89
908.177	6842.48
908.491	6878.63
908.804	6808.13
909.117	6769.03
909.43	6759.54
909.743	6719.77
910.056	6677.51
910.368	6617.62
910.681	6624.4
910.994	6607.68
911.307	6527.91
911.619	6538.98
911.932	6572.2
912.244	6450.85
912.557	6485.42
912.869	6392.54
913.181	6458.76
913.494	6395.26
913.806	6345.09
914.118	6283.17
914.43	6234.13
914.742	6269.16
915.054	6316.84
915.366	6202.27
915.678	6219.44
915.99	6224.19
916.302	6117.52
916.613	6095.83
916.925	6127.47
917.236	6085.21
917.548	6048.15
917.859	6088.6
918.171	6013.12
918.482	5955.04
918.794	5938.54
919.105	5943.97
919.416	5875.27
919.727	5841.37
920.038	5861.26
920.349	5839.56
920.66	5785.1
920.971	5821.94
921.282	5722.96
921.593	5698.32
921.903	5703.07
922.214	5632.56
922.525	5718.21
922.835	5612.45
923.146	5590.98
923.456	5577.88
923.767	5535.17
924.077	5554.37
924.387	5535.39
924.697	5460.59
925.008	5487.93
925.318	5464.21
925.628	5475.51
925.938	5441.61
926.248	5360.03
926.558	5332.23
926.867	5320.48
927.177	5341.72
927.487	5219.47
927.796	5251.33
928.106	5247.72
928.416	5180.37
928.725	5157.32
929.034	5190.32
929.344	5183.08
929.653	5166.59
929.962	5107.61
930.271	5069.41
930.581	5041.62
930.89	5067.38
931.199	5023.99
931.508	5030.32
931.817	5019.47
932.125	4995.29
932.434	4996.87
932.743	4923.88
933.051	4909.87
933.36	4937.21
933.669	4839.59
933.977	4814.05
934.286	4795.52
934.594	4801.63
934.902	4752.81
935.21	4754.85
935.519	4733.83
935.827	4751.01
936.135	4702.64
936.443	4700.61
936.751	4703.1
937.059	4626.04
937.367	4607.05
937.674	4595.98
937.982	4573.16
938.29	4606.38
938.597	4541.74
938.905	4487.74
939.213	4489.77
939.52	4464.68
939.827	4516.89
940.135	4464.01
940.442	4418.58
940.749	4385.36
941.056	4442.09
941.363	4379.49
941.67	4344.91
941.977	4354.63
942.284	4288.19
942.591	4310.79
942.898	4298.81
943.205	4295.2
943.511	4271.92
943.818	4286.16
944.125	4230.79
944.431	4193.73
944.738	4212.26
945.044	4181.75
945.35	4166.16
945.657	4136.78
945.963	4128.65
946.269	4123.9
946.575	4094.98
946.881	4076.22
947.187	4050.46
947.493	3998.03
947.799	4005.04
948.105	4010.46
948.41	3981.99
948.716	3974.3
949.022	3949.22
949.327	3972.04
949.633	3884.81
949.938	3896.11
950.244	3902.67
950.549	3828.54
950.854	3842.78
951.16	3809.56
951.465	3798.94
951.77	3807.53
952.075	3782.89
952.38	3758.94
952.685	3771.37
952.99	3716.23
953.294	3683.69
953.599	3699.73
953.904	3700.86
954.209	3668.32
954.513	3686.85
954.818	3622.67
955.122	3605.95
955.426	3641.43
955.731	3579.74
956.035	3579.06
956.339	3561.88
956.643	3534.99
956.948	3532.73
957.252	3494.31
957.556	3481.89
957.86	3497.25
958.163	3465.84
958.467	3456.12
958.771	3458.38
959.075	3425.62
959.378	3406.86
959.682	3393.98
959.985	3371.38
960.289	3318.5
960.592	3339.52
960.896	3353.08
961.199	3314.43
961.502	3329.57
961.805	3313.75
962.108	3246.19
962.411	3265.39
962.714	3245.73
963.017	3230.59
963.32	3244.6
963.623	3227.2
963.926	3198.28
964.228	3192.4
964.531	3166.19
964.833	3179.07
965.136	3138.84
965.438	3140.2
965.741	3112.63
966.043	3106.3
966.345	3096.59
966.648	3127.54
966.95	3101.56
967.252	3013.42
967.554	3022.01
967.856	2987.44
968.158	2965.29
968.46	2996.02
968.761	2981.11
969.063	2928.68
969.365	2975.46
969.666	2915.8
969.968	2898.85
970.269	2883.03
970.571	2908.57
970.872	2883.71
971.174	2866.31
971.475	2875.57
971.776	2848.91
972.077	2843.03
972.378	2841.9
972.679	2821.56
972.98	2839.42
973.281	2788.12
973.582	2776.59
973.883	2767.78
974.183	2782.02
974.484	2768.46
974.785	2710.15
975.085	2735.01
975.386	2728.91
975.686	2723.94
975.986	2722.81
976.287	2706.09
976.587	2649.82
976.887	2645.52
977.187	2629.48
977.487	2623.83
977.787	2646.2
978.087	2628.12
978.387	2622.7
978.687	2594.45
978.987	2577.28
979.286	2531.18
979.586	2562.14
979.885	2568.01
980.185	2538.41
980.484	2511.29
980.784	2536.6
981.083	2525.07
981.382	2494.12
981.682	2476.71
981.981	2481.91
982.28	2452.08
982.579	2472.65
982.878	2449.82
983.177	2434.68
983.475	2406.21
983.774	2405.08
984.073	2384.74
984.372	2358.98
984.67	2398.07
984.969	2365.76
985.267	2358.53
985.566	2353.55
985.864	2343.16
986.162	2346.77
986.461	2318.75
986.759	2295.48
987.057	2296.15
987.355	2279.88
987.653	2262.71
987.951	2264.74
988.249	2225.65
988.547	2226.1
988.844	2234.46
989.142	2236.27
989.44	2224.52
989.737	2195.82
990.035	2208.25
990.332	2174.8
990.63	2180.45
990.927	2161.92
991.224	2183.16
991.521	2168.93
991.819	2142.71
992.116	2135.71
992.413	2120.57
992.71	2122.83
993.006	2131.41
993.303	2090.06
993.6	2086.22
993.897	2068.14
994.193	2057.06
994.49	2070.62
994.787	2022.04
995.083	2020.23
995.379	2022.04
995.676	2020.46
995.972	2009.61
996.268	1989.72
996.565	1990.4
996.861	1954.69
997.157	1972.77
997.453	1954.02
997.749	1929.61
998.044	1919.22
998.34	1924.19
998.636	1936.16
998.932	1933.9
999.227	1927.12
999.523	1910.18
999.818	1872.21
1000.114	1879.67
1000.409	1857.52
1000.704	1858.88
1001	1829.27
1001.295	1822.27
1001.59	1809.84
1001.885	1827.47
1002.18	1788.6
1002.475	1794.92
1002.77	1799.44
1003.065	1768.71
1003.359	1783.63
1003.654	1772.33
1003.949	1755.6
1004.243	1759.67
1004.538	1739.78
1004.832	1763.51
1005.127	1714.02
1005.421	1713.57
1005.715	1714.02
1006.009	1693.23
1006.304	1659.33
1006.598	1671.31
1006.892	1630.41
1007.186	1654.36
1007.48	1662.05
1007.773	1626.12
1008.067	1626.34
1008.361	1612.56
1008.655	1627.7
1008.948	1587.7
1009.242	1584.08
1009.535	1598.55
1009.829	1569.17
1010.122	1569.62
1010.415	1565.55
1010.708	1544.76
1011.001	1531.2
1011.295	1524.65
1011.588	1539.79
1011.881	1528.04
1012.173	1479
1012.466	1509.96
1012.759	1480.13
1013.052	1516.51
1013.344	1481.49
1013.637	1455.72
1013.93	1442.84
1014.222	1441.94
1014.514	1464.31
1014.807	1416.18
1015.099	1408.49
1015.391	1392.22
1015.683	1410.98
1015.976	1374.6
1016.268	1398.32
1016.56	1385.67
1016.851	1376.63
1017.143	1379.34
1017.435	1345.9
1017.727	1359.68
1018.018	1351.77
1018.31	1343.19
1018.602	1320.13
1018.893	1329.17
1019.185	1313.81
1019.476	1292.56
1019.767	1274.94
1020.058	1275.39
1020.35	1254.6
1020.641	1260.7
1020.932	1268.61
1021.223	1246.01
1021.514	1258.67
1021.804	1240.36
1022.095	1217.31
1022.386	1219.35
1022.677	1233.13
1022.967	1174.6
1023.258	1193.36
1023.548	1194.94
1023.839	1174.15
1024.129	1179.35
1024.419	1177.31
1024.709	1167.82
1025	1144.09
1025.29	1156.98
1025.58	1137.54
1025.87	1142.96
1026.16	1144.77
1026.449	1132.12
1026.739	1123.53
1027.029	1102.97
1027.319	1103.19
1027.608	1106.36
1027.898	1096.64
1028.187	1093.47
1028.477	1083.08
1028.766	1047.6
1029.055	1058.45
1029.344	1043.76
1029.634	1049.63
1029.923	1028.84
1030.212	1006.02
1030.501	1051.67
1030.79	997.43
1031.078	1010.54
1031.367	1011.89
1031.656	1025.91
1031.945	999.69
1032.233	989.52
1032.522	980.71
1032.81	1001.95
1033.099	971.22
1033.387	959.24
1033.675	934.16
1033.963	961.27
1034.251	976.19
1034.54	938.45
1034.828	947.04
1035.116	923.99
1035.403	921.73
1035.691	930.09
1035.979	923.08
1036.267	908.17
1036.554	895.97
1036.842	876.08
1037.129	884.67
1037.417	880.37
1037.704	894.84
1037.992	883.08
1038.279	859.13
1038.566	868.4
1038.853	868.4
1039.14	868.4
