Data from tablewood_dark_bookshelf_FLMS001491_00040.txt Node
Date: Wed Feb 08 14:14:27 GMT 2017
User: dcchb
Spectrometer: FLMS00149
Trigger mode: 0
Integration Time (sec): 2.000000E-2
Scans to average: 10
Electric dark correction enabled: true
Nonlinearity correction enabled: false
Boxcar width: 0
XAxis mode: Wavelengths
Number of Pixels in Spectrum: 2048
>>>>>Begin Spectral Data<<<<<
341.393	-22.26
341.776	-22.26
342.16	-22.26
342.543	-56.38
342.927	-82.14
343.31	-73.78
343.693	-78.3
344.077	-67
344.46	-58.19
344.843	-51.64
345.226	-28.13
345.61	-28.59
345.993	-21.58
346.376	-8.02
346.759	28.81
347.142	25.88
347.525	51.41
347.908	53.44
348.291	78.53
348.674	66.1
349.057	111.07
349.44	114.46
349.823	133.22
350.206	173.89
350.588	191.52
350.971	193.55
351.354	212.08
351.737	220.9
352.119	228.36
352.502	257.73
352.884	265.87
353.267	259.32
353.65	285.08
354.032	283.04
354.414	303.83
354.797	310.61
355.179	313.55
355.562	307.68
355.944	329.6
356.326	320.56
356.709	338.64
357.091	323.72
357.473	335.92
357.855	325.53
358.238	322.36
358.62	315.81
359.002	341.8
359.384	325.08
359.766	317.39
360.148	334.79
360.53	304.06
360.912	331.63
361.294	316.49
361.676	330.05
362.057	316.94
362.439	343.83
362.821	327.79
363.203	315.13
363.584	334.57
363.966	328.24
364.348	313.55
364.729	333.66
365.111	306.55
365.493	312.65
365.874	309.94
366.256	340.67
366.637	321.69
367.019	319.65
367.4	309.03
367.781	304.96
368.163	318.3
368.544	319.2
368.925	315.58
369.306	311.97
369.688	321.01
370.069	311.07
370.45	310.16
370.831	322.36
371.212	324.85
371.593	323.95
371.974	317.39
372.355	324.4
372.736	319.2
373.117	314
373.498	329.82
373.879	328.01
374.26	321.01
374.641	317.84
375.021	320.33
375.402	316.04
375.783	328.92
376.163	337.96
376.544	354.68
376.925	336.38
377.305	331.4
377.686	340.67
378.066	322.59
378.447	340.67
378.827	338.41
379.208	336.15
379.588	338.64
379.968	337.73
380.349	349.71
380.729	354.23
381.109	347.22
381.489	349.48
381.87	337.05
382.25	368.46
382.63	345.41
383.01	336.83
383.39	351.97
383.77	379.99
384.15	368.46
384.53	359.2
384.91	368.01
385.29	356.71
385.67	381.57
386.049	379.09
386.429	360.78
386.809	351.29
387.189	360.1
387.568	374.11
387.948	381.12
388.328	370.72
388.707	370.5
389.087	375.7
389.466	386.32
389.846	374.34
390.225	390.84
390.605	403.49
390.984	394
391.363	378.41
391.743	396.94
392.122	384.74
392.501	403.04
392.881	391.74
393.26	415.92
393.639	432.42
394.018	415.47
394.397	405.07
394.776	407.11
395.155	418.86
395.534	418.86
395.913	428.12
396.292	437.84
396.671	410.05
397.05	414.34
397.429	431.97
397.808	412.76
398.186	436.26
398.565	436.71
398.944	424.28
399.323	440.78
399.701	434.9
400.08	429.03
400.458	436.26
400.837	425.86
401.215	432.19
401.594	457.28
401.972	472.64
402.351	444.85
402.729	452.3
403.107	451.4
403.486	455.69
403.864	465.64
404.242	491.4
404.62	474.45
404.999	475.13
405.377	466.54
405.755	456.37
406.133	485.3
406.511	499.53
406.889	483.72
407.267	473.77
407.645	527.78
408.023	513.32
408.401	508.57
408.779	493.89
409.156	508.35
409.534	516.03
409.912	504.05
410.29	511.29
410.667	521.46
411.045	527.33
411.422	513.77
411.8	549.48
412.178	536.14
412.555	567.33
412.933	546.99
413.31	539.53
413.687	566.2
414.065	548.57
414.442	551.06
414.819	563.04
415.197	579.98
415.574	581.34
415.951	604.39
416.328	566.43
416.705	578.85
417.082	602.81
417.46	582.47
417.837	598.06
418.214	591.28
418.591	602.13
418.967	602.81
419.344	598.97
419.721	613.88
420.098	627.67
420.475	590.83
420.852	626.09
421.228	632.86
421.605	619.31
421.982	620.21
422.358	646.88
422.735	642.81
423.111	647.55
423.488	663.15
423.864	666.08
424.241	674.45
424.617	684.16
424.994	664.5
425.37	666.76
425.746	678.51
426.123	683.03
426.499	694.78
426.875	685.74
427.251	717.38
427.627	700.43
428.003	717.16
428.379	732.07
428.756	724.84
429.132	746.99
429.507	749.02
429.883	773.65
430.259	760.54
430.635	770.04
431.011	756.48
431.387	777.95
431.763	794.44
432.138	788.79
432.514	815.91
432.89	820.43
433.265	805.97
433.641	837.38
434.016	821.79
434.392	832.86
434.767	852.75
435.143	853.65
435.518	865.85
435.894	863.82
436.269	865.17
436.644	864.72
437.02	871.73
437.395	873.08
437.77	882.35
438.145	925.96
438.52	922.8
438.895	918.96
439.271	925.51
439.646	914.44
440.021	926.42
440.395	933.87
440.77	961.22
441.145	942.46
441.52	991.95
441.895	940.2
442.27	961.67
442.645	956.92
443.019	986.08
443.394	972.29
443.769	979.3
444.143	1009.8
444.518	1010.71
444.892	1018.84
445.267	1003.02
445.641	1033.31
446.016	992.86
446.39	1023.14
446.764	1020.88
447.139	1027.66
447.513	1031.27
447.887	1052.29
448.262	1076.24
448.636	1056.81
449.01	1052.74
449.384	1070.82
449.758	1078.05
450.132	1103.36
450.506	1097.94
450.88	1092.51
451.254	1110.59
451.628	1136.81
452.002	1142.23
452.376	1119.18
452.75	1129.35
453.123	1146.3
453.497	1183.13
453.871	1172.29
454.244	1176.58
454.618	1191.95
454.992	1217.26
455.365	1212.96
455.739	1217.03
456.112	1266.97
456.486	1263.81
456.859	1266.07
457.232	1289.34
457.606	1323.24
457.979	1295.67
458.352	1318.72
458.725	1333.64
459.099	1325.05
459.472	1361.21
459.845	1346.74
460.218	1380.19
460.591	1398.27
460.964	1391.26
461.337	1419.06
461.71	1418.38
462.083	1465.16
462.456	1466.52
462.829	1450.02
463.201	1447.76
463.574	1515.55
463.947	1505.16
464.32	1542.45
464.692	1571.6
465.065	1599.62
465.438	1585.61
465.81	1601.88
466.183	1603.23
466.555	1635.1
466.928	1685.27
467.3	1659.05
467.672	1677.58
468.045	1721.88
468.417	1727.75
468.789	1701.09
469.161	1758.71
469.534	1777.02
469.906	1790.8
470.278	1820.18
470.65	1862.44
471.022	1872.38
471.394	1906.96
471.766	1905.15
472.138	1938.37
472.51	1963.45
472.882	1993.05
473.253	1993.96
473.625	2051.58
473.997	2059.04
474.369	2090.68
474.74	2097.23
475.112	2133.39
475.484	2157.8
475.855	2223.11
476.227	2210.9
476.598	2261.52
476.97	2252.94
477.341	2319.15
477.713	2342.42
478.084	2411.8
478.455	2419.26
478.827	2468.07
479.198	2470.1
479.569	2480.73
479.94	2572.7
480.311	2614.06
480.682	2642.08
481.053	2694.28
481.424	2773.6
481.795	2785.35
482.166	2789.87
482.537	2872.13
482.908	2898.34
483.279	2883.65
483.65	2964.1
484.021	2994.38
484.391	3031.9
484.762	3059.02
485.133	3087.26
485.503	3107.38
485.874	3205.23
486.244	3172.01
486.615	3259.24
486.985	3342.62
487.356	3333.58
487.726	3386.01
488.097	3480.25
488.467	3470.76
488.837	3544.2
489.207	3572.22
489.578	3576.29
489.948	3652.67
490.318	3711.2
490.688	3739.45
491.058	3786.91
491.428	3811.09
491.798	3839.56
492.168	3929.05
492.538	3925.66
492.908	3989.39
493.278	4024.87
493.648	3975.83
494.017	4098.08
494.387	4089.95
494.757	4122.26
495.126	4129.5
495.496	4228.7
495.866	4296.5
496.235	4225.09
496.605	4308.7
496.974	4294.01
497.344	4367.91
497.713	4378.3
498.082	4420.56
498.452	4442.48
498.821	4484.74
499.19	4504.18
499.559	4562.93
499.928	4559.09
500.298	4588.92
500.667	4640.44
501.036	4622.82
501.405	4678.63
501.774	4720.21
502.143	4741.68
502.512	4749.59
502.88	4787.56
503.249	4824.39
503.618	4902.36
503.987	4884.5
504.356	4924.28
504.724	4897.39
505.093	4965.41
505.462	4966.54
505.83	5000.43
506.199	5081.34
506.567	5099.87
506.936	5097.38
507.304	5167.66
507.672	5192.74
508.041	5208.11
508.409	5229.81
508.777	5334.21
509.145	5369.69
509.514	5393.42
509.882	5399.75
510.25	5393.19
510.618	5446.52
510.986	5498.95
511.354	5551.83
511.722	5556.35
512.09	5628.44
512.458	5646.29
512.826	5682.45
513.193	5670.25
513.561	5740.08
513.929	5753.86
514.297	5858.49
514.664	5843.35
515.032	5872.05
515.4	5918.83
515.767	5981.42
516.135	6016.45
516.502	6041.99
516.869	6096.45
517.237	6166.73
517.604	6096.45
517.972	6188.65
518.339	6252.38
518.706	6292.38
519.073	6320.85
519.44	6404.69
519.808	6428.19
520.175	6439.27
520.542	6542.09
520.909	6552.03
521.276	6565.82
521.643	6652.14
522.009	6698.92
522.376	6735.3
522.743	6773.27
523.11	6842.87
523.477	6862.76
523.843	6956.77
524.21	7039.93
524.577	7076.99
524.943	7054.84
525.31	7172.35
525.676	7222.52
526.043	7257.1
526.409	7344.55
526.776	7423.19
527.142	7429.52
527.508	7453.7
527.874	7542.51
528.241	7566.69
528.607	7572.12
528.973	7667.93
529.339	7708.16
529.705	7782.51
530.071	7876.29
530.437	7860.47
530.803	7899.79
531.169	7956.06
531.535	7945.44
531.901	7994.71
532.267	8051.65
532.632	8086
532.998	8090.07
533.364	8180.91
533.73	8252.33
534.095	8289.61
534.461	8209.39
534.826	8313.79
535.192	8398.08
535.557	8439.67
535.923	8420.91
536.288	8482.6
536.653	8475.6
537.019	8499.78
537.384	8564.63
537.749	8587.01
538.114	8612.09
538.479	8637.4
538.845	8704.06
539.21	8682.37
539.575	8809.15
539.94	8790.16
540.305	8861.35
540.67	8866.55
541.034	8923.49
541.399	8941.57
541.764	8971.4
542.129	8979.76
542.494	9054.56
542.858	9080.33
543.223	9104.73
543.587	9156.48
543.952	9124.17
544.316	9182.47
544.681	9224.73
545.045	9265.41
545.41	9292.98
545.774	9319.64
546.138	9350.38
546.503	9389.47
546.867	9387.66
547.231	9440.32
547.595	9505.63
547.959	9504.95
548.324	9536.36
548.688	9624.04
549.052	9596.47
549.416	9626.98
549.779	9646.64
550.143	9678.95
550.507	9797.14
550.871	9798.95
551.235	9779.29
551.599	9908.55
551.962	9869.01
552.326	9903.81
552.689	10011.83
553.053	9995.33
553.417	10066.29
553.78	10215.66
554.143	10122.11
554.507	10101.54
554.87	10199.17
555.234	10330.91
555.597	10266.28
555.96	10377.24
556.323	10450.01
556.686	10411.36
557.05	10460.85
557.413	10525.49
557.776	10603.45
558.139	10709.44
558.502	10779.04
558.865	10747.18
559.228	10852.93
559.59	10820.62
559.953	10856.55
560.316	11029.43
560.679	11005.93
561.041	11076.43
561.404	11174.51
561.767	11236.65
562.129	11263.09
562.492	11287.73
562.854	11304.22
563.217	11375.86
563.579	11430.32
563.941	11533.6
564.304	11602.07
564.666	11656.53
565.028	11727.04
565.39	11699.47
565.753	11836.41
566.115	11883.42
566.477	11941.27
566.839	11941.72
567.201	12102.85
567.563	12093.58
567.925	12207.93
568.287	12215.39
568.648	12279.79
569.01	12400.24
569.372	12476.85
569.734	12440.46
570.095	12496.73
570.457	12596.84
570.819	12576.96
571.18	12641.59
571.542	12749.16
571.903	12778.53
572.265	12855.37
572.626	12879.77
572.987	12897.18
573.349	13074.57
573.71	13083.84
574.071	13205.42
574.432	13170.16
574.794	13331.51
575.155	13224.62
575.516	13190.95
575.877	13353.66
576.238	13408.35
576.599	13395.24
576.96	13504.84
577.32	13597.5
577.681	13647.66
578.042	13686.08
578.403	13682.47
578.763	13749.13
579.124	13773.31
579.485	13797.49
579.845	13876.13
580.206	13919.07
580.566	13905.06
580.927	13965.4
581.287	14036.58
581.648	14053.98
582.008	14016.69
582.368	14052.17
582.728	14104.83
583.089	14108.22
583.449	14124.26
583.809	14245.84
584.169	14312.05
584.529	14308.21
584.889	14441.32
585.249	14383.92
585.609	14274.99
585.969	14407.19
586.329	14426.17
586.688	14422.33
587.048	14494.87
587.408	14512.27
587.768	14524.25
588.127	14553.85
588.487	14565.38
588.846	14689.9
589.206	14626.4
589.565	14664.13
589.925	14718.82
590.284	14733.28
590.643	14717.92
591.003	14759.05
591.362	14937.12
591.721	14884.47
592.08	14913.39
592.44	14967.63
592.799	14887.41
593.158	14900.29
593.517	14958.36
593.876	14992.71
594.235	14985.93
594.593	15039.49
594.952	15082.43
595.311	15097.12
595.67	15102.54
596.029	15197.91
596.387	15148.19
596.746	15301.41
597.104	15222.31
597.463	15239.94
597.822	15357.68
598.18	15234.97
598.538	15328.75
598.897	15467.95
599.255	15356.32
599.613	15578.01
599.972	15387.73
600.33	15457.79
600.688	15393.61
601.046	15549.31
601.404	15634.96
601.762	15580.04
602.12	15657.1
602.478	15658.01
602.836	15678.8
603.194	15578.69
603.552	15618.23
603.91	15631.79
604.268	15735.07
604.625	15768.51
604.983	15740.04
605.341	15769.87
605.698	15819.36
606.056	15829.98
606.413	15777.78
606.771	15919.92
607.128	15870.88
607.485	15854.61
607.843	15995.62
608.2	15990.65
608.557	16086.24
608.914	16001.95
609.272	16084.89
609.629	16180.48
609.986	16177.31
610.343	16084.89
610.7	16251.44
611.057	16116.75
611.414	16319.91
611.771	16144.55
612.127	16367.37
612.484	16359.91
612.841	16434.03
613.198	16310.42
613.554	16267.71
613.911	16397.2
614.267	16431.77
614.624	16410.53
614.98	16510.87
615.337	16537.31
615.693	16508.61
616.05	16504.76
616.406	16692.1
616.762	16609.17
617.118	16657.75
617.475	16624.31
617.831	16677.41
618.187	16614.59
618.543	16733.01
618.899	16848.26
619.255	16791.31
619.611	16745.89
619.967	16877.41
620.323	16863.85
620.678	16820.46
621.034	16699.56
621.39	16746.11
621.746	16797.86
622.101	16893.68
622.457	16917.41
622.812	16758.09
623.168	16853.46
623.523	16826.11
623.879	17002.15
624.234	16656.4
624.589	16873.34
624.945	16914.92
625.3	16959.44
625.655	16874.47
626.01	16936.16
626.365	16952.89
626.72	16936.39
627.075	16827.02
627.43	16892.32
627.785	16871.08
628.14	16974.13
628.495	17005.09
628.85	16824.08
629.205	16792.44
629.559	16908.82
629.914	16807.81
630.269	16858.65
630.623	16777.75
630.978	16780.91
631.332	16911.53
631.687	16821.14
632.041	16780.01
632.396	16824.53
632.75	16694.14
633.104	16765.32
633.459	16715.15
633.813	16736.62
634.167	16809.61
634.521	16814.81
634.875	16715.15
635.229	16809.84
635.583	16595.38
635.937	16639.68
636.291	16556.97
636.645	16738.43
636.999	16587.93
637.352	16652.1
637.706	16614.14
638.06	16656.4
638.413	16535.05
638.767	16459.34
639.121	16592.45
639.474	16511.09
639.828	16530.07
640.181	16486.46
640.534	16564.42
640.888	16391.09
641.241	16328.05
641.594	16426.57
641.947	16419.79
642.301	16318.33
642.654	16430.87
643.007	16371.21
643.36	16408.27
643.713	16348.84
644.066	16453.47
644.419	16327.37
644.771	16264.09
645.124	16024.55
645.477	15936.19
645.83	15861.39
646.182	15804.22
646.535	15868.62
646.888	15876.76
647.24	15872.01
647.593	15952.24
647.945	15879.92
648.298	15820.94
648.65	15814.84
649.002	15773.71
649.355	15816.42
649.707	15749.3
650.059	15775.52
650.411	15986.13
650.763	16043.98
651.115	16153.59
651.467	16169.63
651.819	16144.1
652.171	16108.84
652.523	16095.51
652.875	16039.69
653.227	16043.53
653.578	16118.33
653.93	16079.24
654.282	15960.82
654.633	16002.18
654.985	15937.55
655.337	16083.98
655.688	15980.03
656.039	16098.9
656.391	15895.51
656.742	15961.95
657.094	15960.15
657.445	16010.31
657.796	16064.1
658.147	16016.87
658.498	15976.87
658.849	16012.8
659.2	15939.81
659.551	16003.31
659.902	16013.48
660.253	15922.63
660.604	15934.84
660.955	15922.41
661.306	15959.92
661.656	16052.57
662.007	15920.37
662.358	15992.69
662.708	15935.51
663.059	16001.5
663.409	15789.75
663.76	15989.52
664.11	15940.71
664.461	15942.52
664.811	15977.77
665.161	15904.55
665.511	15880.6
665.862	15988.39
666.212	15952.91
666.562	16034.04
666.912	15941.39
667.262	15756.53
667.612	15907.94
667.962	15903.2
668.312	15912.01
668.662	16013.25
669.011	15836.98
669.361	15919.69
669.711	15926.02
670.06	15849.19
670.41	15958.79
670.76	15831.56
671.109	15928.51
671.459	15865.91
671.808	15873.14
672.157	15956.53
672.507	15854.39
672.856	15804.22
673.205	15834.5
673.554	15959.92
673.904	15893.25
674.253	15867.72
674.602	15874.27
674.951	15644
675.3	15618.01
675.649	15760.6
675.998	15804.22
676.346	15822.3
676.695	15907.94
677.044	15735.97
677.393	15820.04
677.741	15903.2
678.09	15724.9
678.438	15706.14
678.787	15752.92
679.135	15821.17
679.484	15695.29
679.832	15758.57
680.181	15648.52
680.529	15795.86
680.877	15740.49
681.225	15618.23
681.573	15773.94
681.922	15676.08
682.27	15565.81
682.618	15576.65
682.966	15605.58
683.314	15671.57
683.661	15512.02
684.009	15538.91
684.357	15556.54
684.705	15382.53
685.053	15493.72
685.4	15394.96
685.748	15322.65
686.095	15352.25
686.443	15326.72
686.79	15276.32
687.138	15315.19
687.485	15246.27
687.832	15187.28
688.18	15236.32
688.527	15153.84
688.874	15120.85
689.221	15164.01
689.568	15063.22
689.915	15062.99
690.262	15044.24
690.609	15031.81
690.956	14978.02
691.303	15036.78
691.65	14844.02
691.997	14849.89
692.344	14848.99
692.69	14715.88
693.037	14834.98
693.383	14696.22
693.73	14717.69
694.077	14757.01
694.423	14670.46
694.769	14672.04
695.116	14577.13
695.462	14568.09
695.808	14521.31
696.155	14472.5
696.501	14395.44
696.847	14394.08
697.193	14380.3
697.539	14404.03
697.885	14305.5
698.231	14220.3
698.577	14325.84
698.923	14278.61
699.269	14180.53
699.614	14107.31
699.96	14147.09
700.306	14134.88
700.651	13989.12
700.997	13926.75
701.342	13919.97
701.688	14029.12
702.033	13968.79
702.379	13925.85
702.724	13872.06
703.069	13920.2
703.415	13699.19
703.76	13710.49
704.105	13729.24
704.45	13758.85
704.795	13636.14
705.14	13547.55
705.485	13642.92
705.83	13516.37
706.175	13591.39
706.52	13555.46
706.865	13481.11
707.209	13477.72
707.554	13414.68
707.899	13486.09
708.243	13386.43
708.588	13334.45
708.932	13254.91
709.277	13238.63
709.621	13199.54
709.966	13272.31
710.31	13246.32
710.654	13124.29
710.998	13139.2
711.342	13143.27
711.687	13084.51
712.031	13220.33
712.375	13058.3
712.719	13057.17
713.063	13050.17
713.407	13117.28
713.75	13018.3
714.094	13080
714.438	12941.92
714.782	12916.84
715.125	12867.12
715.469	12879.55
715.812	12796.84
716.156	12779.89
716.499	12739.21
716.843	12845.2
717.186	12709.38
717.53	12839.55
717.873	12786.44
718.216	12779.89
718.559	12736.05
718.902	12695.15
719.246	12730.85
719.589	12628.03
719.932	12701.02
720.275	12668.25
720.617	12648.37
720.96	12661.47
721.303	12614.7
721.646	12587.13
721.989	12578.54
722.331	12593.23
722.674	12522.95
723.016	12530.63
723.359	12557.97
723.701	12519.33
724.044	12397.08
724.386	12377.41
724.729	12569.95
725.071	12430.29
725.413	12480.91
725.755	12432.1
726.097	12340.35
726.439	12324.08
726.782	12283.63
727.124	12394.59
727.465	12341.71
727.807	12331.09
728.149	12277.98
728.491	12253.8
728.833	12336.51
729.175	12311.2
729.516	12235.27
729.858	12269.62
730.199	12260.81
730.541	12231.88
730.882	12158.66
731.224	12246.8
731.565	12194.14
731.906	12212.67
732.248	12256.29
732.589	12138.1
732.93	12125.22
733.271	12143.3
733.612	12169.96
733.953	12138.78
734.294	12140.36
734.635	12100.81
734.976	12119.79
735.317	12007.25
735.658	12082.73
735.999	12059.46
736.339	12017.2
736.68	12176.52
737.021	12046.12
737.361	12029.85
737.702	12103.3
738.042	12076.63
738.383	12122.28
738.723	12097.65
739.063	11961.38
739.404	12074.37
739.744	12052
740.084	12014.94
740.424	12003.41
740.764	11953.47
741.104	12021.49
741.444	11899.24
741.784	11940.59
742.124	11882.51
742.464	11920.03
742.804	11894.49
743.143	11928.16
743.483	11913.02
743.823	11779.46
744.162	11874.6
744.502	11947.37
744.841	11800.25
745.181	11900.59
745.52	11847.03
745.86	11838.45
746.199	11877.31
746.538	11821.5
746.877	11873.47
747.216	11795.28
747.556	11845.23
747.895	11817.88
748.234	11786.7
748.573	11784.66
748.911	11767.49
749.25	11786.92
749.589	11697.43
749.928	11735.17
750.267	11767.71
750.605	11774.04
750.944	11678
751.283	11706.92
751.621	11724.55
751.96	11619.92
752.298	11606.36
752.636	11678
752.975	11580.6
753.313	11633.25
753.651	11623.76
753.989	11517.1
754.327	11609.75
754.666	11446.59
755.004	11547.83
755.342	11496.99
755.679	11480.26
756.017	11502.86
756.355	11486.82
756.693	11331.34
757.031	11428.74
757.368	11297.44
757.706	11318.69
758.044	11334.05
758.381	11333.6
758.719	11265.81
759.056	11272.13
759.394	11297.9
759.731	11203.43
760.068	11175.64
760.405	11105.13
760.743	11124.79
761.08	11142.64
761.417	11026.26
761.754	10958.24
762.091	11097
762.428	10908.53
762.765	10919.6
763.102	10955.76
763.438	10894.74
763.775	10919.6
764.112	10878.47
764.449	10822.65
764.785	10854.29
765.122	10772.94
765.458	10739.27
765.795	10714.63
766.131	10718.7
766.467	10642.77
766.804	10620.62
767.14	10549.67
767.476	10550.8
767.812	10436.45
768.148	10490.01
768.485	10467.86
768.821	10368.65
769.157	10322.55
769.492	10356.22
769.828	10384.47
770.164	10251.59
770.5	10247.53
770.836	10205.95
771.171	10156
771.507	10215.66
771.842	10108.77
772.178	10061.77
772.513	10006.63
772.849	10007.99
773.184	9926.41
773.519	9995.56
773.855	9914.43
774.19	9876.24
774.525	9758.27
774.86	9779.29
775.195	9799.18
775.53	9749.24
775.865	9697.94
776.2	9619.07
776.535	9631.05
776.87	9577.49
777.205	9569.8
777.539	9486.64
777.874	9539.3
778.209	9424.27
778.543	9413.65
778.878	9384.27
779.212	9396.7
779.547	9320.09
779.881	9371.17
780.215	9236.71
780.55	9251.4
780.884	9187.67
781.218	9233.54
781.552	9240.77
781.886	9173.88
782.22	9077.16
782.554	8935.92
782.888	8952.42
783.222	8893.66
783.556	8869.94
783.889	8852.76
784.223	8813.44
784.557	8791.52
784.89	8807.57
785.224	8740.22
785.557	8759.43
785.891	8670.62
786.224	8647.34
786.558	8671.3
786.891	8539.32
787.224	8578.19
787.557	8559.66
787.891	8495.03
788.224	8449.38
788.557	8432.21
788.89	8400.8
789.223	8370.06
789.556	8301.14
789.888	8325.77
790.221	8308.82
790.554	8247.81
790.887	8234.7
791.219	8210.52
791.552	8182.95
791.884	8160.35
792.217	8131.65
792.549	8123.97
792.882	8057.08
793.214	8092.78
793.546	8054.14
793.879	7959.9
794.211	7955.61
794.543	7933.69
794.875	7919.68
795.207	7914.26
795.539	7853.24
795.871	7881.71
796.203	7776.63
796.535	7774.82
796.867	7752.9
797.198	7711.32
797.53	7731.44
797.862	7680.59
798.193	7630.65
798.525	7709.29
798.856	7628.84
799.188	7548.39
799.519	7547.49
799.85	7509.52
800.182	7496.41
800.513	7468.62
800.844	7422.74
801.175	7411.22
801.506	7425.91
801.837	7383.87
802.168	7369.18
802.499	7332.35
802.83	7347.94
803.161	7283.31
803.491	7287.15
803.822	7274.5
804.153	7192.47
804.483	7185.91
804.814	7131.45
805.145	7190.21
805.475	7152.92
805.805	7080.38
806.136	7092.36
806.466	7059.59
806.796	7079.93
807.126	7016.65
807.457	7029.76
807.787	6996.99
808.117	6995.41
808.447	6938.24
808.777	6983.43
809.107	6885.58
809.436	6934.39
809.766	6892.81
810.096	6887.62
810.426	6847.16
810.755	6849.88
811.085	6825.7
811.414	6811.91
811.744	6702.54
812.073	6731.69
812.403	6684.91
812.732	6674.51
813.061	6720.16
813.39	6672.03
813.719	6650.79
814.049	6678.58
814.378	6658.92
814.707	6603.1
815.036	6639.94
815.365	6601.3
815.693	6532.37
816.022	6490.11
816.351	6505.03
816.68	6418.48
817.008	6521.07
817.337	6448.76
817.665	6403.79
817.994	6460.73
818.322	6440.4
818.651	6354.97
818.979	6359.95
819.307	6354.97
819.636	6367.18
819.964	6325.14
820.292	6413.5
820.62	6340.29
820.948	6328.08
821.276	6346.84
821.604	6358.59
821.932	6295.54
822.259	6371.92
822.587	6292.83
822.915	6321.3
823.243	6347.06
823.57	6342.77
823.898	6376.67
824.225	6261.64
824.553	6318.14
824.88	6299.61
825.207	6358.36
825.535	6261.64
825.862	6308.87
826.189	6227.97
826.516	6253.73
826.843	6350
827.17	6325.6
827.497	6286.05
827.824	6237.24
828.151	6313.62
828.478	6295.54
828.805	6299.16
829.131	6276.78
829.458	6234.98
829.785	6234.98
830.111	6251.93
830.438	6321.98
830.764	6308.2
831.09	6273.85
831.417	6240.17
831.743	6234.98
832.069	6274.3
832.395	6230.23
832.722	6205.83
833.048	6224.13
833.374	6223.23
833.7	6154.08
834.026	6209.89
834.351	6186.39
834.677	6238.59
835.003	6199.72
835.329	6214.64
835.654	6193.17
835.98	6092.83
836.306	6190.23
836.631	6101.87
836.956	6172.83
837.282	6145.71
837.607	6138.71
837.932	6088.31
838.258	6086.28
838.583	6062.55
838.908	6044.47
839.233	6122.66
839.558	6098.71
839.883	6058.71
840.208	6085.15
840.533	6076.34
840.858	6050.58
841.182	6065.94
841.507	6043.8
841.832	5946.85
842.156	6007.64
842.481	5993.18
842.805	5922.67
843.13	5968.32
843.454	5921.09
843.778	5910.69
844.103	5904.82
844.427	5887.42
844.751	5853.52
845.075	5806.74
845.399	5872.5
845.723	5803.35
846.047	5837.93
846.371	5761.77
846.695	5836.57
847.019	5748.66
847.343	5673.41
847.666	5660.53
847.99	5651.26
848.313	5642
848.637	5656.69
848.96	5634.77
849.284	5629.12
849.607	5575.33
849.931	5525.84
850.254	5531.94
850.577	5511.83
850.9	5492.4
851.223	5453.98
851.546	5449.01
851.869	5436.81
852.192	5452.85
852.515	5369.69
852.838	5381.44
853.161	5418.05
853.483	5341.67
853.806	5316.13
854.129	5273.65
854.451	5266.87
854.774	5282.23
855.096	5256.02
855.419	5233.42
855.741	5226.19
856.063	5162.92
856.385	5209.92
856.708	5182.58
857.03	5164.95
857.352	5155.01
857.674	5094.67
857.996	5161.33
858.318	5078.4
858.64	5059.19
858.961	5120.66
859.283	5036.36
859.605	5020.55
859.926	5066.19
860.248	5017.61
860.57	5009.47
860.891	5023.26
861.212	4990.72
861.534	5016.93
861.855	4998.63
862.176	4967.89
862.498	4969.7
862.819	4971.51
863.14	4964.28
863.461	4899.19
863.782	4908.01
864.103	4896.26
864.424	4932.86
864.745	4919.76
865.065	4925.86
865.386	4898.52
865.707	4878.18
866.027	4844.51
866.348	4896.03
866.668	4801.79
866.989	4838.4
867.309	4808.12
867.63	4824.84
867.95	4855.8
868.27	4756.15
868.59	4795.92
868.91	4815.81
869.23	4814.9
869.55	4765.64
869.87	4810.16
870.19	4754.56
870.51	4787.11
870.83	4804.96
871.15	4762.02
871.469	4748.01
871.789	4745.52
872.109	4751.63
872.428	4733.77
872.748	4728.35
873.067	4726.09
873.386	4686.54
873.706	4731.97
874.025	4715.02
874.344	4670.27
874.663	4703.94
874.982	4643.15
875.301	4695.36
875.62	4664.17
875.939	4644.06
876.258	4619.88
876.577	4668.24
876.896	4619.65
877.214	4603.38
877.533	4590.73
877.852	4588.01
878.17	4610.61
878.489	4600.67
878.807	4613.78
879.125	4597.28
879.444	4553.21
879.762	4615.36
880.08	4608.35
880.398	4594.79
880.716	4565.64
881.034	4526.1
881.352	4535.36
881.67	4552.54
881.988	4548.92
882.306	4493.1
882.624	4529.94
882.941	4468.02
883.259	4518.64
883.577	4463.95
883.894	4484.74
884.212	4472.76
884.529	4449.26
884.846	4477.51
885.164	4458.07
885.481	4470.28
885.798	4439.54
886.115	4436.15
886.432	4378.98
886.75	4402.26
887.067	4414.46
887.383	4353.22
887.7	4353.67
888.017	4400.68
888.334	4329.94
888.651	4342.37
888.967	4337.17
889.284	4296.05
889.6	4312.99
889.917	4261.92
890.233	4288.81
890.55	4270.51
890.866	4267.8
891.182	4256.72
891.498	4240
891.815	4236.16
892.131	4222.83
892.447	4263.05
892.763	4233.9
893.079	4224.63
893.395	4217.18
893.71	4173.56
894.026	4195.03
894.342	4144.41
894.657	4133.34
894.973	4140.57
895.289	4159.1
895.604	4109.61
895.92	4082.72
896.235	4028.26
896.55	4087.46
896.865	4080.46
897.181	4049.05
897.496	4057.63
897.811	4012.89
898.126	4054.02
898.441	4022.15
898.756	4003.85
899.071	3978.09
899.386	3983.96
899.7	3979.9
900.015	3950.07
900.33	3908.71
900.644	3942.61
900.959	3934.47
901.273	3885.89
901.588	3879.56
901.902	3849.96
902.216	3840.01
902.531	3856.73
902.845	3822.16
903.159	3826.45
903.473	3847.02
903.787	3789.17
904.101	3757.53
904.415	3738.09
904.729	3755.04
905.042	3758.88
905.356	3698.09
905.67	3726.34
905.984	3737.19
906.297	3724.31
906.611	3678.89
906.924	3707.81
907.237	3681.82
907.551	3707.59
907.864	3676.4
908.177	3659.68
908.491	3651.54
908.804	3624.65
909.117	3596.4
909.43	3617.19
909.743	3606.8
910.056	3569.51
910.368	3563.86
910.681	3543.75
910.994	3500.13
911.307	3531.55
911.619	3500.13
911.932	3525.67
912.244	3458.1
912.557	3519.57
912.869	3446.12
913.181	3444.32
913.494	3456.52
913.806	3430.31
914.118	3420.36
914.43	3423.3
914.742	3397.09
915.054	3360.25
915.366	3360.25
915.678	3336.52
915.99	3338.1
916.302	3307.37
916.613	3336.97
916.925	3313.02
917.236	3315.96
917.548	3315.73
917.859	3289.07
918.171	3290.42
918.482	3306.24
918.794	3236.19
919.105	3212.68
919.416	3177.2
919.727	3184.44
920.038	3195.96
920.349	3196.41
920.66	3191.67
920.971	3167.26
921.282	3137.21
921.593	3158.9
921.903	3147.83
922.214	3132.69
922.525	3146.02
922.835	3108.05
923.146	3078.22
923.456	3052.01
923.767	3043.2
924.077	3065.12
924.387	3052.46
924.697	3028.06
925.008	3010.66
925.318	3026.25
925.628	3034.84
925.938	3009.53
926.248	2921.17
926.558	2964.55
926.867	2977.44
927.177	2939.24
927.487	2936.31
927.796	2927.49
928.106	2953.03
928.416	2893.6
928.725	2906.48
929.034	2876.2
929.344	2886.82
929.653	2851.34
929.962	2863.31
930.271	2843.2
930.581	2801.85
930.89	2810.21
931.199	2804.33
931.508	2817.67
931.817	2787.84
932.125	2779.93
932.434	2784.9
932.743	2708.74
933.051	2694.28
933.36	2729.53
933.669	2722.53
933.977	2743.77
934.286	2693.83
934.594	2666.71
934.902	2639.14
935.21	2682.53
935.519	2674.84
935.827	2664.22
936.135	2633.04
936.443	2644.34
936.751	2632.36
937.059	2656.31
937.367	2627.84
937.674	2613.38
937.982	2553.49
938.29	2569.76
938.597	2585.81
938.905	2508.75
939.213	2560.5
939.52	2544.45
939.827	2551.01
940.135	2571.34
940.442	2543.32
940.749	2513.04
941.056	2531.35
941.363	2466.49
941.67	2485.47
941.977	2480.27
942.284	2485.25
942.591	2435.3
942.898	2470.56
943.205	2470.1
943.511	2423.55
943.818	2428.07
944.125	2427.62
944.431	2420.61
944.738	2367.96
945.044	2386.49
945.35	2342.88
945.657	2349.66
945.963	2358.92
946.269	2356.66
946.575	2348.07
946.881	2354.18
947.187	2307.4
947.493	2290
947.799	2365.25
948.105	2299.04
948.41	2319.37
948.716	2264.69
949.022	2298.81
949.327	2287.28
949.633	2258.58
949.938	2248.64
950.244	2266.04
950.549	2246.61
950.854	2256.55
951.16	2236.89
951.465	2204.12
951.77	2177.91
952.075	2203.67
952.38	2165.48
952.685	2181.07
952.99	2202.54
953.294	2154.18
953.599	2165.48
953.904	2128.19
954.209	2141.53
954.513	2152.37
954.818	2137.46
955.122	2111.47
955.426	2099.94
955.731	2100.85
956.035	2116.44
956.339	2078.25
956.643	2089.32
956.948	2083.45
957.252	2070.57
957.556	2075.99
957.86	2047.52
958.163	2072.6
958.467	2046.84
958.771	2049.32
959.075	2019.95
959.378	2022.43
959.682	2038.93
959.985	2015.2
960.289	1975.65
960.592	1990.12
960.896	2021.98
961.199	1969.1
961.502	1968.42
961.805	1954.86
962.108	1931.14
962.411	1955.54
962.714	1924.81
963.017	1946.5
963.32	1923.68
963.623	1927.97
963.926	1941.08
964.228	1918.71
964.531	1915.09
964.833	1899.27
965.136	1887.07
965.438	1846.17
965.741	1850.01
966.043	1830.35
966.345	1878.26
966.648	1830.12
966.95	1861.76
967.252	1844.36
967.554	1824.47
967.856	1802.1
968.158	1814.53
968.46	1823.79
968.761	1783.34
969.063	1801.65
969.365	1784.02
969.666	1792.38
969.968	1780.41
970.269	1781.54
970.571	1768.88
970.872	1750.8
971.174	1787.18
971.475	1746.06
971.776	1743.12
972.077	1739.28
972.378	1715.55
972.679	1736.11
972.98	1715.1
973.281	1704.7
973.582	1702.22
973.883	1697.92
974.183	1680.97
974.484	1690.24
974.785	1686.17
975.085	1655.21
975.386	1656.11
975.686	1673.74
975.986	1657.24
976.287	1666.74
976.587	1663.12
976.887	1652.5
977.187	1635.1
977.487	1610.01
977.787	1614.08
978.087	1597.81
978.387	1602.1
978.687	1610.69
978.987	1596
979.286	1578.83
979.586	1576.12
979.885	1570.02
980.185	1608.43
980.484	1536.57
980.784	1568.89
981.083	1562.56
981.382	1535.21
981.682	1551.94
981.981	1547.19
982.28	1562.11
982.579	1543.58
982.878	1533.63
983.177	1516.91
983.475	1526.85
983.774	1493.63
984.073	1502.9
984.372	1498.6
984.67	1488.44
984.969	1495.21
985.267	1495.21
985.566	1480.98
985.864	1471.26
986.162	1476.68
986.461	1465.84
986.759	1454.99
987.057	1418.83
987.355	1483.01
987.653	1429.68
987.951	1433.97
988.249	1436.46
988.547	1424.03
988.844	1403.47
989.142	1427.42
989.44	1374.77
989.737	1390.13
990.035	1393.3
990.332	1388.1
990.63	1367.53
990.927	1394.88
991.224	1367.31
991.521	1366.18
991.819	1365.05
992.116	1375.44
992.413	1344.48
992.71	1357.14
993.006	1363.24
993.303	1344.94
993.6	1342.68
993.897	1353.52
994.193	1325.5
994.49	1313.07
994.787	1286.18
995.083	1294.99
995.379	1319.4
995.676	1284.37
995.972	1274.88
996.268	1302.68
996.565	1283.24
996.861	1267.42
997.157	1292.96
997.453	1284.6
997.749	1255.45
998.044	1239.18
998.34	1254.09
998.636	1252.28
998.932	1237.82
999.227	1240.76
999.523	1222.91
999.818	1247.76
1000.114	1235.11
1000.409	1231.72
1000.704	1190.82
1001	1204.6
1001.295	1189.46
1001.59	1173.87
1001.885	1189.01
1002.18	1163.7
1002.475	1181.1
1002.77	1161.89
1003.065	1161.21
1003.359	1170.7
1003.654	1170.7
1003.949	1161.44
1004.243	1153.98
1004.538	1135.68
1004.832	1140.42
1005.127	1117.15
1005.421	1103.13
1005.715	1123.7
1006.009	1109.46
1006.304	1130.25
1006.598	1087.99
1006.892	1110.59
1007.186	1117.6
1007.48	1083.47
1007.773	1092.06
1008.067	1091.61
1008.361	1079.41
1008.655	1074.66
1008.948	1071.05
1009.242	1056.58
1009.535	1065.4
1009.829	1048.45
1010.122	1052.29
1010.415	1021.56
1010.708	1046.64
1011.001	1022.91
1011.295	1022.91
1011.588	992.18
1011.881	1014.55
1012.173	1030.82
1012.466	989.69
1012.759	1000.54
1013.052	1004.61
1013.344	1013.42
1013.637	975.23
1013.93	964.83
1014.222	980.65
1014.514	985.4
1014.807	989.24
1015.099	953.76
1015.391	940.2
1015.683	944.72
1015.976	956.47
1016.268	936.81
1016.56	946.98
1016.851	944.49
1017.143	930.48
1017.435	929.58
1017.727	940.88
1018.018	910.37
1018.31	918.96
1018.602	928.45
1018.893	899.07
1019.185	915.12
1019.476	914.21
1019.767	887.32
1020.058	879.41
1020.35	867.21
1020.641	870.15
1020.932	882.8
1021.223	889.36
1021.514	865.17
1021.804	860.43
1022.095	866.08
1022.386	861.79
1022.677	833.09
1022.967	855.01
1023.258	829.02
1023.548	816.59
1023.839	830.83
1024.129	820.2
1024.419	817.27
1024.709	832.63
1025	820.88
1025.29	800.32
1025.58	799.64
1025.87	795.12
1026.16	767.32
1026.449	792.18
1026.739	761
1027.029	787.21
1027.319	749.92
1027.608	761
1027.898	756.03
1028.187	772.97
1028.477	785.63
1028.766	759.87
1029.055	757.61
1029.344	749.02
1029.634	732.3
1029.923	763.93
1030.212	734.56
1030.501	759.42
1030.79	722.81
1031.078	739.75
1031.367	715.12
1031.656	710.15
1031.945	709.02
1032.233	715.35
1032.522	710.38
1032.81	692.07
1033.099	709.7
1033.387	715.35
1033.675	710.15
1033.963	697.72
1034.251	697.72
1034.54	693.2
1034.828	689.36
1035.116	677.16
1035.403	685.07
1035.691	681.45
1035.979	663.82
1036.267	679.19
1036.554	669.7
1036.842	632.64
1037.129	652.53
1037.417	659.08
1037.704	659.3
1037.992	635.8
1038.279	622.7
1038.566	658.63
1038.853	658.63
1039.14	658.63
