Data from tablewood_brown_FLMS001491_097.txt Node
Date: Tue Feb 07 11:11:18 GMT 2017
User: dcchb
Spectrometer: FLMS00149
Trigger mode: 0
Integration Time (sec): 2.000000E-2
Scans to average: 10
Electric dark correction enabled: true
Nonlinearity correction enabled: false
Boxcar width: 0
XAxis mode: Wavelengths
Number of Pixels in Spectrum: 2048
>>>>>Begin Spectral Data<<<<<
341.393	-19.46
341.776	-19.46
342.16	-19.46
342.543	-53.81
342.927	-49.52
343.31	-83.87
343.693	-84.77
344.077	-63.76
344.46	-51.78
344.843	-56.98
345.226	-51.1
345.61	-23.08
345.993	-19.01
346.376	-9.97
346.759	0.65
347.142	26.19
347.525	50.14
347.908	66.86
348.291	84.04
348.674	92.4
349.057	124.04
349.44	134.66
349.823	147.76
350.206	167.42
350.588	171.04
350.971	209.23
351.354	239.06
351.737	240.64
352.119	284.48
352.502	268.21
352.884	262.11
353.267	279.96
353.65	303.24
354.032	304.37
354.414	323.13
354.797	315.44
355.179	337.82
355.562	324.48
355.944	353.41
356.326	342.34
356.709	333.52
357.091	359.06
357.473	331.94
357.855	359.74
358.238	336.46
358.62	364.71
359.002	367.65
359.384	341.21
359.766	349.12
360.148	345.27
360.53	356.8
360.912	353.63
361.294	344.14
361.676	353.41
362.057	344.6
362.439	335.56
362.821	344.6
363.203	334.43
363.584	346.18
363.966	339.85
364.348	331.26
364.729	351.6
365.111	336.23
365.493	320.64
365.874	329.91
366.256	333.52
366.637	351.6
367.019	347.76
367.4	345.05
367.781	336.46
368.163	334.2
368.544	327.87
368.925	341.88
369.306	372.39
369.688	360.87
370.069	343.69
370.45	326.29
370.831	332.17
371.212	319.74
371.593	322.45
371.974	340.53
372.355	335.1
372.736	330.81
373.117	328.1
373.498	347.99
373.879	332.39
374.26	357.48
374.641	348.89
375.021	345.5
375.402	330.13
375.783	327.42
376.163	354.09
376.544	365.16
376.925	357.93
377.305	360.64
377.686	358.15
378.066	357.48
378.447	360.64
378.827	376.01
379.208	373.07
379.588	357.02
379.968	351.83
380.349	350.92
380.729	348.44
381.109	352.73
381.489	390.24
381.87	364.03
382.25	366.74
382.63	373.3
383.01	379.17
383.39	399.51
383.77	383.01
384.15	380.75
384.53	390.02
384.91	417.36
385.29	387.98
385.67	398.83
386.049	399.28
386.429	388.21
386.809	388.66
387.189	406.06
387.568	414.65
387.948	391.37
388.328	425.95
388.707	421.2
389.087	412.62
389.466	385.5
389.846	429.79
390.225	443.12
390.605	423.92
390.984	437.25
391.363	427.76
391.743	448.1
392.122	433.63
392.501	426.4
392.881	454.65
393.26	459.17
393.639	441.09
394.018	461.65
394.397	452.39
394.776	470.24
395.155	438.15
395.534	487.19
395.913	467.08
396.292	487.19
396.671	473.18
397.05	472.95
397.429	480.86
397.808	486.51
398.186	480.41
398.565	482.9
398.944	491.71
399.323	522.67
399.701	498.04
400.08	517.7
400.458	511.14
400.837	521.99
401.215	513.63
401.594	521.31
401.972	524.03
402.351	529.45
402.729	524.25
403.107	528.55
403.486	533.74
403.864	520.64
404.242	550.01
404.62	554.76
404.999	545.49
405.377	545.95
405.755	556.34
406.133	586.4
406.511	571.48
406.889	577.81
407.267	571.93
407.645	583.23
408.023	581.88
408.401	572.39
408.779	593.18
409.156	610.13
409.534	626.85
409.912	631.14
410.29	652.38
410.667	638.15
411.045	656
411.422	654.87
411.8	659.62
412.178	653.51
412.555	656.9
412.933	669.11
413.31	665.26
413.687	684.7
414.065	701.2
414.442	677.69
414.819	688.99
415.197	690.8
415.574	726.28
415.951	713.63
416.328	705.49
416.705	737.58
417.082	722.66
417.46	733.74
417.837	737.35
418.214	731.7
418.591	750.01
418.967	768.31
419.344	761.53
419.721	764.47
420.098	778.93
420.475	799.27
420.852	789.78
421.228	789.56
421.605	780.06
421.982	813.28
422.358	816.67
422.735	816
423.111	818.71
423.488	842.89
423.864	825.49
424.241	827.29
424.617	859.84
424.994	837.92
425.37	850.57
425.746	822.32
426.123	872.04
426.499	878.14
426.875	872.27
427.251	910
427.627	922.89
428.003	904.81
428.379	924.92
428.756	939.38
429.132	961.75
429.507	946.16
429.883	967.4
430.259	991.58
430.635	981.19
431.011	967.86
431.387	1022.77
431.763	1033.62
432.138	1035.88
432.514	1019.15
432.89	1035.2
433.265	1048.31
433.641	1097.57
434.016	1090.11
434.392	1091.24
434.767	1105.48
435.143	1138.25
435.518	1127.17
435.894	1157
436.269	1161.52
436.644	1137.57
437.02	1160.39
437.395	1180.51
437.77	1211.24
438.145	1210.79
438.52	1230.22
438.895	1197
439.271	1256.44
439.646	1255.53
440.021	1267.28
440.395	1280.62
440.77	1283.1
441.145	1264.8
441.52	1308.19
441.895	1299.15
442.27	1319.03
442.645	1327.39
443.019	1361.97
443.394	1322.2
443.769	1353.83
444.143	1365.81
444.518	1370.11
444.892	1395.19
445.267	1371.46
445.641	1392.03
446.016	1382.99
446.39	1400.84
446.764	1422.31
447.139	1423.89
447.513	1432.25
447.887	1424.12
448.262	1468.63
448.636	1461.85
449.01	1457.56
449.384	1461.85
449.758	1507.28
450.132	1497.11
450.506	1531.68
450.88	1513.38
451.254	1507.28
451.628	1534.85
452.002	1539.14
452.376	1580.27
452.75	1571
453.123	1614.17
453.497	1590.66
453.871	1640.38
454.244	1649.65
454.618	1670.89
454.992	1695.29
455.365	1671.11
455.739	1738.01
456.112	1744.56
456.486	1763.09
456.859	1813.48
457.232	1788.85
457.606	1812.35
457.979	1844.22
458.352	1883.54
458.725	1912.46
459.099	1911.56
459.472	1935.97
459.845	1936.64
460.218	1963.76
460.591	1976.19
460.964	1979.13
461.337	2021.16
461.71	2039.24
462.083	2071.56
462.456	2096.87
462.829	2092.35
463.201	2135.28
463.574	2163.76
463.947	2178.22
464.32	2227.26
464.692	2269.97
465.065	2281.04
465.438	2315.39
465.81	2322.62
466.183	2359.68
466.555	2394.26
466.928	2445.33
467.3	2417.54
467.672	2496.63
468.045	2533.01
468.417	2579.56
468.789	2564.88
469.161	2585.67
469.534	2622.73
469.906	2700.69
470.278	2754.48
470.65	2782.5
471.022	2808.26
471.394	2858.2
471.766	2915.15
472.138	2983.4
472.51	3014.81
472.882	3077.4
473.253	3108.82
473.625	3145.65
473.997	3206.44
474.369	3266.78
474.74	3300.45
475.112	3381.8
475.484	3429.94
475.855	3506.55
476.227	3514
476.598	3660.21
476.97	3716.94
477.341	3801.68
477.713	3881.23
478.084	3914.22
478.455	4018.62
478.827	4052.07
479.198	4162.12
479.569	4251.84
479.94	4310.14
480.311	4377.94
480.682	4479.18
481.053	4572.05
481.424	4657.25
481.795	4706.51
482.166	4803.24
482.537	4878.26
482.908	4926.62
483.279	5076.45
483.65	5173.17
484.021	5206.16
484.391	5308.98
484.762	5397.57
485.133	5431.02
485.503	5551.24
485.874	5665.81
486.244	5723.89
486.615	5788.29
486.985	5899.93
487.356	5983.32
487.726	6064.45
488.097	6172.46
488.467	6223.76
488.837	6373.14
489.207	6403.19
489.578	6535.39
489.948	6620.81
490.318	6706.91
490.688	6725.67
491.058	6880.24
491.428	6921.15
491.798	7036.4
492.168	7183.29
492.538	7209.05
492.908	7226.22
493.278	7352.77
493.648	7376.5
494.017	7464.41
494.387	7580.34
494.757	7628.47
495.126	7736.27
495.496	7798.18
495.866	7852.42
496.235	7931.51
496.605	8030.5
496.974	8104.62
497.344	8136.48
497.713	8241.34
498.082	8340.54
498.452	8395.68
498.821	8428.22
499.19	8444.04
499.559	8549.35
499.928	8595.68
500.298	8677.94
500.667	8784.83
501.036	8778.5
501.405	8830.47
501.774	8870.92
502.143	8924.03
502.512	9026.4
502.88	9156.12
503.249	9110.92
503.618	9239.95
503.987	9270.01
504.356	9352.04
504.724	9427.97
505.093	9477.69
505.462	9490.12
505.83	9570.12
506.199	9610.57
506.567	9827.28
506.936	9748.64
507.304	9880.84
507.672	9944.12
508.041	9966.04
508.409	10061.85
508.777	10271.34
509.145	10319.47
509.514	10316.31
509.882	10446.93
510.25	10530.77
510.618	10521.05
510.986	10662.29
511.354	10721.72
511.722	10833.36
512.09	10839.91
512.458	10877.65
512.826	11048.27
513.193	11128.94
513.561	11128.94
513.929	11265.89
514.297	11339.79
514.664	11498.88
515.032	11544.07
515.4	11675.14
515.767	11684.86
516.135	11830.62
516.502	11730.06
516.869	12012.31
517.237	12057.51
517.604	12044.4
517.972	12178.86
518.339	12383.15
518.706	12413.2
519.073	12467.67
519.44	12556.25
519.808	12751.27
520.175	12739.98
520.542	12838.05
520.909	13007.77
521.276	13029.46
521.643	13165.73
522.009	13226.06
522.376	13428.55
522.743	13494.53
523.11	13598.94
523.477	13699.05
523.843	13818.59
524.21	14016.33
524.577	14089.32
524.943	14162.09
525.31	14303.78
525.676	14408.41
526.043	14481.17
526.409	14583.77
526.776	14715.07
527.142	14823.08
527.508	14944.66
527.874	15036.86
528.241	15202.96
528.607	15166.8
528.973	15489.06
529.339	15334.48
529.705	15474.82
530.071	15689.5
530.437	15821.93
530.803	15949.16
531.169	15959.78
531.535	16078.87
531.901	16055.14
532.267	16129.94
532.632	16281.8
532.998	16434.79
533.364	16486.77
533.73	16472.31
534.095	16636.82
534.461	16751.85
534.826	16830.94
535.192	16823.26
535.557	16976.93
535.923	17006.98
536.288	17123.82
536.653	17141.89
537.019	17196.58
537.384	17244.26
537.749	17359.29
538.114	17378.72
538.479	17431.15
538.845	17604.25
539.21	17576.46
539.575	17712.73
539.94	17739.84
540.305	17941.42
540.67	17868.43
541.034	17928.99
541.399	18042.21
541.764	18092.83
542.129	18178.48
542.494	18165.14
542.858	18286.72
543.223	18259.6
543.587	18444.23
543.952	18368.53
544.316	18437
544.681	18571.23
545.045	18661.85
545.41	18753.15
545.774	18831.57
546.138	18846.48
546.503	18901.85
546.867	18983.88
547.231	19007.61
547.595	19084.67
547.959	19219.81
548.324	19250.77
548.688	19308.62
549.052	19435.62
549.416	19468.39
549.779	19517.88
550.143	19613.47
550.507	19790.64
550.871	19900.47
551.235	19882.61
551.599	20060.24
551.962	20113.34
552.326	20205.32
552.689	20369.15
553.053	20189.27
553.417	20468.36
553.78	20695.92
554.143	20606.66
554.507	20841.46
554.87	20927.33
555.234	21195.57
555.597	21109.7
555.96	21197.15
556.323	21438.5
556.686	21518.73
557.05	21544.04
557.413	21812.96
557.776	21904.93
558.139	22115.77
558.502	22163
558.865	22278.48
559.228	22457.46
559.59	22556.44
559.953	22666.95
560.316	22894.29
560.679	23024.68
561.041	23164.11
561.404	23217.44
561.767	23546.47
562.129	23570.65
562.492	23817.42
562.854	23834.83
563.217	23984.43
563.579	24211.09
563.941	24379.44
564.304	24644.07
564.666	24745.99
565.028	24891.29
565.39	24998.86
565.753	25286.31
566.115	25336.71
566.477	25439.53
566.839	25637.49
567.201	25846.07
567.563	26031.15
567.925	26280.18
568.287	26381.42
568.648	26528.54
569.01	26849.89
569.372	26865.71
569.734	26962.65
570.095	27151.12
570.457	27415.07
570.819	27571.68
571.18	27612.58
571.542	27944.55
571.903	28074.26
572.265	28364.65
572.626	28400.81
572.987	28646.22
573.349	28803.28
573.71	28938.65
574.071	29062.03
574.432	29154.46
574.794	29539.53
575.155	29553.54
575.516	29626.76
575.877	29878.06
576.238	29931.61
576.599	30188.78
576.96	30335.22
577.32	30472.16
577.681	30615.44
578.042	30749.67
578.403	30916.45
578.763	30915.54
579.124	31095.65
579.485	31391.01
579.845	31407.51
580.206	31391.69
580.566	31333.61
580.927	31511.69
581.287	31643.21
581.648	31743.77
582.008	31983.76
582.368	32042.97
582.728	32045.91
583.089	32103.31
583.449	32090.43
583.809	32300.14
584.169	32290.87
584.529	32283.19
584.889	32676.85
585.249	32484.09
585.609	32496.29
585.969	32830.29
586.329	32722.73
586.688	32767.92
587.048	32807.47
587.408	32839.79
587.768	32927.24
588.127	32768.38
588.487	32942.83
588.846	33143.28
589.206	32973.79
589.565	33145.99
589.925	33126.11
590.284	33143.28
590.643	33200.68
591.003	33329.94
591.362	33451.3
591.721	33387.34
592.08	33437.74
592.44	33626.88
592.799	33565.87
593.158	33391.86
593.517	33534.68
593.876	33545.08
594.235	33571.97
594.593	33566.55
594.952	33639.09
595.311	33661.46
595.67	33844.73
596.029	33888.57
596.387	33901.91
596.746	34079.98
597.104	33826.65
597.463	33956.37
597.822	34037.95
598.18	33944.84
598.538	33844.05
598.897	33951.62
599.255	33837.05
599.613	34245.4
599.972	34049.47
600.33	34249.69
600.688	34071.39
601.046	34202.69
601.404	34362.91
601.762	34275.68
602.12	34396.58
602.478	34416.02
602.836	34430.25
603.194	34353.42
603.552	34407.43
603.91	34298.73
604.268	34550.02
604.625	34339.63
604.983	34361.1
605.341	34483.81
605.698	34518.84
606.056	34585.96
606.413	34535.33
606.771	34742.56
607.128	34817.36
607.485	34549.57
607.843	34656.46
608.2	34771.94
608.557	34822.56
608.914	34733.07
609.272	35005.83
609.629	34977.58
609.986	35080.18
610.343	34934.87
610.7	35255.09
611.057	35191.59
611.414	35142.1
611.771	35205.83
612.127	35176
612.484	35005.6
612.841	35311.13
613.198	35225.03
613.554	35337.12
613.911	35537.79
614.267	35395.65
614.624	35382.09
614.98	35589.09
615.337	35657.11
615.693	35600.17
616.05	35650.33
616.406	35876.54
616.762	35690.11
617.118	35619.6
617.475	35687.17
617.831	35897.78
618.187	35809.65
618.543	35971
618.899	36072.02
619.255	35908.41
619.611	36036.09
619.967	36015.52
620.323	36009.87
620.678	36067.27
621.034	35956.31
621.39	36091.45
621.746	35879.93
622.101	36277.66
622.457	36105.01
622.812	36034.05
623.168	36232.47
623.523	36164.67
623.879	36178.68
624.234	35995.64
624.589	36155.86
624.945	36233.14
625.3	36199.7
625.655	36254.16
626.01	36271.33
626.365	36241.28
626.72	36208.06
627.075	36163.31
627.43	36184.33
627.785	36147.72
628.14	36102.75
628.495	36118.34
628.85	36071.79
629.205	36074.28
629.559	36208.06
629.914	35971.91
630.269	35969.2
630.623	35913.6
630.978	35891.46
631.332	36006.71
631.687	36012.13
632.041	35864.79
632.396	35984.34
632.75	35804
633.104	35843.78
633.459	35843.32
633.813	35766.94
634.167	35801.06
634.521	35617.11
634.875	35820.95
635.229	35624.35
635.583	35395.88
635.937	35455.76
636.291	35520.85
636.645	35562.88
636.999	35360.4
637.352	35472.26
637.706	35270.46
638.06	35370.12
638.413	35303.68
638.767	35233.4
639.121	35264.13
639.474	35204.47
639.828	35146.17
640.181	35301.42
640.534	35192.04
640.888	35135.55
641.241	35028.2
641.594	34915.66
641.947	35038.37
642.301	34952.5
642.654	34947.53
643.007	34888.55
643.36	34949.34
643.713	34871.37
644.066	34930.13
644.419	34710.25
644.771	34521.1
645.124	34203.14
645.477	34292.86
645.83	34012.86
646.182	33824.62
646.535	33693.1
646.888	33767.9
647.24	33677.96
647.593	33710.72
647.945	33777.39
648.298	33551.86
648.65	33478.19
649.002	33467.34
649.355	33636.83
649.707	33590.05
650.059	33646.77
650.411	34069.81
650.763	34245.17
651.115	34643.13
651.467	34409.69
651.819	34324.49
652.171	34329.01
652.523	34087.66
652.875	34275
653.227	34064.39
653.578	34251.5
653.93	34278.62
654.282	34138.74
654.633	33987.33
654.985	34065.29
655.337	34092.18
655.688	34148.68
656.039	34244.04
656.391	33912.53
656.742	33989.59
657.094	34046.99
657.445	34045.4
657.796	34084.5
658.147	33901
658.498	33960.89
658.849	33909.36
659.2	33918.18
659.551	33923.37
659.902	34103.93
660.253	34049.92
660.604	33976.71
660.955	33825.3
661.306	33886.31
661.656	33958.4
662.007	33905.29
662.358	33837.05
662.708	33898.74
663.059	33839.53
663.409	33623.04
663.76	33865.07
664.11	33965.41
664.461	33885.18
664.811	33853.54
665.161	33812.87
665.511	33863.49
665.862	33827.33
666.212	33957.95
666.562	33861.45
666.912	33860.78
667.262	33745.53
667.612	33828.91
667.962	33819.87
668.312	33688.13
668.662	33820.33
669.011	33814.68
669.361	33623.72
669.711	33602.7
670.06	33591.4
670.41	33725.64
670.76	33610.16
671.109	33644.96
671.459	33579.43
671.808	33521.12
672.157	33494.23
672.507	33495.81
672.856	33529.26
673.205	33464.85
673.554	33587.79
673.904	33470.73
674.253	33548.24
674.602	33388.47
674.951	32928.82
675.3	32791.88
675.649	33295.14
675.998	33294.46
676.346	33384.86
676.695	33329.04
677.044	32941.7
677.393	33220.57
677.741	33146.67
678.09	33078.2
678.438	33044.75
678.787	33188.48
679.135	33174.92
679.484	32827.58
679.832	32935.38
680.181	32866
680.529	32872.33
680.877	32779.67
681.225	32800.69
681.573	32983.74
681.922	32661.03
682.27	32528.38
682.618	32654.03
682.966	32540.36
683.314	32645.67
683.661	32452
684.009	32205.68
684.357	32302.85
684.705	32241.16
685.053	32232.12
685.4	32135.85
685.748	31948.51
686.095	31907.38
686.443	31767.95
686.79	31695.41
687.138	31838.91
687.485	31789.42
687.832	31592.14
688.18	31631.23
688.527	31400.05
688.874	31396.89
689.221	31314.63
689.568	31232.37
689.915	31164.12
690.262	31220.17
690.609	31203.22
690.956	31089.55
691.303	30977.69
691.65	30796.68
691.997	30803
692.344	30559.39
692.69	30553.52
693.037	30546.74
693.383	30320.76
693.73	30406.63
694.077	30148.78
694.423	30166.86
694.769	30063.14
695.116	30030.14
695.462	29955.12
695.808	29891.84
696.155	29892.29
696.501	29530.95
696.847	29515.35
697.193	29375.02
697.539	29461.8
697.885	29319.88
698.231	29138.41
698.577	29070.85
698.923	29038.53
699.269	29010.51
699.614	28818.2
699.96	28632.67
700.306	28635.6
700.651	28632.44
700.997	28543.4
701.342	28320.13
701.688	28364.65
702.033	28342.5
702.379	28253.24
702.724	28130.08
703.069	28178.44
703.415	27985.22
703.76	27823.42
704.105	27839.92
704.45	27753.37
704.795	27536.65
705.14	27370.55
705.485	27541.62
705.83	27327.39
706.175	27391.79
706.52	27143.44
706.865	27153.61
707.209	27160.39
707.554	26906.83
707.899	26967.62
708.243	26895.08
708.588	26848.76
708.932	26700.29
709.277	26715.43
709.621	26693.73
709.966	26521.76
710.31	26425.94
710.654	26293.07
710.998	26448.99
711.342	26271.15
711.687	26247.42
712.031	26161.54
712.375	26038.38
712.719	26141.88
713.063	25991.38
713.407	26097.36
713.75	25951.38
714.094	25899.86
714.438	25759.52
714.782	25682.91
715.125	25669.58
715.469	25683.14
715.812	25593.88
716.156	25452.18
716.499	25510.49
716.843	25503.71
717.186	25399.98
717.53	25471.84
717.873	25460.32
718.216	25443.14
718.559	25252.19
718.902	25153.43
719.246	25268.46
719.589	25112.08
719.932	25044.28
720.275	25143.94
720.617	25016.04
720.96	24955.93
721.303	24939.65
721.646	24944.63
721.989	24850.17
722.331	24923.16
722.674	24846.55
723.016	24948.92
723.359	24837.74
723.701	24827.79
724.044	24782.14
724.386	24641.36
724.729	24706.89
725.071	24637.29
725.413	24574.24
725.755	24684.75
726.097	24539.44
726.439	24452.21
726.782	24390.52
727.124	24614.47
727.465	24510.74
727.807	24422.61
728.149	24414.47
728.491	24357.07
728.833	24497.41
729.175	24310.74
729.516	24249.28
729.858	24282.5
730.199	24364.98
730.541	24163.63
730.882	24298.09
731.224	24377.41
731.565	24177.42
731.906	24229.62
732.248	24333.12
732.589	24120.69
732.93	24101.71
733.271	24091.99
733.612	24095.84
733.953	24248.83
734.294	24065.78
734.635	24007.48
734.976	24121.6
735.317	23954.14
735.658	24070.53
735.999	24038.66
736.339	24085.44
736.68	23934.48
737.021	23924.99
737.361	23909.17
737.702	24102.84
738.042	24070.07
738.383	23896.07
738.723	23964.77
739.063	23894.26
739.404	23916.86
739.744	24004.31
740.084	23859.01
740.424	23939.23
740.764	23868.04
741.104	24007.93
741.444	23807.48
741.784	23781.49
742.124	23865.78
742.464	23882.96
742.804	23914.82
743.143	23868.5
743.483	23807.03
743.823	23724.32
744.162	23741.27
744.502	23795.28
744.841	23706.47
745.181	23784.88
745.52	23645
745.86	23801.38
746.199	23818.78
746.538	23638.67
746.877	23698.33
747.216	23867.59
747.556	23819.46
747.895	23725.68
748.234	23553.93
748.573	23562.06
748.911	23679.58
749.25	23582.85
749.589	23496.53
749.928	23611.1
750.267	23576.75
750.605	23620.14
750.944	23650.88
751.283	23461.73
751.621	23508.73
751.96	23477.32
752.298	23565.23
752.636	23561.16
752.975	23281.39
753.313	23349.41
753.651	23347.61
753.989	23317.78
754.327	23270.32
754.666	23131.11
755.004	23144.22
755.342	23282.75
755.679	23174.5
756.017	22930.22
756.355	23115.75
756.693	22976.09
757.031	23096.77
757.368	22952.36
757.706	22932.02
758.044	22873.27
758.381	22856.77
758.719	22792.82
759.056	22812.25
759.394	22698.13
759.731	22529.1
760.068	22586.95
760.405	22436.67
760.743	22334.07
761.08	22565.93
761.417	22345.37
761.754	22315.77
762.091	22325.71
762.428	22124.14
762.765	22108.54
763.102	22090.69
763.438	22064.25
763.775	21898.83
764.112	21920.75
764.449	21952.16
764.785	21822.9
765.122	21762.34
765.458	21652.51
765.795	21629.46
766.131	21629.23
766.467	21555.56
766.804	21551.5
767.14	21313.08
767.476	21385.85
767.812	21309.47
768.148	21216.82
768.485	21149.02
768.821	20917.84
769.157	20972.3
769.492	20958.29
769.828	20996.71
770.164	20759.43
770.5	20822.93
770.836	20691.18
771.171	20704.06
771.507	20504.29
771.842	20342.94
772.178	20402.6
772.513	20332.77
772.849	20309.04
773.184	20140.91
773.519	20194.47
773.855	20062.95
774.19	19914.25
774.525	19865.44
774.86	19827.02
775.195	19835.61
775.53	19675.84
775.865	19635.16
776.2	19531.89
776.535	19576.86
776.87	19451.21
777.205	19386.81
777.539	19289.41
777.874	19139.13
778.209	19140.71
778.543	19073.59
778.878	18968.06
779.212	19154.04
779.547	18814.39
779.881	18819.14
780.215	18778.24
780.55	18836.99
780.884	18619.14
781.218	18507.73
781.552	18591.35
781.886	18507.06
782.22	18294.18
782.554	18347.06
782.888	18099.61
783.222	18079.27
783.556	18092.6
783.889	17965.6
784.223	17849.45
784.557	17880.63
784.89	17880.63
785.224	17739.84
785.557	17643.58
785.891	17581.66
786.224	17531.04
786.558	17561.32
786.891	17365.62
787.224	17305.96
787.557	17357.03
787.891	17224.83
788.224	17264.83
788.557	17238.16
788.89	17230.93
789.223	17073.87
789.556	16987.32
789.888	16945.74
790.221	16791.62
790.554	16725.18
790.887	16724.96
791.219	16623.04
791.552	16665.07
791.884	16539.2
792.217	16537.84
792.549	16524.96
792.882	16357.73
793.214	16327.9
793.546	16386.89
793.879	16302.37
794.211	16172.2
794.543	16175.82
794.875	16109.83
795.207	16209.49
795.539	16054.24
795.871	16122.94
796.203	15862.83
796.535	15848.37
796.867	15858.09
797.198	15661.03
797.53	15715.04
797.862	15600.01
798.193	15670.29
798.525	15496.51
798.856	15504.2
799.188	15349.62
799.519	15320.47
799.85	15356.86
800.182	15224.2
800.513	15250.42
800.844	15085.9
801.175	15176.75
801.506	15198.89
801.837	15082.96
802.168	15016.98
802.499	14954.83
802.83	14983.08
803.161	14839.81
803.491	14797.32
803.822	14833.71
804.153	14760.71
804.483	14674.16
804.814	14678.46
805.145	14540.61
805.475	14590.1
805.805	14520.04
806.136	14541.06
806.466	14554.84
806.796	14351.46
807.126	14344
807.457	14357.79
807.787	14327.28
808.117	14251.12
808.447	14150.56
808.777	14250.9
809.107	14122.31
809.436	14098.36
809.766	14049.32
810.096	13985.14
810.426	13972.94
810.755	14000.73
811.085	13880.51
811.414	13879.38
811.744	13790.57
812.073	13730.91
812.403	13795.32
812.732	13642.55
813.061	13671.25
813.39	13540.86
813.719	13507.87
814.049	13596
814.378	13559.84
814.707	13450.47
815.036	13514.42
815.365	13359.39
815.693	13326.85
816.022	13341.09
816.351	13259.74
816.68	13187.65
817.008	13235.78
817.337	13190.36
817.665	13174.54
817.994	13111.72
818.322	13028.56
818.651	13050.93
818.979	13016.58
819.307	13122.34
819.636	12941.1
819.964	12962.57
820.292	12957.37
820.62	13016.13
820.948	12868.79
821.276	12873.08
821.604	12851.61
821.932	12872.4
822.259	12890.25
822.587	12921.89
822.915	12866.3
823.243	12908.33
823.57	12826.53
823.898	12908.11
824.225	12847.09
824.553	12868.11
824.88	12843.93
825.207	12940.42
825.535	12899.97
825.862	12864.04
826.189	12815.68
826.516	12866.75
826.843	12945.17
827.17	12885.28
827.497	12854.77
827.824	12808.67
828.151	12840.54
828.478	12831.05
828.805	12856.58
829.131	12825.85
829.458	12715.12
829.785	12747.89
830.111	12767.32
830.438	12881.44
830.764	12766.64
831.09	12851.39
831.417	12701.78
831.743	12757.15
832.069	12744.5
832.395	12694.1
832.722	12829.24
833.048	12667.89
833.374	12760.31
833.7	12652.52
834.026	12651.16
834.351	12729.58
834.677	12639.87
835.003	12709.69
835.329	12717.38
835.654	12641.22
835.98	12568.23
836.306	12591.05
836.631	12492.07
836.956	12613.65
837.282	12501.56
837.607	12473.77
837.932	12492.52
838.258	12518.96
838.583	12466.76
838.908	12421.34
839.233	12375.92
839.558	12315.58
839.883	12304.51
840.208	12304.96
840.533	12361.45
840.858	12300.21
841.182	12310.61
841.507	12263.6
841.832	12216.15
842.156	12188.35
842.481	12172.31
842.805	12182.25
843.13	12095.47
843.454	12116.49
843.778	12031.29
844.103	11971.41
844.427	12005.53
844.751	11884.63
845.075	11956.27
845.399	11907.68
845.723	11835.82
846.047	11820
846.371	11775.71
846.695	11808.7
847.019	11678.53
847.343	11662.49
847.666	11641.93
847.99	11528.03
848.313	11498.2
848.637	11381.14
848.96	11375.94
849.284	11365.32
849.607	11219.56
849.931	11264.31
850.254	11226.57
850.577	11164.65
850.9	11127.36
851.223	10990.19
851.546	10999.23
851.869	10907.48
852.192	11026.35
852.515	10853.7
852.838	10894.15
853.161	10911.55
853.483	10800.59
853.806	10749.07
854.129	10761.72
854.451	10693.25
854.774	10640.6
855.096	10646.47
855.419	10570.32
855.741	10550.2
856.063	10498.9
856.385	10495.97
856.708	10420.71
857.03	10419.13
857.352	10437.66
857.674	10373.71
857.996	10352.69
858.318	10309.31
858.64	10312.02
858.961	10247.16
859.283	10204
859.605	10149.31
859.926	10182.08
860.248	10126.26
860.57	10120.16
860.891	10150.67
861.212	10043.32
861.534	10038.8
861.855	10060.72
862.176	10008.75
862.498	9963.1
862.819	10005.58
863.14	9925.81
863.461	9887.85
863.782	9925.81
864.103	9880.16
864.424	9851.92
864.745	9917.9
865.065	9818.92
865.386	9799.49
865.707	9789.77
866.027	9847.17
866.348	9772.82
866.668	9763.78
866.989	9714.52
867.309	9609.21
867.63	9711.58
867.95	9656.89
868.27	9626.16
868.59	9646.72
868.91	9630.45
869.23	9602.21
869.55	9575.09
869.87	9571.7
870.19	9549.33
870.51	9554.75
870.83	9499.61
871.15	9408.54
871.469	9482.43
871.789	9468.42
872.109	9489.67
872.428	9473.62
872.748	9493.73
873.067	9467.52
873.386	9395.88
873.706	9421.87
874.025	9365.38
874.344	9312.27
874.663	9344.58
874.982	9334.19
875.301	9321.08
875.62	9341.87
875.939	9316.56
876.258	9247.19
876.577	9288.99
876.896	9223.68
877.214	9154.08
877.533	9161.76
877.852	9188.2
878.17	9218.94
878.489	9190.24
878.807	9182.1
879.125	9113.18
879.444	9093.74
879.762	9052.39
880.08	9148.66
880.398	9047.42
880.716	9116.12
881.034	9033.86
881.352	9011.71
881.67	8963.35
881.988	8932.17
882.306	8916.12
882.624	8952.05
882.941	8948.44
883.259	8889.46
883.577	8873.86
883.894	8846.52
884.212	8822.34
884.529	8752.51
884.846	8827.54
885.164	8754.77
885.481	8778.95
885.798	8730.36
886.115	8696.69
886.432	8665.73
886.75	8592.74
887.067	8671.16
887.383	8614.66
887.7	8598.16
888.017	8568.79
888.334	8613.08
888.651	8522.23
888.967	8541.67
889.284	8540.54
889.6	8530.82
889.917	8452.18
890.233	8438.62
890.55	8397.04
890.866	8442.01
891.182	8419.86
891.498	8331.28
891.815	8305.29
892.131	8186.65
892.447	8258.51
892.763	8241.56
893.079	8214.22
893.395	8207.44
893.71	8165.41
894.026	8118.4
894.342	8115.46
894.657	8122.7
894.973	8098.06
895.289	8057.39
895.604	8063.04
895.92	7992.08
896.235	7919.54
896.55	7905.3
896.865	7956.37
897.181	7851.29
897.496	7923.83
897.811	7840.44
898.126	7792.54
898.441	7773.1
898.756	7752.76
899.071	7706.44
899.386	7728.13
899.7	7728.13
900.015	7634.57
900.33	7623.73
900.644	7645.19
900.959	7640
901.273	7595.03
901.588	7535.82
901.902	7497.18
902.216	7498.76
902.531	7448.82
902.845	7416.95
903.159	7402.26
903.473	7329.5
903.787	7295.15
904.101	7301.47
904.415	7321.36
904.729	7269.61
905.042	7242.72
905.356	7234.36
905.67	7150.07
905.984	7153.46
906.297	7161.59
906.611	7071.65
906.924	7058.77
907.237	7032.1
907.551	7055.83
907.864	6975.61
908.177	6994.82
908.491	6934.93
908.804	6899.68
909.117	6896.06
909.43	6831.2
909.743	6824.43
910.056	6807.7
910.368	6722.96
910.681	6729.06
910.994	6709.85
911.307	6681.83
911.619	6674.37
911.932	6661.49
912.244	6583.98
912.557	6613.81
912.869	6570.87
913.181	6562.51
913.494	6522.51
913.806	6505.34
914.118	6423.53
914.43	6443.19
914.742	6429.18
915.054	6364.78
915.366	6349.86
915.678	6321.61
915.99	6334.95
916.302	6230.54
916.613	6202.52
916.925	6236.42
917.236	6172.69
917.548	6158.45
917.859	6158.68
918.171	6123.2
918.482	6086.14
918.794	6006.59
919.105	6040.72
919.416	6040.94
919.727	6021.28
920.038	5984.22
920.349	5867.84
920.66	5876.43
920.971	5893.38
921.282	5837.33
921.593	5773.61
921.903	5785.13
922.214	5765.92
922.525	5734.96
922.835	5727.28
923.146	5698.8
923.456	5702.65
923.767	5649.54
924.077	5649.54
924.387	5625.36
924.697	5608.41
925.008	5545.81
925.318	5557.79
925.628	5560.73
925.938	5505.59
926.248	5473.27
926.558	5486.61
926.867	5421.75
927.177	5407.29
927.487	5394.86
927.796	5382.43
928.106	5334.75
928.416	5307.63
928.725	5322.09
929.034	5278.48
929.344	5287.74
929.653	5289.78
929.962	5205.03
930.271	5207.74
930.581	5170.01
930.89	5146.05
931.199	5097.24
931.508	5133.4
931.817	5129.1
932.125	5077.58
932.434	5060.4
932.743	4989.22
933.051	5021.31
933.36	5026.73
933.669	4947.86
933.977	4934.98
934.286	4911.93
934.594	4963.01
934.902	4871.93
935.21	4836.45
935.519	4860.63
935.827	4869.22
936.135	4816.57
936.443	4778.83
936.751	4773.86
937.059	4712.62
937.367	4718.94
937.674	4684.82
937.982	4710.13
938.29	4674.2
938.597	4636.46
938.905	4616.12
939.213	4579.51
939.52	4568.67
939.827	4599.85
940.135	4486.41
940.442	4522.11
940.749	4516.46
941.056	4502
941.363	4430.82
941.67	4479.18
941.977	4424.71
942.284	4447.99
942.591	4402.57
942.898	4365.05
943.205	4384.49
943.511	4304.49
943.818	4290.48
944.125	4247.77
944.431	4252.97
944.738	4250.93
945.044	4232.18
945.35	4245.74
945.657	4204.61
945.963	4199.41
946.269	4149.02
946.575	4174.33
946.881	4144.95
947.187	4095.23
947.493	4093.65
947.799	4102.24
948.105	4049.13
948.41	4031.28
948.716	4050.03
949.022	4002.58
949.327	4030.37
949.633	3996.25
949.938	3986.99
950.244	3944.73
950.549	3970.04
950.854	3912.86
951.16	3903.15
951.465	3892.52
951.77	3864.5
952.075	3867.89
952.38	3804.84
952.685	3839.64
952.99	3795.58
953.294	3821.79
953.599	3783.15
953.904	3712.42
954.209	3737.5
954.513	3736.6
954.818	3721.46
955.122	3674
955.426	3690.5
955.731	3621.12
956.035	3621.12
956.339	3612.53
956.643	3598.3
956.948	3549.03
957.252	3562.36
957.556	3570.5
957.86	3547
958.163	3533.66
958.467	3530.73
958.771	3491.41
959.075	3513.1
959.378	3463.38
959.682	3484.17
959.985	3453.67
960.289	3438.98
960.592	3407.79
960.896	3369.15
961.199	3392.42
961.502	3397.4
961.805	3377.28
962.108	3372.99
962.411	3355.36
962.714	3329.15
963.017	3260.68
963.32	3315.82
963.623	3268.36
963.926	3229.72
964.228	3204.63
964.531	3212.32
964.833	3207.35
965.136	3218.87
965.438	3224.29
965.741	3194.24
966.043	3153.34
966.345	3144.3
966.648	3149.95
966.95	3126.67
967.252	3114.92
967.554	3084.18
967.856	3086.44
968.158	3084.18
968.46	3040.8
968.761	3057.97
969.063	3023.17
969.365	3037.41
969.666	3057.74
969.968	3008.48
970.269	2972.32
970.571	2979.1
970.872	2987.92
971.174	2930.52
971.475	2916.28
971.776	2924.87
972.077	2868.82
972.378	2909.73
972.679	2845.55
972.98	2879.9
973.281	2873.12
973.582	2849.16
973.883	2850.52
974.183	2846.22
974.484	2824.3
974.785	2760.13
975.085	2794.93
975.386	2763.74
975.686	2757.41
975.986	2727.36
976.287	2746.34
976.587	2722.39
976.887	2728.49
977.187	2728.94
977.487	2691.2
977.787	2663.63
978.087	2684.19
978.387	2639.22
978.687	2642.39
978.987	2614.37
979.286	2617.53
979.586	2623.41
979.885	2628.15
980.185	2592.45
980.484	2559
980.784	2556.06
981.083	2535.5
981.382	2544.99
981.682	2558.77
981.981	2528.27
982.28	2517.42
982.579	2514.03
982.878	2483.3
983.177	2482.39
983.475	2470.64
983.774	2470.19
984.073	2463.64
984.372	2453.47
984.67	2437.87
984.969	2434.71
985.267	2415.73
985.566	2401.49
985.864	2394.03
986.162	2371.43
986.461	2388.38
986.759	2359.46
987.057	2333.7
987.355	2304.32
987.653	2297.31
987.951	2333.92
988.249	2290.08
988.547	2316.3
988.844	2272.45
989.142	2261.61
989.44	2269.52
989.737	2265
990.035	2205.56
990.332	2253.47
990.63	2216.18
990.927	2229.97
991.224	2184.55
991.521	2199.24
991.819	2190.42
992.116	2158.79
992.413	2155.85
992.71	2176.64
993.006	2164.43
993.303	2135.28
993.6	2133.93
993.897	2147.71
994.193	2106.81
994.49	2116.75
994.787	2076.53
995.083	2076.3
995.379	2050.54
995.676	2072.69
995.972	2037.66
996.268	2024.55
996.565	2013.03
996.861	2011.44
997.157	2010.77
997.453	1977.77
997.749	1969.86
998.044	1977.09
998.34	1970.32
998.636	1951.56
998.932	1950.65
999.227	1922.86
999.523	1937.77
999.818	1913.37
1000.114	1889.41
1000.409	1897.77
1000.704	1865.69
1001	1871.11
1001.295	1897.1
1001.59	1845.12
1001.885	1865.46
1002.18	1851.45
1002.475	1846.02
1002.77	1836.53
1003.065	1790.21
1003.359	1794.73
1003.654	1777.33
1003.949	1776.2
1004.243	1754.05
1004.538	1770.55
1004.832	1752.47
1005.127	1740.72
1005.421	1730.32
1005.715	1725.58
1006.009	1718.57
1006.304	1702.75
1006.598	1698.01
1006.892	1700.49
1007.186	1683.77
1007.48	1689.19
1007.773	1654.84
1008.067	1657.1
1008.361	1653.49
1008.655	1643.32
1008.948	1624.34
1009.242	1602.64
1009.535	1628.63
1009.829	1587.5
1010.122	1599.93
1010.415	1601.29
1010.708	1602.19
1011.001	1571.91
1011.295	1561.29
1011.588	1555.86
1011.881	1533.94
1012.173	1526.49
1012.466	1535.75
1012.759	1520.38
1013.052	1535.75
1013.344	1471.57
1013.637	1514.06
1013.93	1465.47
1014.222	1471.57
1014.514	1478.8
1014.807	1448.97
1015.099	1444.68
1015.391	1405.81
1015.683	1430.22
1015.976	1432.02
1016.268	1418.01
1016.56	1398.81
1016.851	1380.05
1017.143	1403.55
1017.435	1365.36
1017.727	1375.98
1018.018	1357
1018.31	1354.06
1018.602	1371.24
1018.893	1345.7
1019.185	1320.61
1019.476	1331.24
1019.767	1313.38
1020.058	1303.89
1020.35	1331.24
1020.641	1281.75
1020.932	1298.47
1021.223	1288.75
1021.514	1262.99
1021.804	1246.27
1022.095	1264.35
1022.386	1238.81
1022.677	1208.53
1022.967	1247.17
1023.258	1214.86
1023.548	1205.82
1023.839	1209.43
1024.129	1181.41
1024.419	1194.97
1024.709	1196.32
1025	1218.24
1025.29	1169.21
1025.58	1149.77
1025.87	1135.54
1026.16	1141.41
1026.449	1130.79
1026.739	1126.27
1027.029	1139.38
1027.319	1123.11
1027.608	1141.64
1027.898	1119.72
1028.187	1099.38
1028.477	1082.88
1028.766	1064.12
1029.055	1091.69
1029.344	1095.54
1029.634	1065.71
1029.923	1040.85
1030.212	1020.74
1030.501	1055.31
1030.79	1001.08
1031.078	1018.25
1031.367	1055.99
1031.656	1027.74
1031.945	1031.81
1032.233	1020.96
1032.522	1006.27
1032.81	1005.14
1033.099	1002.21
1033.387	983.22
1033.675	1003.34
1033.963	983.9
1034.251	969.66
1034.54	961.53
1034.828	964.01
1035.116	966.27
1035.403	926.5
1035.691	937.8
1035.979	929.89
1036.267	955.65
1036.554	926.28
1036.842	906.16
1037.129	898.93
1037.417	927.63
1037.704	905.03
1037.992	917.91
1038.279	878.59
1038.566	865.26
1038.853	865.26
1039.14	865.26
