Data from tablewood_dark_bookshelf_FLMS001491_00016.txt Node
Date: Wed Feb 08 14:13:43 GMT 2017
User: dcchb
Spectrometer: FLMS00149
Trigger mode: 0
Integration Time (sec): 2.000000E-2
Scans to average: 10
Electric dark correction enabled: true
Nonlinearity correction enabled: false
Boxcar width: 0
XAxis mode: Wavelengths
Number of Pixels in Spectrum: 2048
>>>>>Begin Spectral Data<<<<<
341.393	-23.42
341.776	-23.42
342.16	-23.42
342.543	-78.11
342.927	-72
343.31	-90.53
343.693	-55.28
344.077	-85.56
344.46	-66.35
344.843	-71.33
345.226	-36.3
345.61	-28.16
345.993	-19.12
346.376	-0.14
346.759	26.07
347.142	50.93
347.525	48.9
347.908	46.41
348.291	72.4
348.674	103.36
349.057	104.71
349.44	145.62
349.823	156.92
350.206	159.63
350.588	189.46
350.971	208.21
351.354	223.58
351.737	230.81
352.119	236.01
352.502	277.37
352.884	274.88
353.267	283.92
353.65	281.89
354.032	291.6
354.414	283.02
354.797	293.64
355.179	304.48
355.562	327.99
355.944	314.2
356.326	315.33
356.709	323.69
357.091	334.99
357.473	324.37
357.855	343.35
358.238	332.28
358.62	333.18
359.002	339.28
359.384	320.98
359.766	346.74
360.148	330.02
360.53	337.25
360.912	336.12
361.294	319.62
361.676	338.38
362.057	308.1
362.439	316.69
362.821	321.66
363.203	346.52
363.584	316.91
363.966	330.47
364.348	334.09
364.729	299.51
365.111	302.9
365.493	308.55
365.874	299.96
366.256	322.79
366.637	320.75
367.019	330.47
367.4	317.59
367.781	309.91
368.163	331.6
368.544	317.82
368.925	327.99
369.306	314.65
369.688	316.23
370.069	321.88
370.45	313.97
370.831	344.48
371.212	296.35
371.593	331.15
371.974	338.15
372.355	316.46
372.736	344.03
373.117	330.02
373.498	303.58
373.879	335.44
374.26	301.32
374.641	306.29
375.021	316.23
375.402	307.87
375.783	349
376.163	344.71
376.544	331.83
376.925	324.6
377.305	333.86
377.686	329.12
378.066	336.35
378.447	349.45
378.827	348.55
379.208	334.54
379.588	363.92
379.968	339.28
380.349	343.8
380.729	352.62
381.109	354.43
381.489	352.39
381.87	363.92
382.25	332.05
382.63	342.67
383.01	362.79
383.39	344.03
383.77	372.96
384.15	370.24
384.53	362.79
384.91	360.53
385.29	369.11
385.67	361.43
386.049	369.11
386.429	339.74
386.809	363.01
387.189	384.03
387.568	370.02
387.948	375.44
388.328	403.69
388.707	386.97
389.087	387.19
389.466	393.75
389.846	369.57
390.225	389.91
390.605	397.36
390.984	396.46
391.363	397.81
391.743	421.32
392.122	410.24
392.501	416.8
392.881	411.83
393.26	428.55
393.639	416.8
394.018	427.87
394.397	411.15
394.776	427.87
395.155	426.29
395.534	421.99
395.913	425.61
396.292	425.38
396.671	428.1
397.05	426.29
397.429	427.87
397.808	435.1
398.186	428.1
398.565	421.54
398.944	435.1
399.323	446.17
399.701	435.33
400.08	462.22
400.458	450.24
400.837	446.85
401.215	447.3
401.594	468.32
401.972	452.28
402.351	438.04
402.729	448.43
403.107	461.09
403.486	459.73
403.864	466.29
404.242	469.9
404.62	490.24
404.999	479.17
405.377	477.36
405.755	493.63
406.133	491.37
406.511	478.49
406.889	501.54
407.267	501.09
407.645	499.28
408.023	507.19
408.401	545.83
408.779	498.38
409.156	538.38
409.534	527.75
409.912	521.43
410.29	530.92
410.667	539.73
411.045	539.05
411.422	552.39
411.8	546.29
412.178	553.29
412.555	535.21
412.933	546.96
413.31	560.97
413.687	577.24
414.065	564.59
414.442	563.01
414.819	576.79
415.197	574.08
415.574	596.23
415.951	601.42
416.328	598.94
416.705	587.87
417.082	588.77
417.46	617.24
417.837	620.41
418.214	608.2
418.591	616.11
418.967	611.59
419.344	624.48
419.721	628.77
420.098	644.14
420.475	654.53
420.852	613.63
421.228	650.46
421.605	640.75
421.982	656.11
422.358	684.59
422.735	684.81
423.111	668.32
423.488	678.71
423.864	681.2
424.241	687.07
424.617	683.68
424.994	690.69
425.37	693.63
425.746	687.07
426.123	716.68
426.499	726.62
426.875	715.55
427.251	748.09
427.627	754.64
428.003	729.78
428.379	767.75
428.756	771.59
429.132	766.62
429.507	755.09
429.883	802.32
430.259	799.84
430.635	796
431.011	806.39
431.387	808.43
431.763	827.41
432.138	830.57
432.514	828.99
432.89	835.54
433.265	868.99
433.641	866.05
434.016	844.81
434.392	882.32
434.767	863.11
435.143	875.77
435.518	889.1
435.894	920.51
436.269	900.85
436.644	917.12
437.02	936.11
437.395	927.97
437.77	955.77
438.145	963.9
438.52	951.47
438.895	993.5
439.271	981.98
439.646	975.65
440.021	1003.45
440.395	989.89
440.77	996.67
441.145	1040.28
441.52	1003.67
441.895	1020.4
442.27	1031.47
442.645	1039.15
443.019	1026.5
443.394	1052.71
443.769	1080.51
444.143	1066.5
444.518	1067.18
444.892	1074.18
445.267	1072.6
445.641	1074.18
446.016	1108.3
446.39	1094.75
446.764	1093.62
447.139	1069.89
447.513	1074.63
447.887	1115.99
448.262	1127.96
448.636	1105.59
449.01	1130.45
449.384	1151.69
449.758	1168.87
450.132	1182.43
450.506	1153.5
450.88	1181.97
451.254	1170.22
451.628	1219.26
452.002	1183.33
452.376	1207.74
452.75	1197.57
453.123	1213.39
453.497	1249.77
453.871	1238.47
454.244	1299.49
454.618	1308.3
454.992	1312.37
455.365	1321.86
455.739	1345.59
456.112	1330.67
456.486	1352.82
456.859	1355.53
457.232	1391.46
457.606	1384.91
457.979	1376.09
458.352	1408.18
458.725	1410.9
459.099	1441.63
459.472	1467.39
459.845	1494.73
460.218	1503.55
460.591	1494.06
460.964	1538.35
461.337	1542.64
461.71	1542.87
462.083	1560.27
462.456	1548.97
462.829	1581.96
463.201	1595.52
463.574	1589.2
463.947	1659.7
464.32	1695.41
464.692	1639.82
465.065	1673.49
465.438	1706.71
465.81	1742.19
466.183	1763.2
466.555	1783.31
466.928	1788.96
467.3	1785.57
467.672	1845.23
468.045	1847.27
468.417	1870.09
468.789	1891.79
469.161	1913.25
469.534	1935.4
469.906	1958.68
470.278	1970.65
470.65	2015.62
471.022	2039.81
471.394	2107.37
471.766	2074.83
472.138	2095.17
472.51	2158.9
472.882	2189.18
473.253	2192.12
473.625	2257.43
473.997	2254.04
474.369	2276.64
474.74	2292
475.112	2315.5
475.484	2377.88
475.855	2416.07
476.227	2397.99
476.598	2488.38
476.97	2482.96
477.341	2583.29
477.713	2590.75
478.084	2600.47
478.455	2656.51
478.827	2687.92
479.198	2739.45
479.569	2762.5
479.94	2875.26
480.311	2851.54
480.682	2935.37
481.053	2979.22
481.424	3048.14
481.795	3074.13
482.166	3063.96
482.537	3116.16
482.908	3167.01
483.279	3217.85
483.65	3266.67
484.021	3315.25
484.391	3361.35
484.762	3395.25
485.133	3432.08
485.503	3470.05
485.874	3533.55
486.244	3554.12
486.615	3655.81
486.985	3658.97
487.356	3679.08
487.726	3769.03
488.097	3857.61
488.467	3829.36
488.837	3928.57
489.207	3925.18
489.578	4030.94
489.948	4047.66
490.318	4138.73
490.688	4123.37
491.058	4180.31
491.428	4230.48
491.798	4306.64
492.168	4378.95
492.538	4352.96
492.908	4396.35
493.278	4454.66
493.648	4494.88
494.017	4507.76
494.387	4556.58
494.757	4636.57
495.126	4660.3
495.496	4683.35
495.866	4738.49
496.235	4763.8
496.605	4759.73
496.974	4837.25
497.344	4861.43
497.713	4872.05
498.082	4923.8
498.452	5044.02
498.821	4998.37
499.19	5046.73
499.559	5094.87
499.928	5077.01
500.298	5175.09
500.667	5161.3
501.036	5159.72
501.405	5288.08
501.774	5222.32
502.143	5318.81
502.512	5338.25
502.88	5338.7
503.249	5411.02
503.618	5419.15
503.987	5508.19
504.356	5491.24
504.724	5511.13
505.093	5571.46
505.462	5570.33
505.83	5623.44
506.199	5678.13
506.567	5777.79
506.936	5763.55
507.304	5840.16
507.672	5847.16
508.041	5879.93
508.409	5910.66
508.777	5964
509.145	5975.75
509.514	6039.47
509.882	6121.73
510.25	6084.67
510.618	6121.73
510.986	6145.91
511.354	6236.53
511.722	6278.11
512.09	6314.72
512.458	6331.67
512.826	6382.29
513.193	6380.26
513.561	6437.2
513.929	6490.76
514.297	6574.6
514.664	6622.96
515.032	6668.16
515.4	6734.37
515.767	6748.83
516.135	6728.04
516.502	6732.34
516.869	6850.53
517.237	6932.56
517.604	6896.85
517.972	6950.18
518.339	7023.4
518.706	7058.66
519.073	7111.31
519.44	7146.79
519.808	7295.49
520.175	7241.02
520.542	7319.67
520.909	7381.13
521.276	7394.47
521.643	7449.83
522.009	7535.48
522.376	7633.56
522.743	7671.52
523.11	7680.79
523.477	7773.89
523.843	7888.69
524.21	7921.23
524.577	8019.76
524.943	8011.4
525.31	8072.64
525.676	8146.54
526.043	8189.7
526.409	8250.94
526.776	8290.71
527.142	8356.93
527.508	8409.58
527.874	8490.03
528.241	8522.12
528.607	8574.77
528.973	8591.95
529.339	8695.9
529.705	8782
530.071	8813.41
530.437	8833.07
530.803	8859.96
531.169	9003.24
531.535	8940.41
531.901	9026.29
532.267	9053.18
532.632	9148.09
532.998	9174.08
533.364	9200.97
533.73	9204.81
534.095	9285.26
534.461	9373.85
534.826	9407.07
535.192	9448.65
535.557	9448.2
535.923	9500.17
536.288	9593.96
536.653	9619.72
537.019	9590.34
537.384	9633.73
537.749	9716.89
538.114	9715.31
538.479	9792.37
538.845	9835.76
539.21	9855.87
539.575	9900.84
539.94	9880.73
540.305	9931.12
540.67	9950.56
541.034	10014.51
541.399	10014.51
541.764	10115.98
542.129	10214.73
542.494	10208.63
542.858	10208.63
543.223	10241.62
543.587	10329.3
543.952	10234.17
544.316	10410.21
544.681	10338.34
545.045	10482.52
545.41	10462.86
545.774	10547.38
546.138	10490.66
546.503	10592.12
546.867	10599.81
547.231	10667.6
547.595	10761.61
547.959	10692.68
548.324	10751.44
548.688	10807.26
549.052	10868.73
549.416	10905.56
549.779	10946.01
550.143	10983.52
550.507	11061.49
550.871	11057.2
551.235	11049.29
551.599	11213.12
551.962	11173.58
552.326	11203.18
552.689	11350.07
553.053	11269.39
553.417	11337.64
553.78	11517.97
554.143	11444.08
554.507	11538.54
554.87	11511.87
555.234	11662.6
555.597	11675.48
555.96	11746.67
556.323	11809.94
556.686	11811.98
557.05	11919.77
557.413	11924.97
557.776	11915.03
558.139	12045.64
558.502	12079.09
558.865	12187.56
559.228	12217.16
559.59	12320.66
559.953	12269.59
560.316	12445.41
560.679	12423.94
561.041	12609.24
561.404	12597.27
561.767	12816.02
562.129	12673.65
562.492	12840.88
562.854	12826.87
563.217	12886.98
563.579	12950.93
563.941	13113.41
564.304	13071.61
564.666	13190.92
565.028	13281.77
565.39	13364.71
565.753	13321.99
566.115	13446.06
566.477	13484.7
566.839	13561.99
567.201	13592.95
567.563	13700.06
567.925	13795.88
568.287	13758.59
568.648	13925.59
569.01	13992.49
569.372	13966.05
569.734	14054.86
570.095	14133.05
570.457	14244.91
570.819	14313.15
571.18	14361.06
571.542	14394.73
571.903	14476.31
572.265	14592.7
572.626	14650.32
572.987	14609.87
573.349	14729.19
573.71	14780.94
574.071	14824.1
574.432	14925.79
574.794	15020.93
575.155	15028.16
575.516	15028.39
575.877	15115.62
576.238	15160.36
576.599	15299.8
576.96	15280.36
577.32	15267.71
577.681	15382.05
578.042	15491.88
578.403	15559.68
578.763	15474.93
579.124	15582.95
579.485	15738.43
579.845	15727.81
580.206	15659.33
580.566	15789.95
580.927	15888.03
581.287	15814.58
581.648	15838.54
582.008	16007.57
582.368	16034.69
582.728	16063.62
583.089	16108.14
583.449	16164.86
583.809	16135.25
584.169	16186.78
584.529	16137.06
584.889	16267.23
585.249	16198.08
585.609	16238.08
585.969	16375.47
586.329	16388.13
586.688	16408.69
587.048	16416.83
587.408	16377.51
587.768	16445.3
588.127	16375.93
588.487	16449.6
588.846	16623.83
589.206	16511.29
589.565	16581.34
589.925	16789.7
590.284	16693.66
590.643	16591.96
591.003	16793.77
591.362	16820.21
591.721	16794.67
592.08	16749.25
592.44	16924.39
592.799	16949.92
593.158	16842.35
593.517	16862.92
593.876	17026.53
594.235	17006.64
594.593	17055
594.952	17110.14
595.311	17024.27
595.67	17100.43
596.029	17292.74
596.387	17210.93
596.746	17337.26
597.104	17270.14
597.463	17214.55
597.822	17387.42
598.18	17339.29
598.538	17262
598.897	17543.35
599.255	17284.38
599.613	17519.17
599.972	17469.46
600.33	17556.69
600.688	17488.44
601.046	17584.48
601.404	17650.92
601.762	17632.16
602.12	17687.76
602.478	17668.09
602.836	17784.25
603.194	17696.12
603.552	17772.27
603.91	17753.06
604.268	17944.7
604.625	17868.32
604.983	17898.6
605.341	17858.37
605.698	17960.97
606.056	18037.8
606.413	18004.81
606.771	18050.01
607.128	18212.04
607.485	18042.32
607.843	18160.06
608.2	18210.68
608.557	18330.68
608.914	18239.61
609.272	18223.79
609.629	18319.38
609.986	18338.59
610.343	18402.99
610.7	18392.37
611.057	18409.09
611.414	18410.45
611.771	18446.83
612.127	18506.94
612.484	18584
612.841	18585.58
613.198	18491.58
613.554	18605.02
613.911	18624.45
614.267	18776.31
614.624	18589.65
614.98	18707.84
615.337	18813.38
615.693	18815.41
616.05	18784.45
616.406	18956.65
616.762	18825.13
617.118	18834.17
617.475	18846.37
617.831	19009.08
618.187	18998.46
618.543	18957.78
618.899	19107.15
619.255	18966.37
619.611	19050.43
619.967	19101.05
620.323	19194.38
620.678	19057.44
621.034	19047.04
621.39	19054.05
621.746	19032.13
622.101	19275.28
622.457	19170.43
622.812	19217.21
623.168	19298.33
623.523	19275.06
623.879	19395.73
624.234	19152.8
624.589	19233.03
624.945	19251.78
625.3	19260.82
625.655	19158.68
626.01	19287.71
626.365	19198.22
626.72	19188.05
627.075	19286.58
627.43	19252.23
627.785	19096.98
628.14	19227.15
628.495	19260.6
628.85	19176.08
629.205	19125.46
629.559	19215.17
629.914	19143.76
630.269	19159.35
630.623	19053.6
630.978	19163.65
631.332	19192.35
631.687	19260.37
632.041	19154.16
632.396	19147.83
632.75	19072.13
633.104	19179.47
633.459	18984.9
633.813	18928.85
634.167	19024.22
634.521	18972.47
634.875	19040.04
635.229	19005.69
635.583	18873.26
635.937	18981.73
636.291	18877.78
636.645	18948.97
636.999	18884.33
637.352	18888.63
637.706	18793.26
638.06	18921.85
638.413	18809.53
638.767	18828.74
639.121	18815.18
639.474	18708.75
639.828	18720.27
640.181	18789.65
640.534	18774.73
640.888	18728.86
641.241	18662.19
641.594	18723.89
641.947	18755.3
642.301	18589.88
642.654	18692.25
643.007	18753.72
643.36	18671.68
643.713	18575.19
644.066	18716.65
644.419	18640.05
644.771	18531.57
645.124	18370.45
645.477	18211.13
645.83	18221.3
646.182	18009.33
646.535	17965.71
646.888	18003.91
647.24	17973.17
647.593	18038.71
647.945	18069.67
648.298	17889.11
648.65	17908.09
649.002	17907.64
649.355	18079.16
649.707	17891.59
650.059	18041.87
650.411	18272.82
650.763	18348.08
651.115	18480.28
651.467	18349.21
651.819	18284.58
652.171	18325.25
652.523	18315.99
652.875	18302.2
653.227	18256.1
653.578	18343.11
653.93	18267.4
654.282	18261.53
654.633	18225.37
654.985	18281.86
655.337	18222.43
655.688	18308.3
656.039	18291.36
656.391	18176.56
656.742	18250.9
657.094	18162.32
657.445	18237.8
657.796	18296.33
658.147	18244.58
658.498	18171.58
658.849	18199.61
659.2	18231.24
659.551	18106.28
659.902	18189.66
660.253	18154.18
660.604	18219.49
660.955	18085.71
661.306	18227.63
661.656	18048.2
662.007	18172.04
662.358	18231.92
662.708	18145.37
663.059	18127.07
663.409	18032.6
663.76	18204.58
664.11	18174.52
664.461	18115.99
664.811	18167.74
665.161	18177.69
665.511	18102.21
665.862	18134.52
666.212	18132.04
666.562	18185.6
666.912	18165.48
667.262	18202.09
667.612	18077.58
667.962	18068.76
668.312	18159.61
668.662	18242.09
669.011	18162.32
669.361	18148.08
669.711	18068.08
670.06	18100.4
670.41	18031.02
670.76	18075.99
671.109	18080.29
671.459	18119.61
671.808	18198.25
672.157	18142.43
672.507	18048.42
672.856	17928.88
673.205	18031.7
673.554	18184.01
673.904	18110.57
674.253	18125.71
674.602	18065.15
674.951	17744.02
675.3	17715.1
675.649	18024.24
675.998	18093.39
676.346	17981.31
676.695	18032.38
677.044	17948.99
677.393	17961.42
677.741	17994.41
678.09	17931.14
678.438	17983.79
678.787	17971.14
679.135	17934.3
679.484	17907.41
679.832	17936.34
680.181	17892.5
680.529	18011.14
680.877	17927.52
681.225	17826.73
681.573	17940.18
681.922	17825.38
682.27	17799.16
682.618	17739.51
682.966	17690.47
683.314	17792.16
683.661	17787.87
684.009	17675.78
684.357	17630.13
684.705	17619.06
685.053	17607.08
685.4	17486.86
685.748	17516.46
686.095	17500.19
686.443	17442.79
686.79	17428.1
687.138	17542
687.485	17502.22
687.832	17378.61
688.18	17374.09
688.527	17325.73
688.874	17352.4
689.221	17313.75
689.568	17209.8
689.915	17189.01
690.262	17278.95
690.609	17130.03
690.956	17119.18
691.303	17125.74
691.65	17084.38
691.997	16968.68
692.344	16928.91
692.69	16974.33
693.037	16874.44
693.383	16803.94
693.73	16909.47
694.077	16830.83
694.423	16752.19
694.769	16815.46
695.116	16619.76
695.462	16679.42
695.808	16665.41
696.155	16654.11
696.501	16515.58
696.847	16615.24
697.193	16336.83
697.539	16487.33
697.885	16352.88
698.231	16319.66
698.577	16411.4
698.923	16324.4
699.269	16311.75
699.614	16189.26
699.96	16096.38
700.306	16174.12
700.651	16151.52
700.997	16123.95
701.342	16052.54
701.688	16055.26
702.033	15920.12
702.379	15975.03
702.724	15924.41
703.069	15867.01
703.415	15777.52
703.76	15828.14
704.105	15814.36
704.45	15815.94
704.795	15668.6
705.14	15631.31
705.485	15578.43
705.83	15585.89
706.175	15591.77
706.52	15500.02
706.865	15414.37
707.209	15446.91
707.554	15510.19
707.899	15512.45
708.243	15372.34
708.588	15383.86
708.932	15291.21
709.277	15232.9
709.621	15324.2
709.966	15135.96
710.31	15233.13
710.654	15122.4
710.998	15130.31
711.342	15144.32
711.687	15082.63
712.031	15057.54
712.375	14945
712.719	15041.72
713.063	15016.64
713.407	15032.68
713.75	15015.74
714.094	14947.94
714.438	14863.87
714.782	14888.28
715.125	14858
715.469	14888.51
715.812	14802.18
716.156	14712.47
716.499	14782.97
716.843	14741.39
717.186	14693.71
717.53	14764.89
717.873	14742.3
718.216	14680.83
718.559	14665.01
718.902	14585.46
719.246	14599.25
719.589	14557.22
719.932	14522.87
720.275	14451.68
720.617	14514.05
720.96	14519.7
721.303	14512.7
721.646	14495.3
721.989	14386.6
722.331	14500.72
722.674	14429.76
723.016	14439.48
723.359	14413.27
723.701	14431.12
724.044	14342.31
724.386	14233.83
724.729	14334.17
725.071	14333.04
725.413	14300.5
725.755	14300.27
726.097	14235.87
726.439	14127.85
726.782	14171.01
727.124	14233.38
727.465	14158.81
727.807	14137.57
728.149	14144.35
728.491	14141.41
728.833	14192.48
729.175	14122.65
729.516	14059.38
729.858	14042.2
730.199	14087.17
730.541	13984.58
730.882	14034.97
731.224	13985.03
731.565	13972.37
731.906	13986.84
732.248	13957.23
732.589	13964.46
732.93	13939.15
733.271	13909.55
733.612	13914.07
733.953	13946.61
734.294	13841.75
734.635	13850.57
734.976	13939.15
735.317	13821.87
735.658	13810.57
735.999	13879.95
736.339	13800.4
736.68	13814.18
737.021	13824.81
737.361	13683.34
737.702	13789.55
738.042	13771.47
738.383	13665.04
738.723	13825.03
739.063	13735.54
739.404	13680.63
739.744	13680.18
740.084	13583.46
740.424	13644.92
740.764	13587.98
741.104	13778.25
741.444	13617.35
741.784	13590.46
742.124	13533.29
742.464	13512.5
742.804	13530.8
743.143	13523.34
743.483	13514.08
743.823	13577.58
744.162	13519.5
744.502	13444.93
744.841	13460.3
745.181	13486.74
745.52	13312.05
745.86	13424.36
746.199	13439.73
746.538	13409.45
746.877	13424.82
747.216	13374.2
747.556	13404.03
747.895	13358.6
748.234	13386.17
748.573	13339.62
748.911	13265.05
749.25	13329.9
749.589	13133.98
749.928	13266.4
750.267	13257.82
750.605	13252.84
750.944	13217.82
751.283	13178.5
751.621	13154.09
751.96	13124.94
752.298	13144.6
752.636	13037.48
752.975	13058.95
753.313	13011.27
753.651	13011.04
753.989	13004.49
754.327	12964.49
754.666	12877.26
755.004	12900.76
755.342	12898.73
755.679	12899.18
756.017	12783.93
756.355	12840.2
756.693	12806.98
757.031	12805.4
757.368	12719.98
757.706	12769.92
758.044	12654.89
758.381	12649.7
758.719	12619.41
759.056	12654.22
759.394	12596.36
759.731	12456.93
760.068	12510.26
760.405	12487.21
760.743	12366.54
761.08	12450.83
761.417	12418.29
761.754	12293.55
762.091	12243.15
762.428	12246.99
762.765	12191.4
763.102	12237.5
763.438	12091.52
763.775	12095.59
764.112	12150.5
764.449	12025.53
764.785	11981.46
765.122	11905.99
765.458	11792.54
765.795	11908.47
766.131	11887.91
766.467	11825.76
766.804	11732.88
767.14	11686.56
767.476	11709.16
767.812	11568.59
768.148	11668.25
768.485	11602.04
768.821	11520.23
769.157	11550.06
769.492	11509.84
769.828	11491.08
770.164	11306.23
770.5	11374.7
770.836	11363.63
771.171	11228.94
771.507	11301.93
771.842	11110.98
772.178	11134.71
772.513	11070.3
772.849	11134.71
773.184	10988.27
773.519	11013.35
773.855	10906.01
774.19	10915.05
774.525	10879.35
774.86	10898.56
775.195	10804.32
775.53	10806.58
775.865	10692.46
776.2	10656.75
776.535	10586.93
776.87	10602.97
777.205	10579.69
777.539	10529.98
777.874	10508.96
778.209	10377.89
778.543	10423.99
778.878	10325.46
779.212	10285.69
779.547	10272.81
779.881	10293.6
780.215	10231.68
780.55	10226.93
780.884	10171.79
781.218	10146.48
781.552	10085.47
781.886	10074.4
782.22	10022.87
782.554	9928.64
782.888	9876.21
783.222	9895.19
783.556	9838.92
783.889	9786.72
784.223	9779.94
784.557	9710.56
784.89	9721.19
785.224	9610.91
785.557	9627.85
785.891	9608.42
786.224	9617.68
786.558	9548.99
786.891	9499.5
787.224	9401.87
787.557	9422.21
787.891	9376.56
788.224	9345.38
788.557	9377.92
788.89	9311.7
789.223	9351.7
789.556	9275.32
789.888	9219.05
790.221	9228.32
790.554	9109
790.887	9102.67
791.219	9056.34
791.552	9067.19
791.884	9024.71
792.217	9010.7
792.549	8904.94
792.882	8894.99
793.214	8867.65
793.546	8863.35
793.879	8775.45
794.211	8735.9
794.543	8778.61
794.875	8706.3
795.207	8743.13
795.539	8673.53
795.871	8589.01
796.203	8595.11
796.535	8560.54
796.867	8527.54
797.198	8506.75
797.53	8536.58
797.862	8459.3
798.193	8426.53
798.525	8396.7
798.856	8411.16
799.188	8283.71
799.519	8320.09
799.85	8210.72
800.182	8255.46
800.513	8263.37
800.844	8125.29
801.175	8224.5
801.506	8158.06
801.837	8175.69
802.168	8088.69
802.499	8024.51
802.83	8042.81
803.161	7983.6
803.491	8016.6
803.822	7997.39
804.153	7980.21
804.483	7844.85
804.814	7873.1
805.145	7903.83
805.475	7862.02
805.805	7834
806.136	7870.16
806.466	7840.56
806.796	7746.77
807.126	7767.56
807.457	7676.27
807.787	7660
808.117	7678.75
808.447	7620.68
808.777	7672.88
809.107	7618.42
809.436	7603.95
809.766	7604.4
810.096	7516.5
810.426	7553.78
810.755	7510.85
811.085	7500
811.414	7471.07
811.744	7460.45
812.073	7423.39
812.403	7386.33
812.732	7348.82
813.061	7349.95
813.39	7264.53
813.719	7284.86
814.049	7276.5
814.378	7282.83
814.707	7270.85
815.036	7222.27
815.365	7198.99
815.693	7173.46
816.022	7161.03
816.351	7128.48
816.68	7094.81
817.008	7078.32
817.337	7004.19
817.665	7022.5
817.994	7057.75
818.322	7036.74
818.651	6975.04
818.979	6996.96
819.307	7034.48
819.636	6947.7
819.964	6925.78
820.292	6983.4
820.62	6944.53
820.948	6897.08
821.276	6942.28
821.604	6906.57
821.932	6923.07
822.259	6950.18
822.587	6982.95
822.915	6860.02
823.243	6894.37
823.57	6889.17
823.898	6934.82
824.225	6899.56
824.553	6898.66
824.88	6917.19
825.207	6871.77
825.535	6882.84
825.862	6935.27
826.189	6860.02
826.516	6870.19
826.843	6899.34
827.17	6889.4
827.497	6889.62
827.824	6846.23
828.151	6912.9
828.478	6849.4
828.805	6868.83
829.131	6841.94
829.458	6849.17
829.785	6803.75
830.111	6829.28
830.438	6894.37
830.764	6881.71
831.09	6815.72
831.417	6779.57
831.743	6785.22
832.069	6828.15
832.395	6830.19
832.722	6798.32
833.048	6802.84
833.374	6782.51
833.7	6818.66
834.026	6780.02
834.351	6797.42
834.677	6808.27
835.003	6767.82
835.329	6767.14
835.654	6777.08
835.98	6741.83
836.306	6712
836.631	6729.4
836.956	6760.36
837.282	6715.16
837.607	6666.8
837.932	6668.84
838.258	6678.55
838.583	6650.53
838.908	6566.24
839.233	6625.45
839.558	6640.59
839.883	6631.1
840.208	6580.93
840.533	6572.12
840.858	6513.13
841.182	6534.6
841.507	6572.34
841.832	6515.39
842.156	6523.98
842.481	6479.69
842.805	6506.81
843.13	6494.83
843.454	6443.08
843.778	6434.72
844.103	6432.23
844.427	6381.61
844.751	6411.67
845.075	6417.54
845.399	6399.69
845.723	6383.42
846.047	6328.28
846.371	6331.67
846.695	6295.74
847.019	6266.13
847.343	6270.2
847.666	6183.42
847.99	6170.09
848.313	6166.7
848.637	6063.65
848.96	6092.35
849.284	6062.75
849.607	6050.77
849.931	6041.28
850.254	5964.67
850.577	5981.17
850.9	5953.37
851.223	5903.66
851.546	5906.6
851.869	5907.5
852.192	5912.7
852.515	5868.63
852.838	5806.49
853.161	5861.17
853.483	5789.31
853.806	5790.44
854.129	5792.47
854.451	5780.95
854.774	5729.65
855.096	5712.48
855.419	5681.07
855.741	5649.88
856.063	5636.32
856.385	5652.14
856.708	5603.1
857.03	5598.81
857.352	5592.93
857.674	5582.99
857.996	5562.42
858.318	5531.01
858.64	5539.15
858.961	5511.8
859.283	5493.95
859.605	5488.08
859.926	5479.71
860.248	5464.57
860.57	5422.77
860.891	5446.27
861.212	5477.23
861.534	5441.3
861.855	5453.05
862.176	5459.6
862.498	5403.56
862.819	5399.72
863.14	5389.32
863.461	5386.38
863.782	5339.15
864.103	5377.8
864.424	5309.1
864.745	5284.47
865.065	5282.21
865.386	5314.07
865.707	5310.91
866.027	5371.92
866.348	5331.7
866.668	5327.63
866.989	5253.51
867.309	5205.15
867.63	5250.12
867.95	5280.62
868.27	5174.41
868.59	5254.41
868.91	5212.83
869.23	5223.68
869.55	5213.51
869.87	5206.05
870.19	5179.16
870.51	5197.46
870.83	5163.56
871.15	5143.9
871.469	5192.04
871.789	5201.53
872.109	5178.71
872.428	5130.57
872.748	5152.04
873.067	5102.32
873.386	5139.61
873.706	5086.28
874.025	5084.47
874.344	5081.76
874.663	5058.93
874.982	5059.61
875.301	5051.03
875.62	5080.18
875.939	5007.18
876.258	5040.18
876.577	5050.8
876.896	4979.61
877.214	5009.22
877.533	4992.04
877.852	5003.12
878.17	5018.94
878.489	5032.95
878.807	4991.82
879.125	5014.42
879.444	5024.81
879.762	4973.51
880.08	4994.98
880.398	4924.02
880.716	4936
881.034	4925.15
881.352	4927.19
881.67	4936.45
881.988	4901.88
882.306	4938.94
882.624	4894.65
882.941	4933.51
883.259	4877.92
883.577	4852.16
883.894	4807.42
884.212	4855.1
884.529	4833.18
884.846	4858.49
885.164	4816.68
885.481	4812.16
885.798	4785.27
886.115	4810.58
886.432	4730.13
886.75	4759.73
887.067	4783.01
887.383	4709.79
887.7	4750.92
888.017	4725.38
888.334	4736.91
888.651	4725.61
888.967	4711.37
889.284	4687.19
889.6	4641.32
889.917	4663.24
890.233	4669.11
890.55	4649.23
890.866	4651.49
891.182	4638.15
891.498	4566.97
891.815	4586.4
892.131	4574.2
892.447	4581.21
892.763	4594.09
893.079	4545.5
893.395	4529.23
893.71	4513.86
894.026	4500.98
894.342	4475.67
894.657	4440.65
894.973	4479.06
895.289	4446.3
895.604	4475.67
895.92	4464.83
896.235	4444.94
896.55	4417.14
896.865	4394.09
897.181	4405.62
897.496	4390.48
897.811	4380.31
898.126	4341.21
898.441	4368.11
898.756	4330.59
899.071	4308.67
899.386	4332.63
899.7	4309.35
900.015	4280.65
900.33	4215.79
900.644	4232.74
900.959	4233.65
901.273	4267.54
901.588	4242.01
901.902	4209.24
902.216	4193.19
902.531	4171.27
902.845	4157.26
903.159	4152.52
903.473	4109.81
903.787	4103.93
904.101	4103.71
904.415	4115
904.729	4084.05
905.042	4023.03
905.356	4018.06
905.67	4021
905.984	4013.76
906.297	3997.72
906.611	3997.49
906.924	3957.27
907.237	3962.92
907.551	3957.95
907.864	3943.71
908.177	3956.14
908.491	3924.05
908.804	3914.78
909.117	3882.92
909.43	3894.67
909.743	3893.99
910.056	3861.9
910.368	3876.37
910.681	3844.73
910.994	3805.41
911.307	3820.1
911.619	3786.88
911.932	3772.64
912.244	3770.38
912.557	3756.82
912.869	3767.22
913.181	3730.38
913.494	3733.09
913.806	3651.74
914.118	3670.27
914.43	3668.69
914.742	3652.64
915.054	3626.88
915.366	3609.26
915.678	3612.87
915.99	3576.71
916.302	3557.28
916.613	3578.07
916.925	3562.48
917.236	3583.27
917.548	3527
917.859	3531.07
918.171	3516.83
918.482	3528.35
918.794	3491.52
919.105	3457.39
919.416	3473.44
919.727	3456.49
920.038	3478.41
920.349	3476.6
920.66	3426.89
920.971	3385.98
921.282	3403.39
921.593	3375.14
921.903	3396.38
922.214	3327
922.525	3373.33
922.835	3372.43
923.146	3318.19
923.456	3342.14
923.767	3285.87
924.077	3274.12
924.387	3287.91
924.697	3301.69
925.008	3267.12
925.318	3229.15
925.628	3221.24
925.938	3246.1
926.248	3205.42
926.558	3211.3
926.867	3179.21
927.177	3189.38
927.487	3110.51
927.796	3167.91
928.106	3164.07
928.416	3129.95
928.725	3138.31
929.034	3111.64
929.344	3127.46
929.653	3114.81
929.962	3044.98
930.271	3033.45
930.581	3042.72
930.89	3040.91
931.199	2983.74
931.508	3019.89
931.817	3010.18
932.125	2994.58
932.434	2939.44
932.743	2943.28
933.051	2952.32
933.36	2929.95
933.669	2940.35
933.977	2924.3
934.286	2940.8
934.594	2944.87
934.902	2888.37
935.21	2910.52
935.519	2896.73
935.827	2845.89
936.135	2855.15
936.443	2872.1
936.751	2811.76
937.059	2774.48
937.367	2817.19
937.674	2822.38
937.982	2817.86
938.29	2777.41
938.597	2784.87
938.905	2745.55
939.213	2774.93
939.52	2749.62
939.827	2786.45
940.135	2737.41
940.442	2738.54
940.749	2693.12
941.056	2688.6
941.363	2689.96
941.67	2691.09
941.977	2641.6
942.284	2648.6
942.591	2635.72
942.898	2644.99
943.205	2636.85
943.511	2594.82
943.818	2596.63
944.125	2590.75
944.431	2579.45
944.738	2586.01
945.044	2570.64
945.35	2599.56
945.657	2562.5
945.963	2515.72
946.269	2530.41
946.575	2557.31
946.881	2530.41
947.187	2489.06
947.493	2507.59
947.799	2467.14
948.105	2475.95
948.41	2471.88
948.716	2456.74
949.022	2453.35
949.327	2438.89
949.633	2423.07
949.938	2437.76
950.244	2428.95
950.549	2411.09
950.854	2364.99
951.16	2360.02
951.465	2362.51
951.77	2327.71
952.075	2373.81
952.38	2341.94
952.685	2362.96
952.99	2345.56
953.294	2348.95
953.599	2335.39
953.904	2306.46
954.209	2296.75
954.513	2318.44
954.818	2301.27
955.122	2280.93
955.426	2296.75
955.731	2240.7
956.035	2247.94
956.339	2263.53
956.643	2245
956.948	2227.14
957.252	2258.1
957.556	2250.2
957.86	2197.54
958.163	2186.69
958.467	2207.48
958.771	2170.88
959.075	2189.41
959.378	2141.27
959.682	2163.64
959.985	2166.81
960.289	2131.33
960.592	2153.7
960.896	2155.51
961.199	2094.49
961.502	2110.76
961.805	2065.79
962.108	2089.3
962.411	2100.59
962.714	2061.27
963.017	2070.09
963.32	2074.61
963.623	2074.38
963.926	2049.52
964.228	2026.7
964.531	2037.55
964.833	2026.92
965.136	2028.05
965.438	2017.43
965.741	2023.76
966.043	2009.52
966.345	2022.4
966.648	2032.8
966.95	1942.41
967.252	1977.21
967.554	1953.25
967.856	2006.81
968.158	1956.87
968.46	1957.1
968.761	1913.25
969.063	1923.65
969.365	1949.64
969.666	1907.83
969.968	1937.66
970.269	1914.38
970.571	1885.23
970.872	1889.98
971.174	1866.7
971.475	1865.12
971.776	1850.21
972.077	1849.08
972.378	1853.37
972.679	1879.13
972.98	1872.8
973.281	1828.96
973.582	1842.75
973.883	1849.75
974.183	1825.8
974.484	1804.33
974.785	1816.76
975.085	1798.46
975.386	1802.3
975.686	1804.78
975.986	1779.92
976.287	1769.76
976.587	1785.57
976.887	1768.85
977.187	1770.66
977.487	1764.56
977.787	1728.4
978.087	1733.82
978.387	1761.62
978.687	1725.92
978.987	1727.27
979.286	1697.89
979.586	1699.93
979.885	1681.62
980.185	1700.83
980.484	1678.01
980.784	1687.95
981.083	1657.67
981.382	1656.76
981.682	1622.64
981.981	1661.06
982.28	1619.48
982.579	1615.64
982.878	1635.97
983.177	1618.12
983.475	1625.8
983.774	1608.86
984.073	1591.91
984.372	1603.66
984.67	1597.33
984.969	1596.88
985.267	1578.8
985.566	1592.36
985.864	1593.94
986.162	1537.22
986.461	1574.96
986.759	1536.77
987.057	1536.77
987.355	1524.34
987.653	1541.29
987.951	1525.69
988.249	1491.12
988.547	1512.36
988.844	1517.33
989.142	1487.5
989.44	1503.77
989.737	1505.81
990.035	1488.41
990.332	1487.73
990.63	1474.17
990.927	1492.25
991.224	1477.56
991.521	1458.8
991.819	1400.05
992.116	1452.93
992.413	1429.65
992.71	1424
993.006	1432.36
993.303	1418.35
993.6	1438.01
993.897	1419.93
994.193	1420.84
994.49	1407.05
994.787	1424.68
995.083	1375.19
995.379	1393.95
995.676	1392.82
995.972	1385.59
996.268	1365.02
996.565	1375.19
996.861	1356.89
997.157	1377
997.453	1334.29
997.749	1333.38
998.044	1358.47
998.34	1335.87
998.636	1309.88
998.932	1321.63
999.227	1305.14
999.523	1299.03
999.818	1297.45
1000.114	1310.56
1000.409	1303.1
1000.704	1277.79
1001	1260.16
1001.295	1308.07
1001.59	1283.89
1001.885	1253.61
1002.18	1272.82
1002.475	1259.94
1002.77	1254.97
1003.065	1241.41
1003.359	1238.47
1003.654	1216.32
1003.949	1221.75
1004.243	1240.5
1004.538	1187.62
1004.832	1200.51
1005.127	1194.4
1005.421	1207.74
1005.715	1206.61
1006.009	1177.68
1006.304	1159.83
1006.598	1174.07
1006.892	1146.5
1007.186	1162.09
1007.48	1166.61
1007.773	1155.08
1008.067	1113.28
1008.361	1141.75
1008.655	1126.16
1008.948	1145.14
1009.242	1114.86
1009.535	1134.52
1009.829	1106.95
1010.122	1078.93
1010.415	1101.98
1010.708	1115.54
1011.001	1106.5
1011.295	1052.94
1011.588	1090.45
1011.881	1057.23
1012.173	1069.44
1012.466	1083.22
1012.759	1069.66
1013.052	1043.9
1013.344	1039.83
1013.637	1043.45
1013.93	1031.47
1014.222	1035.31
1014.514	1035.31
1014.807	1040.28
1015.099	1009.55
1015.391	1014.75
1015.683	983.56
1015.976	1010.68
1016.268	990.34
1016.56	1000.74
1016.851	1000.96
1017.143	978.36
1017.435	981.08
1017.727	950.12
1018.018	968.19
1018.31	963.9
1018.602	978.59
1018.893	964.35
1019.185	954.18
1019.476	956.9
1019.767	950.34
1020.058	916.9
1020.35	915.31
1020.641	917.35
1020.932	909.21
1021.223	926.16
1021.514	912.38
1021.804	885.03
1022.095	924.35
1022.386	897.24
1022.677	895.65
1022.967	883
1023.258	870.57
1023.548	861.53
1023.839	881.87
1024.129	840.74
1024.419	852.94
1024.709	865.37
1025	840.51
1025.29	846.62
1025.58	847.07
1025.87	848.65
1026.16	820.63
1026.449	810.01
1026.739	823.34
1027.029	816.56
1027.319	831.02
1027.608	793.96
1027.898	786.73
1028.187	802.78
1028.477	795.32
1028.766	793.28
1029.055	786.05
1029.344	796.9
1029.634	805.26
1029.923	781.53
1030.212	778.37
1030.501	760.06
1030.79	763.23
1031.078	755.32
1031.367	744.47
1031.656	740.18
1031.945	734.98
1032.233	764.13
1032.522	738.14
1032.81	766.39
1033.099	741.08
1033.387	749.22
1033.675	720.07
1033.963	723.91
1034.251	720.29
1034.54	682.55
1034.828	724.36
1035.116	694.76
1035.403	733.85
1035.691	708.77
1035.979	707.41
1036.267	688.65
1036.554	696.34
1036.842	673.74
1037.129	674.87
1037.417	670.58
1037.704	697.92
1037.992	687.3
1038.279	680.52
1038.566	659.95
1038.853	659.95
1039.14	659.95
