Data from tablewood_brown_FLMS001491_081.txt Node
Date: Tue Feb 07 11:11:07 GMT 2017
User: dcchb
Spectrometer: FLMS00149
Trigger mode: 0
Integration Time (sec): 2.000000E-2
Scans to average: 10
Electric dark correction enabled: true
Nonlinearity correction enabled: false
Boxcar width: 0
XAxis mode: Wavelengths
Number of Pixels in Spectrum: 2048
>>>>>Begin Spectral Data<<<<<
341.393	-4.62
341.776	-4.62
342.16	-4.62
342.543	-68.35
342.927	-76.48
343.31	-88.01
343.693	-61.79
344.077	-80.55
344.46	-58.85
344.843	-44.84
345.226	-27.44
345.61	-36.48
345.993	-42.58
346.376	-4.39
346.759	25.21
347.142	12.78
347.525	50.97
347.908	64.31
348.291	78.54
348.674	102.27
349.057	110.86
349.44	130.29
349.823	146.56
350.206	177.3
350.588	206.45
350.971	218.88
351.354	230.86
351.737	249.61
352.119	235.83
352.502	259.1
352.884	288.71
353.267	275.6
353.65	291.87
354.032	301.81
354.414	316.95
354.797	312.89
355.179	314.02
355.562	332.55
355.944	342.49
356.326	327.58
356.709	354.69
357.091	342.94
357.473	339.1
357.855	344.75
358.238	350.4
358.62	373.9
359.002	351.08
359.384	360.8
359.766	360.57
360.148	360.57
360.53	349.27
360.912	346.11
361.294	342.04
361.676	335.49
362.057	341.14
362.439	329.61
362.821	339.33
363.203	331.19
363.584	353.56
363.966	338.42
364.348	345.65
364.729	327.35
365.111	307.01
365.493	337.29
365.874	338.88
366.256	334.58
366.637	330.29
367.019	335.03
367.4	343.62
367.781	328.71
368.163	333.9
368.544	336.84
368.925	326.22
369.306	309.27
369.688	325.09
370.069	330.74
370.45	320.57
370.831	347.46
371.212	338.42
371.593	323.28
371.974	336.39
372.355	344.52
372.736	327.35
373.117	356.73
373.498	336.62
373.879	314.47
374.26	336.62
374.641	340.91
375.021	321.25
375.402	361.02
375.783	350.85
376.163	333.9
376.544	339.33
376.925	351.3
377.305	341.14
377.686	346.56
378.066	351.3
378.447	370.29
378.827	343.17
379.208	368.7
379.588	372.09
379.968	345.88
380.349	369.16
380.729	376.39
381.109	379.78
381.489	377.52
381.87	367.35
382.25	376.84
382.63	370.51
383.01	361.47
383.39	383.85
383.77	380.23
384.15	362.15
384.53	388.37
384.91	373.9
385.29	380.23
385.67	379.33
386.049	398.76
386.429	391.98
386.809	384.98
387.189	385.43
387.568	379.55
387.948	400.12
388.328	401.02
388.707	396.95
389.087	399.44
389.466	411.42
389.846	408.93
390.225	417.74
390.605	419.33
390.984	413.9
391.363	410.51
391.743	442.38
392.122	427.01
392.501	437.4
392.881	441.25
393.26	436.27
393.639	444.86
394.018	439.44
394.397	451.19
394.776	480.11
395.155	442.38
395.534	447.8
395.913	443.73
396.292	467.23
396.671	462.71
397.05	471.75
397.429	460
397.808	491.41
398.186	479.89
398.565	457.74
398.944	486.22
399.323	483.28
399.701	473.34
400.08	498.65
400.458	477.4
400.837	515.14
401.215	511.07
401.594	505.65
401.972	512.43
402.351	530.28
402.729	532.54
403.107	507.68
403.486	544.52
403.864	525.99
404.242	537.29
404.62	536.61
404.999	532.54
405.377	543.39
405.755	534.8
406.133	544.52
406.511	567.8
406.889	573.22
407.267	566.21
407.645	568.93
408.023	572.54
408.401	609.15
408.779	588.59
409.156	605.53
409.534	619.55
409.912	591.98
410.29	632.88
410.667	622.26
411.045	631.3
411.422	643.5
411.8	637.17
412.178	649.38
412.555	624.97
412.933	649.38
413.31	664.74
413.687	680.56
414.065	656.83
414.442	694.57
414.819	689.83
415.197	703.39
415.574	685.76
415.951	713.55
416.328	726.21
416.705	699.77
417.082	689.15
417.46	696.61
417.837	721.01
418.214	754.68
418.591	724.85
418.967	728.7
419.344	743.61
419.721	761.01
420.098	738.19
420.475	763.5
420.852	749.94
421.228	764.85
421.605	750.39
421.982	759.43
422.358	802.14
422.735	791.07
423.111	775.47
423.488	819.54
423.864	801.69
424.241	803.04
424.617	801.24
424.994	831.29
425.37	835.36
425.746	845.98
426.123	845.75
426.499	844.85
426.875	859.09
427.251	865.64
427.627	881.69
428.003	898.63
428.379	924.4
428.756	875.58
429.132	903.38
429.507	929.82
429.883	929.82
430.259	936.15
430.635	935.47
431.011	938.41
431.387	982.47
431.763	991.06
432.138	987.9
432.514	1003.94
432.89	1031.74
433.265	1022.7
433.641	1058.4
434.016	1051.85
434.392	1052.3
434.767	1056.37
435.143	1066.31
435.518	1098.86
435.894	1101.79
436.269	1127.56
436.644	1126.88
437.02	1145.63
437.395	1114.9
437.77	1167.55
438.145	1168.01
438.52	1176.37
438.895	1197.61
439.271	1205.97
439.646	1231.06
440.021	1240.32
440.395	1232.86
440.77	1246.42
441.145	1249.36
441.52	1257.95
441.895	1286.65
442.27	1239.19
442.645	1281.68
443.019	1283.94
443.394	1321.67
443.769	1313.99
444.143	1289.36
444.518	1322.35
444.892	1330.26
445.267	1338.85
445.641	1342.92
446.016	1378.62
446.39	1352.63
446.764	1375.91
447.139	1378.4
447.513	1394.44
447.887	1374.55
448.262	1384.72
448.636	1408.23
449.01	1430.15
449.384	1448.68
449.758	1448
450.132	1464.95
450.506	1452.97
450.88	1490.94
451.254	1446.42
451.628	1502.69
452.002	1507.21
452.376	1503.36
452.75	1511.27
453.123	1543.59
453.497	1553.31
453.871	1582.23
454.244	1611.38
454.618	1640.99
454.992	1617.26
455.365	1625.17
455.739	1678.95
456.112	1691.83
456.486	1699.07
456.859	1720.53
457.232	1737.48
457.606	1742.68
457.979	1774.09
458.352	1798.5
458.725	1841.21
459.099	1801.66
459.472	1873.98
459.845	1887.08
460.218	1896.57
460.591	1927.31
460.964	1936.8
461.337	1945.61
461.71	1995.78
462.083	2019.51
462.456	2041.2
462.829	2052.05
463.201	2093.86
463.574	2085.27
463.947	2125.72
464.32	2173.63
464.692	2190.58
465.065	2222.89
465.438	2217.02
465.81	2264.25
466.183	2301.31
466.555	2344.92
466.928	2353.51
467.3	2325.04
467.672	2388.31
468.045	2422.89
468.417	2431.25
468.789	2497.69
469.161	2555.54
469.534	2547.18
469.906	2642.09
470.278	2667.63
470.65	2694.52
471.022	2737
471.394	2775.42
471.766	2827.4
472.138	2842.09
472.51	2912.37
472.882	3012.48
473.253	3069.42
473.625	3079.82
473.997	3105.13
474.369	3165.47
474.74	3217.67
475.112	3274.39
475.484	3368.4
475.855	3411.56
476.227	3449.75
476.598	3555.74
476.97	3577.89
477.341	3691.1
477.713	3726.36
478.084	3780.14
478.455	3901.95
478.827	3933.58
479.198	4059.68
479.569	4092.9
479.94	4190.3
480.311	4231.65
480.682	4327.24
481.053	4431.87
481.424	4517.97
481.795	4567.92
482.166	4685.65
482.537	4752.32
482.908	4841.13
483.279	4924.52
483.65	5040.45
484.021	5105.98
484.391	5149.82
484.762	5178.52
485.133	5246.99
485.503	5376.26
485.874	5498.51
486.244	5560.43
486.615	5611.5
486.985	5701.9
487.356	5846.08
487.726	5909.35
488.097	5963.81
488.467	6100.08
488.837	6188.21
489.207	6242.9
489.578	6337.81
489.948	6439.05
490.318	6483.8
490.688	6526.74
491.058	6652.83
491.428	6707.97
491.798	6788.42
492.168	6986.61
492.538	6996.78
492.908	7085.82
493.278	7169.2
493.648	7159.71
494.017	7287.17
494.387	7365.13
494.757	7462.76
495.126	7504.11
495.496	7572.81
495.866	7646.03
496.235	7719.92
496.605	7780.71
496.974	7892.35
497.344	7886.25
497.713	7973.25
498.082	8036.98
498.452	8030.2
498.821	8116.98
499.19	8169.4
499.559	8276.52
499.928	8322.62
500.298	8412.34
500.667	8512.45
501.036	8545.44
501.405	8593.8
501.774	8606.23
502.143	8615.72
502.512	8664.53
502.88	8775.72
503.249	8793.57
503.618	8932.1
503.987	8997.63
504.356	9019.78
504.724	9103.62
505.093	9197.17
505.462	9229.71
505.83	9324.18
506.199	9394.68
506.567	9436.04
506.936	9490.95
507.304	9608.91
507.672	9664.51
508.041	9815.46
508.409	9812.52
508.777	9875.57
509.145	9960.09
509.514	9925.06
509.882	10031.73
510.25	10163.7
510.618	10241.89
510.986	10261.1
511.354	10399.18
511.722	10491.6
512.09	10592.39
512.458	10586.29
512.826	10693.41
513.193	10738.15
513.561	10854.3
513.929	10947.64
514.297	11016.33
514.664	11138.59
515.032	11087.29
515.4	11264.01
515.767	11281.41
516.135	11442.99
516.502	11396.21
516.869	11636.43
517.237	11594.4
517.604	11644.57
517.972	11821.96
518.339	11845.47
518.706	11992.58
519.073	12066.48
519.44	12164.78
519.808	12321.39
520.175	12324.77
520.542	12473.47
520.909	12621.04
521.276	12530.65
521.643	12703.97
522.009	12792.33
522.376	13007.02
522.743	13034.36
523.11	13121.59
523.477	13320.45
523.843	13380.57
524.21	13583.05
524.577	13600.9
524.943	13784.85
525.31	13720.9
525.676	13957.05
526.043	14041.57
526.409	14123.82
526.776	14274.1
527.142	14306.64
527.508	14485.4
527.874	14526.52
528.241	14619.18
528.607	14690.81
528.973	14875.67
529.339	14874.99
529.705	15026.17
530.071	15161.76
530.437	15252.61
530.803	15304.58
531.169	15451.25
531.535	15501.41
531.901	15557.23
532.267	15524.24
532.632	15646.95
532.998	15743.22
533.364	15817.11
533.73	15902.53
534.095	16034.96
534.461	16006.26
534.826	16190.66
535.192	16223.66
535.557	16381.17
535.923	16311.34
536.288	16399.92
536.653	16583.87
537.019	16511.56
537.384	16528.51
537.749	16744.55
538.114	16739.12
538.479	16819.8
538.845	16930.76
539.21	16851.89
539.575	17076.97
539.94	17098.43
540.305	17180.01
540.67	17161.71
541.034	17195.83
541.399	17354.7
541.764	17303.4
542.129	17446.22
542.494	17464.3
542.858	17610.74
543.223	17626.56
543.587	17676.27
543.952	17838.3
544.316	17864.52
544.681	17840.34
545.045	17966.66
545.41	17990.84
545.774	18050.5
546.138	18090.27
546.503	18256.14
546.867	18137.5
547.231	18374.56
547.595	18357.16
547.959	18469.25
548.324	18524.39
548.688	18575.68
549.052	18544.05
549.416	18685.06
549.779	18738.84
550.143	18861.1
550.507	18986.97
550.871	19052.28
551.235	19090.7
551.599	19267.87
551.962	19391.93
552.326	19390.13
552.689	19577.92
553.053	19496.56
553.417	19579.05
553.78	19803
554.143	19748.99
554.507	19948.53
554.87	20125.02
555.234	20294.28
555.597	20224
555.96	20431.68
556.323	20515.97
556.686	20564.33
557.05	20729.75
557.413	20909.18
557.776	20909.86
558.139	21235.05
558.502	21252
558.865	21390.53
559.228	21639.78
559.59	21626.9
559.953	21729.05
560.316	22105.08
560.679	22087.23
561.041	22232.54
561.404	22445.19
561.767	22639.53
562.129	22595.92
562.492	22822.8
562.854	22979.64
563.217	22994.1
563.579	23155
563.941	23315.9
564.304	23532.39
564.666	23637.02
565.028	23868.65
565.39	23906.84
565.753	24163.79
566.115	24266.61
566.477	24483.33
566.839	24685.81
567.201	24904.11
567.563	24923.09
567.925	25104.1
568.287	25310.42
568.648	25467.71
569.01	25683.52
569.372	25784.53
569.734	25830.86
570.095	26129.61
570.457	26276.72
570.819	26451.63
571.18	26596.04
571.542	26818.41
571.903	27022.69
572.265	27090.04
572.626	27240.77
572.987	27344.49
573.349	27535.45
573.71	27768.66
574.071	27945.38
574.432	28092.27
574.794	28351.92
575.155	28445.25
575.516	28318.03
575.877	28637.79
576.238	28773.16
576.599	28959.37
576.96	29117.55
577.32	29128.4
577.681	29385.8
578.042	29456.53
578.403	29574.49
578.763	29818.33
579.124	29828.5
579.485	30092.22
579.845	30162.72
580.206	30059
580.566	30292.44
580.927	30345.09
581.287	30524.3
581.648	30426.9
582.008	30903.95
582.368	30624.41
582.728	30939.2
583.089	30871.63
583.449	30922.03
583.809	30995.24
584.169	31219.42
584.529	31079.99
584.889	31471.62
585.249	31335.35
585.609	31331.51
585.969	31555.46
586.329	31517.04
586.688	31428
587.048	31534.21
587.408	31613.99
587.768	31635.45
588.127	31699.63
588.487	31573.53
588.846	31943.92
589.206	31753.64
589.565	31700.31
589.925	31892.4
590.284	31880.19
590.643	32081.32
591.003	32030.25
591.362	32174.42
591.721	32194.99
592.08	32138.27
592.44	32280.63
592.799	32210.35
593.158	32236.79
593.517	32194.76
593.876	32431.14
594.235	32288.54
594.593	32374.64
594.952	32415.09
595.311	32343.01
595.67	32409.67
596.029	32763.11
596.387	32622.32
596.746	32700.96
597.104	32597.46
597.463	32559.5
597.822	32695.76
598.18	32624.81
598.538	32612.15
598.897	32850.34
599.255	32676.78
599.613	32935.98
599.972	32815.99
600.33	32870.68
600.688	32699.38
601.046	33016.21
601.404	33076.77
601.762	33066.15
602.12	33052.59
602.478	33140.5
602.836	33114.51
603.194	32982.99
603.552	33246.03
603.91	33020.73
604.268	33204.68
604.625	33127.17
604.983	33286.26
605.341	32995.87
605.698	33354.96
606.056	33366.26
606.413	33203.55
606.771	33384.11
607.128	33322.64
607.485	33268.18
607.843	33295.97
608.2	33440.6
608.557	33636.08
608.914	33583.42
609.272	33705
609.629	33728.28
609.986	33890.54
610.343	33688.28
610.7	34019.12
611.057	33710.43
611.414	33690.31
611.771	33844.43
612.127	33976.41
612.484	33959.91
612.841	34083.07
613.198	34007.82
613.554	34013.7
613.911	34272.22
614.267	34165.33
614.624	34201.04
614.98	34129.63
615.337	34379.79
615.693	34254.59
616.05	34309.73
616.406	34485.1
616.762	34372.56
617.118	34424.08
617.475	34362.61
617.831	34478.99
618.187	34632.89
618.543	34618.65
618.899	34699.1
619.255	34651.65
619.611	34578.88
619.967	34681.48
620.323	34791.75
620.678	34777.52
621.034	34619.1
621.39	34664.53
621.746	34661.14
622.101	35030.84
622.457	34744.75
622.812	34677.86
623.168	34844.63
623.523	34888.02
623.879	35069.26
624.234	34753.11
624.589	34844.41
624.945	34903.62
625.3	34953.78
625.655	34948.59
626.01	34915.82
626.365	35052.54
626.72	34841.7
627.075	34982.03
627.43	34844.41
627.785	34774.35
628.14	34808.25
628.495	34930.51
628.85	34867.91
629.205	34608.71
629.559	34925.08
629.914	34748.14
630.269	34808.03
630.623	34663.17
630.978	34566
631.332	34782.49
631.687	34689.38
632.041	34659.33
632.396	34793.56
632.75	34497.98
633.104	34598.99
633.459	34455.49
633.813	34474.7
634.167	34392.67
634.521	34333.46
634.875	34368.26
635.229	34493.46
635.583	34251.88
635.937	34197.87
636.291	34404.42
636.645	34210.75
636.999	34029.29
637.352	34323.29
637.706	34060.25
638.06	34260.47
638.413	34091.66
638.767	34073.81
639.121	34097.54
639.474	33841.05
639.828	33748.17
640.181	33788.39
640.534	33883.3
640.888	33771.67
641.241	33629.98
641.594	33666.36
641.947	33746.36
642.301	33724.89
642.654	33709.75
643.007	33627.72
643.36	33712.46
643.713	33661.16
644.066	33642.63
644.419	33507.49
644.771	33394.05
645.124	33217.11
645.477	32966.94
645.83	32951.8
646.182	32663.9
646.535	32577.8
646.888	32566.73
647.24	32431.59
647.593	32644.92
647.945	32446.28
648.298	32427.98
648.65	32253.29
649.002	32271.59
649.355	32491.93
649.707	32357.24
650.059	32652.83
650.411	32844.91
650.763	32940.96
651.115	33307.05
651.467	33148.86
651.819	33107.51
652.171	33114.96
652.523	33183.89
652.875	33044
653.227	32895.53
653.578	33019.6
653.93	33185.24
654.282	32786.16
654.633	32921.3
654.985	32958.36
655.337	32908.41
655.688	33022.31
656.039	33110.22
656.391	32841.98
656.742	32909.77
657.094	32939.6
657.445	33086.71
657.796	32846.95
658.147	32944.8
658.498	32867.74
658.849	32947.74
659.2	32884.91
659.551	32690.12
659.902	32827.29
660.253	32847.85
660.604	32826.61
660.955	32742.99
661.306	32881.3
661.656	32750.68
662.007	32833.61
662.358	32784.12
662.708	32770.34
663.059	32732.6
663.409	32528.76
663.76	32721.07
664.11	32797
664.461	32804.69
664.811	32755.65
665.161	32761.98
665.511	32696.67
665.862	32761.53
666.212	32886.27
666.562	32732.37
666.912	32762.43
667.262	32844.91
667.612	32683.34
667.962	32715.2
668.312	32752.26
668.662	32794.07
669.011	32623.45
669.361	32634.75
669.711	32644.92
670.06	32504.58
670.41	32618.7
670.76	32557.69
671.109	32560.17
671.459	32487.86
671.808	32514.75
672.157	32539.61
672.507	32326.28
672.856	32446.05
673.205	32449.44
673.554	32490.57
673.904	32284.48
674.253	32510.91
674.602	32449.44
674.951	31992.73
675.3	31718.39
675.649	32341.65
675.998	32293.06
676.346	32381.65
676.695	32415.55
677.044	32095.1
677.393	32198.6
677.741	32224.36
678.09	32151.37
678.438	31877.71
678.787	32069.34
679.135	31972.39
679.484	31876.8
679.832	31930.36
680.181	31689.92
680.529	31784.6
680.877	31753.64
681.225	31740.54
681.573	31823.25
681.922	31691.95
682.27	31455.57
682.618	31558.85
682.966	31513.65
683.314	31485.63
683.661	31470.71
684.009	31286.31
684.357	31125.41
684.705	31112.98
685.053	31310.04
685.4	31184.39
685.748	31087.9
686.095	31068.24
686.443	30745.99
686.79	30716.16
687.138	30835.93
687.485	30714.57
687.832	30642.03
688.18	30666.89
688.527	30501.47
688.874	30467.57
689.221	30363.4
689.568	30214.7
689.915	30126.11
690.262	30281.36
690.609	30072.78
690.956	30007.7
691.303	30016.96
691.65	29940.13
691.997	29864.2
692.344	29625.79
692.69	29529.07
693.037	29487.49
693.383	29441.84
693.73	29506.24
694.077	29348.06
694.423	29211.34
694.769	29104.9
695.116	29123.2
695.462	29151
695.808	28886.15
696.155	28916.2
696.501	28754.17
696.847	28680.28
697.193	28419.94
697.539	28567.29
697.885	28383.79
698.231	28312.6
698.577	28261.98
698.923	28127.3
699.269	28097.24
699.614	27910.58
699.96	27905.16
700.306	27809.34
700.651	27586.52
700.997	27729.12
701.342	27546.3
701.688	27430.59
702.033	27459.29
702.379	27342.69
702.724	27262.91
703.069	27211.84
703.415	27045.29
703.76	26956.71
704.105	26961.23
704.45	26901.34
704.795	26672.87
705.14	26480.11
705.485	26511.97
705.83	26370.28
706.175	26451.63
706.52	26410.51
706.865	26268.14
707.209	26270.4
707.554	26231.53
707.899	26144.07
708.243	25987.69
708.588	26036.73
708.932	25852.55
709.277	25804.65
709.621	25904.53
709.966	25587.02
710.31	25749.96
710.654	25512.9
710.998	25568.72
711.342	25574.82
711.687	25406.24
712.031	25341.61
712.375	25168.73
712.719	25300.48
713.063	25204.21
713.407	25301.83
713.75	25134.38
714.094	25077.66
714.438	25089.18
714.782	24971.67
715.125	24844.67
715.469	24957.44
715.812	24855.74
716.156	24685.58
716.499	24775.97
716.843	24822.53
717.186	24649.2
717.53	24684
717.873	24640.38
718.216	24538.46
718.559	24490.56
718.902	24444.91
719.246	24454.63
719.589	24410.11
719.932	24313.84
720.275	24279.71
720.617	24205.14
720.96	24333.27
721.303	24172.37
721.646	24300.96
721.989	24168.76
722.331	24197.46
722.674	24037.24
723.016	24109.55
723.359	24111.81
723.701	24146.38
724.044	24048.99
724.386	23936.9
724.729	23971.7
725.071	23987.52
725.413	23933.06
725.755	23960.18
726.097	23786.17
726.439	23733.51
726.782	23792.72
727.124	23911.36
727.465	23755.43
727.807	23725.6
728.149	23689.22
728.491	23648.32
728.833	23745.72
729.175	23640.18
729.516	23590.92
729.858	23686.06
730.199	23631.37
730.541	23597.7
730.882	23541.88
731.224	23682.89
731.565	23523.58
731.906	23532.16
732.248	23457.82
732.589	23369
732.93	23317.25
733.271	23416.69
733.612	23538.27
733.953	23551.82
734.294	23474.99
734.635	23405.61
734.976	23377.82
735.317	23404.03
735.658	23443.35
735.999	23401.55
736.339	23381.89
736.68	23570.81
737.021	23337.82
737.361	23368.1
737.702	23453.3
738.042	23387.99
738.383	23332.39
738.723	23343.24
739.063	23342.34
739.404	23407.65
739.744	23218.05
740.084	23238.39
740.424	23314.09
740.764	23219.86
741.104	23351.15
741.444	23218.5
741.784	23115
742.124	23232.28
742.464	23203.58
742.804	23344.15
743.143	23108.9
743.483	23150.03
743.823	23107.77
744.162	23182.79
744.502	23081.1
744.841	23098.5
745.181	23166.52
745.52	23090.59
745.86	23112.29
746.199	23108.45
746.538	23126.3
746.877	23113.42
747.216	23062.12
747.556	23190.03
747.895	23099.63
748.234	23135.34
748.573	22969.24
748.911	23052.4
749.25	23125.85
749.589	22962.69
749.928	22959.98
750.267	23056.24
750.605	22989.35
750.944	22913.2
751.283	22992.97
751.621	22995.91
751.96	22798.85
752.298	22792.52
752.636	22831.17
752.975	22795.91
753.313	22709.81
753.651	22865.29
753.989	22677.5
754.327	22729.25
754.666	22590.49
755.004	22719.53
755.342	22574.67
755.679	22684.73
756.017	22505.98
756.355	22504.17
756.693	22458.29
757.031	22510.5
757.368	22431.85
757.706	22417.62
758.044	22304.63
758.381	22299.88
758.719	22273.89
759.056	22303.95
759.394	22182.59
759.731	21971.3
760.068	22044.52
760.405	21986.22
760.743	21994.58
761.08	21879.1
761.417	21910.96
761.754	21736.96
762.091	21752.32
762.428	21727.47
762.765	21455.38
763.102	21563.63
763.438	21428.04
763.775	21421.03
764.112	21409.73
764.449	21500.58
764.785	21359.11
765.122	21178.78
765.458	21088.61
765.795	21055.39
766.131	21091.55
766.467	21050.2
766.804	20893.36
767.14	20844.55
767.476	20936.07
767.812	20772.24
768.148	20859.47
768.485	20593.48
768.821	20634.39
769.157	20545.12
769.492	20429.19
769.828	20440.72
770.164	20175.87
770.5	20180.61
770.836	20176.09
771.171	20053.39
771.507	20038.7
771.842	19966.83
772.178	19850.45
772.513	19815.65
772.849	19814.97
773.184	19755.54
773.519	19626.28
773.855	19575.21
774.19	19544.7
774.525	19443.01
774.86	19476
775.195	19485.72
775.53	19288.21
775.865	19174.31
776.2	19122.79
776.535	18984.26
776.87	18975.67
777.205	18842.8
777.539	18688.45
777.874	18913.53
778.209	18589.69
778.543	18584.05
778.878	18425.41
779.212	18513.09
779.547	18317.84
779.881	18434.22
780.215	18260.44
780.55	18338.18
780.884	18266.77
781.218	18199.65
781.552	18117.84
781.886	18002.14
782.22	17882.37
782.554	17885.53
782.888	17820
783.222	17636.95
783.556	17615.03
783.889	17501.36
784.223	17498.2
784.557	17389.73
784.89	17449.84
785.224	17408.26
785.557	17216.85
785.891	17230.41
786.224	17206.45
786.558	17149.73
786.891	17050.53
787.224	16998.78
787.557	16847.14
787.891	16931.66
788.224	16927.37
788.557	16902.96
788.89	16806.24
789.223	16785.45
789.556	16676.3
789.888	16604.44
790.221	16580.48
790.554	16328.29
790.887	16341.17
791.219	16320.6
791.552	16293.48
791.884	16184.33
792.217	16192.24
792.549	16127.16
792.882	15985.92
793.214	15968.29
793.546	15991.35
793.879	15907.73
794.211	15768.75
794.543	15892.82
794.875	15822.76
795.207	15761.07
795.539	15697.79
795.871	15750
796.203	15485.14
796.535	15474.97
796.867	15425.94
797.198	15363.56
797.53	15361.31
797.862	15258.03
798.193	15240.18
798.525	15197.47
798.856	15130.58
799.188	15035.21
799.519	15004.48
799.85	14934.42
800.182	14979.62
800.513	14917.93
800.844	14791.83
801.175	14841.32
801.506	14771.94
801.837	14674.54
802.168	14638.39
802.499	14561.1
802.83	14580.76
803.161	14530.82
803.491	14597.48
803.822	14562.91
804.153	14439.07
804.483	14352.29
804.814	14307.32
805.145	14296.02
805.475	14315.68
805.805	14286.53
806.136	14115.01
806.466	14192.52
806.796	14205.4
807.126	14036.37
807.457	13979.42
807.787	14002.24
808.117	13863.04
808.447	13821.68
808.777	13918.86
809.107	13843.15
809.436	13776.94
809.766	13743.72
810.096	13733.78
810.426	13644.06
810.755	13659.65
811.085	13687.68
811.414	13637.28
811.744	13536.27
812.073	13508.25
812.403	13429.15
812.732	13367.91
813.061	13363.84
813.39	13293.11
813.719	13273.68
814.049	13380.34
814.378	13252.21
814.707	13295.82
815.036	13221.25
815.365	13157.97
815.693	13053.34
816.022	12969.96
816.351	12939.45
816.68	13027.13
817.008	13036.39
817.337	12896.96
817.665	12860.35
817.994	12873.46
818.322	12844.08
818.651	12797.08
818.979	12760.02
819.307	12818.32
819.636	12738.55
819.964	12656.29
820.292	12683.41
820.62	12676.4
820.948	12628.27
821.276	12679.79
821.604	12681.6
821.932	12666.91
822.259	12685.9
822.587	12683.41
822.915	12570.42
823.243	12591.43
823.57	12496.3
823.898	12560.25
824.225	12569.29
824.553	12532.68
824.88	12520.48
825.207	12552.34
825.535	12606.35
825.862	12675.05
826.189	12565.67
826.516	12599.57
826.843	12647.25
827.17	12580.36
827.497	12538.33
827.824	12631.89
828.151	12581.94
828.478	12576.52
828.805	12590.76
829.131	12485.9
829.458	12522.51
829.785	12472.12
830.111	12520.7
830.438	12576.07
830.764	12594.6
831.09	12508.5
831.417	12501.04
831.743	12575.84
832.069	12532.23
832.395	12453.81
832.722	12575.16
833.048	12529.06
833.374	12546.46
833.7	12458.1
834.026	12545.56
834.351	12500.82
834.677	12465.56
835.003	12447.26
835.329	12421.72
835.654	12448.84
835.98	12411.1
836.306	12432.12
836.631	12296.98
836.956	12310.54
837.282	12411.1
837.607	12280.26
837.932	12250.2
838.258	12279.13
838.583	12208.62
838.908	12123.88
839.233	12136.08
839.558	12174.5
839.883	12092.69
840.208	12065.8
840.533	12127.72
840.858	12049.08
841.182	12049.75
841.507	12019.25
841.832	12035.74
842.156	11955.74
842.481	11948.29
842.805	11974.95
843.13	11897.22
843.454	11823.55
843.778	11819.93
844.103	11722.53
844.427	11793.04
844.751	11671.23
845.075	11715.75
845.399	11711.46
845.723	11540.39
846.047	11604.12
846.371	11518.69
846.695	11574.74
847.019	11468.3
847.343	11376.78
847.666	11283.22
847.99	11312.15
848.313	11291.81
848.637	11145.14
848.96	11259.27
849.284	11191.7
849.607	11152.83
849.931	11050.46
850.254	10992.61
850.577	10966.62
850.9	10901.99
851.223	10885.04
851.546	10799.62
851.869	10718.04
852.192	10817.92
852.515	10683.46
852.838	10591.71
853.161	10647.53
853.483	10575.89
853.806	10560.3
854.129	10585.39
854.451	10523.24
854.774	10443.69
855.096	10503.58
855.419	10389.01
855.741	10408.67
856.063	10349.69
856.385	10219.29
856.708	10266.98
857.03	10194.66
857.352	10255.9
857.674	10152.63
857.996	10225.17
858.318	10131.84
858.64	10102.69
858.961	10057.72
859.283	10094.55
859.605	9980.43
859.926	9981.11
860.248	10015.68
860.57	9965.51
860.891	9947.21
861.212	9925.97
861.534	9860.43
861.855	9761.23
862.176	9835.35
862.498	9929.81
862.819	9851.85
863.14	9772.3
863.461	9742.92
863.782	9698.63
864.103	9725.97
864.424	9692.53
864.745	9709.25
865.065	9632.64
865.386	9584.73
865.707	9601
866.027	9738.85
866.348	9579.31
866.668	9589.71
866.989	9558.97
867.309	9483.49
867.63	9544.73
867.95	9521.68
868.27	9446.88
868.59	9498.86
868.91	9408.92
869.23	9495.7
869.55	9371.41
869.87	9423.83
870.19	9370.95
870.51	9416.6
870.83	9423.16
871.15	9284.63
871.469	9289.6
871.789	9355.14
872.109	9318.98
872.428	9255.25
872.748	9329.37
873.067	9312.42
873.386	9274.01
873.706	9249.15
874.025	9216.61
874.344	9091.41
874.663	9262.48
874.982	9152.65
875.301	9170.96
875.62	9112.43
875.939	9093.9
876.258	9084.18
876.577	9132.09
876.896	8997.4
877.214	9028.14
877.533	9072.88
877.852	9046.89
878.17	8986.56
878.489	8980.23
878.807	9031.08
879.125	8963.51
879.444	8981.59
879.762	8955.37
880.08	8969.16
880.398	8863.85
880.716	8935.71
881.034	8880.35
881.352	8784.98
881.67	8857.52
881.988	8778.88
882.306	8876.73
882.624	8821.14
882.941	8766.45
883.259	8780.91
883.577	8718.77
883.894	8691.2
884.212	8702.72
884.529	8687.81
884.846	8667.7
885.164	8692.78
885.481	8571.65
885.798	8601.03
886.115	8600.58
886.432	8568.94
886.75	8501.82
887.067	8470.19
887.383	8527.13
887.7	8512.67
888.017	8492.79
888.334	8437.19
888.651	8385.44
888.967	8424.09
889.284	8334.37
889.6	8346.35
889.917	8296.18
890.233	8253.02
890.55	8222.96
890.866	8302.51
891.182	8200.14
891.498	8193.13
891.815	8182.96
892.131	8125.11
892.447	8123.3
892.763	8117.65
893.079	8137.31
893.395	8116.52
893.71	8023.19
894.026	8033.14
894.342	7987.94
894.657	7941.16
894.973	7970.99
895.289	7855.74
895.604	7892.57
895.92	7853.93
896.235	7817.55
896.55	7826.59
896.865	7730.09
897.181	7731.9
897.496	7727.38
897.811	7716.53
898.126	7688.06
898.441	7660.49
898.756	7684.67
899.071	7531.23
899.386	7610.1
899.7	7549.08
900.015	7553.37
900.33	7455.75
900.644	7415.07
900.959	7473.15
901.273	7360.61
901.588	7332.59
901.902	7289.2
902.216	7295.08
902.531	7321.29
902.845	7212.14
903.159	7180.73
903.473	7179.15
903.787	7205.81
904.101	7147.28
904.415	7136.89
904.729	7152.48
905.042	7084.23
905.356	7028.19
905.67	7055.08
905.984	7070.22
906.297	7022.99
906.611	6950.45
906.924	6947.74
907.237	6947.52
907.551	6942.54
907.864	6859.38
908.177	6872.94
908.491	6820.51
908.804	6813.51
909.117	6786.39
909.43	6746.16
909.743	6690.35
910.056	6681.53
910.368	6669.56
910.681	6626.39
910.994	6613.29
911.307	6528.99
911.619	6597.02
911.932	6560.18
912.244	6505.94
912.557	6492.84
912.869	6426.17
913.181	6411.48
913.494	6426.85
913.806	6413.97
914.118	6376
914.43	6275.89
914.742	6286.74
915.054	6272.5
915.366	6285.61
915.678	6270.47
915.99	6201.32
916.302	6173.75
916.613	6131.72
916.925	6114.32
917.236	6125.84
917.548	6024.15
917.859	6042.91
918.171	5994.09
918.482	5927.65
918.794	5976.24
919.105	5918.16
919.416	5904.38
919.727	5901.21
920.038	5886.53
920.349	5839.97
920.66	5853.08
920.971	5815.79
921.282	5843.14
921.593	5715.01
921.903	5729.69
922.214	5703.25
922.525	5703.03
922.835	5644.05
923.146	5664.38
923.456	5662.8
923.767	5561.34
924.077	5559.75
924.387	5539.87
924.697	5543.94
925.008	5539.64
925.318	5489.93
925.628	5430.72
925.938	5426.88
926.248	5423.94
926.558	5379.87
926.867	5364.05
927.177	5381.91
927.487	5365.64
927.796	5263.04
928.106	5266.88
928.416	5264.85
928.725	5262.14
929.034	5218.29
929.344	5234.57
929.653	5158.64
929.962	5118.64
930.271	5190.05
930.581	5063.5
930.89	5094.46
931.199	5063.95
931.508	5078.64
931.817	5065.08
932.125	4981.47
932.434	5011.29
932.743	4951.18
933.051	4962.26
933.36	4923.16
933.669	4859.21
933.977	4880.9
934.286	4854.46
934.594	4845.88
934.902	4793
935.21	4741.7
935.519	4781.47
935.827	4773.11
936.135	4698.76
936.443	4695.6
936.751	4633
937.059	4655.6
937.367	4686.33
937.674	4603.17
937.982	4630.97
938.29	4587.35
938.597	4622.83
938.905	4520.01
939.213	4530.18
939.52	4531.53
939.827	4480.24
940.135	4437.07
940.442	4422.84
940.749	4390.52
941.056	4414.02
941.363	4416.51
941.67	4378.09
941.977	4402.95
942.284	4339.67
942.591	4325.44
942.898	4286.57
943.205	4319.56
943.511	4290.18
943.818	4263.29
944.125	4248.38
944.431	4221.49
944.738	4250.18
945.044	4143.75
945.35	4167.48
945.657	4124.54
945.963	4135.39
946.269	4116.63
946.575	4087.7
946.881	4082.28
947.187	4068.49
947.493	4030.08
947.799	4005.9
948.105	3982.85
948.41	4007.48
948.716	3979.91
949.022	3987.37
949.327	3964.09
949.633	3917.99
949.938	3923.87
950.244	3899.23
950.549	3847.94
950.854	3858.78
951.16	3815.17
951.465	3863.98
951.77	3848.84
952.075	3770.2
952.38	3767.26
952.685	3778.33
952.99	3748.05
953.294	3714.15
953.599	3705.57
953.904	3691.1
954.209	3645.45
954.513	3666.92
954.818	3646.36
955.122	3617.21
955.426	3667.15
955.731	3624.89
956.035	3578.79
956.339	3572.01
956.643	3545.12
956.948	3555.06
957.252	3500.15
957.556	3496.98
957.86	3466.25
958.163	3492.69
958.467	3498.79
958.771	3459.7
959.075	3441.84
959.378	3455.86
959.682	3393.48
959.985	3420.83
960.289	3371.79
960.592	3350.55
960.896	3365.01
961.199	3355.75
961.502	3341.51
961.805	3269.42
962.108	3281.17
962.411	3278.01
962.714	3266.48
963.017	3239.14
963.32	3270.78
963.623	3205.24
963.926	3232.13
964.228	3213.38
964.531	3154.17
964.833	3182.19
965.136	3134.51
965.438	3122.98
965.741	3159.14
966.043	3137.67
966.345	3120.72
966.648	3095.86
966.95	3096.09
967.252	3056.32
967.554	3071.91
967.856	3035.75
968.158	2999.37
968.46	3024.45
968.761	3033.27
969.063	2979.71
969.365	2978.35
969.666	2946.94
969.968	2981.74
970.269	2954.85
970.571	2920.05
970.872	2937.9
971.174	2879.6
971.475	2889.77
971.776	2859.49
972.077	2839.83
972.378	2856.1
972.679	2826.72
972.98	2828.53
973.281	2767.96
973.582	2833.5
973.883	2786.72
974.183	2811.8
974.484	2772.71
974.785	2736.78
975.085	2742.2
975.386	2719.38
975.686	2723.45
975.986	2734.97
976.287	2689.32
976.587	2657.01
976.887	2678.02
977.187	2667.85
977.487	2658.14
977.787	2673.73
978.087	2636.89
978.387	2586.05
978.687	2603
978.987	2586.95
979.286	2562.55
979.586	2575.88
979.885	2566.84
980.185	2532.94
980.484	2546.27
980.784	2520.74
981.083	2520.51
981.382	2522.32
981.682	2504.92
981.981	2482.77
982.28	2472.15
982.579	2455.2
982.878	2471.25
983.177	2434.87
983.475	2421.76
983.774	2407.52
984.073	2417.01
984.372	2384.02
984.67	2404.36
984.969	2389.44
985.267	2360.52
985.566	2363.68
985.864	2330.01
986.162	2348.09
986.461	2322.55
986.759	2311.25
987.057	2350.12
987.355	2296.11
987.653	2284.13
987.951	2301.54
988.249	2239.62
988.547	2263.34
988.844	2282.1
989.142	2239.62
989.44	2224.02
989.737	2233.51
990.035	2178.6
990.332	2223.35
990.63	2211.82
990.927	2176.12
991.224	2173.63
991.521	2167.75
991.819	2142.9
992.116	2168.21
992.413	2161.65
992.71	2121.43
993.006	2122.11
993.303	2097.93
993.6	2116.91
993.897	2087.08
994.193	2077.81
994.49	2059.06
994.787	2056.12
995.083	2012.73
995.379	2011.37
995.676	2027.19
995.972	2032.16
996.268	2019.74
996.565	1992.39
996.861	2005.72
997.157	1962.11
997.453	1964.6
997.749	1977.48
998.044	1969.11
998.34	1941.09
998.636	1918.72
998.932	1920.75
999.227	1901.32
999.523	1872.17
999.818	1890.25
1000.114	1881.66
1000.409	1868.33
1000.704	1856.58
1001	1842.79
1001.295	1853.41
1001.59	1817.03
1001.885	1838.5
1002.18	1809.8
1002.475	1780.87
1002.77	1821.32
1003.065	1799.4
1003.359	1791.49
1003.654	1779.29
1003.949	1750.36
1004.243	1750.82
1004.538	1745.39
1004.832	1739.29
1005.127	1722.57
1005.421	1701.33
1005.715	1735.67
1006.009	1683.7
1006.304	1708.33
1006.598	1664.04
1006.892	1671.72
1007.186	1673.08
1007.48	1666.98
1007.773	1629.01
1008.067	1668.56
1008.361	1645.06
1008.655	1636.02
1008.948	1592.85
1009.242	1606.86
1009.535	1605.51
1009.829	1540.65
1010.122	1566.19
1010.415	1589.46
1010.708	1573.42
1011.001	1551.27
1011.295	1542.46
1011.588	1518.51
1011.881	1523.02
1012.173	1504.27
1012.466	1524.15
1012.759	1508.11
1013.052	1501.33
1013.344	1477.83
1013.637	1469.47
1013.93	1433.54
1014.222	1443.48
1014.514	1437.83
1014.807	1452.52
1015.099	1415.91
1015.391	1407.32
1015.683	1400.99
1015.976	1437.6
1016.268	1395.57
1016.56	1406.19
1016.851	1376.14
1017.143	1371.62
1017.435	1380.43
1017.727	1361.9
1018.018	1327.32
1018.31	1340.43
1018.602	1343.59
1018.893	1310.15
1019.185	1285.52
1019.476	1306.08
1019.767	1324.16
1020.058	1312.86
1020.35	1292.75
1020.641	1266.08
1020.932	1261.56
1021.223	1255.69
1021.514	1266.99
1021.804	1247.78
1022.095	1240.77
1022.386	1229.93
1022.677	1234.9
1022.967	1209.81
1023.258	1213.2
1023.548	1196.03
1023.839	1182.02
1024.129	1197.61
1024.419	1196.03
1024.709	1126.2
1025	1171.4
1025.29	1141.34
1025.58	1132.53
1025.87	1132.3
1026.16	1121.45
1026.449	1134.33
1026.739	1128.91
1027.029	1118.97
1027.319	1105.41
1027.608	1096.14
1027.898	1109.7
1028.187	1084.17
1028.477	1075.35
1028.766	1059.99
1029.055	1061.12
1029.344	1066.54
1029.634	1025.64
1029.923	1052.3
1030.212	1047.11
1030.501	1041.23
1030.79	1029.7
1031.078	1033.55
1031.367	1022.93
1031.656	991.29
1031.945	991.74
1032.233	1001
1032.522	1002.59
1032.81	998.07
1033.099	995.13
1033.387	995.13
1033.675	979.08
1033.963	959.42
1034.251	972.53
1034.54	941.57
1034.828	917.62
1035.116	925.75
1035.403	961.01
1035.691	934.57
1035.979	922.14
1036.267	916.49
1036.554	911.74
1036.842	879.43
1037.129	887.79
1037.417	904.51
1037.704	877.62
1037.992	895.02
1038.279	891.63
1038.566	896.6
1038.853	896.6
1039.14	896.6
