Data from tablewood_brown_FLMS001491_001.txt Node
Date: Tue Feb 07 11:09:55 GMT 2017
User: dcchb
Spectrometer: FLMS00149
Trigger mode: 0
Integration Time (sec): 2.000000E-2
Scans to average: 10
Electric dark correction enabled: true
Nonlinearity correction enabled: false
Boxcar width: 0
XAxis mode: Wavelengths
Number of Pixels in Spectrum: 2048
>>>>>Begin Spectral Data<<<<<
341.393	6.26
341.776	6.26
342.16	6.26
342.543	-63.57
342.927	-60.63
343.31	-53.18
343.693	-64.7
344.077	-66.96
344.46	-77.81
344.843	-60.41
345.226	-36.23
345.61	-33.06
345.993	-20.18
346.376	-15.21
346.759	-0.97
347.142	29.76
347.525	65.92
347.908	57.33
348.291	86.25
348.674	88.97
349.057	100.49
349.44	132.81
349.823	142.52
350.206	160.83
350.588	197.44
350.971	205.57
351.354	225.23
351.737	236.99
352.119	253.48
352.502	254.16
352.884	286.48
353.267	276.08
353.65	293.03
354.032	306.14
354.414	308.4
354.797	342.97
355.179	312.46
355.562	336.19
355.944	328.96
356.326	318.34
356.709	348.62
357.091	339.13
357.473	352.46
357.855	350.88
358.238	342.97
358.62	345.23
359.002	348.17
359.384	346.59
359.766	372.35
360.148	352.46
360.53	342.29
360.912	360.37
361.294	339.81
361.676	327.83
362.057	318.34
362.439	339.81
362.821	356.08
363.203	308.62
363.584	343.2
363.966	360.15
364.348	327.83
364.729	341.84
365.111	333.93
365.493	348.39
365.874	317.66
366.256	319.69
366.637	315.85
367.019	298.9
367.4	328.73
367.781	343.2
368.163	330.09
368.544	301.39
368.925	315.4
369.306	313.59
369.688	319.69
370.069	317.44
370.45	326.93
370.831	326.93
371.212	333.48
371.593	319.92
371.974	326.7
372.355	320.6
372.736	342.97
373.117	345.91
373.498	346.36
373.879	349.75
374.26	367.83
374.641	331.22
375.021	329.19
375.402	338.9
375.783	330.09
376.163	358.34
376.544	353.14
376.925	350.65
377.305	343.88
377.686	352.91
378.066	342.52
378.447	359.24
378.827	370.09
379.208	357.21
379.588	340.26
379.968	351.56
380.349	364.21
380.729	369.64
381.109	354.04
381.489	370.09
381.87	374.38
382.25	394.72
382.63	394.5
383.01	376.42
383.39	403.53
383.77	349.52
384.15	369.64
384.53	389.07
384.91	412.57
385.29	380.94
385.67	392.91
386.049	380.48
386.429	392.91
386.809	369.86
387.189	404.66
387.568	415.74
387.948	394.72
388.328	388.85
388.707	395.4
389.087	424.55
389.466	422.07
389.846	411.9
390.225	402.63
390.605	401.05
390.984	443.99
391.363	434.72
391.743	449.18
392.122	441.5
392.501	441.27
392.881	453.02
393.26	477.66
393.639	454.38
394.018	467.26
394.397	462.52
394.776	462.74
395.155	461.16
395.534	447.83
395.913	458.67
396.292	464.32
396.671	474.72
397.05	478.33
397.429	479.69
397.808	479.92
398.186	502.52
398.565	493.93
398.944	498.45
399.323	489.63
399.701	498.22
400.08	498.9
400.458	499.35
400.837	518.33
401.215	514.72
401.594	501.39
401.972	528.5
402.351	533.25
402.729	542.29
403.107	544.1
403.486	573.02
403.864	539.58
404.242	530.31
404.62	555.62
404.999	549.97
405.377	555.4
405.755	550.65
406.133	580.71
406.511	565.79
406.889	570.76
407.267	581.83
407.645	592.91
408.023	588.39
408.401	600.37
408.779	624.55
409.156	606.47
409.534	617.54
409.912	607.82
410.29	622.29
410.667	627.03
411.045	660.7
411.422	655.73
411.8	652.34
412.178	664.54
412.555	669.29
412.933	652.57
413.31	699.8
413.687	684.66
414.065	683.08
414.442	712.9
414.819	674.94
415.197	715.84
415.574	720.81
415.951	709.74
416.328	732.79
416.705	712
417.082	740.47
417.46	717.42
417.837	761.72
418.214	749.51
418.591	783.41
418.967	773.02
419.344	769.85
419.721	761.27
420.098	770.76
420.475	789.97
420.852	786.12
421.228	799
421.605	798.33
421.982	809.63
422.358	800.36
422.735	816.41
423.111	819.34
423.488	827.03
423.864	827.48
424.241	866.12
424.617	874.93
424.994	864.09
425.37	871.09
425.746	872.9
426.123	865.22
426.499	866.12
426.875	878.78
427.251	914.93
427.627	904.54
428.003	902.28
428.379	944.76
428.756	910.64
429.132	971.88
429.507	964.42
429.883	986.57
430.259	976.85
430.635	983.63
431.011	988.15
431.387	1022.73
431.763	1016.63
432.138	1010.07
432.514	1064.76
432.89	1012.56
433.265	1069.96
433.641	1068.6
434.016	1108.15
434.392	1108.15
434.767	1112.89
435.143	1112.89
435.518	1109.73
435.894	1146.79
436.269	1151.31
436.644	1169.39
437.02	1193.12
437.395	1200.58
437.77	1202.16
438.145	1224.08
438.52	1236.73
438.895	1235.15
439.271	1234.25
439.646	1246.9
440.021	1274.7
440.395	1260.46
440.77	1267.01
441.145	1275.6
441.52	1279.44
441.895	1287.58
442.27	1335.49
442.645	1323.74
443.019	1341.59
443.394	1335.04
443.769	1347.69
444.143	1337.52
444.518	1375.03
444.892	1366
445.267	1364.87
445.641	1385.88
446.016	1405.09
446.39	1428.14
446.764	1418.88
447.139	1438.31
447.513	1443.06
447.887	1415.94
448.262	1451.19
448.636	1453.68
449.01	1445.32
449.384	1485.31
449.758	1488.48
450.132	1516.27
450.506	1495.03
450.88	1527.35
451.254	1536.61
451.628	1554.92
452.002	1553.11
452.376	1562.15
452.75	1575.03
453.123	1578.64
453.497	1624.75
453.871	1624.52
454.244	1641.92
454.618	1655.71
454.992	1663.39
455.365	1683.95
455.739	1703.16
456.112	1710.17
456.486	1709.26
456.859	1770.28
457.232	1805.31
457.606	1810.05
457.979	1789.94
458.352	1873.55
458.725	1890.5
459.099	1882.14
459.472	1908.81
459.845	1931.63
460.218	1956.26
460.591	1962.82
460.964	1993.1
461.337	2012.08
461.71	2080.33
462.083	2077.61
462.456	2080.55
462.829	2081.68
463.201	2137.5
463.574	2146.09
463.947	2130.72
464.32	2209.14
464.692	2271.73
465.065	2234.9
465.438	2286.42
465.81	2322.81
466.183	2353.77
466.555	2372.52
466.928	2403.26
467.3	2422.69
467.672	2463.37
468.045	2531.61
468.417	2532.97
468.789	2570.26
469.161	2575.91
469.534	2612.29
469.906	2666.3
470.278	2682.12
470.65	2736.58
471.022	2788.33
471.394	2837.82
471.766	2890.93
472.138	2913.3
472.51	2944.03
472.882	3023.35
473.253	3061.54
473.625	3132.28
473.997	3211.82
474.369	3217.25
474.74	3190.81
475.112	3341.08
475.484	3382.44
475.855	3469.89
476.227	3475.32
476.598	3611.81
476.97	3638.25
477.341	3705.37
477.713	3733.16
478.084	3786.04
478.455	3923.67
478.827	3980.16
479.198	4046.6
479.569	4071.23
479.94	4219.93
480.311	4286.37
480.682	4345.35
481.053	4482.3
481.424	4548.74
481.795	4583.76
482.166	4693.37
482.537	4781.72
482.908	4838.22
483.279	4924.77
483.65	5046.12
484.021	5103.98
484.391	5179.23
484.762	5230.98
485.133	5258.1
485.503	5371.77
485.874	5523.4
486.244	5524.08
486.615	5629.39
486.985	5694.69
487.356	5861.02
487.726	5922.94
488.097	6040
488.467	6052.2
488.837	6160.22
489.207	6240.67
489.578	6315.7
489.948	6388.46
490.318	6553.66
490.688	6540.77
491.058	6632.3
491.428	6728.11
491.798	6826.64
492.168	6922.91
492.538	6945.96
492.908	7074.32
493.278	7129.46
493.648	7195.45
494.017	7263.24
494.387	7304.6
494.757	7345.05
495.126	7471.15
495.496	7502.11
495.866	7612.84
496.235	7660.97
496.605	7712.95
496.974	7866.16
497.344	7869.78
497.713	7933.05
498.082	7974.18
498.452	8110.45
498.821	8126.04
499.19	8129.43
499.559	8284.68
499.928	8246.04
500.298	8371.91
500.667	8406.71
501.036	8406.71
501.405	8493.49
501.774	8512.47
502.143	8618.69
502.512	8710.66
502.88	8762.41
503.249	8771
503.618	8827.95
503.987	8897.77
504.356	9008.73
504.724	9029.75
505.093	9115.17
505.462	9174.15
505.83	9214.83
506.199	9205.79
506.567	9409.85
506.936	9339.57
507.304	9544.99
507.672	9556.29
508.041	9577.98
508.409	9715.38
508.777	9778.88
509.145	9850.97
509.514	9824.98
509.882	9996.28
510.25	10007.58
510.618	10127.12
510.986	10104.3
511.354	10275.14
511.722	10376.61
512.09	10458.86
512.458	10454.57
512.826	10551.97
513.193	10681.91
513.561	10688.69
513.929	10805.07
514.297	10871.06
514.664	10939.75
515.032	11074.21
515.4	11215.45
515.767	11101.78
516.135	11278.73
516.502	11220.65
516.869	11449.57
517.237	11568.66
517.604	11534.99
517.972	11655.44
518.339	11706.29
518.706	11838.71
519.073	11892.72
519.44	11897.7
519.808	12117.8
520.175	12202.09
520.542	12289.1
520.909	12364.12
521.276	12415.87
521.643	12538.58
522.009	12696.77
522.376	12733.15
522.743	12916.2
523.11	12979.93
523.477	13108.96
523.843	13229.41
524.21	13403.42
524.577	13449.97
524.943	13511.89
525.31	13645.22
525.676	13714.37
526.043	13853.58
526.409	13966.12
526.776	14018.77
527.142	14149.84
527.508	14273
527.874	14314.58
528.241	14437.97
528.607	14515.48
528.973	14659.66
529.339	14677.74
529.705	14834.57
530.071	14918.63
530.437	15083.15
530.803	15070.72
531.169	15227.55
531.535	15234.33
531.901	15316.81
532.267	15462.35
532.632	15460.77
532.998	15489.47
533.364	15645.39
533.73	15630.93
534.095	15797.25
534.461	15940.98
534.826	15980.07
535.192	16047.42
535.557	16127.19
535.923	16209.22
536.288	16240.86
536.653	16371.02
537.019	16376.9
537.384	16476.78
537.749	16547.52
538.114	16536.67
538.479	16597.69
538.845	16800.39
539.21	16720.39
539.575	16879.94
539.94	16967.17
540.305	16993.83
540.67	16952.93
541.034	16985.02
541.399	17174.39
541.764	17185.92
542.129	17255.75
542.494	17234.05
542.858	17407.83
543.223	17356.76
543.587	17450.09
543.952	17601.05
544.316	17671.1
544.681	17620.26
545.045	17716.75
545.41	17777.32
545.774	17815.05
546.138	17988.16
546.503	17991.77
546.867	17985.45
547.231	18302.27
547.595	18163.52
547.959	18271.77
548.324	18255.04
548.688	18376.4
549.052	18507.92
549.416	18554.47
549.779	18592.89
550.143	18782.49
550.507	18901.35
550.871	19020.67
551.235	18925.53
551.599	19201.46
551.962	19148.35
552.326	19372.98
552.689	19386.09
553.053	19478.06
553.417	19441.45
553.78	19790.82
554.143	19712.86
554.507	19842.57
554.87	19961.66
555.234	20120.76
555.597	20122.56
555.96	20224.48
556.323	20373.63
556.686	20436.68
557.05	20610.91
557.413	20723
557.776	20866.5
558.139	21053.84
558.502	21133.39
558.865	21105.36
559.228	21386.49
559.59	21505.58
559.953	21593.94
560.316	21874.83
560.679	21954.15
561.041	22115.51
561.404	22219.01
561.767	22457.64
562.129	22467.14
562.492	22810.18
562.854	22762.49
563.217	23002.71
563.579	23084.07
563.941	23292.42
564.304	23432.08
564.666	23708.91
565.028	23719.31
565.39	23781.22
565.753	24014.44
566.115	24220.08
566.477	24328.56
566.839	24438.16
567.201	24609.23
567.563	24842.21
567.925	25013.28
568.287	25159.49
568.648	25310.45
569.01	25461.18
569.372	25708.18
569.734	25700.72
570.095	25994.5
570.457	26217.77
570.819	26443.98
571.18	26459.57
571.542	26694.59
571.903	26888.26
572.265	26894.36
572.626	27191.08
572.987	27313.56
573.349	27385.42
573.71	27615.25
574.071	27782.93
574.432	27885.07
574.794	28276.25
575.155	28235.35
575.516	28296.13
575.877	28575
576.238	28583.13
576.599	28875.33
576.96	28982.44
577.32	29017.7
577.681	29425.6
578.042	29477.8
578.403	29591.92
578.763	29763.67
579.124	29792.82
579.485	30012.47
579.845	30121.85
580.206	30106.48
580.566	30101.74
580.927	30137.22
581.287	30566.36
581.648	30420.37
582.008	30684.77
582.368	30700.14
582.728	30910.76
583.089	30791.66
583.449	30998.89
583.809	31008.15
584.169	30999.79
584.529	31071.65
584.889	31391.19
585.249	31249.28
585.609	31182.39
585.969	31480.46
586.329	31415.15
586.688	31499.89
587.048	31525.2
587.408	31539.44
587.768	31663.73
588.127	31692.88
588.487	31653.33
588.846	31957.28
589.206	31790.28
589.565	31862.82
589.925	31907.79
590.284	31927
590.643	32081.12
591.003	32177.61
591.362	32191.4
591.721	32131.06
592.08	32221.91
592.44	32331.51
592.799	32385.07
593.158	32159.76
593.517	32254.67
593.876	32405.41
594.235	32240.66
594.593	32418.06
594.952	32510.94
595.311	32363.6
595.67	32457.83
596.029	32551.16
596.387	32646.98
596.746	32805.39
597.104	32658.05
597.463	32726.3
597.822	32715
598.18	32612.41
598.538	32569.69
598.897	32781.67
599.255	32556.14
599.613	33016.01
599.972	32760.88
600.33	32914.09
600.688	32769.46
601.046	32960.42
601.404	33005.84
601.762	32954.77
602.12	33218.72
602.478	33122.22
602.836	33212.62
603.194	33043.81
603.552	33237.7
603.91	33009
604.268	33261.2
604.625	33024.37
604.983	33275.89
605.341	33059.85
605.698	33316.79
606.056	33391.82
606.413	33251.94
606.771	33491.03
607.128	33371.26
607.485	33261.43
607.843	33353.85
608.2	33592.94
608.557	33753.62
608.914	33508.65
609.272	33662.1
609.629	33685.15
609.986	33742.77
610.343	33640.17
610.7	33766.73
611.057	33825.71
611.414	33805.14
611.771	33777.12
612.127	33938.7
612.484	33902.54
612.841	34066.83
613.198	33939.83
613.554	34025.93
613.911	34146.83
614.267	34167.39
614.624	34183.44
614.98	34205.13
615.337	34326.48
615.693	34280.61
616.05	34260.72
616.406	34381.62
616.762	34320.83
617.118	34390.66
617.475	34441.06
617.831	34452.13
618.187	34436.09
618.543	34648.06
618.899	34808.96
619.255	34701.16
619.611	34670.43
619.967	34770.31
620.323	34738.9
620.678	34699.81
621.034	34707.27
621.39	34603.99
621.746	34623.43
622.101	35068.39
622.457	34712.69
622.812	34850.31
623.168	34892.35
623.523	34832.69
623.879	34985.9
624.234	34697.55
624.589	34809.64
624.945	34836.08
625.3	34955.39
625.655	34904.77
626.01	34833.36
626.365	34804.21
626.72	34902.97
627.075	34847.37
627.43	34808.05
627.785	34741.16
628.14	34768.28
628.495	34999.46
628.85	34832.91
629.205	34654.39
629.559	34799.69
629.914	34631.11
630.269	34841.05
630.623	34533.48
630.978	34658.91
631.332	34701.39
631.687	34759.47
632.041	34601.73
632.396	34640.15
632.75	34612.35
633.104	34497.1
633.459	34514.28
633.813	34230.67
634.167	34502.07
634.521	34393.38
634.875	34463.88
635.229	34307.73
635.583	34274.51
635.937	34298.91
636.291	34229.54
636.645	34068.41
636.999	34228.41
637.352	34204.45
637.706	34050.11
638.06	34099.6
638.413	34135.3
638.767	34000.84
639.121	34049.43
639.474	33815.76
639.828	33995.42
640.181	33832.26
640.534	33920.39
640.888	33726.5
641.241	33662.77
641.594	33684.92
641.947	33703.22
642.301	33594.98
642.654	33715.43
643.007	33658.03
643.36	33540.97
643.713	33608.31
644.066	33645.37
644.419	33502.1
644.771	33441.08
645.124	32917.93
645.477	32941.44
645.83	32681.78
646.182	32590.03
646.535	32462.58
646.888	32559.75
647.24	32481.56
647.593	32649.69
647.945	32590.26
648.298	32403.6
648.65	32351.4
649.002	32243.83
649.355	32339.19
649.707	32379.19
650.059	32513.2
650.411	32875
650.763	32834.09
651.115	33179.17
651.467	33060.08
651.819	33111.6
652.171	32874.32
652.523	33050.13
652.875	32948.67
653.227	32933.75
653.578	33209.23
653.93	33135.78
654.282	32881.78
654.633	32832.29
654.985	33031.6
655.337	33051.49
655.688	32908.44
656.039	33125.39
656.391	32758.16
656.742	33000.19
657.094	32971.27
657.445	32884.49
657.796	32863.47
658.147	32950.93
658.498	32832.51
658.849	32922.91
659.2	32901.21
659.551	32722.91
659.902	32864.15
660.253	32796.58
660.604	32823.47
660.955	32804.94
661.306	32885.62
661.656	32738.28
662.007	32775.34
662.358	32782.12
662.708	32674.32
663.059	32717.26
663.409	32596.13
663.76	32926.07
664.11	32819.63
664.461	32858.95
664.811	32880.65
665.161	32743.93
665.511	32683.36
665.862	32813.76
666.212	32941.66
666.562	32903.92
666.912	32827.77
667.262	32641.78
667.612	32729.69
667.962	32745.74
668.312	32736.24
668.662	32880.19
669.011	32726.53
669.361	32651.73
669.711	32622.8
670.06	32586.87
670.41	32588.45
670.76	32386.87
671.109	32568.56
671.459	32681.78
671.808	32428
672.157	32571.73
672.507	32346.2
672.856	32478.17
673.205	32484.95
673.554	32470.26
673.904	32299.19
674.253	32531.28
674.602	32372.19
674.951	31850.84
675.3	31786.66
675.649	32237.27
675.998	32223.49
676.346	32331.96
676.695	32288.8
677.044	32056.26
677.393	32239.08
677.741	32174.68
678.09	32168.35
678.438	32011.07
678.787	32016.26
679.135	32055.13
679.484	31783.73
679.832	31967.22
680.181	31829.6
680.529	31912.54
680.877	31777.85
681.225	31746.89
681.573	31832.99
681.922	31606.33
682.27	31552.77
682.618	31498.54
682.966	31471.19
683.314	31654.69
683.661	31324.3
684.009	31166.57
684.357	31326.34
684.705	31079.11
685.053	31183.29
685.4	31123.63
685.748	30919.57
686.095	31012.45
686.443	30858.33
686.79	30669.86
687.138	30792.11
687.485	30805.9
687.832	30746.01
688.18	30716.64
688.527	30525
688.874	30508.73
689.221	30416.53
689.568	30295.63
689.915	30118.46
690.262	30119.14
690.609	30143.09
690.956	30089.99
691.303	29960.27
691.65	29866.94
691.997	29782.2
692.344	29613.61
692.69	29564.58
693.037	29654.74
693.383	29340.85
693.73	29503.11
694.077	29325.49
694.423	29316.22
694.769	29134.08
695.116	28980.18
695.462	29005.27
695.808	28809.34
696.155	28869.68
696.501	28610.48
696.847	28729.34
697.193	28400.54
697.539	28551.95
697.885	28328.45
698.231	28135.23
698.577	28120.55
698.923	28189.02
699.269	27907.67
699.614	27756.26
699.96	27738.18
700.306	27838.97
700.651	27568.7
700.997	27550.39
701.342	27505.87
701.688	27374.58
702.033	27379.1
702.379	27236.28
702.724	27096.39
703.069	27230.63
703.415	27007.13
703.76	26956.96
704.105	26832.67
704.45	26841.48
704.795	26644.43
705.14	26581.83
705.485	26608.27
705.83	26475.39
706.175	26442.17
706.52	26278.56
706.865	26179.13
707.209	26156.76
707.554	26115.4
707.899	26144.55
708.243	25847.16
708.588	25800.38
708.932	25717.45
709.277	25644.45
709.621	25626.6
709.966	25512.48
710.31	25521.07
710.654	25396.32
710.998	25378.47
711.342	25406.27
711.687	25304.12
712.031	25249.89
712.375	25116.56
712.719	25166.5
713.063	25112.26
713.407	25180.06
713.75	25024.58
714.094	25009.89
714.438	24883.34
714.782	25051.93
715.125	24761.54
715.469	24851.71
715.812	24668.89
716.156	24671.6
716.499	24590.7
716.843	24555.22
717.186	24519.51
717.53	24636.12
717.873	24611.03
718.216	24573.75
718.559	24380.31
718.902	24268.9
719.246	24310.02
719.589	24241.55
719.932	24039.75
720.275	24100.54
720.617	24128.11
720.96	24171.95
721.303	24054.66
721.646	24150.71
721.989	24091.5
722.331	24111.84
722.674	23995.23
723.016	23991.84
723.359	23896.25
723.701	24059.64
724.044	23914.78
724.386	23765.18
724.729	23940.99
725.071	23851.05
725.413	23815.35
725.755	23935.8
726.097	23857.61
726.439	23741.45
726.782	23681.11
727.124	23820.55
727.465	23632.08
727.807	23633.21
728.149	23615.35
728.491	23564.51
728.833	23659.87
729.175	23532.64
729.516	23598.18
729.858	23569.93
730.199	23602.7
730.541	23582.59
730.882	23524.06
731.224	23536.94
731.565	23435.25
731.906	23464.4
732.248	23499.88
732.589	23453.1
732.93	23458.52
733.271	23422.14
733.612	23478.18
733.953	23473.21
734.294	23319.99
734.635	23388.92
734.976	23414.23
735.317	23379.43
735.658	23359.54
735.999	23356.6
736.339	23372.65
736.68	23487
737.021	23335.36
737.361	23190.05
737.702	23448.13
738.042	23299.66
738.383	23270.73
738.723	23362.93
739.063	23429.6
739.404	23418.75
739.744	23411.07
740.084	23288.36
740.424	23288.13
740.764	23346.89
741.104	23320.9
741.444	23167.23
741.784	23223.05
742.124	23400.9
742.464	23348.47
742.804	23219.66
743.143	23363.61
743.483	23247.68
743.823	23191.86
744.162	23161.13
744.502	23308.92
744.841	23185.53
745.181	23229.83
745.52	23214.91
745.86	23334.46
746.199	23183.95
746.538	23085.88
746.877	23223.73
747.216	23248.13
747.556	23283.84
747.895	23199.55
748.234	23203.16
748.573	23156.16
748.911	23092.2
749.25	23237.96
749.589	23100.56
749.928	23131.75
750.267	23166.78
750.605	23092.66
750.944	23085.65
751.283	23097.18
751.621	23150.28
751.96	23109.38
752.298	23063.05
752.636	23086.55
752.975	23002.49
753.313	22899.67
753.651	23001.36
753.989	22938.08
754.327	22954.13
754.666	22751.65
755.004	22825.32
755.342	22848.59
755.679	22865.32
756.017	22740.12
756.355	22800.69
756.693	22678.43
757.031	22779.22
757.368	22602.27
757.706	22533.12
758.044	22452.22
758.381	22590.3
758.719	22478.21
759.056	22498.77
759.394	22450.86
759.731	22311.21
760.068	22293.81
760.405	22187.37
760.743	22142.62
761.08	22187.82
761.417	22153.47
761.754	21994.38
762.091	22023.76
762.428	21973.59
762.765	21780.6
763.102	21940.14
763.438	21738.11
763.775	21610.89
764.112	21683.43
764.449	21720.49
764.785	21505.58
765.122	21358.46
765.458	21299.71
765.795	21391.46
766.131	21387.84
766.467	21247.51
766.804	21108.53
767.14	21135.64
767.476	21138.81
767.812	20940.17
768.148	21030.11
768.485	20920.06
768.821	20785.15
769.157	20712.83
769.492	20715.09
769.828	20752.15
770.164	20458.83
770.5	20473.29
770.836	20356.23
771.171	20331.6
771.507	20244.59
771.842	20236.01
772.178	20136.12
772.513	19999.18
772.849	20083.24
773.184	19950.14
773.519	19943.13
773.855	19887.77
774.19	19720.31
774.525	19687.77
774.86	19697.49
775.195	19713.76
775.53	19497.72
775.865	19427.89
776.2	19422.02
776.535	19351.06
776.87	19256.82
777.205	19031.52
777.539	19084.4
777.874	19057.28
778.209	18903.16
778.543	18886.21
778.878	18791.53
779.212	18807.34
779.547	18697.74
779.881	18738.19
780.215	18551.98
780.55	18664.3
780.884	18438.99
781.218	18416.62
781.552	18426.56
781.886	18350.41
782.22	18214.37
782.554	18139.57
782.888	18042.84
783.222	17936.18
783.556	17861.15
783.889	17923.07
784.223	17632.01
784.557	17672.01
784.89	17793.13
785.224	17616.19
785.557	17526.47
785.891	17423.2
786.224	17434.27
786.558	17406.25
786.891	17162.19
787.224	17229.53
787.557	17126.03
787.891	17043.78
788.224	17030.22
788.557	17073.83
788.89	17050.1
789.223	16989.09
789.556	16905.7
789.888	16775.31
790.221	16738.02
790.554	16586.16
790.887	16649.21
791.219	16574.18
791.552	16448.54
791.884	16442.43
792.217	16403.11
792.549	16299.39
792.882	16114.08
793.214	16176.68
793.546	16206.96
793.879	16085.61
794.211	16010.81
794.543	16072.5
794.875	15968.1
795.207	16017.81
795.539	15822.56
795.871	15853.52
796.203	15793.64
796.535	15682
796.867	15598.39
797.198	15552.74
797.53	15590.93
797.862	15529.69
798.193	15499.41
798.525	15458.96
798.856	15357.72
799.188	15304.84
799.519	15272.75
799.85	15143.26
800.182	15119.53
800.513	15090.83
800.844	14978.07
801.175	15040.21
801.506	15103.49
801.837	14938.29
802.168	14860.78
802.499	14828.01
802.83	14795.25
803.161	14742.59
803.491	14756.83
803.822	14735.14
804.153	14657.62
804.483	14545.31
804.814	14536.95
805.145	14445.88
805.475	14478.87
805.805	14407.46
806.136	14414.01
806.466	14355.26
806.796	14297.18
807.126	14204.75
807.457	14205.88
807.787	14206.56
808.117	14116.62
808.447	14103.51
808.777	14124.98
809.107	14034.14
809.436	13956.85
809.766	14035.72
810.096	13910.98
810.426	13859
810.755	13895.61
811.085	13820.36
811.414	13783.3
811.744	13659.91
812.073	13730.64
812.403	13677.76
812.732	13579.46
813.061	13534.04
813.39	13503.3
813.719	13600.93
814.049	13433.02
814.378	13451.55
814.707	13409.75
815.036	13417.88
815.365	13390.54
815.693	13208.62
816.022	13181.5
816.351	13194.16
816.68	13064.9
817.008	13186.02
817.337	13027.38
817.665	13066.7
817.994	13087.72
818.322	13080.72
818.651	12912.58
818.979	12935.18
819.307	12988.06
819.636	12961.85
819.964	12903.32
820.292	12850.44
820.62	12873.49
820.948	12847.95
821.276	12858.8
821.604	12836.65
821.932	12914.17
822.259	12859.25
822.587	12827.39
822.915	12813.38
823.243	12803.89
823.57	12775.19
823.898	12837.78
824.225	12807.95
824.553	12746.94
824.88	12743.32
825.207	12760.27
825.535	12788.97
825.862	12825.58
826.189	12754.85
826.516	12920.95
826.843	12824.68
827.17	12838.91
827.497	12840.72
827.824	12833.49
828.151	12869.65
828.478	12827.61
828.805	12875.52
829.131	12794.62
829.458	12706.26
829.785	12690.22
830.111	12738.35
830.438	12795.53
830.764	12763.44
831.09	12788.97
831.417	12640.27
831.743	12668.07
832.069	12707.17
832.395	12646.83
832.722	12721.18
833.048	12682.76
833.374	12636.21
833.7	12556.21
834.026	12676.43
834.351	12702.65
834.677	12628.75
835.003	12552.37
835.329	12579.26
835.654	12492.03
835.98	12530.45
836.306	12516.44
836.631	12428.53
836.956	12541.29
837.282	12516.66
837.607	12466.04
837.932	12428.3
838.258	12346.5
838.583	12410
838.908	12312.15
839.233	12295.88
839.558	12359.83
839.883	12245.03
840.208	12234.86
840.533	12281.19
840.858	12299.94
841.182	12272.38
841.507	12243.9
841.832	12175.43
842.156	12119.38
842.481	12159.38
842.805	12088.65
843.13	12109.44
843.454	11983.57
843.778	12047.52
844.103	12007.52
844.427	11959.84
844.751	11936.56
845.075	11952.38
845.399	11820.18
845.723	11781.54
846.047	11792.84
846.371	11697.93
846.695	11685.72
847.019	11566.18
847.343	11564.15
847.666	11502.68
847.99	11494.77
848.313	11454.77
848.637	11398.05
848.96	11292.74
849.284	11373.19
849.607	11253.19
849.931	11225.17
850.254	11093.2
850.577	11103.14
850.9	10989.7
851.223	10999.41
851.546	11005.74
851.869	10907.21
852.192	10961.22
852.515	10810.27
852.838	10851.4
853.161	10863.15
853.483	10757.61
853.806	10727.56
854.129	10698.86
854.451	10693.66
854.774	10557.62
855.096	10677.84
855.419	10630.38
855.741	10606.66
856.063	10404.4
856.385	10426.32
856.708	10532.99
857.03	10360.79
857.352	10389.71
857.674	10344.74
857.996	10236.27
858.318	10252.77
858.64	10187.23
858.961	10177.74
859.283	10135.71
859.605	10149.27
859.926	10147.01
860.248	10142.26
860.57	10017.29
860.891	10063.62
861.212	10052.55
861.534	9970.29
861.855	9904.53
862.176	9911.53
862.498	9981.81
862.819	10009.16
863.14	9946.56
863.461	9872.66
863.782	9836.73
864.103	9859.11
864.424	9802.84
864.745	9841.48
865.065	9777.3
865.386	9793.34
865.707	9784.98
866.027	9684.65
866.348	9750.41
866.668	9767.13
866.989	9729.17
867.309	9614.59
867.63	9685.32
867.95	9653.91
868.27	9580.24
868.59	9625.66
868.91	9571.43
869.23	9596.29
869.55	9544.09
869.87	9527.81
870.19	9512.45
870.51	9559.9
870.83	9517.87
871.15	9471.32
871.469	9374.6
871.789	9459.12
872.109	9402.39
872.428	9339.57
872.748	9449.4
873.067	9415.5
873.386	9455.27
873.706	9386.8
874.025	9277.43
874.344	9264.32
874.663	9317.88
874.982	9286.92
875.301	9371.21
875.62	9265.45
875.939	9242.62
876.258	9300.48
876.577	9182.51
876.896	9170.31
877.214	9122.4
877.533	9169.18
877.852	9098.67
878.17	9131.67
878.489	9170.08
878.807	9155.17
879.125	9163.98
879.444	9050.54
879.762	9113.36
880.08	9100.03
880.398	9032.69
880.716	8992.69
881.034	8993.14
881.352	8977.77
881.67	8934.84
881.988	8935.97
882.306	8902.75
882.624	8916.08
882.941	8862.3
883.259	8838.12
883.577	8869.75
883.894	8819.81
884.212	8904.33
884.529	8773.94
884.846	8744.56
885.164	8720.6
885.481	8766.48
885.798	8792.24
886.115	8623.43
886.432	8701.17
886.75	8594.51
887.067	8660.94
887.383	8624.79
887.7	8661.17
888.017	8579.59
888.334	8585.47
888.651	8472.25
888.967	8537.11
889.284	8516.09
889.6	8526.26
889.917	8427.5
890.233	8401.74
890.55	8387.96
890.866	8361.07
891.182	8362.2
891.498	8323.55
891.815	8328.3
892.131	8345.02
892.447	8269.99
892.763	8256.44
893.079	8206.04
893.395	8176.44
893.71	8112.71
894.026	8191.58
894.342	8150.9
894.657	7985.71
894.973	8075.88
895.289	8051.02
895.604	8037.46
895.92	7984.58
896.235	7993.84
896.55	7911.59
896.865	7938.7
897.181	7917.24
897.496	7909.55
897.811	7854.86
898.126	7752.95
898.441	7817.12
898.756	7790.91
899.071	7669.56
899.386	7744.81
899.7	7628.88
900.015	7662.1
900.33	7588.2
900.644	7533.52
900.959	7557.92
901.273	7572.16
901.588	7503.69
901.902	7439.51
902.216	7423.24
902.531	7473.18
902.845	7399.28
903.159	7337.14
903.473	7324.93
903.787	7348.44
904.101	7271.6
904.415	7334.88
904.729	7235.45
905.042	7222.34
905.356	7180.31
905.67	7167.65
905.984	7148.67
906.297	7075.22
906.611	7000.88
906.924	7100.76
907.237	7031.16
907.551	6983.02
907.864	6969.69
908.177	6935.34
908.491	6904.83
908.804	6890.37
909.117	6877.04
909.43	6781.22
909.743	6806.3
910.056	6837.72
910.368	6717.72
910.681	6706.19
910.994	6715.91
911.307	6665.29
911.619	6641.34
911.932	6644.05
912.244	6590.26
912.557	6551.4
912.869	6518.85
913.181	6502.81
913.494	6522.47
913.806	6453.32
914.118	6415.13
914.43	6421
914.742	6384.62
915.054	6367.9
915.366	6351.63
915.678	6354.11
915.99	6253.55
916.302	6214
916.613	6237.73
916.925	6183.04
917.236	6237.05
917.548	6177.39
917.859	6208.58
918.171	6093.55
918.482	6078.41
918.794	6096.72
919.105	6050.62
919.416	5997.29
919.727	5980.11
920.038	6003.84
920.349	5940.79
920.66	5927.23
920.971	5912.32
921.282	5906.67
921.593	5890.62
921.903	5826.22
922.214	5781.47
922.525	5724.98
922.835	5764.07
923.146	5663.51
923.456	5723.17
923.767	5661.02
924.077	5652.89
924.387	5655.37
924.697	5619.22
925.008	5546.45
925.318	5516.85
925.628	5602.04
925.938	5580.12
926.248	5498.09
926.558	5451.76
926.867	5391.43
927.177	5371.31
927.487	5414.25
927.796	5370.18
928.106	5329.51
928.416	5322.05
928.725	5337.19
929.034	5258.32
929.344	5287.93
929.653	5250.86
929.962	5209.96
930.271	5172.45
930.581	5190.08
930.89	5155.5
931.199	5157.08
931.508	5099.91
931.817	5110.76
932.125	5068.72
932.434	5060.81
932.743	5056.07
933.051	4982.4
933.36	4988.27
933.669	4937.65
933.977	4940.36
934.286	4961.83
934.594	4890.87
934.902	4873.47
935.21	4819.46
935.519	4814.04
935.827	4843.64
936.135	4791.67
936.443	4734.95
936.751	4761.16
937.059	4781.72
937.367	4704.44
937.674	4708.51
937.982	4688.85
938.29	4695.4
938.597	4652.69
938.905	4602.29
939.213	4590.09
939.52	4583.09
939.827	4625.12
940.135	4561.17
940.442	4542.86
940.749	4487.72
941.056	4534.95
941.363	4491.11
941.67	4462.41
941.977	4363.88
942.284	4408.63
942.591	4413.6
942.898	4355.07
943.205	4365.69
943.511	4332.92
943.818	4259.48
944.125	4324.34
944.431	4291.79
944.738	4266.94
945.044	4274.39
945.35	4243.43
945.657	4195.98
945.963	4149.2
946.269	4130.67
946.575	4170.22
946.881	4143.78
947.187	4141.52
947.493	4093.16
947.799	4055.19
948.105	4056.77
948.41	4011.35
948.716	4018.35
949.022	3977.23
949.327	4033.95
949.633	3970.9
949.938	3982.88
950.244	3975.87
950.549	3913.05
950.854	3941.97
951.16	3913.72
951.465	3875.08
951.77	3857.91
952.075	3853.61
952.38	3807.06
952.685	3803.45
952.99	3772.49
953.294	3795.31
953.599	3796.21
953.904	3746.95
954.209	3692.49
954.513	3701.3
954.818	3701.98
955.122	3673.73
955.426	3673.51
955.731	3652.94
956.035	3619.04
956.339	3650.68
956.643	3612.94
956.948	3604.35
957.252	3594.19
957.556	3608.42
957.86	3532.49
958.163	3549.44
958.467	3500.18
958.771	3540.85
959.075	3501.31
959.378	3480.97
959.682	3490.01
959.985	3492.04
960.289	3414.75
960.592	3438.94
960.896	3398.26
961.199	3403.46
961.502	3359.84
961.805	3367.98
962.108	3343.12
962.411	3381.54
962.714	3323.91
963.017	3312.38
963.32	3287.53
963.623	3277.13
963.926	3293.63
964.228	3264.7
964.531	3208.21
964.833	3227.19
965.136	3222.9
965.438	3184.03
965.741	3195.33
966.043	3163.24
966.345	3183.12
966.648	3153.74
966.95	3115.78
967.252	3121.88
967.554	3123.92
967.856	3116.91
968.158	3108.32
968.46	3092.05
968.761	3052.96
969.063	2983.58
969.365	3049.34
969.666	3017.48
969.968	2958.72
970.269	2994.2
970.571	2956.69
970.872	2955.78
971.174	2887.09
971.475	2948.33
971.776	2902
972.077	2881.21
972.378	2905.62
972.679	2879.63
972.98	2881.89
973.281	2859.29
973.582	2820.87
973.883	2837.82
974.183	2814.09
974.484	2825.62
974.785	2756.24
975.085	2806.18
975.386	2801.21
975.686	2746.3
975.986	2758.27
976.287	2753.76
976.587	2720.08
976.887	2708.33
977.187	2724.83
977.487	2721.67
977.787	2649.58
978.087	2670.59
978.387	2650.93
978.687	2640.54
978.987	2591.5
979.286	2632.18
979.586	2626.3
979.885	2615.91
980.185	2579.97
980.484	2596.02
980.784	2564.16
981.083	2538.17
981.382	2566.64
981.682	2520.09
981.981	2541.11
982.28	2505.85
982.579	2482.35
982.878	2483.71
983.177	2497.72
983.475	2476.7
983.774	2444.84
984.073	2454.55
984.372	2439.87
984.67	2423.14
984.969	2443.25
985.267	2409.58
985.566	2380.21
985.864	2372.3
986.162	2361.45
986.461	2358.96
986.759	2347.89
987.057	2323.26
987.355	2338.4
987.653	2322.13
987.951	2293.88
988.249	2305.41
988.547	2276.93
988.844	2269.7
989.142	2266.08
989.44	2226.54
989.737	2233.32
990.035	2245.29
990.332	2206.2
990.63	2189.7
990.927	2210.04
991.224	2225.63
991.521	2193.54
991.819	2215.24
992.116	2184.5
992.413	2171.4
992.71	2107.9
993.006	2108.12
993.303	2139.76
993.6	2114.68
993.897	2125.07
994.193	2059.31
994.49	2095.02
994.787	2100.44
995.083	2086.43
995.379	2041.46
995.676	2067.9
995.972	2050.95
996.268	2074.45
996.565	2054.34
996.861	2016.83
997.157	1993.1
997.453	1991.97
997.749	1975.7
998.044	1941.12
998.34	1961.46
998.636	1917.85
998.932	1932.31
999.227	1944.74
999.523	1940.44
999.818	1926.88
1000.114	1893.44
1000.409	1871.07
1000.704	1897.51
1001	1896.38
1001.295	1847.56
1001.59	1871.29
1001.885	1854.34
1002.18	1851.41
1002.475	1824.97
1002.77	1816.6
1003.065	1806.21
1003.359	1814.12
1003.654	1805.31
1003.949	1788.58
1004.243	1754.69
1004.538	1744.29
1004.832	1739.54
1005.127	1747.45
1005.421	1762.14
1005.715	1755.59
1006.009	1735.7
1006.304	1720.79
1006.598	1688.02
1006.892	1701.58
1007.186	1657.51
1007.48	1677.17
1007.773	1677.85
1008.067	1642.6
1008.361	1622.71
1008.655	1625.2
1008.948	1633.33
1009.242	1626.55
1009.535	1638.08
1009.829	1623.62
1010.122	1612.77
1010.415	1599.21
1010.708	1558.76
1011.001	1554.92
1011.295	1570.51
1011.588	1546.33
1011.881	1533.9
1012.173	1516.73
1012.466	1535.93
1012.759	1510.85
1013.052	1499.1
1013.344	1503.62
1013.637	1498.42
1013.93	1476.27
1014.222	1504.97
1014.514	1486.22
1014.807	1450.29
1015.099	1453
1015.391	1431.3
1015.683	1415.94
1015.976	1419.55
1016.268	1412.32
1016.56	1396.05
1016.851	1389.05
1017.143	1416.39
1017.435	1368.71
1017.727	1393.79
1018.018	1364.41
1018.31	1366.67
1018.602	1371.42
1018.893	1362.38
1019.185	1329.39
1019.476	1308.14
1019.767	1301.14
1020.058	1293.91
1020.35	1292.55
1020.641	1283.29
1020.932	1292.32
1021.223	1250.97
1021.514	1264.75
1021.804	1231.54
1022.095	1242.61
1022.386	1249.39
1022.677	1262.5
1022.967	1234.93
1023.258	1234.7
1023.548	1201.03
1023.839	1219.78
1024.129	1214.81
1024.419	1210.07
1024.709	1189.5
1025	1182.27
1025.29	1149.28
1025.58	1181.82
1025.87	1168.49
1026.16	1149.73
1026.449	1163.29
1026.739	1153.8
1027.029	1128.94
1027.319	1119.45
1027.608	1103.4
1027.898	1086.68
1028.187	1103.18
1028.477	1111.76
1028.766	1082.16
1029.055	1090.52
1029.344	1088.49
1029.634	1055.27
1029.923	1052.33
1030.212	1056.17
1030.501	1048.26
1030.79	1027.02
1031.078	1019.79
1031.367	1009.85
1031.656	1010.52
1031.945	1010.3
1032.233	1011.43
1032.522	1014.82
1032.81	994.93
1033.099	983.41
1033.387	988.15
1033.675	993.12
1033.963	987.02
1034.251	979.34
1034.54	942.5
1034.828	973.46
1035.116	932.56
1035.403	952.9
1035.691	932.33
1035.979	944.09
1036.267	940.92
1036.554	909.74
1036.842	922.39
1037.129	925.78
1037.417	891.66
1037.704	923.97
1037.992	898.44
1038.279	898.21
1038.566	874.03
1038.853	874.03
1039.14	874.03
