Data from tablewood_brown_FLMS001491_041.txt Node
Date: Tue Feb 07 11:10:30 GMT 2017
User: dcchb
Spectrometer: FLMS00149
Trigger mode: 0
Integration Time (sec): 2.000000E-2
Scans to average: 10
Electric dark correction enabled: true
Nonlinearity correction enabled: false
Boxcar width: 0
XAxis mode: Wavelengths
Number of Pixels in Spectrum: 2048
>>>>>Begin Spectral Data<<<<<
341.393	-0.64
341.776	-0.64
342.16	-0.64
342.543	-51.48
342.927	-57.36
343.31	-72.72
343.693	-67.3
344.077	-87.64
344.46	-59.62
344.843	-45.15
345.226	-39.96
345.61	-31.37
345.993	-22.56
346.376	-9.45
346.759	4.79
347.142	53.83
347.525	42.98
347.908	56.76
348.291	68.52
348.674	90.66
349.057	118.23
349.44	117.1
349.823	132.47
350.206	148.29
350.588	188.06
350.971	201.39
351.354	240.04
351.737	235.97
352.119	252.69
352.502	254.5
352.884	299.7
353.267	281.16
353.65	305.35
354.032	315.74
354.414	311.45
354.797	318.45
355.179	306.02
355.562	318.23
355.944	311.45
356.326	326.36
356.709	342.41
357.091	328.4
357.473	342.18
357.855	367.26
358.238	342.86
358.62	346.02
359.002	345.34
359.384	334.72
359.766	329.53
360.148	348.96
360.53	352.35
360.912	340.37
361.294	343.99
361.676	344.44
362.057	341.5
362.439	343.31
362.821	339.92
363.203	327.27
363.584	351.9
363.966	333.59
364.348	352.35
364.729	347.15
365.111	328.85
365.493	328.4
365.874	329.53
366.256	316.42
366.637	334.95
367.019	339.24
367.4	333.37
367.781	349.86
368.163	332.91
368.544	309.64
368.925	326.36
369.306	329.98
369.688	336.3
370.069	350.99
370.45	326.59
370.831	334.27
371.212	327.72
371.593	334.72
371.974	331.79
372.355	311.9
372.736	324.33
373.117	330.2
373.498	317.55
373.879	312.8
374.26	312.8
374.641	317.1
375.021	337.89
375.402	356.87
375.783	320.26
376.163	342.18
376.544	348.06
376.925	351.9
377.305	344.89
377.686	342.41
378.066	353.03
378.447	322.07
378.827	376.76
379.208	336.98
379.588	341.95
379.968	348.51
380.349	341.95
380.729	342.18
381.109	372.01
381.489	350.54
381.87	360.03
382.25	364.1
382.63	356.87
383.01	386.47
383.39	369.98
383.77	367.26
384.15	373.37
384.53	395.74
384.91	378.56
385.29	386.92
385.67	368.85
386.049	383.99
386.429	378.56
386.809	395.74
387.189	387.38
387.568	381.28
387.948	387.83
388.328	409.3
388.707	384.67
389.087	413.36
389.466	396.87
389.846	418.11
390.225	397.09
390.605	417.88
390.984	396.87
391.363	414.27
391.743	405.46
392.122	460.14
392.501	400.03
392.881	426.25
393.26	449.75
393.639	429.41
394.018	424.21
394.397	429.86
394.776	433.25
395.155	426.47
395.534	454.04
395.913	438.9
396.292	456.3
396.671	457.21
397.05	458.11
397.429	463.08
397.808	464.89
398.186	463.31
398.565	462.86
398.944	472.57
399.323	466.92
399.701	485
400.08	501.5
400.458	508.96
400.837	473.48
401.215	485.91
401.594	486.81
401.972	496.75
402.351	514.15
402.729	505.79
403.107	499.69
403.486	508.5
403.864	499.24
404.242	520.48
404.62	506.24
404.999	539.24
405.377	495.62
405.755	540.59
406.133	531.55
406.511	538.11
406.889	557.54
407.267	544.21
407.645	534.27
408.023	558.67
408.401	579.91
408.779	563.64
409.156	570.65
409.534	578.78
409.912	578.11
410.29	599.57
410.667	588.73
411.045	608.84
411.422	606.81
411.8	597.77
412.178	614.94
412.555	622.4
412.933	583.98
413.31	629.86
413.687	625.11
414.065	633.25
414.442	646.81
414.819	663.98
415.197	659.23
415.574	641.38
415.951	650.19
416.328	659.23
416.705	664.43
417.082	675.73
417.46	670.99
417.837	703.53
418.214	706.92
418.591	711.89
418.967	685.67
419.344	675.73
419.721	706.01
420.098	721.83
420.475	729.74
420.852	716.18
421.228	717.99
421.605	733.13
421.982	739.91
422.358	742.62
422.735	770.87
423.111	738.1
423.488	762.73
423.864	787.82
424.241	769.51
424.617	765.67
424.994	780.13
425.37	798.89
425.746	808.61
426.123	788.5
426.499	814.03
426.875	825.11
427.251	817.42
427.627	790.98
428.003	830.75
428.379	878.21
428.756	840.02
429.132	849.51
429.507	859
429.883	857.65
430.259	890.64
430.635	896.97
431.011	890.64
431.387	908.04
431.763	936.29
432.138	934.93
432.514	915.5
432.89	948.04
433.265	956.4
433.641	980.81
434.016	1006.57
434.392	978.32
434.767	1007.7
435.143	1023.52
435.518	1019.22
435.894	1016.96
436.269	1032.11
436.644	1043.86
437.02	1047.92
437.395	1060.13
437.77	1062.39
438.145	1072.56
438.52	1075.27
438.895	1077.98
439.271	1080.24
439.646	1134.25
440.021	1125.89
440.395	1127.7
440.77	1136.51
441.145	1139.45
441.52	1157.3
441.895	1175.38
442.27	1169.5
442.645	1170.41
443.019	1162.72
443.394	1202.95
443.769	1213.8
444.143	1182.16
444.518	1219.45
444.892	1229.61
445.267	1258.54
445.641	1234.36
446.016	1236.17
446.39	1256.73
446.764	1263.06
447.139	1289.73
447.513	1269.16
447.887	1284.3
448.262	1277.75
448.636	1276.84
449.01	1298.09
449.384	1320.69
449.758	1357.07
450.132	1334.7
450.506	1331.76
450.88	1340.57
451.254	1352.32
451.628	1376.73
452.002	1346.45
452.376	1428.71
452.75	1386.9
453.123	1428.71
453.497	1432.77
453.871	1437.74
454.244	1437.07
454.618	1446.33
454.992	1519.32
455.365	1508.48
455.739	1508.93
456.112	1533.56
456.486	1544.18
456.859	1571.07
457.232	1625.54
457.606	1589.61
457.979	1592.54
458.352	1628.02
458.725	1641.36
459.099	1639.55
459.472	1696.27
459.845	1692.43
460.218	1745.99
460.591	1734.23
460.964	1745.31
461.337	1769.04
461.71	1825.98
462.083	1842.93
462.456	1849.26
462.829	1868.92
463.201	1880.9
463.574	1893.78
463.947	1926.09
464.32	1959.09
464.692	1971.97
465.065	2011.51
465.438	2007.9
465.81	2029.14
466.183	2045.41
466.555	2118.18
466.928	2106.43
467.3	2093.09
467.672	2175.35
468.045	2222.81
468.417	2234.33
468.789	2282.92
469.161	2256.25
469.534	2330.38
469.906	2386.42
470.278	2406.31
470.65	2430.03
471.022	2420.32
471.394	2497.6
471.766	2548.9
472.138	2584.16
472.51	2624.61
472.882	2651.27
473.253	2735.79
473.625	2782.79
473.997	2820.99
474.369	2836.58
474.74	2869.57
475.112	2950.93
475.484	3038.83
475.855	3058.27
476.227	3105.27
476.598	3196.12
476.97	3217.13
477.341	3314.76
477.713	3399.5
478.084	3440.4
478.455	3533.06
478.827	3566.73
479.198	3685.82
479.569	3645.14
479.94	3782.99
480.311	3829.32
480.682	3945.7
481.053	4011.01
481.424	4075.19
481.795	4155.41
482.166	4194.51
482.537	4291
482.908	4374.16
483.279	4357.22
483.65	4513.14
484.021	4621.16
484.391	4674.5
484.762	4726.7
485.133	4741.39
485.503	4836.75
485.874	4922.85
486.244	5007.82
486.615	5069.74
486.985	5158.78
487.356	5290.75
487.726	5324.65
488.097	5485.77
488.467	5463.63
488.837	5546.11
489.207	5652.55
489.578	5732.77
489.948	5767.12
490.318	5888.7
490.688	5940.9
491.058	6035.14
491.428	6111.52
491.798	6136.15
492.168	6267.22
492.538	6290.05
492.908	6369.82
493.278	6427.44
493.648	6462.25
494.017	6557.61
494.387	6596.71
494.757	6693.43
495.126	6804.84
495.496	6789.47
495.866	6807.55
496.235	6930.26
496.605	6949.24
496.974	7038.5
497.344	7138.39
497.713	7158.05
498.082	7213.86
498.452	7329.79
498.821	7348.32
499.19	7369.79
499.559	7410.02
499.928	7481.88
500.298	7530.92
500.667	7627.41
501.036	7618.83
501.405	7772.72
501.774	7787.86
502.143	7815.2
502.512	7864.02
502.88	7955.31
503.249	7965.03
503.618	8092.71
503.987	8122.99
504.356	8128.42
504.724	8226.49
505.093	8209.54
505.462	8294.74
505.83	8371.35
506.199	8400.27
506.567	8520.72
506.936	8527.73
507.304	8754.61
507.672	8721.85
508.041	8715.07
508.409	8805.91
508.777	8931.33
509.145	8966.59
509.514	8982.86
509.882	9139.69
510.25	9145.34
510.618	9138.79
510.986	9287.26
511.354	9346.46
511.722	9447.48
512.09	9535.61
512.458	9510.53
512.826	9568.6
513.193	9707.58
513.561	9713.69
513.929	9944.41
514.297	9969.05
514.664	9996.16
515.032	10073
515.4	10134.92
515.767	10190.51
516.135	10266.21
516.502	10277.96
516.869	10473.67
517.237	10548.24
517.604	10481.35
517.972	10652.42
518.339	10752.53
518.706	10756.37
519.073	10855.58
519.44	11004.5
519.808	11093.08
520.175	11113.65
520.542	11287.88
520.909	11359.29
521.276	11347.77
521.643	11515.9
522.009	11573.3
522.376	11687.19
522.743	11709.11
523.11	11851.26
523.477	11983.91
523.843	12151.59
524.21	12261.64
524.577	12336.67
524.943	12385.93
525.31	12493.27
525.676	12622.08
526.043	12725.81
526.409	12824.56
526.776	12962.19
527.142	12995.18
527.508	13065.24
527.874	13113.37
528.241	13195.18
528.607	13253.48
528.973	13367.37
529.339	13385.45
529.705	13529.86
530.071	13662.28
530.437	13742.05
530.803	13869.73
531.169	13867.25
531.535	13959.22
531.901	13991.54
532.267	14070.63
532.632	14176.17
532.998	14259.33
533.364	14359.21
533.73	14413
534.095	14493.67
534.461	14554.69
534.826	14630.84
535.192	14692.99
535.557	14818.86
535.923	14817.51
536.288	14829.26
536.653	14927.79
537.019	14932.98
537.384	15019.31
537.749	15127.55
538.114	15241
538.479	15234.44
538.845	15293.2
539.21	15264.05
539.575	15344.95
539.94	15479.18
540.305	15445.96
540.67	15578.39
541.034	15604.83
541.399	15733.19
541.764	15765.5
542.129	15857.93
542.494	15852.05
542.858	15944.93
543.223	16005.05
543.587	16075.78
543.952	16027.19
544.316	16127.3
544.681	16053.41
545.045	16316.68
545.41	16280.07
545.774	16332.72
546.138	16396.22
546.503	16484.13
546.867	16549.44
547.231	16701.52
547.595	16688.19
547.959	16773.16
548.324	16690.45
548.688	16799.37
549.052	16998.47
549.416	17005.02
549.779	17006.6
550.143	17163.88
550.507	17235.75
550.871	17361.39
551.235	17376.53
551.599	17440.94
551.962	17604.1
552.326	17654.04
552.689	17833.47
553.053	17743.98
553.417	17876.18
553.78	18155.95
554.143	17993.69
554.507	18213.57
554.87	18363.18
555.234	18506
555.597	18460.8
555.96	18597.97
556.323	18684.97
556.686	18856.5
557.05	18963.39
557.413	19031.41
557.776	19117.05
558.139	19267.78
558.502	19451.51
558.865	19505.52
559.228	19679.3
559.59	19742.8
559.953	19788.45
560.316	20077.25
560.679	20060.31
561.041	20257.81
561.404	20357.25
561.767	20625.26
562.129	20549.78
562.492	20836.33
562.854	20928.53
563.217	21040.17
563.579	21102.76
563.941	21329.43
564.304	21551.57
564.666	21820.71
565.028	21907.04
565.39	21863.65
565.753	22100.48
566.115	22283.07
566.477	22390.64
566.839	22535.27
567.201	22843.06
567.563	22932.55
567.925	23095.03
568.287	23189.72
568.648	23302.71
569.01	23386.32
569.372	23780.43
569.734	23777.95
570.095	24024.72
570.457	24238.5
570.819	24257.94
571.18	24464.48
571.542	24694.31
571.903	24714.87
572.265	24881.87
572.626	25016.56
572.987	25115.77
573.349	25390.79
573.71	25471.46
574.071	25637.79
574.432	25834.39
574.794	26108.28
575.155	26110.09
575.516	26232.12
575.877	26405
576.238	26543.53
576.599	26653.35
576.96	26841.6
577.32	26815.16
577.681	27049.5
578.042	27145.77
578.403	27353.67
578.763	27333.56
579.124	27404.97
579.485	27559.32
579.845	27921.57
580.206	27843.15
580.566	27887.67
580.927	27972.64
581.287	28124.5
581.648	28151.84
582.008	28410.59
582.368	28399.07
582.728	28641.1
583.089	28562
583.449	28660.53
583.809	28663.47
584.169	28827.31
584.529	28683.58
584.889	29077.24
585.249	28927.19
585.609	28907.08
585.969	29183
586.329	29112.72
586.688	29230.23
587.048	29255.09
587.408	29157.69
587.768	29236.79
588.127	29287.63
588.487	29358.59
588.846	29446.05
589.206	29392.94
589.565	29566.5
589.925	29706.38
590.284	29590
590.643	29652.82
591.003	29686.49
591.362	29741.86
591.721	29800.61
592.08	29715.87
592.44	29862.76
592.799	29934.85
593.158	29882.19
593.517	29879.26
593.876	29841.52
594.235	29875.19
594.593	29901.18
594.952	29966.49
595.311	29914.06
595.67	29957.45
596.029	30106.82
596.387	30119.25
596.746	30217.1
597.104	30043.09
597.463	30109.53
597.822	30253.26
598.18	30143.88
598.538	30164.67
598.897	30272.24
599.255	30070.21
599.613	30599.92
599.972	30331.9
600.33	30554.49
600.688	30351.33
601.046	30486.92
601.404	30536.41
601.762	30476.76
602.12	30565.34
602.478	30649.86
602.836	30709.52
603.194	30527.6
603.552	30543.19
603.91	30531.89
604.268	30735.96
604.625	30559.46
604.983	30676.75
605.341	30618.67
605.698	30835.39
606.056	30890.98
606.413	30802.85
606.771	30913.58
607.128	30871.55
607.485	30911.77
607.843	30837.2
608.2	31030.86
608.557	31150.86
608.914	31059.56
609.272	31276.51
609.629	31212.56
609.986	31220.24
610.343	31187.02
610.7	31442.83
611.057	31442.15
611.414	31397.18
611.771	31411.19
612.127	31536.39
612.484	31615.48
612.841	31678.08
613.198	31624.75
613.554	31515.82
613.911	31829.71
614.267	31664.07
614.624	31748.81
614.98	31834.69
615.337	31868.13
615.693	31767.34
616.05	31800.11
616.406	31794.91
616.762	31751.98
617.118	31810.96
617.475	31869.26
617.831	31887.34
618.187	31841.01
618.543	31942.93
618.899	32147.45
619.255	32095.02
619.611	32210.27
619.967	32175.24
620.323	32379.3
620.678	32107.45
621.034	32009.37
621.39	31997.17
621.746	32063.61
622.101	32411.39
622.457	32103.38
622.812	32173.66
623.168	32256.14
623.523	32181.8
623.879	32311.74
624.234	32065.64
624.589	32210.27
624.945	32200.78
625.3	32384.05
625.655	32284.17
626.01	32407.1
626.365	32464.27
626.72	32365.97
627.075	32430.83
627.43	32261.12
627.785	32237.16
628.14	32357.16
628.495	32341.11
628.85	32291.17
629.205	32128.24
629.559	32372.52
629.914	32284.17
630.269	32173.21
630.623	32102.48
630.978	31948.81
631.332	32107.9
631.687	32172.08
632.041	32050.05
632.396	32034.45
632.75	31956.94
633.104	31997.62
633.459	31843.5
633.813	31871.07
634.167	31893.67
634.521	31950.84
634.875	32005.3
635.229	31815.93
635.583	31733.9
635.937	31772.31
636.291	31548.59
636.645	31661.81
636.999	31709.72
637.352	31598.99
637.706	31385.66
638.06	31540.23
638.413	31559.21
638.767	31493
639.121	31600.34
639.474	31392.21
639.828	31382.27
640.181	31358.54
640.534	31474.02
640.888	31218.66
641.241	31119.9
641.594	31319.9
641.947	31360.57
642.301	31057.98
642.654	31319.9
643.007	31230.41
643.36	31154.93
643.713	31116.74
644.066	31227.92
644.419	31025.44
644.771	30856.41
645.124	30554.04
645.477	30444.44
645.83	30428.17
646.182	30157.89
646.535	30031.12
646.888	30292.13
647.24	30109.76
647.593	30271.34
647.945	30092.36
648.298	30029.99
648.65	30024.11
649.002	29981.63
649.355	30055.3
649.707	30016.43
650.059	30106.37
650.411	30390.2
650.763	30533.02
651.115	30735.28
651.467	30608.28
651.819	30710.42
652.171	30644.89
652.523	30556.98
652.875	30702.06
653.227	30472.24
653.578	30700.93
653.93	30582.06
654.282	30411.67
654.633	30438.11
654.985	30531.89
655.337	30419.81
655.688	30458
656.039	30599.69
656.391	30320.6
656.742	30435.85
657.094	30415.97
657.445	30519.92
657.796	30512.23
658.147	30446.7
658.498	30423.2
658.849	30490.31
659.2	30383.65
659.551	30301.39
659.902	30514.04
660.253	30463.65
660.604	30479.01
660.955	30354.05
661.306	30549.52
661.656	30431.56
662.007	30467.49
662.358	30390.88
662.708	30366.25
663.059	30457.55
663.409	30245.12
663.76	30420.03
664.11	30424.78
664.461	30356.31
664.811	30347.94
665.161	30341.84
665.511	30329.64
665.862	30313.37
666.212	30467.04
666.562	30392.69
666.912	30403.99
667.262	30384.1
667.612	30310.88
667.962	30339.58
668.312	30366.25
668.662	30512.23
669.011	30376.19
669.361	30367.61
669.711	30228.4
670.06	30325.57
670.41	30042.42
670.76	30085.58
671.109	30257.55
671.459	30054.39
671.808	30101.62
672.157	30087.39
672.507	29902.31
672.856	29959.25
673.205	29997.9
673.554	30096.2
673.904	29960.38
674.253	30140.94
674.602	30059.14
674.951	29626.16
675.3	29484.92
675.649	30036.54
675.998	29971.91
676.346	29882.42
676.695	30029.54
677.044	29794.51
677.393	29830.67
677.741	29797.22
678.09	29657.34
678.438	29712.26
678.787	29696.66
679.135	29715.65
679.484	29454.41
679.832	29577.34
680.181	29502.77
680.529	29568.08
680.877	29414.86
681.225	29418.03
681.573	29583.67
681.922	29334.19
682.27	29301.42
682.618	29443.56
682.966	29186.39
683.314	29264.36
683.661	29202.44
684.009	28919.73
684.357	28926.97
684.705	28830.7
685.053	28860.53
685.4	28877.48
685.748	28761.55
686.095	28700.3
686.443	28574.88
686.79	28510.03
687.138	28613.75
687.485	28550.25
687.832	28423.7
688.18	28348.9
688.527	28253.54
688.874	28268.9
689.221	28189.81
689.568	28183.93
689.915	28068.91
690.262	28091.51
690.609	27904.39
690.956	27897.16
691.303	27824.62
691.65	27616.04
691.997	27575.14
692.344	27308.48
692.69	27469.6
693.037	27438.19
693.383	27189.84
693.73	27297.18
694.077	27090.63
694.423	27078.88
694.769	27027.35
695.116	26894.02
695.462	26850.41
695.808	26763.18
696.155	26814.48
696.501	26523.86
696.847	26623.98
697.193	26373.13
697.539	26463.3
697.885	26270.76
698.231	26212.01
698.577	26282.29
698.923	26022.63
699.269	25887.72
699.614	25790.32
699.96	25851.11
700.306	25733.15
700.651	25639.14
700.997	25505.59
701.342	25499.71
701.688	25367.06
702.033	25314.86
702.379	25253.62
702.724	25158.7
703.069	25291.81
703.415	24971.36
703.76	25062.89
704.105	24890.46
704.45	24827.41
704.795	24678.49
705.14	24623.58
705.485	24652.28
705.83	24599.4
706.175	24549.23
706.52	24465.84
706.865	24346.75
707.209	24283.47
707.554	24229.24
707.899	24175.23
708.243	24091.39
708.588	24047.55
708.932	23956.25
709.277	23898.17
709.621	23857.04
709.966	23756.93
710.31	23786.54
710.654	23680.78
710.998	23588.8
711.342	23574.56
711.687	23538.41
712.031	23476.26
712.375	23376.38
712.719	23414.34
713.063	23243.95
713.407	23339.99
713.75	23226.78
714.094	23280.11
714.438	23189.94
714.782	23223.84
715.125	23013
715.469	23051.87
715.812	22911.53
716.156	22774.13
716.499	22890.51
716.843	22975.48
717.186	22891.42
717.53	22829.27
717.873	22916.95
718.216	22912.89
718.559	22668.82
718.902	22539.11
719.246	22683.74
719.589	22567.58
719.932	22495.04
720.275	22574.14
720.617	22550.41
720.96	22388.38
721.303	22491.2
721.646	22477.19
721.989	22355.16
722.331	22356.29
722.674	22196.97
723.016	22316.97
723.359	22256.18
723.701	22351.77
724.044	22253.47
724.386	22120.82
724.729	22278.1
725.071	22190.42
725.413	22222.96
725.755	22148.39
726.097	22129.18
726.439	22063.64
726.782	22111.1
727.124	22192.91
727.465	22105.9
727.807	22083.3
728.149	21975.51
728.491	21941.16
728.833	22112.68
729.175	21914.04
729.516	21960.82
729.858	21932.8
730.199	22024.32
730.541	21870.43
730.882	21780.49
731.224	21945
731.565	21795.85
731.906	21777.77
732.248	21840.82
732.589	21742.97
732.93	21731.9
733.271	21756.31
733.612	21869.52
733.953	21796.31
734.294	21673.82
734.635	21646.03
734.976	21765.57
735.317	21643.54
735.658	21658.23
735.999	21705.46
736.339	21685.8
736.68	21732.35
737.021	21681.51
737.361	21658.23
737.702	21719.7
738.042	21688.06
738.383	21629.3
738.723	21785.91
739.063	21651.45
739.404	21733.26
739.744	21606.03
740.084	21689.87
740.424	21629.53
740.764	21613.49
741.104	21721.05
741.444	21605.12
741.784	21577.55
742.124	21589.76
742.464	21614.84
742.804	21596.76
743.143	21473.83
743.483	21569.19
743.823	21465.47
744.162	21523.09
744.502	21470.66
744.841	21474.73
745.181	21605.35
745.52	21486.71
745.86	21519.48
746.199	21478.12
746.538	21504.56
746.877	21565.13
747.216	21540.27
747.556	21455.3
747.895	21534.17
748.234	21572.58
748.573	21546.59
748.911	21371.23
749.25	21472.7
749.589	21328.52
749.928	21442.42
750.267	21486.71
750.605	21407.16
750.944	21367.16
751.283	21392.25
751.621	21361.29
751.96	21353.61
752.298	21209.2
752.636	21323.78
752.975	21215.98
753.313	21132.14
753.651	21272.48
753.989	21085.82
754.327	21124.46
754.666	21100.73
755.004	21127.62
755.342	21160.39
755.679	21098.02
756.017	21019.6
756.355	21069.09
756.693	20964.01
757.031	20958.81
757.368	20838.59
757.706	20835.65
758.044	20795.88
758.381	20889.21
758.719	20687.86
759.056	20689.89
759.394	20673.4
759.731	20562.67
760.068	20536
760.405	20421.88
760.743	20394.76
761.08	20544.36
761.417	20316.34
761.754	20395.44
762.091	20279.74
762.428	20272.73
762.765	20154.77
763.102	20183.47
763.438	20094.43
763.775	20033.87
764.112	19948.67
764.449	20045.39
764.785	19892.4
765.122	19795.23
765.458	19690.6
765.795	19648.34
766.131	19618.96
766.467	19561.79
766.804	19512.98
767.14	19418.74
767.476	19498.51
767.812	19337.61
768.148	19394.11
768.485	19193.44
768.821	19099.43
769.157	19154.12
769.492	19070.95
769.828	19067.34
770.164	18919.54
770.5	18907.57
770.836	18889.72
771.171	18758.65
771.507	18680.91
771.842	18555.71
772.178	18607.46
772.513	18575.6
772.849	18550.52
773.184	18330.86
773.519	18368.37
773.855	18309.17
774.19	18239.34
774.525	18067.36
774.86	18189.85
775.195	18120.24
775.53	17985.78
775.865	17922.73
776.2	17828.73
776.535	17641.61
776.87	17745.56
777.205	17681.84
777.539	17577.43
777.874	17620.14
778.209	17361.85
778.543	17426.48
778.878	17337.21
779.212	17258.8
779.547	17147.84
779.881	17297.21
780.215	17058.8
780.55	17085.69
780.884	17014.96
781.218	16833.05
781.552	16909.2
781.886	16824.46
782.22	16786.49
782.554	16684.12
782.888	16601.41
783.222	16400.52
783.556	16423.57
783.889	16437.8
784.223	16333.62
784.557	16284.81
784.89	16299.73
785.224	16238.49
785.557	16155.55
785.891	16074.2
786.224	16036.68
786.558	16048.43
786.891	15843.92
787.224	15917.14
787.557	15755.33
787.891	15820.42
788.224	15759.85
788.557	15683.02
788.89	15651.83
789.223	15616.58
789.556	15472.63
789.888	15494.78
790.221	15455.68
790.554	15283.71
790.887	15327.32
791.219	15225.86
791.552	15205.97
791.884	15061.79
792.217	15089.59
792.549	15083.26
792.882	14957.39
793.214	14866.54
793.546	14925.98
793.879	14778.41
794.211	14670.62
794.543	14716.27
794.875	14760.56
795.207	14730.5
795.539	14673.1
795.871	14673.55
796.203	14490.06
796.535	14365.31
796.867	14384.52
797.198	14317.18
797.53	14316.95
797.862	14226.11
798.193	14280.57
798.525	14162.16
798.856	14181.36
799.188	14039.22
799.519	13936.17
799.85	13947.92
800.182	13918.77
800.513	13953.35
800.844	13824.31
801.175	13822.5
801.506	13791.54
801.837	13760.58
802.168	13727.82
802.499	13665.45
802.83	13646.01
803.161	13586.35
803.491	13520.14
803.822	13668.38
804.153	13426.36
804.483	13348.62
804.814	13299.58
805.145	13384.32
805.475	13338.9
805.805	13293.03
806.136	13255.29
806.466	13295.06
806.796	13218.23
807.126	13141.62
807.457	13045.8
807.787	13054.61
808.117	13017.78
808.447	13011.68
808.777	13007.61
809.107	12911.34
809.436	12823.43
809.766	12846.26
810.096	12823.89
810.426	12769.42
810.755	12741.63
811.085	12718.13
811.414	12592.71
811.744	12627.73
812.073	12625.25
812.403	12586.83
812.732	12484.01
813.061	12490.34
813.39	12335.31
813.719	12419.6
814.049	12470.9
814.378	12439.72
814.707	12426.16
815.036	12331.47
815.365	12278.14
815.693	12199.72
816.022	12216.67
816.351	12193.85
816.68	12183.9
817.008	12132.6
817.337	11996.79
817.665	12011.7
817.994	12001.31
818.322	12039.5
818.651	11857.36
818.979	11919.28
819.307	12024.36
819.636	11841.54
819.964	11899.39
820.292	11868.43
820.62	11905.49
820.948	11836.34
821.276	11875.89
821.604	11767.42
821.932	11909.11
822.259	11842.22
822.587	11715.67
822.915	11768.32
823.243	11801.77
823.57	11819.62
823.898	11757.02
824.225	11699.17
824.553	11722.67
824.88	11772.84
825.207	11812.84
825.535	11809.68
825.862	11792.95
826.189	11767.64
826.516	11858.49
826.843	11809.9
827.17	11773.29
827.497	11835.66
827.824	11842.22
828.151	11838.6
828.478	11732.84
828.805	11819.17
829.131	11714.54
829.458	11750.02
829.785	11654.65
830.111	11759.96
830.438	11716.12
830.764	11691.94
831.09	11735.78
831.417	11627.31
831.743	11705.27
832.069	11720.41
832.395	11660.98
832.722	11743.69
833.048	11740.52
833.374	11671.6
833.7	11610.13
834.026	11597.25
834.351	11705.27
834.677	11641.54
835.003	11604.48
835.329	11579.62
835.654	11538.95
835.98	11562.68
836.306	11643.8
836.631	11496.69
836.956	11564.94
837.282	11515.9
837.607	11439.74
837.932	11466.63
838.258	11482
838.583	11451.27
838.908	11304.83
839.233	11437.48
839.558	11435.9
839.883	11320.87
840.208	11340.99
840.533	11320.65
840.858	11333.3
841.182	11258.05
841.507	11275.9
841.832	11217.15
842.156	11116.59
842.481	11194.32
842.805	11192.06
843.13	11132.18
843.454	11169.01
843.778	11012.86
844.103	11066.87
844.427	11012.63
844.751	11072.29
845.075	10905.29
845.399	10962.01
845.723	10922.92
846.047	10851.73
846.371	10824.84
846.695	10823.26
847.019	10789.14
847.343	10752.98
847.666	10649.25
847.99	10587.56
848.313	10617.39
848.637	10517.28
848.96	10538.07
849.284	10483.38
849.607	10368.36
849.931	10400.9
850.254	10330.39
850.577	10289.04
850.9	10183.05
851.223	10233.67
851.546	10176.5
851.869	10039.78
852.192	10121.58
852.515	10102.38
852.838	10025.77
853.161	9976.05
853.483	9942.61
853.806	9920.46
854.129	9878.88
854.451	9836.62
854.774	9774.25
855.096	9792.33
855.419	9731.31
855.741	9688.38
856.063	9715.27
856.385	9665.55
856.708	9596.85
857.03	9650.18
857.352	9601.82
857.674	9486.12
857.996	9565.44
858.318	9508.49
858.64	9448.83
858.961	9438.89
859.283	9428.95
859.605	9361.6
859.926	9414.03
860.248	9368.38
860.57	9325.22
860.891	9311.89
861.212	9259.91
861.534	9219.46
861.855	9237.54
862.176	9190.99
862.498	9245.9
862.819	9178.56
863.14	9183.76
863.461	9186.47
863.782	9115.06
864.103	9156.86
864.424	9173.13
864.745	9143.76
865.065	9016.98
865.386	9078.9
865.707	9058.56
866.027	8965.68
866.348	8975.17
866.668	9016.3
866.989	8966.59
867.309	8920.94
867.63	8880.94
867.95	8963.42
868.27	8839.13
868.59	8952.12
868.91	8896.76
869.23	8855.63
869.55	8821.28
869.87	8838.45
870.19	8797.1
870.51	8882.75
870.83	8811.79
871.15	8817.21
871.469	8722.3
871.789	8818.12
872.109	8771.11
872.428	8690.21
872.748	8711.45
873.067	8696.99
873.386	8777.44
873.706	8758
874.025	8663.77
874.344	8633.49
874.663	8626.93
874.982	8595.07
875.301	8514.62
875.62	8648.63
875.939	8572.7
876.258	8536.99
876.577	8555.52
876.896	8511.46
877.214	8511.23
877.533	8545.81
877.852	8444.11
878.17	8445.24
878.489	8505.58
878.807	8487.05
879.125	8430.1
879.444	8483.44
879.762	8404.34
880.08	8362.31
880.398	8310.33
880.716	8313.95
881.034	8288.41
881.352	8386.04
881.67	8308.52
881.988	8283.67
882.306	8303.55
882.624	8248.87
882.941	8172.71
883.259	8177.23
883.577	8194.63
883.894	8129.77
884.212	8180.17
884.529	8099.04
884.846	8129.09
885.164	8093.39
885.481	8136.33
885.798	8100.17
886.115	7990.57
886.432	7984.92
886.75	8028.31
887.067	8031.47
887.383	7956.9
887.7	8033.28
888.017	7946.27
888.334	7961.19
888.651	7951.47
888.967	7944.47
889.284	7883.9
889.6	7837.12
889.917	7775.43
890.233	7791.7
890.55	7801.87
890.866	7809.1
891.182	7695.43
891.498	7703.12
891.815	7624.93
892.131	7672.16
892.447	7628.54
892.763	7610.69
893.079	7634.42
893.395	7535.21
893.71	7540.18
894.026	7529.56
894.342	7507.19
894.657	7470.13
894.973	7494.31
895.289	7423.8
895.604	7421.77
895.92	7386.51
896.235	7370.7
896.55	7331.83
896.865	7354.43
897.181	7299.74
897.496	7348.55
897.811	7279.62
898.126	7193.53
898.441	7168.44
898.756	7206.86
899.071	7111.49
899.386	7161.44
899.7	7045.51
900.015	7052.74
900.33	6994.89
900.644	7014.1
900.959	7010.93
901.273	6882.57
901.588	6957.15
901.902	6930.93
902.216	6901.78
902.531	6916.02
902.845	6869.69
903.159	6825.4
903.473	6755.57
903.787	6792.18
904.101	6761.9
904.415	6743.82
904.729	6719.19
905.042	6681
905.356	6684.84
905.67	6645.74
905.984	6617.5
906.297	6604.84
906.611	6566.65
906.924	6553.09
907.237	6517.61
907.551	6469.25
907.864	6470.15
908.177	6478.74
908.491	6417.05
908.804	6381.34
909.117	6353.1
909.43	6325.3
909.743	6286.2
910.056	6283.27
910.368	6271.97
910.681	6214.79
910.994	6232.87
911.307	6182.03
911.619	6114.91
911.932	6147.23
912.244	6078.75
912.557	6076.49
912.869	6017.29
913.181	6060.45
913.494	6000.34
913.806	5980.68
914.118	5945.65
914.43	5907.91
914.742	5945.87
915.054	5918.98
915.366	5844.63
915.678	5889.38
915.99	5843.5
916.302	5786.1
916.613	5730.29
916.925	5780.46
917.236	5721.93
917.548	5715.6
917.859	5706.78
918.171	5680.8
918.482	5656.39
918.794	5619.56
919.105	5591.08
919.416	5585.88
919.727	5587.47
920.038	5554.92
920.349	5465.44
920.66	5503.63
920.971	5470.18
921.282	5467.24
921.593	5417.75
921.903	5384.76
922.214	5396.51
922.525	5337.3
922.835	5361.71
923.146	5284.65
923.456	5278.1
923.767	5236.29
924.077	5260.02
924.387	5262.95
924.697	5180.02
925.008	5201.26
925.318	5134.82
925.628	5118.55
925.938	5088.95
926.248	5047.59
926.558	5049.85
926.867	5012.34
927.177	5019.35
927.487	4985.45
927.796	4944.77
928.106	4989.74
928.416	4935.51
928.725	4912.91
929.034	4890.54
929.344	4937.31
929.653	4879.01
929.962	4864.77
930.271	4840.14
930.581	4806.92
930.89	4813.25
931.199	4712.01
931.508	4751.33
931.817	4704.1
932.125	4729.64
932.434	4704.1
932.743	4613.03
933.051	4607.38
933.36	4636.3
933.669	4597.66
933.977	4617.1
934.286	4624.78
934.594	4545.69
934.902	4525.8
935.21	4463.43
935.519	4464.33
935.827	4455.74
936.135	4422.52
936.443	4471.79
936.751	4390.44
937.059	4390.44
937.367	4361.74
937.674	4385.92
937.982	4320.61
938.29	4326.71
938.597	4328.29
938.905	4246.71
939.213	4262.3
939.52	4220.27
939.827	4278.57
940.135	4194.28
940.442	4166.26
940.749	4197.22
941.056	4183.21
941.363	4181.63
941.67	4094.4
941.977	4074.51
942.284	4088.07
942.591	4112.48
942.898	4091.46
943.205	4058.47
943.511	3997
943.818	4020.28
944.125	3998.81
944.431	3961.52
944.738	3962.2
945.044	3921.97
945.35	3945.48
945.657	3890.34
945.963	3900.28
946.269	3867.96
946.575	3848.3
946.881	3805.82
947.187	3851.01
947.493	3804.69
947.799	3826.16
948.105	3792.03
948.41	3755.2
948.716	3758.36
949.022	3756.78
949.327	3717.01
949.633	3655.77
949.938	3684.24
950.244	3700.51
950.549	3679.72
950.854	3614.86
951.16	3648.08
951.465	3626.39
951.77	3562.89
952.075	3594.75
952.38	3548.88
952.685	3538.93
952.99	3539.61
953.294	3505.94
953.599	3512.72
953.904	3494.41
954.209	3460.97
954.513	3437.24
954.818	3424.36
955.122	3448.31
955.426	3401.53
955.731	3414.64
956.035	3408.99
956.339	3370.35
956.643	3363.8
956.948	3336.68
957.252	3319.28
957.556	3339.84
957.86	3297.58
958.163	3293.97
958.467	3287.19
958.771	3294.42
959.075	3258.94
959.378	3243.35
959.682	3270.46
959.985	3196.79
960.289	3165.16
960.592	3180.07
960.896	3174.42
961.199	3137.14
961.502	3160.64
961.805	3143.91
962.108	3110.47
962.411	3097.14
962.714	3091.49
963.017	3045.84
963.32	3078.61
963.623	3049.91
963.926	3026.4
964.228	3016.01
964.531	3046.52
964.833	3008.78
965.136	2979.17
965.438	2965.84
965.741	2988.21
966.043	2923.36
966.345	2943.69
966.648	2887.42
966.95	2905.73
967.252	2887.2
967.554	2887.88
967.856	2840.19
968.158	2853.75
968.46	2856.24
968.761	2856.46
969.063	2804.71
969.365	2833.87
969.666	2793.64
969.968	2789.57
970.269	2787.77
970.571	2772.4
970.872	2755.45
971.174	2729.69
971.475	2700.99
971.776	2733.3
972.077	2689.01
972.378	2692.17
972.679	2689.01
972.98	2669.8
973.281	2676.58
973.582	2635.45
973.883	2622.35
974.183	2621.44
974.484	2664.38
974.785	2578.51
975.085	2615.57
975.386	2604.72
975.686	2563.36
975.986	2530.37
976.287	2542.35
976.587	2505.06
976.887	2525.17
977.187	2553.65
977.487	2491.5
977.787	2455.35
978.087	2476.36
978.387	2474.1
978.687	2478.62
978.987	2464.84
979.286	2437.94
979.586	2401.56
979.885	2428.68
980.185	2409.24
980.484	2425.29
980.784	2405.4
981.083	2372.41
981.382	2396.82
981.682	2342.58
981.981	2381.45
982.28	2365.86
982.579	2304.84
982.878	2314.11
983.177	2317.27
983.475	2318.85
983.774	2288.34
984.073	2303.71
984.372	2266.88
984.67	2281.11
984.969	2257.38
985.267	2213.54
985.566	2224.39
985.864	2211.51
986.162	2227.1
986.461	2222.81
986.759	2206.31
987.057	2186.88
987.355	2159.76
987.653	2146.65
987.951	2165.41
988.249	2143.26
988.547	2108.91
988.844	2146.65
989.142	2120.89
989.44	2112.53
989.737	2116.37
990.035	2085.86
990.332	2070.04
990.63	2057.39
990.927	2052.42
991.224	2047.9
991.521	2029.14
991.819	2048.35
992.116	2046.77
992.413	2044.51
992.71	2008.58
993.006	1994.79
993.303	2000.67
993.6	1997.28
993.897	1974
994.193	1977.39
994.49	1984.4
994.787	1945.53
995.083	1950.05
995.379	1916.15
995.676	1926.09
995.972	1915.47
996.268	1924.96
996.565	1917.51
996.861	1899.2
997.157	1889.94
997.453	1848.13
997.749	1860.33
998.044	1856.49
998.34	1817.4
998.636	1867.34
998.932	1844.06
999.227	1779.88
999.523	1846.32
999.818	1805.19
1000.114	1787.57
1000.409	1756.83
1000.704	1762.48
1001	1749.83
1001.295	1749.15
1001.59	1729.94
1001.885	1738.3
1002.18	1727
1002.475	1710.51
1002.77	1701.92
1003.065	1702.14
1003.359	1684.52
1003.654	1680.22
1003.949	1668.93
1004.243	1667.8
1004.538	1649.72
1004.832	1638.87
1005.127	1666.21
1005.421	1618.76
1005.715	1632.99
1006.009	1632.32
1006.304	1614.92
1006.598	1593.67
1006.892	1595.93
1007.186	1585.76
1007.48	1562.71
1007.773	1550.74
1008.067	1566.55
1008.361	1537.4
1008.655	1543.05
1008.948	1533.56
1009.242	1527.01
1009.535	1516.84
1009.829	1518.42
1010.122	1465.77
1010.415	1494.92
1010.708	1467.57
1011.001	1479.55
1011.295	1481.81
1011.588	1452.43
1011.881	1445.65
1012.173	1454.92
1012.466	1446.33
1012.759	1433.45
1013.052	1423.28
1013.344	1408.14
1013.637	1397.29
1013.93	1386.9
1014.222	1373.11
1014.514	1369.27
1014.807	1383.51
1015.099	1346
1015.391	1371.76
1015.683	1327.47
1015.976	1355.94
1016.268	1314.13
1016.56	1332.66
1016.851	1314.58
1017.143	1302.38
1017.435	1291.53
1017.727	1298.09
1018.018	1264.87
1018.31	1273.23
1018.602	1259.9
1018.893	1283.85
1019.185	1256.05
1019.476	1264.64
1019.767	1234.59
1020.058	1251.53
1020.35	1263.06
1020.641	1217.41
1020.932	1210.41
1021.223	1216.06
1021.514	1190.07
1021.804	1179.45
1022.095	1174.7
1022.386	1172.89
1022.677	1179.45
1022.967	1168.6
1023.258	1137.87
1023.548	1139
1023.839	1150.29
1024.129	1127.92
1024.419	1134.48
1024.709	1107.58
1025	1106.68
1025.29	1117.3
1025.58	1106
1025.87	1057.42
1026.16	1068.04
1026.449	1076.62
1026.739	1079.56
1027.029	1037.76
1027.319	1053.12
1027.608	1047.25
1027.898	1051.09
1028.187	1064.2
1028.477	1041.6
1028.766	1022.39
1029.055	998.89
1029.344	995.04
1029.634	976.06
1029.923	1009.96
1030.212	1005.44
1030.501	993.91
1030.79	992.56
1031.078	976.06
1031.367	972.22
1031.656	971.77
1031.945	968.38
1032.233	974.93
1032.522	940.58
1032.81	942.39
1033.099	939.68
1033.387	919.79
1033.675	945.1
1033.963	929.96
1034.251	924.54
1034.54	943.97
1034.828	906.01
1035.116	914.14
1035.403	891.54
1035.691	898.1
1035.979	886.57
1036.267	896.52
1036.554	872.79
1036.842	858.55
1037.129	849.51
1037.417	840.25
1037.704	861.49
1037.992	866.91
1038.279	833.92
1038.566	850.19
1038.853	850.19
1039.14	850.19
