Data from tablewood_brown_FLMS001491_017.txt Node
Date: Tue Feb 07 11:10:05 GMT 2017
User: dcchb
Spectrometer: FLMS00149
Trigger mode: 0
Integration Time (sec): 2.000000E-2
Scans to average: 10
Electric dark correction enabled: true
Nonlinearity correction enabled: false
Boxcar width: 0
XAxis mode: Wavelengths
Number of Pixels in Spectrum: 2048
>>>>>Begin Spectral Data<<<<<
341.393	-29.48
341.776	-29.48
342.16	-29.48
342.543	-84.16
342.927	-79.19
343.31	-47.1
343.693	-76.93
344.077	-67.22
344.46	-61.79
344.843	-77.61
345.226	-38.97
345.61	-41.91
345.993	-12.08
346.376	6.23
346.759	2.39
347.142	25.89
347.525	16.17
347.908	57.75
348.291	94.81
348.674	90.52
349.057	129.84
349.44	134.59
349.823	138.65
350.206	163.96
350.588	182.27
350.971	210.52
351.354	227.92
351.737	236.51
352.119	243.06
352.502	252.32
352.884	269.05
353.267	283.06
353.65	295.71
354.032	310.85
354.414	300.46
354.797	316.28
355.179	323.96
355.562	329.38
355.944	316.73
356.326	325.54
356.709	337.75
357.091	312.44
357.473	335.49
357.855	346.11
358.238	354.02
358.62	341.81
359.002	345.43
359.384	325.32
359.766	349.5
360.148	333.9
360.53	354.69
360.912	353.79
361.294	319.44
361.676	352.66
362.057	359.67
362.439	344.98
362.821	331.87
363.203	299.33
363.584	316.73
363.966	322.15
364.348	323.51
364.729	316.95
365.111	329.61
365.493	302.49
365.874	328.93
366.256	305.66
366.637	335.71
367.019	303.62
367.4	311.98
367.781	309.27
368.163	335.71
368.544	304.75
368.925	335.26
369.306	332.77
369.688	309.95
370.069	326.45
370.45	335.71
370.831	319.21
371.212	319.89
371.593	324.64
371.974	334.58
372.355	324.64
372.736	330.51
373.117	341.81
373.498	345.88
373.879	337.29
374.26	341.36
374.641	325.77
375.021	328.71
375.402	344.75
375.783	367.8
376.163	354.02
376.544	332.55
376.925	351.98
377.305	345.43
377.686	352.21
378.066	340.01
378.447	349.95
378.827	383.85
379.208	353.56
379.588	363.51
379.968	363.51
380.349	352.89
380.729	367.12
381.109	368.25
381.489	359.67
381.87	359.67
382.25	383.17
382.63	371.42
383.01	377.52
383.39	368.7
383.77	353.56
384.15	394.47
384.53	373.68
384.91	383.17
385.29	380.91
385.67	384.98
386.049	406.9
386.429	384.3
386.809	413
387.189	389.04
387.568	401.25
387.948	388.59
388.328	420.23
388.707	415.94
389.087	436.5
389.466	408.7
389.846	405.31
390.225	424.07
390.605	407.12
390.984	433.79
391.363	427.69
391.743	428.82
392.122	424.52
392.501	421.36
392.881	440.12
393.26	449.83
393.639	455.48
394.018	461.81
394.397	462.94
394.776	446.67
395.155	444.18
395.534	457.52
395.913	455.26
396.292	463.17
396.671	480.34
397.05	481.02
397.429	471.75
397.808	483.28
398.186	485.09
398.565	469.72
398.944	474.24
399.323	477.63
399.701	483.5
400.08	497.06
400.458	482.83
400.837	498.42
401.215	498.87
401.594	505.65
401.972	526.21
402.351	514.24
402.729	504.29
403.107	537.06
403.486	524.63
403.864	539.55
404.242	538.64
404.62	540.45
404.999	582.71
405.377	536.38
405.755	529.6
406.133	552.43
406.511	533.67
406.889	556.04
407.267	590.62
407.645	584.07
408.023	590.39
408.401	597.17
408.779	594.46
409.156	604.18
409.534	599.66
409.912	608.47
410.29	614.8
410.667	604.18
411.045	598.3
411.422	624.07
411.8	615.48
412.178	636.72
412.555	649.6
412.933	638.53
413.31	650.51
413.687	676.49
414.065	675.14
414.442	654.8
414.819	657.96
415.197	669.49
415.574	688.02
415.951	676.72
416.328	697.28
416.705	697.06
417.082	701.8
417.46	696.15
417.837	723.27
418.214	722.59
418.591	724.18
418.967	731.63
419.344	741.8
419.721	741.8
420.098	737.06
420.475	739.32
420.852	757.17
421.228	794
421.605	783.84
421.982	767.11
422.358	756.49
422.735	765.3
423.111	777.28
423.488	802.82
423.864	787.45
424.241	798.3
424.617	808.24
424.994	825.19
425.37	825.87
425.746	799.65
426.123	838.75
426.499	834.23
426.875	838.75
427.251	856.15
427.627	849.82
428.003	878.52
428.379	870.39
428.756	877.84
429.132	890.73
429.507	876.71
429.883	922.59
430.259	931.4
430.635	940.44
431.011	919.2
431.387	946.54
431.763	974.11
432.138	955.81
432.514	995.36
432.89	996.94
433.265	1006.2
433.641	1034
434.016	1015.02
434.392	1055.69
434.767	1073.55
435.143	1048.24
435.518	1055.01
435.894	1091.62
436.269	1091.85
436.644	1107.44
437.02	1110.38
437.395	1087.78
437.77	1119.42
438.145	1149.7
438.52	1135.69
438.895	1169.59
439.271	1157.61
439.646	1206.88
440.021	1185.63
440.395	1185.41
440.77	1205.29
441.145	1219.53
441.52	1248
441.895	1245.29
442.27	1222.92
442.645	1228.12
443.019	1263.82
443.394	1257.5
443.769	1272.41
444.143	1258.17
444.518	1303.14
444.892	1310.6
445.267	1295.01
445.641	1283.94
446.016	1317.61
446.39	1306.99
446.764	1298.4
447.139	1312.86
447.513	1356.93
447.887	1337.04
448.262	1347.89
448.636	1352.41
449.01	1361
449.384	1390.6
449.758	1402.12
450.132	1400.32
450.506	1435.12
450.88	1451.61
451.254	1461.56
451.628	1437.38
452.002	1465.63
452.376	1482.57
452.75	1467.43
453.123	1491.16
453.497	1500.65
453.871	1495.23
454.244	1530.48
454.618	1534.55
454.992	1580.42
455.365	1591.05
455.739	1591.05
456.112	1606.86
456.486	1632.17
456.859	1650.03
457.232	1669.01
457.606	1662.91
457.979	1716.92
458.352	1720.99
458.725	1729.35
459.099	1758.27
459.472	1761.44
459.845	1809.12
460.218	1829.46
460.591	1798.05
460.964	1842.34
461.337	1880.3
461.71	1914.88
462.083	1947.65
462.456	1948.78
462.829	1945.61
463.201	1949
463.574	1973.63
463.947	2027.42
464.32	2070.13
464.692	2104.25
465.065	2084.59
465.438	2094.99
465.81	2147.64
466.183	2201.88
466.555	2215.89
466.928	2227.64
467.3	2246.85
467.672	2263.12
468.045	2347.18
468.417	2346.73
468.789	2349.67
469.161	2400.97
469.534	2444.36
469.906	2498.14
470.278	2502.43
470.65	2537.91
471.022	2584.69
471.394	2606.84
471.766	2668.31
472.138	2694.97
472.51	2750.56
472.882	2759.6
473.253	2833.95
473.625	2849.54
473.997	2994.62
474.369	2946.49
474.74	3041.4
475.112	3145.13
475.484	3160.72
475.855	3196.88
476.227	3257.44
476.598	3267.16
476.97	3347.84
477.341	3420.83
477.713	3495.4
478.084	3510.09
478.455	3638
478.827	3673.48
479.198	3767.26
479.569	3790.54
479.94	3920.02
480.311	3989.85
480.682	4051.32
481.053	4125.44
481.424	4217.87
481.795	4286.79
482.166	4372.22
482.537	4385.32
482.908	4507.58
483.279	4563.85
483.65	4641.14
484.021	4736.95
484.391	4853.78
484.762	4837.06
485.133	4879.77
485.503	4956.38
485.874	5097.62
486.244	5166.77
486.615	5276.37
486.985	5327.67
487.356	5374.68
487.726	5507.33
488.097	5597.72
488.467	5599.98
488.837	5793.65
489.207	5782.12
489.578	5861.67
489.948	5946.86
490.318	6018.73
490.688	6138.27
491.058	6098.95
491.428	6285.39
491.798	6266.85
492.168	6409.45
492.538	6430.69
492.908	6547.75
493.278	6635.66
493.648	6630.69
494.017	6718.59
494.387	6792.04
494.757	6871.13
495.126	6949.32
495.496	6964.69
495.866	7031.13
496.235	7030
496.605	7120.84
496.974	7183.67
497.344	7277
497.713	7344.34
498.082	7417.11
498.452	7453.04
498.821	7529.19
499.19	7524
499.559	7595.18
499.928	7648.74
500.298	7701.85
500.667	7789.3
501.036	7768.06
501.405	7865.23
501.774	7946.13
502.143	8039.92
502.512	8038.56
502.88	8092.34
503.249	8104.77
503.618	8170.08
503.987	8215.28
504.356	8333.02
504.724	8402.62
505.093	8470.41
505.462	8400.36
505.83	8524.65
506.199	8610.52
506.567	8690.52
506.936	8717.41
507.304	8876.73
507.672	8872.21
508.041	8921.47
508.409	8963.51
508.777	9052.09
509.145	9138.19
509.514	9168.25
509.882	9257.51
510.25	9261.35
510.618	9371.18
510.986	9411.86
511.354	9412.31
511.722	9588.35
512.09	9664.73
512.458	9662.47
512.826	9826.76
513.193	9871.05
513.561	9912.41
513.929	10019.98
514.297	10062.91
514.664	10184.04
515.032	10232.63
515.4	10285.73
515.767	10429.91
516.135	10494.77
516.502	10416.8
516.869	10693.86
517.237	10688.21
517.604	10650.02
517.972	10875.77
518.339	10875.77
518.706	10907.18
519.073	11109.89
519.44	11134.98
519.808	11210.68
520.175	11219.27
520.542	11446.15
520.909	11562.76
521.276	11513.95
521.643	11652.93
522.009	11719.59
522.376	11846.6
522.743	11922.3
523.11	12045.01
523.477	12155.97
523.843	12255.85
524.21	12427.14
524.577	12527.48
524.943	12472.34
525.31	12659
525.676	12748.94
526.043	12807.93
526.409	12942.39
526.776	13048.6
527.142	13106.45
527.508	13236.84
527.874	13296.05
528.241	13367.23
528.607	13382.37
528.973	13559.77
529.339	13577.85
529.705	13717.28
530.071	13883.38
530.437	13920.44
530.803	14046.99
531.169	14072.75
531.535	14104.62
531.901	14224.61
532.267	14249.7
532.632	14336.7
532.998	14372.86
533.364	14431.61
533.73	14513.42
534.095	14749.57
534.461	14703.24
534.826	14819.85
535.192	14855.78
535.557	14931.71
535.923	14962.45
536.288	15010.13
536.653	15059.39
537.019	15080.86
537.384	15163.34
537.749	15345.94
538.114	15315.66
538.479	15451.25
538.845	15427.97
539.21	15486.5
539.575	15512.04
539.94	15622.09
540.305	15700.96
540.67	15690.11
541.034	15784.8
541.399	15839.26
541.764	15874.29
542.129	15977.56
542.494	15942.98
542.858	16060.5
543.223	16008.52
543.587	16152.02
543.952	16151.11
544.316	16215.75
544.681	16243.77
545.045	16401.28
545.41	16359.24
545.774	16452.8
546.138	16509.98
546.503	16601.95
546.867	16645.11
547.231	16792.68
547.595	16835.39
547.959	16973.69
548.324	16847.14
548.688	17017.76
549.052	17112.22
549.416	17128.04
549.779	17195.16
550.143	17196.06
550.507	17383.17
550.871	17568.25
551.235	17461.36
551.599	17654.35
551.962	17638.53
552.326	17766.89
552.689	17987.68
553.053	17909.26
553.417	17982.03
553.78	18183.6
554.143	18282.58
554.507	18358.74
554.87	18454.33
555.234	18664.04
555.597	18550.6
555.96	18717.15
556.323	18821.78
556.686	18847.09
557.05	19039.17
557.413	19117.36
557.776	19256.57
558.139	19387.19
558.502	19496.56
558.865	19586.5
559.228	19840.74
559.59	19899.49
559.953	19981.97
560.316	20262.87
560.679	20219.26
561.041	20434.17
561.404	20587.83
561.767	20850.65
562.129	20837.77
562.492	20993.93
562.854	21083.19
563.217	21246.8
563.579	21320.7
563.941	21551.2
564.304	21621.48
564.666	21844.75
565.028	21922.71
565.39	22121.35
565.753	22278.64
566.115	22363.15
566.477	22495.58
566.839	22727.89
567.201	22909.81
567.563	23034.1
567.925	23329.46
568.287	23239.52
568.648	23407.42
569.01	23618.94
569.372	23832.49
569.734	23882.21
570.095	24121.75
570.457	24265.25
570.819	24423.44
571.18	24529.88
571.542	24735.97
571.903	24850.55
572.265	25076.76
572.626	25278.56
572.987	25349.74
573.349	25575.27
573.71	25672.45
574.071	25834.02
574.432	25998.31
574.794	26323.28
575.155	26349.26
575.516	26364.18
575.877	26465.65
576.238	26679.65
576.599	26850.72
576.96	27005.97
577.32	27109.24
577.681	27324.15
578.042	27284.83
578.403	27452.96
578.763	27678.95
579.124	27728.89
579.485	27917.59
579.845	28061.08
580.206	28165.49
580.566	28182.89
580.927	28235.32
581.287	28466.95
581.648	28331.59
582.008	28577.91
582.368	28616.1
582.728	28650.9
583.089	28796.43
583.449	28748.3
583.809	28943.32
584.169	29094.73
584.529	28985.58
584.889	29279.81
585.249	29167.72
585.609	29149.19
585.969	29341.95
586.329	29323.65
586.688	29450.88
587.048	29484.1
587.408	29463.99
587.768	29556.41
588.127	29529.52
588.487	29646.13
588.846	29805.45
589.206	29587.82
589.565	29717.99
589.925	29745.11
590.284	29752.79
590.643	29856.52
591.003	29958.66
591.362	29974.03
591.721	29931.77
592.08	29958.44
592.44	30228.71
592.799	30163.85
593.158	30133.12
593.517	30144.65
593.876	30165.66
594.235	30137.41
594.593	30129.96
594.952	30279.56
595.311	30166.11
595.67	30364.07
596.029	30400.23
596.387	30344.41
596.746	30394.13
597.104	30349.39
597.463	30255.83
597.822	30509.61
598.18	30479.1
598.538	30413.79
598.897	30642.94
599.255	30347.8
599.613	30845.87
599.972	30577.4
600.33	30681.35
600.688	30558.87
601.046	30646.55
601.404	30731.3
601.762	30764.29
602.12	30863.5
602.478	30846.77
602.836	30948.24
603.194	30839.09
603.552	30833.44
603.91	30850.62
604.268	30971.52
604.625	30804.29
604.983	31027.56
605.341	30914.79
605.698	31048.35
606.056	31103.72
606.413	30978.3
606.771	31152.08
607.128	31145.97
607.485	31123.15
607.843	31017.84
608.2	31287.21
608.557	31343.26
608.914	31322.47
609.272	31378.29
609.629	31367.44
609.986	31607.66
610.343	31291.51
610.7	31680.88
611.057	31535.8
611.414	31457.38
611.771	31674.55
612.127	31716.13
612.484	31654.89
612.841	31756.13
613.198	31692.4
613.554	31725.17
613.911	31849.69
614.267	31742.12
614.624	31775.11
614.98	31865.5
615.337	32002.45
615.693	32024.82
616.05	31966.74
616.406	32096.23
616.762	31929.46
617.118	32106.85
617.475	32162.9
617.831	32186.63
618.187	32272.5
618.543	32129.45
618.899	32300.52
619.255	32319.96
619.611	32248.54
619.967	32355.21
620.323	32445.6
620.678	32300.75
621.034	32256.45
621.39	32319.73
621.746	32220.52
622.101	32653.96
622.457	32410.57
622.812	32384.59
623.168	32425.72
623.523	32633.39
623.879	32655.31
624.234	32491.48
624.589	32461.87
624.945	32561.3
625.3	32560.63
625.655	32528.31
626.01	32594.98
626.365	32532.38
626.72	32478.6
627.075	32437.47
627.43	32438.14
627.785	32419.84
628.14	32329.9
628.495	32547.52
628.85	32430.01
629.205	32336
629.559	32377.58
629.914	32300.75
630.269	32263.91
630.623	32123.8
630.978	32244.48
631.332	32471.82
631.687	32299.16
632.041	32251.93
632.396	32271.82
632.75	32098.49
633.104	32168.55
633.459	32050.58
633.813	32030.02
634.167	32024.6
634.521	32057.82
634.875	32034.54
635.229	31971.72
635.583	31738.73
635.937	31755
636.291	31807.43
636.645	31698.28
636.999	31710.03
637.352	31802.91
637.706	31618.96
638.06	31669.35
638.413	31612.4
638.767	31508.9
639.121	31728.78
639.474	31441.33
639.828	31480.88
640.181	31574.89
640.534	31501.9
640.888	31467.32
641.241	31162.7
641.594	31329.02
641.947	31449.24
642.301	31415.57
642.654	31355.01
643.007	31342.81
643.36	31270.49
643.713	31262.13
644.066	31491.73
644.419	31052.87
644.771	30951.63
645.124	30809.94
645.477	30542.6
645.83	30398.2
646.182	30313.91
646.535	30251.99
646.888	30283.62
647.24	30148.03
647.593	30378.76
647.945	30251.08
648.298	30084.99
648.65	30056.96
649.002	29938.55
649.355	30236.62
649.707	30025.33
650.059	30162.95
650.411	30604.07
650.763	30604.52
651.115	30974.45
651.467	30876.6
651.819	30885.19
652.171	30746.89
652.523	30669.83
652.875	30660.11
653.227	30510.29
653.578	30717.96
653.93	30671.86
654.282	30453.34
654.633	30511.42
654.985	30562.26
655.337	30566.1
655.688	30659.43
656.039	30715.7
656.391	30432.1
656.742	30567.46
657.094	30563.84
657.445	30707.79
657.796	30590.06
658.147	30492.21
658.498	30614.01
658.849	30604.97
659.2	30465.99
659.551	30445.2
659.902	30621.69
660.253	30435.03
660.604	30565.88
660.955	30450.85
661.306	30543.96
661.656	30657.63
662.007	30451.53
662.358	30452.43
662.708	30480.23
663.059	30340.12
663.409	30322.95
663.76	30492.88
664.11	30395.71
664.461	30561.58
664.811	30510.74
665.161	30384.19
665.511	30433.9
665.862	30430.51
666.212	30515.48
666.562	30541.92
666.912	30379.22
667.262	30305.32
667.612	30382.38
667.962	30316.62
668.312	30267.13
668.662	30443.39
669.011	30329.05
669.361	30462.38
669.711	30270.97
670.06	30284.08
670.41	30156.17
670.76	30240.69
671.109	30341.48
671.459	30223.29
671.808	30151.42
672.157	30248.6
672.507	30063.52
672.856	30012.9
673.205	30087.02
673.554	30215.38
673.904	30162.95
674.253	30248.6
674.602	30115.95
674.951	29617.65
675.3	29520.48
675.649	29992.11
675.998	29882.73
676.346	29943.52
676.695	29936.52
677.044	29657.88
677.393	29945.55
677.741	29949.17
678.09	29706.92
678.438	29711.21
678.787	29753.24
679.135	29748.95
679.484	29630.53
679.832	29649.52
680.181	29495.85
680.529	29531.1
680.877	29447.94
681.225	29448.62
681.573	29449.52
681.922	29354.38
682.27	29204.1
682.618	29280.26
682.966	29232.58
683.314	29148.51
683.661	29071
684.009	29002.08
684.357	28801.86
684.705	28901.97
685.053	28848.63
685.4	28885.47
685.748	28670.11
686.095	28675.08
686.443	28563.44
686.79	28601.63
687.138	28652.93
687.485	28421.07
687.832	28447.97
688.18	28353.96
688.527	28189.89
688.874	28255.66
689.221	28123.68
689.568	28046.62
689.915	28049.33
690.262	28000.29
690.609	27762.56
690.956	27859.51
691.303	27768.21
691.65	27628.55
691.997	27630.36
692.344	27429.24
692.69	27434.43
693.037	27473.08
693.383	27145.85
693.73	27316.25
694.077	27006.42
694.423	27144.27
694.769	26907.67
695.116	26911.28
695.462	26751.74
695.808	26610.05
696.155	26825.64
696.501	26544.97
696.847	26568.92
697.193	26225.65
697.539	26398.53
697.885	26173.68
698.231	26104.3
698.577	26031.31
698.923	26025.21
699.269	25863.4
699.614	25766.46
699.96	25659.34
700.306	25721.48
700.651	25482.62
700.997	25529.63
701.342	25409.63
701.688	25243.76
702.033	25263.19
702.379	25173.48
702.724	25175.51
703.069	25060.26
703.415	24883.54
703.76	24898
704.105	24674.73
704.45	24736.88
704.795	24534.62
705.14	24493.72
705.485	24424.8
705.83	24407.62
706.175	24473.16
706.52	24322.65
706.865	24224.35
707.209	24120.4
707.554	24142.77
707.899	24121.3
708.243	24017.8
708.588	24000.17
708.932	23782.33
709.277	23811.48
709.621	23775.32
709.966	23626.17
710.31	23696.45
710.654	23607.87
710.998	23573.29
711.342	23496.23
711.687	23469.11
712.031	23339.17
712.375	23358.83
712.719	23208.56
713.063	23259.18
713.407	23277.93
713.75	23118.62
714.094	23138.28
714.438	22942.35
714.782	23052.63
715.125	23004.49
715.469	23018.96
715.812	22890.15
716.156	22748
716.499	22792.97
716.843	22800.43
717.186	22573.54
717.53	22769.25
717.873	22719.98
718.216	22642.7
718.559	22675.46
718.902	22370.39
719.246	22481.57
719.589	22453.1
719.932	22408.35
720.275	22421.23
720.617	22354.12
720.96	22186.89
721.303	22271.41
721.646	22356.6
721.989	22177.17
722.331	22323.83
722.674	22185.08
723.016	22272.54
723.359	22216.04
723.701	22232.31
724.044	22032.77
724.386	21985.99
724.729	22286.77
725.071	22169.04
725.413	22101.47
725.755	22072.09
726.097	22048.81
726.439	21937.18
726.782	21944.86
727.124	22056.72
727.465	21878.2
727.807	21916.39
728.149	21856.95
728.491	21775.6
728.833	21941.7
729.175	21887.91
729.516	21813.79
729.858	21808.59
730.199	21784.41
730.541	21812.66
730.882	21920.91
731.224	21770.4
731.565	21753.23
731.906	21762.49
732.248	21750.06
732.589	21799.33
732.93	21727.01
733.271	21816.28
733.612	21735.37
733.953	21736.5
734.294	21639.78
734.635	21635.72
734.976	21644.3
735.317	21573.12
735.658	21605.66
735.999	21707.35
736.339	21630.97
736.68	21716.17
737.021	21617.19
737.361	21630.29
737.702	21561.37
738.042	21622.16
738.383	21572.44
738.723	21679.33
739.063	21509.62
739.404	21609.05
739.744	21532.89
740.084	21448.38
740.424	21567.02
740.764	21503.74
741.104	21699.44
741.444	21547.36
741.784	21546.68
742.124	21633
742.464	21642.27
742.804	21463.97
743.143	21496.51
743.483	21556.62
743.823	21528.37
744.162	21418.32
744.502	21603.17
744.841	21367.7
745.181	21526.79
745.52	21465.55
745.86	21520.24
746.199	21589.84
746.538	21506.68
746.877	21498.09
747.216	21492.67
747.556	21470.75
747.895	21458.77
748.234	21495.61
748.573	21387.14
748.911	21469.85
749.25	21462.84
749.589	21377.42
749.928	21437.08
750.267	21486.79
750.605	21411.77
750.944	21444.99
751.283	21283.64
751.621	21364.31
751.96	21285.67
752.298	21269.62
752.636	21324.54
752.975	21210.42
753.313	21286.8
753.651	21214.48
753.989	21184.88
754.327	21211.55
754.666	21110.31
755.004	21161.6
755.342	21061.04
755.679	21143.07
756.017	20986.47
756.355	21128.61
756.693	20894.94
757.031	21074.83
757.368	20908.5
757.706	20845.91
758.044	20825.57
758.381	20831.67
758.719	20679.36
759.056	20760.94
759.394	20666.25
759.731	20577.89
760.068	20542.64
760.405	20532.47
760.743	20431.45
761.08	20581.73
761.417	20328.63
761.754	20420.83
762.091	20384.68
762.428	20321.4
762.765	20144.46
763.102	20252.25
763.438	20119.82
763.775	20022.65
764.112	20027.85
764.449	19997.34
764.785	20081.63
765.122	19857.68
765.458	19793.05
765.795	19834.86
766.131	19733.39
766.467	19638.71
766.804	19627.41
767.14	19490.24
767.476	19456.11
767.812	19366.17
768.148	19508.54
768.485	19180.19
768.821	19189.91
769.157	19136.35
769.492	19167.31
769.828	19097.7
770.164	18947.88
770.5	18946.75
770.836	18903.81
771.171	18764.38
771.507	18690.71
771.842	18645.74
772.178	18597.6
772.513	18532.07
772.849	18634.89
773.184	18403.03
773.519	18402.13
773.855	18238.74
774.19	18300.89
774.525	18212.76
774.86	18139.99
775.195	18170.27
775.53	18099.54
775.865	17920.56
776.2	17876.95
776.535	17813.9
776.87	17729.38
777.205	17690.28
777.539	17650.96
777.874	17647.8
778.209	17509.95
778.543	17406.9
778.878	17324.42
779.212	17373
779.547	17235.61
779.881	17304.76
780.215	17168.72
780.55	17132.33
780.884	16957.42
781.218	16989.06
781.552	16967.59
781.886	16827.93
782.22	16773.47
782.554	16818.89
782.888	16583.65
783.222	16561.05
783.556	16447.83
783.889	16513.37
784.223	16344.78
784.557	16314.95
784.89	16317.44
785.224	16227.5
785.557	16107.95
785.891	16149.53
786.224	16029.08
786.558	16125.58
786.891	15976.43
787.224	15865.02
787.557	15784.34
787.891	15787.73
788.224	15703.22
788.557	15697.79
788.89	15653.5
789.223	15672.94
789.556	15536.67
789.888	15453.51
790.221	15491.7
790.554	15290.35
790.887	15292.15
791.219	15254.87
791.552	15297.8
791.884	15188.2
792.217	15119.73
792.549	15069.11
792.882	14936.91
793.214	14939.4
793.546	14981.65
793.879	14869.11
794.211	14725.84
794.543	14869.57
794.875	14770.13
795.207	14824.6
795.539	14656.69
795.871	14631.61
796.203	14482.23
796.535	14446.98
796.867	14435
797.198	14366.76
797.53	14356.59
797.862	14258.06
798.193	14269.36
798.525	14159.98
798.856	14183.71
799.188	14091.28
799.519	14018.97
799.85	13997.73
800.182	13973.77
800.513	13978.29
800.844	13829.82
801.175	13871.63
801.506	13803.61
801.837	13783.95
802.168	13832.76
802.499	13649.94
802.83	13616.27
803.161	13513.9
803.491	13555.93
803.822	13567.45
804.153	13481.13
804.483	13347.57
804.814	13283.62
805.145	13384.63
805.475	13315.94
805.805	13281.36
806.136	13297.4
806.466	13305.77
806.796	13153.45
807.126	13068.26
807.457	13067.13
807.787	13107.81
808.117	13110.74
808.447	13000.24
808.777	13005.89
809.107	12929.96
809.436	12953.68
809.766	12913.01
810.096	12865.1
810.426	12831.43
810.755	12799.56
811.085	12814.93
811.414	12727.48
811.744	12641.38
812.073	12602.96
812.403	12606.35
812.732	12547.82
813.061	12572.23
813.39	12439.35
813.719	12380.37
814.049	12410.42
814.378	12404.09
814.707	12338.11
815.036	12308.73
815.365	12339.01
815.693	12247.26
816.022	12233.48
816.351	12137.44
816.68	12068.28
817.008	12141.28
817.337	12077.1
817.665	12017.44
817.994	12085.46
818.322	12046.14
818.651	11996.42
818.979	12033.48
819.307	11988.29
819.636	11935.86
819.964	11800.72
820.292	11906.93
820.62	11910.32
820.948	11847.5
821.276	11852.24
821.604	11905.12
821.932	11808.63
822.259	11823.77
822.587	11814.73
822.915	11772.7
823.243	11796.43
823.57	11753.72
823.898	11802.53
824.225	11662.42
824.553	11739.48
824.88	11744.45
825.207	11815.86
825.535	11701.97
825.862	11777.44
826.189	11719.82
826.516	11783.09
826.843	11740.16
827.17	11770.44
827.497	11836.88
827.824	11732.7
828.151	11723.66
828.478	11751.46
828.805	11773.38
829.131	11689.99
829.458	11751
829.785	11660.16
830.111	11739.03
830.438	11740.38
830.764	11732.47
831.09	11713.49
831.417	11675.3
831.743	11766.6
832.069	11630.1
832.395	11640.95
832.722	11685.47
833.048	11724.34
833.374	11668.97
833.7	11625.58
834.026	11590.78
834.351	11591.46
834.677	11641.18
835.003	11618.35
835.329	11588.07
835.654	11526.83
835.98	11495.19
836.306	11601.63
836.631	11418.81
836.956	11569.99
837.282	11550.11
837.607	11501.75
837.932	11442.31
838.258	11410.9
838.583	11434.63
838.908	11386.95
839.233	11408.64
839.558	11322.54
839.883	11369.32
840.208	11351.69
840.533	11332.94
840.858	11285.71
841.182	11324.12
841.507	11268.53
841.832	11211.58
842.156	11200.51
842.481	11210.23
842.805	11147.18
843.13	11175.88
843.454	11106.05
843.778	11012.94
844.103	11106.28
844.427	10959.16
844.751	10984.7
845.075	10952.16
845.399	10923
845.723	10842.33
846.047	10823.35
846.371	10762.1
846.695	10841.2
847.019	10703.35
847.343	10744.48
847.666	10657.25
847.99	10609.79
848.313	10570.47
848.637	10539.96
848.96	10529.34
849.284	10487.53
849.607	10418.16
849.931	10366.86
850.254	10255.22
850.577	10318.5
850.9	10151.05
851.223	10208.9
851.546	10143.36
851.869	10081.22
852.192	10128.9
852.515	10015.46
852.838	9996.93
853.161	9968
853.483	9934.1
853.806	9947.44
854.129	9882.35
854.451	9821.56
854.774	9821.11
855.096	9765.07
855.419	9751.51
855.741	9695.69
856.063	9643.04
856.385	9608.91
856.708	9623.38
857.03	9556.49
857.352	9561.23
857.674	9538.86
857.996	9482.82
858.318	9380.67
858.64	9497.73
858.961	9498.63
859.283	9381.8
859.605	9339.77
859.926	9345.87
860.248	9302.26
860.57	9327.11
860.891	9325.53
861.212	9254.57
861.534	9229.94
861.855	9217.06
862.176	9208.47
862.498	9206.89
862.819	9194.01
863.14	9169.38
863.461	9095.93
863.782	9117.85
864.103	9071.53
864.424	9077.85
864.745	9107.01
865.065	9027.01
865.386	8967.57
865.707	8989.04
866.027	9024.75
866.348	9021.36
866.668	8945.88
866.989	8923.96
867.309	8900.91
867.63	8858.43
867.95	8895.94
868.27	8865.88
868.59	8833.57
868.91	8871.53
869.23	8832.21
869.55	8797.86
869.87	8871.53
870.19	8729.39
870.51	8797.64
870.83	8766.9
871.15	8745.66
871.469	8761.7
871.789	8705.66
872.109	8720.8
872.428	8630.63
872.748	8692.1
873.067	8655.49
873.386	8653.68
873.706	8579.34
874.025	8622.5
874.344	8569.39
874.663	8607.81
874.982	8511.32
875.301	8607.36
875.62	8566.46
875.939	8564.2
876.258	8547.7
876.577	8491.88
876.896	8544.76
877.214	8485.78
877.533	8532.78
877.852	8486.23
878.17	8455.27
878.489	8410.3
878.807	8449.62
879.125	8413.24
879.444	8440.36
879.762	8295.28
880.08	8367.82
880.398	8343.64
880.716	8324.43
881.034	8251.44
881.352	8345.67
881.67	8265.9
881.988	8283.98
882.306	8281.27
882.624	8194.71
882.941	8226.58
883.259	8158.78
883.577	8132.12
883.894	8085.11
884.212	8126.24
884.529	8131.89
884.846	8118.78
885.164	8083.08
885.481	8044.89
885.798	8064.77
886.115	8025.9
886.432	8026.58
886.75	7991.78
887.067	8012.12
887.383	7936.87
887.7	7929.86
888.017	7937.55
888.334	7931.67
888.651	7875.17
888.967	7874.95
889.284	7829.98
889.6	7776.65
889.917	7726.7
890.233	7735.74
890.55	7687.61
890.866	7782.3
891.182	7719.92
891.498	7643.32
891.815	7636.08
892.131	7632.47
892.447	7605.35
892.763	7590.89
893.079	7545.24
893.395	7517.67
893.71	7513.15
894.026	7526.26
894.342	7542.53
894.657	7477.67
894.973	7403.1
895.289	7363.55
895.604	7340.73
895.92	7336.43
896.235	7320.39
896.55	7302.31
896.865	7272.03
897.181	7263.66
897.496	7291.46
897.811	7209.66
898.126	7159.94
898.441	7183.89
898.756	7121.3
899.071	7078.81
899.386	7131.01
899.7	7027.96
900.015	7050.11
900.33	6971.92
900.644	6986.38
900.959	6969.66
901.273	6924.92
901.588	6903
901.902	6872.71
902.216	6835.43
902.531	6844.47
902.845	6771.47
903.159	6793.17
903.473	6716.11
903.787	6752.04
904.101	6707.3
904.415	6696.67
904.729	6690.8
905.042	6633.17
905.356	6656.9
905.67	6595.21
905.984	6611.03
906.297	6595.89
906.611	6508.88
906.924	6533.29
907.237	6458.04
907.551	6425.95
907.864	6407.42
908.177	6471.6
908.491	6399.05
908.804	6385.95
909.117	6316.57
909.43	6286.52
909.743	6259.62
910.056	6236.35
910.368	6250.13
910.681	6194.09
910.994	6166.07
911.307	6113.64
911.619	6130.59
911.932	6109.57
912.244	6051.27
912.557	6081.78
912.869	6031.83
913.181	6011.49
913.494	5971.72
913.806	5983.02
914.118	5917.49
914.43	5940.76
914.742	5942.12
915.054	5842.91
915.366	5911.38
915.678	5842.69
915.99	5828.45
916.302	5704.61
916.613	5744.16
916.925	5710.71
917.236	5757.26
917.548	5723.14
917.859	5716.14
918.171	5650.83
918.482	5628.91
918.794	5592.07
919.105	5597.49
919.416	5541.9
919.727	5498.51
920.038	5494.9
920.349	5478.85
920.66	5486.76
920.971	5418.06
921.282	5466.65
921.593	5409.25
921.903	5409.48
922.214	5349.36
922.525	5295.58
922.835	5288.8
923.146	5305.75
923.456	5307.78
923.767	5302.13
924.077	5237.96
924.387	5209.48
924.697	5135.59
925.008	5194.57
925.318	5139.43
925.628	5142.14
925.938	5104.4
926.248	5064.85
926.558	4955.7
926.867	5026.66
927.177	4980.79
927.487	5006.32
927.796	4965.65
928.106	4958.41
928.416	4931.97
928.725	4885.2
929.034	4851.52
929.344	4901.69
929.653	4820.11
929.962	4763.39
930.271	4787.12
930.581	4751.64
930.89	4755.93
931.199	4721.36
931.508	4701.47
931.817	4690.4
932.125	4664.64
932.434	4678.87
932.743	4621.47
933.051	4606.79
933.36	4610.63
933.669	4587.35
933.977	4571.08
934.286	4583.28
934.594	4538.99
934.902	4503.96
935.21	4456.51
935.519	4480.24
935.827	4467.81
936.135	4465.77
936.443	4407.02
936.751	4347.36
937.059	4404.08
937.367	4328.15
937.674	4367.92
937.982	4339
938.29	4304.42
938.597	4258.77
938.905	4263.07
939.213	4225.33
939.52	4282.95
939.827	4260.13
940.135	4201.37
940.442	4203.86
940.749	4126.35
941.056	4134.71
941.363	4137.19
941.67	4145.55
941.977	4053.35
942.284	4071.21
942.591	4058.55
942.898	4029.4
943.205	4025.11
943.511	4004.99
943.818	4050.64
944.125	3907.37
944.431	3963.41
944.738	3942.85
945.044	3925.45
945.35	3922.28
945.657	3875.96
945.963	3906.69
946.269	3843.19
946.575	3817.88
946.881	3817.65
947.187	3817.65
947.493	3803.64
947.799	3788.05
948.105	3758.22
948.41	3719.8
948.716	3756.64
949.022	3721.84
949.327	3715.28
949.633	3673.93
949.938	3704.21
950.244	3667.83
950.549	3631.9
950.854	3618.11
951.16	3612.46
951.465	3604.1
951.77	3570.88
952.075	3551.45
952.38	3541.05
952.685	3521.84
952.99	3498.11
953.294	3539.92
953.599	3541.95
953.904	3480.26
954.209	3454.5
954.513	3441.39
954.818	3431.9
955.122	3412.01
955.426	3439.58
955.731	3401.17
956.035	3353.94
956.339	3346.71
956.643	3358.91
956.948	3289.31
957.252	3325.92
957.556	3268.29
957.86	3299.48
958.163	3308.97
958.467	3224.9
958.771	3265.35
959.075	3280.94
959.378	3189.65
959.682	3253.6
959.985	3171.12
960.289	3211.34
960.592	3149.87
960.896	3151.91
961.199	3162.08
961.502	3121.17
961.805	3099.93
962.108	3068.3
962.411	3094.06
962.714	3083.89
963.017	3045.92
963.32	3071.23
963.623	3026.26
963.926	3037.56
964.228	2997.56
964.531	3009.77
964.833	2919.82
965.136	2924.12
965.438	2949.65
965.741	2947.17
966.043	2907.85
966.345	2924.12
966.648	2913.27
966.95	2939.03
967.252	2872.82
967.554	2910.79
967.856	2837.79
968.158	2839.83
968.46	2834.18
968.761	2804.57
969.063	2818.36
969.365	2772.48
969.666	2774.74
969.968	2742.65
970.269	2776.1
970.571	2730.9
970.872	2719.38
971.174	2687.06
971.475	2715.54
971.776	2691.58
972.077	2714.41
972.378	2663.11
972.679	2652.03
972.98	2639.15
973.281	2642.09
973.582	2657.91
973.883	2595.31
974.183	2624.24
974.484	2594.64
974.785	2567.52
975.085	2573.17
975.386	2574.97
975.686	2552.83
975.986	2561.42
976.287	2530.46
976.587	2511.25
976.887	2525.03
977.187	2501.98
977.487	2502.21
977.787	2477.58
978.087	2449.1
978.387	2452.49
978.687	2444.81
978.987	2462.21
979.286	2437.58
979.586	2442.1
979.885	2412.72
980.185	2402.1
980.484	2412.95
980.784	2350.8
981.083	2350.57
981.382	2350.35
981.682	2387.63
981.981	2330.01
982.28	2340.4
982.579	2323.46
982.878	2265.83
983.177	2275.1
983.475	2297.92
983.774	2282.78
984.073	2285.49
984.372	2243.46
984.67	2266.51
984.969	2262.44
985.267	2274.87
985.566	2228.09
985.864	2210.01
986.162	2204.59
986.461	2177.7
986.759	2184.02
987.057	2143.35
987.355	2149.9
987.653	2153.06
987.951	2112.61
988.249	2118.49
988.547	2120.3
988.844	2120.98
989.142	2139.51
989.44	2084.82
989.737	2056.57
990.035	2076
990.332	2068.32
990.63	2036.01
990.927	2056.57
991.224	2052.28
991.521	2031.94
991.819	2036.23
992.116	2009.79
992.413	1999.4
992.71	2005.95
993.006	1976.57
993.303	1981.09
993.6	1952.17
993.897	1961.66
994.193	1929.57
994.49	1979.06
994.787	1906.07
995.083	1914.2
995.379	1892.96
995.676	1880.76
995.972	1921.43
996.268	1903.35
996.565	1867.2
996.861	1865.39
997.157	1841.89
997.453	1849.8
997.749	1832.85
998.044	1811.83
998.34	1824.94
998.636	1810.93
998.932	1812.73
999.227	1797.82
999.523	1793.98
999.818	1756.47
1000.114	1776.58
1000.409	1764.83
1000.704	1721.44
1001	1721.21
1001.295	1730.93
1001.59	1729.12
1001.885	1701.33
1002.18	1720.53
1002.475	1677.15
1002.77	1699.29
1003.065	1677.6
1003.359	1665.39
1003.654	1661.33
1003.949	1654.32
1004.243	1652.74
1004.538	1624.94
1004.832	1633.3
1005.127	1639.41
1005.421	1598.05
1005.715	1635.56
1006.009	1600.99
1006.304	1588.33
1006.598	1602.12
1006.892	1580.65
1007.186	1573.87
1007.48	1610.93
1007.773	1545.17
1008.067	1534.32
1008.361	1516.25
1008.655	1525.74
1008.948	1539.3
1009.242	1526.41
1009.535	1498.17
1009.829	1465.17
1010.122	1508.11
1010.415	1468.56
1010.708	1453.42
1011.001	1437.38
1011.295	1449.58
1011.588	1425.63
1011.881	1444.61
1012.173	1440.77
1012.466	1417.26
1012.759	1392.63
1013.052	1407.77
1013.344	1409.13
1013.637	1369.81
1013.93	1382.69
1014.222	1377.72
1014.514	1362.8
1014.807	1354.22
1015.099	1366.19
1015.391	1354.44
1015.683	1334.33
1015.976	1334.56
1016.268	1336.36
1016.56	1312.18
1016.851	1283.26
1017.143	1306.53
1017.435	1303.6
1017.727	1276.25
1018.018	1279.19
1018.31	1272.64
1018.602	1263.82
1018.893	1238.96
1019.185	1239.64
1019.476	1226.99
1019.767	1228.8
1020.058	1218.17
1020.35	1209.59
1020.641	1215.46
1020.932	1196.03
1021.223	1199.42
1021.514	1165.75
1021.804	1173.43
1022.095	1161.45
1022.386	1143.37
1022.677	1166.88
1022.967	1153.32
1023.258	1135.92
1023.548	1132.53
1023.839	1114.45
1024.129	1115.13
1024.419	1105.63
1024.709	1081.68
1025	1090.72
1025.29	1093.21
1025.58	1073.32
1025.87	1074.9
1026.16	1086.65
1026.449	1102.02
1026.739	1064.51
1027.029	1056.37
1027.319	1031.74
1027.608	1038.29
1027.898	1038.07
1028.187	1023.15
1028.477	1011.4
1028.766	1009.37
1029.055	1005.3
1029.344	999.2
1029.634	975.92
1029.923	999.65
1030.212	971.63
1030.501	964.85
1030.79	961.91
1031.078	956.03
1031.367	977.05
1031.656	938.41
1031.945	962.81
1032.233	921.01
1032.522	935.24
1032.81	909.03
1033.099	917.39
1033.387	917.39
1033.675	892.31
1033.963	903.83
1034.251	899.54
1034.54	888.01
1034.828	876.49
1035.116	885.08
1035.403	885.08
1035.691	883.95
1035.979	873.55
1036.267	854.34
1036.554	876.26
1036.842	833.1
1037.129	865.64
1037.417	829.03
1037.704	847.34
1037.992	855.92
1038.279	823.38
1038.566	817.96
1038.853	817.96
1039.14	817.96
