Data from tablewood_dark_bookshelf_FLMS001491_00074.txt Node
Date: Wed Feb 08 14:15:36 GMT 2017
User: dcchb
Spectrometer: FLMS00149
Trigger mode: 0
Integration Time (sec): 2.000000E-2
Scans to average: 10
Electric dark correction enabled: true
Nonlinearity correction enabled: false
Boxcar width: 0
XAxis mode: Wavelengths
Number of Pixels in Spectrum: 2048
>>>>>Begin Spectral Data<<<<<
341.393	-22.84
341.776	-22.84
342.16	-22.84
342.543	-72.55
342.927	-62.39
343.31	-66.45
343.693	-67.58
344.077	-54.48
344.46	-43.63
344.843	-47.24
345.226	-36.62
345.61	-53.12
345.993	-27.36
346.376	-11.09
346.759	29.14
347.142	28.01
347.525	51.74
347.908	39.76
348.291	75.24
348.674	84.05
349.057	99.64
349.44	120.66
349.823	143.48
350.206	152.52
350.588	173.54
350.971	207.89
351.354	231.17
351.737	231.17
352.119	221.9
352.502	268.23
352.884	286.76
353.267	274.78
353.65	286.76
354.032	288.34
354.414	274.78
354.797	281.79
355.179	290.6
355.562	340.99
355.944	320.88
356.326	335.57
356.709	335.12
357.091	336.93
357.473	340.09
357.855	324.72
358.238	331.05
358.62	347.55
359.002	342.58
359.384	324.72
359.766	344.84
360.148	337.38
360.53	336.7
360.912	334.44
361.294	348.9
361.676	320.43
362.057	342.58
362.439	322.92
362.821	308.68
363.203	345.74
363.584	334.89
363.966	322.46
364.348	332.86
364.729	336.02
365.111	338.51
365.493	336.93
365.874	339.86
366.256	342.58
366.637	327.21
367.019	326.98
367.4	338.73
367.781	331.28
368.163	315.01
368.544	331.05
368.925	325.18
369.306	337.6
369.688	313.88
370.069	304.61
370.45	321.79
370.831	322.46
371.212	344.38
371.593	310.49
371.974	347.32
372.355	329.69
372.736	347.77
373.117	331.95
373.498	352.29
373.879	338.96
374.26	325.63
374.641	332.18
375.021	350.03
375.402	334.21
375.783	314.78
376.163	351.16
376.544	364.04
376.925	331.28
377.305	345.97
377.686	366.53
378.066	341.22
378.447	388.45
378.827	326.3
379.208	333.99
379.588	342.58
379.968	354.78
380.349	340.77
380.729	374.89
381.109	359.07
381.489	379.64
381.87	366.08
382.25	355.91
382.63	366.98
383.01	376.7
383.39	369.47
383.77	372.41
384.15	382.57
384.53	385.29
384.91	375.57
385.29	370.82
385.67	379.86
386.049	392.97
386.429	398.17
386.809	367.89
387.189	400.43
387.568	395
387.948	394.33
388.328	405.4
388.707	402.69
389.087	412.86
389.466	417.83
389.846	407.66
390.225	435.91
390.605	418.96
390.984	417.6
391.363	407.43
391.743	399.98
392.122	432.06
392.501	432.52
392.881	447.43
393.26	435.23
393.639	463.7
394.018	431.61
394.397	429.13
394.776	458.96
395.155	441.78
395.534	442.23
395.913	459.63
396.292	467.09
396.671	452.86
397.05	440.2
397.429	476.81
397.808	457.6
398.186	458.28
398.565	476.36
398.944	466.19
399.323	495.34
399.701	490.37
400.08	489.46
400.458	479.07
400.837	500.99
401.215	486.3
401.594	499.86
401.972	481.33
402.351	493.53
402.729	483.81
403.107	518.62
403.486	510.48
403.864	508.9
404.242	527.2
404.62	517.94
404.999	515
405.377	503.02
405.755	543.93
406.133	523.14
406.511	537.37
406.889	541.44
407.267	537.37
407.645	552.74
408.023	573.08
408.401	568.33
408.779	554.55
409.156	564.72
409.534	588.9
409.912	597.48
410.29	562.91
410.667	597.48
411.045	591.38
411.422	588.22
411.8	615.34
412.178	632.06
412.555	612.4
412.933	605.39
413.31	624.83
413.687	642.91
414.065	646.97
414.442	656.24
414.819	670.7
415.197	679.06
415.574	661.89
415.951	654.43
416.328	673.87
416.705	673.19
417.082	659.4
417.46	691.27
417.837	694.43
418.214	704.6
418.591	697.82
418.967	719.06
419.344	733.75
419.721	701.44
420.098	698.05
420.475	723.13
420.852	775.33
421.228	757.03
421.605	734.88
421.982	754.99
422.358	759.74
422.735	774.43
423.111	765.39
423.488	782.34
423.864	775.78
424.241	790.93
424.617	813.75
424.994	800.87
425.37	818.95
425.746	811.04
426.123	816.24
426.499	840.64
426.875	843.58
427.251	826.86
427.627	859.85
428.003	858.72
428.379	876.12
428.756	870.25
429.132	903.24
429.507	885.61
429.883	890.36
430.259	916.12
430.635	898.49
431.011	916.8
431.387	975.33
431.763	961.32
432.138	975.78
432.514	972.39
432.89	994.54
433.265	990.92
433.641	988.43
434.016	1028.21
434.392	1014.65
434.767	1039.96
435.143	1063.46
435.518	1068.21
435.894	1075.89
436.269	1086.74
436.644	1077.47
437.02	1079.73
437.395	1112.5
437.77	1114.98
438.145	1123.8
438.52	1131.03
438.895	1133.29
439.271	1112.5
439.646	1156.11
440.021	1157.47
440.395	1210.12
440.77	1165.83
441.145	1189.79
441.52	1213.29
441.895	1209.22
442.27	1243.12
442.645	1205.6
443.019	1217.13
443.394	1224.81
443.769	1257.58
444.143	1222.78
444.518	1268.43
444.892	1255.32
445.267	1278.37
445.641	1290.35
446.016	1290.8
446.39	1283.34
446.764	1279.5
447.139	1286.51
447.513	1297.58
447.887	1299.61
448.262	1331.7
448.636	1294.87
449.01	1348.88
449.384	1371.02
449.758	1358.14
450.132	1373.06
450.506	1392.94
450.88	1420.51
451.254	1394.98
451.628	1404.02
452.002	1441.3
452.376	1471.36
452.75	1467.29
453.123	1453.51
453.497	1481.53
453.871	1463.22
454.244	1521.53
454.618	1496.44
454.992	1539.83
455.365	1550
455.739	1590.23
456.112	1590.23
456.486	1581.87
456.859	1640.17
457.232	1643.33
457.606	1670.45
457.979	1685.82
458.352	1678.81
458.725	1730.79
459.099	1727.85
459.472	1764.23
459.845	1778.24
460.218	1781.18
460.591	1815.08
460.964	1810.11
461.337	1862.54
461.71	1904.79
462.083	1924.91
462.456	1907.05
462.829	1913.61
463.201	1949.54
463.574	1940.73
463.947	1988.86
464.32	2044.45
464.692	2075.19
465.065	2049.42
465.438	2085.58
465.81	2119.7
466.183	2140.49
466.555	2179.59
466.928	2202.19
467.3	2181.17
467.672	2215.07
468.045	2253.03
468.417	2260.27
468.789	2298
469.161	2317.89
469.534	2361.51
469.906	2393.37
470.278	2407.61
470.65	2432.24
471.022	2478.34
471.394	2504.55
471.766	2551.56
472.138	2568.28
472.51	2614.61
472.882	2668.62
473.253	2662.97
473.625	2700.93
473.997	2771.21
474.369	2811.89
474.74	2823.87
475.112	2886.92
475.484	2937.76
475.855	2922.62
476.227	2978.21
476.598	3067.02
476.97	3074.93
477.341	3143.63
477.713	3213.91
478.084	3225.21
478.455	3286.91
478.827	3308.6
479.198	3406.45
479.569	3389.95
479.94	3481.93
480.311	3554.24
480.682	3610.51
481.053	3703.84
481.424	3751.07
481.795	3771.64
482.166	3817.29
482.537	3874.46
482.908	3968.24
483.279	3997.17
483.65	4046.66
484.021	4142.02
484.391	4168.92
484.762	4196.94
485.133	4250.27
485.503	4305.41
485.874	4384.5
486.244	4390.6
486.615	4497.49
486.985	4530.71
487.356	4636.25
487.726	4679.18
488.097	4775.68
488.467	4793.53
488.837	4837.37
489.207	4938.61
489.578	4981.78
489.948	5007.54
490.318	5098.61
490.688	5165.05
491.058	5243.24
491.428	5327.76
491.798	5324.14
492.168	5426.06
492.538	5448.88
492.908	5533.17
493.278	5548.54
493.648	5575.43
494.017	5646.84
494.387	5730.23
494.757	5753.96
495.126	5831.47
495.496	5822.88
495.866	5908.53
496.235	5924.8
496.605	5989.43
496.974	6047.28
497.344	6133.38
497.713	6155.53
498.082	6192.14
498.452	6246.6
498.821	6251.35
499.19	6304.68
499.559	6383.55
499.928	6397.56
500.298	6420.83
500.667	6480.72
501.036	6532.92
501.405	6585.58
501.774	6536.76
502.143	6621.96
502.512	6687.72
502.88	6762.75
503.249	6754.84
503.618	6803.87
503.987	6794.38
504.356	6908.96
504.724	6900.82
505.093	6955.74
505.462	7009.75
505.83	7071.21
506.199	7086.58
506.567	7210.42
506.936	7246.35
507.304	7309.17
507.672	7392.33
508.041	7336.52
508.409	7446.57
508.777	7516.62
509.145	7551.2
509.514	7558.88
509.882	7667.13
510.25	7650.86
510.618	7748.93
510.986	7762.04
511.354	7904.41
511.722	7908.48
512.09	8016.95
512.458	7958.19
512.826	8082.71
513.193	8126.78
513.561	8166.55
513.929	8209.04
514.297	8272.54
514.664	8334.68
515.032	8367.9
515.4	8486.77
515.767	8454.23
516.135	8554.56
516.502	8539.87
516.869	8593.21
517.237	8744.16
517.604	8709.14
517.972	8895.57
518.339	8913.42
518.706	8961.78
519.073	8960.65
519.44	9042.91
519.808	9185.73
520.175	9080.88
520.542	9337.14
520.909	9304.83
521.276	9284.71
521.643	9459.17
522.009	9508.21
522.376	9586.85
522.743	9648.55
523.11	9743.23
523.477	9813.97
523.843	9934.87
524.21	10006.95
524.577	10062.77
524.943	10043.34
525.31	10167.63
525.676	10333.95
526.043	10364.91
526.409	10404.46
526.776	10510.9
527.142	10531.69
527.508	10606.03
527.874	10665.69
528.241	10763.09
528.607	10792.02
528.973	10883.99
529.339	10907.27
529.705	10996.76
530.071	11160.37
530.437	11119.02
530.803	11258.9
531.169	11291.89
531.535	11337.77
531.901	11337.31
532.267	11495.5
532.632	11526.69
532.998	11556.74
533.364	11679
533.73	11737.08
534.095	11786.12
534.461	11862.72
534.826	11951.99
535.192	11949.95
535.557	12009.16
535.923	12064.53
536.288	12083.28
536.653	12109.72
537.019	12133.9
537.384	12160.57
537.749	12304.3
538.114	12332.54
538.479	12323.96
538.845	12356.27
539.21	12379.32
539.575	12490.96
539.94	12540.9
540.305	12627.68
540.67	12616.6
541.034	12603.27
541.399	12761.23
541.764	12728.46
542.129	12909.25
542.494	12851.4
542.858	12968.91
543.223	12945.41
543.587	13068.57
543.952	13018.85
544.316	13103.37
544.681	13118.96
545.045	13209.36
545.41	13212.29
545.774	13300.65
546.138	13349.47
546.503	13407.77
546.867	13346.53
547.231	13530.25
547.595	13542.45
547.959	13535.22
548.324	13640.53
548.688	13673.75
549.052	13720.76
549.416	13711.04
549.779	13809.11
550.143	13857.25
550.507	13933.4
550.871	14006.85
551.235	13926.4
551.599	14129.56
551.962	14075.77
552.326	14137.69
552.689	14313.06
553.053	14245.26
553.417	14311.47
553.78	14540.17
554.143	14457.01
554.507	14542.65
554.87	14685.02
555.234	14796.88
555.597	14683.89
555.96	14733.38
556.323	14803.21
556.686	14859.03
557.05	15008.18
557.413	14988.07
557.776	15118.91
558.139	15248.85
558.502	15224.9
558.865	15270.32
559.228	15361.84
559.59	15440.48
559.953	15483.65
560.316	15604.77
560.679	15628.5
561.041	15729.29
561.404	15763.41
561.767	15906.23
562.129	15938.32
562.492	16051.32
562.854	16114.14
563.217	16054.25
563.579	16200.92
563.941	16312.33
564.304	16387.35
564.666	16537.18
565.028	16516.16
565.39	16568.59
565.753	16821.69
566.115	16825.53
566.477	16901.69
566.839	16896.26
567.201	17049.48
567.563	17134.45
567.925	17393.88
568.287	17372.41
568.648	17355.01
569.01	17434.78
569.372	17562.91
569.734	17608.79
570.095	17654.44
570.457	17818.27
570.819	17750.03
571.18	17788.22
571.542	17998.16
571.903	18001.55
572.265	18045.16
572.626	18169
572.987	18248.55
573.349	18217.81
573.71	18424.13
574.071	18411.93
574.432	18554.53
574.794	18626.84
575.155	18598.14
575.516	18600.17
575.877	18705.03
576.238	18814.18
576.599	18997.9
576.96	18831.36
577.32	18959.26
577.681	19057.79
578.042	19156.09
578.403	19230.21
578.763	19185.24
579.124	19326.48
579.485	19410.1
579.845	19386.37
580.206	19420.27
580.566	19490.09
580.927	19499.36
581.287	19523.54
581.648	19542.3
582.008	19636.31
582.368	19646.47
582.728	19771.44
583.089	19776.19
583.449	19860.71
583.809	19899.12
584.169	19996.3
584.529	19847.6
584.889	19998.78
585.249	19983.64
585.609	19948.16
585.969	20031.78
586.329	19997.43
586.688	20116.52
587.048	20057.76
587.408	20022.06
587.768	20169.4
588.127	20142.96
588.487	20074.03
588.846	20316.74
589.206	20206.69
589.565	20188.16
589.925	20418.43
590.284	20340.24
590.643	20406.68
591.003	20500.01
591.362	20577.98
591.721	20454.82
592.08	20462.27
592.44	20535.49
592.799	20557.86
593.158	20538.65
593.517	20622.49
593.876	20641.7
594.235	20703.4
594.593	20724.64
594.952	20777.97
595.311	20691.19
595.67	20828.36
596.029	20990.39
596.387	20907.46
596.746	21029.04
597.104	20937.29
597.463	20942.49
597.822	21083.27
598.18	21011.64
598.538	21017.06
598.897	21120.56
599.255	20999.21
599.613	21318.52
599.972	21173.89
600.33	21283.04
600.688	21227.45
601.046	21357.16
601.404	21467.67
601.762	21379.99
602.12	21538.63
602.478	21570.94
602.836	21544.96
603.194	21436.26
603.552	21493.43
603.91	21419.08
604.268	21549.48
604.625	21410.04
604.983	21685.97
605.341	21602.81
605.698	21642.35
606.056	21704.95
606.413	21764.84
606.771	21761.45
607.128	21858.62
607.485	21641.45
607.843	21889.13
608.2	21890.03
608.557	21959.86
608.914	21884.38
609.272	22022.23
609.629	22097.26
609.986	22206.18
610.343	22009.58
610.7	22176.58
611.057	22137.93
611.414	22133.42
611.771	22278.95
612.127	22200.31
612.484	22295.22
612.841	22397.82
613.198	22236.24
613.554	22348.32
613.911	22403.01
614.267	22358.49
614.624	22486.85
614.98	22393.97
615.337	22621.76
615.693	22534.31
616.05	22452.95
616.406	22582.67
616.762	22549.22
617.118	22586.74
617.475	22631.26
617.831	22637.13
618.187	22652.05
618.543	22788.77
618.899	22844.13
619.255	22826.96
619.611	22788.77
619.967	22857.24
620.323	23041.19
620.678	22872.6
621.034	22730.46
621.39	22888.2
621.746	22787.41
622.101	23030.57
622.457	22899.04
622.812	22994.18
623.168	22980.85
623.523	22919.61
623.879	23033.28
624.234	22915.32
624.589	22967.97
624.945	22935.43
625.3	23070.79
625.655	22939.27
626.01	23021.08
626.365	23036.89
626.72	22974.3
627.075	22988.31
627.43	23075.09
627.785	22865.83
628.14	23019.95
628.495	23054.97
628.85	23013.84
629.205	22997.12
629.559	23079.38
629.914	22901.08
630.269	22973.85
630.623	22813.17
630.978	22938.14
631.332	22830.8
631.687	22979.95
632.041	22911.93
632.396	22850.46
632.75	22903.56
633.104	22807.52
633.459	22663.12
633.813	22833.06
634.167	22811.59
634.521	22800.52
634.875	22788.31
635.229	22707.41
635.583	22596
635.937	22645.27
636.291	22502.22
636.645	22573.18
636.999	22621.54
637.352	22753.74
637.706	22443.01
638.06	22581.76
638.413	22494.31
638.767	22387.65
639.121	22484.59
639.474	22236.69
639.828	22335.22
640.181	22351.26
640.534	22416.57
640.888	22284.15
641.241	22250.02
641.594	22379.51
641.947	22408.89
642.301	22217.25
642.654	22339.29
643.007	22210.25
643.36	22250.93
643.713	22226.97
644.066	22220.42
644.419	22151.95
644.771	21908.79
645.124	21823.82
645.477	21788.79
645.83	21480.1
646.182	21448.01
646.535	21461.79
646.888	21441.23
647.24	21314.23
647.593	21524.39
647.945	21474.68
648.298	21360.78
648.65	21320.56
649.002	21271.74
649.355	21359.88
649.707	21297.05
650.059	21386.77
650.411	21635.12
650.763	21612.75
651.115	21920.54
651.467	21832.86
651.819	21848.68
652.171	21690.26
652.523	21637.84
652.875	21731.62
653.227	21657.95
653.578	21859.07
653.93	21737.04
654.282	21695.46
654.633	21565.97
654.985	21711.51
655.337	21668.79
655.688	21628.8
656.039	21597.61
656.391	21512.19
656.742	21634.22
657.094	21567.33
657.445	21764.39
657.796	21606.42
658.147	21565.52
658.498	21519.65
658.849	21603.03
659.2	21696.82
659.551	21455.69
659.902	21577.5
660.253	21529.14
660.604	21645.52
660.955	21485.3
661.306	21577.5
661.656	21608.46
662.007	21460.21
662.358	21567.55
662.708	21490.27
663.059	21532.08
663.409	21399.2
663.76	21509.93
664.11	21478.97
664.461	21494.56
664.811	21405.52
665.161	21454.79
665.511	21440.55
665.862	21512.64
666.212	21572.53
666.562	21524.62
666.912	21542.7
667.262	21525.97
667.612	21421.57
667.962	21363.49
668.312	21420.44
668.662	21588.12
669.011	21463.83
669.361	21405.52
669.711	21364.62
670.06	21463.83
670.41	21381.8
670.76	21237.39
671.109	21535.01
671.459	21381.34
671.808	21223.61
672.157	21443.49
672.507	21280.78
672.856	21228.13
673.205	21351.97
673.554	21296.15
673.904	21255.7
674.253	21316.94
674.602	21311.74
674.951	20957.63
675.3	20809.38
675.649	21252.53
675.998	21168.92
676.346	21177.06
676.695	21319.2
677.044	21175.93
677.393	21133.22
677.741	21253.66
678.09	21273.78
678.438	21161.24
678.787	21160.79
679.135	21132.09
679.484	20994.46
679.832	21049.6
680.181	20985.87
680.529	21093.22
680.877	21011.18
681.225	20953.11
681.573	21130.28
681.922	20775.71
682.27	20813.68
682.618	20844.86
682.966	20850.51
683.314	20854.13
683.661	20716.96
684.009	20732.32
684.357	20673.11
684.705	20609.39
685.053	20564.42
685.4	20625.88
685.748	20561.93
686.095	20621.82
686.443	20415.49
686.79	20401.03
687.138	20530.52
687.485	20551.31
687.832	20313.8
688.18	20464.31
688.527	20300.47
688.874	20211.66
689.221	20150.42
689.568	20084.88
689.915	20170.08
690.262	20069.74
690.609	20067.93
690.956	19946.81
691.303	20075.39
691.65	19932.34
691.997	19915.62
692.344	19749.98
692.69	19714.04
693.037	19663.42
693.383	19582.3
693.73	19761.27
694.077	19546.36
694.423	19553.82
694.769	19559.7
695.116	19404.45
695.462	19385.24
695.808	19419.81
696.155	19425.01
696.501	19222.53
696.847	19266.6
697.193	19076.55
697.539	19249.65
697.885	19012.59
698.231	19083.1
698.577	18980.28
698.923	19016.21
699.269	18834.29
699.614	18806.27
699.96	18649.89
700.306	18670.23
700.651	18683.34
700.997	18737.12
701.342	18570.57
701.688	18575.77
702.033	18588.88
702.379	18553.62
702.724	18423.46
703.069	18514.75
703.415	18276.34
703.76	18191.82
704.105	18232.73
704.45	18215.55
704.795	18021.66
705.14	18121.09
705.485	18044.71
705.83	17980.76
706.175	17966.07
706.52	17861.21
706.865	17812.62
707.209	17853.53
707.554	17792.74
707.899	17824.6
708.243	17731.5
708.588	17769.01
708.932	17626.42
709.277	17582.35
709.621	17617.15
709.966	17511.16
710.31	17555.23
710.654	17362.24
710.998	17421.22
711.342	17517.04
711.687	17370.83
712.031	17353.43
712.375	17245.41
712.719	17369.02
713.063	17290.83
713.407	17311.4
713.75	17121.8
714.094	17209.48
714.438	17089.71
714.782	17084.28
715.125	17060.1
715.469	17044.28
715.812	16926.55
716.156	16859.43
716.499	16879.32
716.843	16975.81
717.186	16865.08
717.53	16972.65
717.873	16879.54
718.216	16847.9
718.559	16828.02
718.902	16655.14
719.246	16683.84
719.589	16632.32
719.932	16579.44
720.275	16537.86
720.617	16594.13
720.96	16663.05
721.303	16511.64
721.646	16542.83
721.989	16466.67
722.331	16451.98
722.674	16413.34
723.016	16505.09
723.359	16443.85
723.701	16382.83
724.044	16320.91
724.386	16235.49
724.729	16383.51
725.071	16326.56
725.413	16242.27
725.755	16239.56
726.097	16261.25
726.439	16139.9
726.782	16101.71
727.124	16191.65
727.465	16073.01
727.807	16192.1
728.149	16052.22
728.491	16040.24
728.833	16101.26
729.175	16014.71
729.516	16026.91
729.858	16091.77
730.199	16099.22
730.541	15954.37
730.882	15987.81
731.224	16028.72
731.565	15891.77
731.906	15925.89
732.248	15924.76
732.589	15904.88
732.93	15868.5
733.271	15899.45
733.612	15860.13
733.953	15930.19
734.294	15803.86
734.635	15816.52
734.976	15826.91
735.317	15716.18
735.658	15733.58
735.999	15758.89
736.339	15789.4
736.68	15750.08
737.021	15758.44
737.361	15620.37
737.702	15771.77
738.042	15698.33
738.383	15657.43
738.723	15712.57
739.063	15647.71
739.404	15588.73
739.744	15563.42
740.084	15611.33
740.424	15582.4
740.764	15482.97
741.104	15534.94
741.444	15474.61
741.784	15459.24
742.124	15483.65
742.464	15534.72
742.804	15433.7
743.143	15381.05
743.483	15371.56
743.823	15266.93
744.162	15294.27
744.502	15320.71
744.841	15308.06
745.181	15331.11
745.52	15290.88
745.86	15310.77
746.199	15287.72
746.538	15218.12
746.877	15324.78
747.216	15270.09
747.556	15246.36
747.895	15337.44
748.234	15219.92
748.573	15096.54
748.911	15136.54
749.25	15102.64
749.589	15073.26
749.928	15111.9
750.267	15134.28
750.605	15085.69
750.944	15059.48
751.283	15021.06
751.621	14976.32
751.96	14865.36
752.298	14938.8
752.636	14960.27
752.975	14862.87
753.313	14804.57
753.651	14872.82
753.989	14789.65
754.327	14784.68
754.666	14709.2
755.004	14663.33
755.342	14694.74
755.679	14771.12
756.017	14599.15
756.355	14671.01
756.693	14568.87
757.031	14643.44
757.368	14522.32
757.706	14571.35
758.044	14500.17
758.381	14523.45
758.719	14425.6
759.056	14392.83
759.394	14410.68
759.731	14276.22
760.068	14225.37
760.405	14130.01
760.743	14186.73
761.08	14218.6
761.417	14121.65
761.754	14131.14
762.091	14040.29
762.428	13939.28
762.765	13857.25
763.102	13869.45
763.438	13857.25
763.775	13792.84
764.112	13786.52
764.449	13801.66
764.785	13734.77
765.122	13598.5
765.458	13738.83
765.795	13629.23
766.131	13603.02
766.467	13552.4
766.804	13490.03
767.14	13406.86
767.476	13410.48
767.812	13295.91
768.148	13402.57
768.485	13299.52
768.821	13184.95
769.157	13070.38
769.492	13146.98
769.828	13099.98
770.164	13050.94
770.5	12989.93
770.836	12901.57
771.171	12844.62
771.507	12781.34
771.842	12703.38
772.178	12665.19
772.513	12708.8
772.849	12631.97
773.184	12590.16
773.519	12572.76
773.855	12545.87
774.19	12504.06
774.525	12487.79
774.86	12500.9
775.195	12465.42
775.53	12374.12
775.865	12253.45
776.2	12196.5
776.535	12195.37
776.87	12171.64
777.205	12087.35
777.539	12047.13
777.874	12066.79
778.209	11928.71
778.543	11898.2
778.878	11885.1
779.212	11780.24
779.547	11775.04
779.881	11783.86
780.215	11695.05
780.55	11704.54
780.884	11592
781.218	11508.16
781.552	11589.06
781.886	11540.93
782.22	11403.3
782.554	11387.94
782.888	11335.51
783.222	11291.21
783.556	11262.51
783.889	11231.1
784.223	11149.52
784.557	11137.55
784.89	11140.94
785.224	11051.45
785.557	11047.38
785.891	10973.93
786.224	10954.27
786.558	10958.57
786.891	10838.8
787.224	10828.63
787.557	10782.75
787.891	10680.38
788.224	10663.43
788.557	10720.38
788.89	10658.46
789.223	10714.28
789.556	10547.96
789.888	10591.35
790.221	10506.6
790.554	10388.87
790.887	10455.53
791.219	10312.94
791.552	10397.23
791.884	10277.46
792.217	10307.74
792.549	10196.78
792.882	10099.38
793.214	10103.45
793.546	10085.14
793.879	10063.22
794.211	9994.75
794.543	10011.47
794.875	10015.54
795.207	10041.53
795.539	9930.35
795.871	9945.04
796.203	9830.01
796.535	9765.83
796.867	9783.01
797.198	9789.33
797.53	9821.87
797.862	9681.99
798.193	9625.27
798.525	9652.39
798.856	9660.52
799.188	9475.44
799.519	9513.18
799.85	9412.39
800.182	9468.21
800.513	9484.93
800.844	9338.5
801.175	9357.48
801.506	9389.8
801.837	9339.85
802.168	9352.28
802.499	9309.35
802.83	9192.29
803.161	9202
803.491	9152.29
803.822	9210.14
804.153	9086.98
804.483	9043.36
804.814	9067.77
805.145	9003.36
805.475	9035.68
805.805	8946.19
806.136	9030.03
806.466	9004.72
806.796	8948.45
807.126	8914.1
807.457	8844.05
807.787	8902.12
808.117	8792.3
808.447	8815.57
808.777	8801.79
809.107	8676.82
809.436	8706.88
809.766	8639.76
810.096	8625.97
810.426	8621.45
810.755	8653.54
811.085	8554.11
811.414	8574
811.744	8457.62
812.073	8489.25
812.403	8489.71
812.732	8429.59
813.061	8375.81
813.39	8384.4
813.719	8318.19
814.049	8339.2
814.378	8367
814.707	8292.88
815.036	8338.52
815.365	8301.91
815.693	8245.19
816.022	8218.07
816.351	8200.22
816.68	8118.87
817.008	8221.01
817.337	8110.73
817.665	8086.1
817.994	8167.68
818.322	8115.93
818.651	8031.41
818.979	8012.2
819.307	8066.44
819.636	8052.43
819.964	8030.96
820.292	8051.3
820.62	7971.75
820.948	8009.94
821.276	7976.73
821.604	7957.06
821.932	7970.4
822.259	7950.29
822.587	8010.17
822.915	7957.97
823.243	7955.26
823.57	7953.22
823.898	7984.18
824.225	7835.94
824.553	7913.45
824.88	7854.02
825.207	7915.71
825.535	7866.22
825.862	7960.91
826.189	7889.95
826.516	7912.77
826.843	7864.86
827.17	7942.15
827.497	7927.69
827.824	7870.74
828.151	7909.61
828.478	7882.72
828.805	7993.67
829.131	7877.07
829.458	7867.12
829.785	7813.79
830.111	7856.28
830.438	7902.6
830.764	7815.37
831.09	7905.31
831.417	7829.84
831.743	7801.81
832.069	7888.14
832.395	7890.17
832.722	7857.18
833.048	7776.28
833.374	7795.49
833.7	7759.33
834.026	7844.53
834.351	7850.85
834.677	7818.09
835.003	7825.32
835.329	7804.98
835.654	7771.76
835.98	7754.81
836.306	7758.43
836.631	7717.52
836.956	7728.14
837.282	7747.13
837.607	7688.6
837.932	7646.11
838.258	7641.59
838.583	7690.63
838.908	7640.01
839.233	7588.94
839.558	7620.8
839.883	7588.71
840.208	7572.44
840.533	7559.79
840.858	7539.9
841.182	7579.45
841.507	7571.09
841.832	7547.36
842.156	7416.06
842.481	7510.97
842.805	7467.59
843.13	7419.45
843.454	7386.01
843.778	7400.47
844.103	7395.95
844.427	7408.15
844.751	7414.03
845.075	7327.48
845.399	7329.74
845.723	7266.01
846.047	7278.21
846.371	7223.07
846.695	7232.56
847.019	7155.73
847.343	7172
847.666	7076.41
847.99	7115.73
848.313	7069.4
848.637	6956.64
848.96	6965.45
849.284	7004.77
849.607	6988.73
849.931	6924.32
850.254	6917.09
850.577	6852.91
850.9	6795.51
851.223	6809.75
851.546	6778.11
851.869	6722.07
852.192	6751.67
852.515	6672.58
852.838	6683.43
853.161	6646.59
853.483	6649.75
853.806	6644.33
854.129	6641.17
854.451	6612.24
854.774	6607.04
855.096	6579.93
855.419	6520.49
855.741	6519.59
856.063	6492.24
856.385	6435.07
856.708	6424.68
857.03	6406.6
857.352	6415.18
857.674	6394.17
857.996	6375.41
858.318	6355.75
858.64	6328.18
858.961	6357.11
859.283	6306.49
859.605	6265.36
859.926	6304.23
860.248	6255.41
860.57	6264.45
860.891	6242.76
861.212	6244.79
861.534	6214.06
861.855	6169.99
862.176	6163.67
862.498	6189.2
862.819	6171.35
863.14	6156.66
863.461	6091.58
863.782	6119.6
864.103	6095.42
864.424	6111.92
864.745	6077.34
865.065	6033.73
865.386	6071.01
865.707	6054.06
866.027	6090.9
866.348	6057.23
866.668	6021.97
866.989	6021.07
867.309	5933.84
867.63	5995.31
867.95	5955.54
868.27	5926.84
868.59	5971.13
868.91	5949.21
869.23	5950.79
869.55	5941.98
869.87	5858.36
870.19	5950.79
870.51	5957.8
870.83	5877.57
871.15	5859.94
871.469	5881.87
871.789	5867.18
872.109	5845.48
872.428	5858.59
872.748	5885.25
873.067	5779.49
873.386	5840.51
873.706	5860.17
874.025	5789.44
874.344	5811.81
874.663	5815.88
874.982	5810.91
875.301	5779.49
875.62	5802.55
875.939	5726.39
876.258	5766.16
876.577	5769.1
876.896	5700.63
877.214	5725.03
877.533	5707.41
877.852	5732.94
878.17	5680.74
878.489	5732.72
878.807	5665.37
879.125	5638.26
879.444	5649.33
879.762	5652.72
880.08	5654.07
880.398	5613.85
880.716	5600.52
881.034	5546.05
881.352	5625.37
881.67	5568.2
881.988	5624.92
882.306	5559.84
882.624	5582.89
882.941	5551.48
883.259	5599.16
883.577	5530.24
883.894	5493.63
884.212	5511.71
884.529	5496.56
884.846	5502.89
885.164	5438.49
885.481	5461.54
885.798	5487.53
886.115	5418.6
886.432	5435.55
886.75	5417.24
887.067	5364.82
887.383	5375.89
887.7	5389.45
888.017	5376.12
888.334	5373.18
888.651	5335.66
888.967	5311.26
889.284	5291.15
889.6	5291.82
889.917	5235.78
890.233	5312.84
890.55	5266.06
890.866	5219.74
891.182	5215.89
891.498	5247.53
891.815	5204.59
892.131	5189.91
892.447	5180.64
892.763	5144.71
893.079	5120.3
893.395	5127.31
893.71	5122.34
894.026	5086.41
894.342	5045.28
894.657	5067.2
894.973	5071.49
895.289	5020.42
895.604	5036.24
895.92	4976.35
896.235	5009.8
896.55	5020.42
896.865	4944.49
897.181	4916.47
897.496	4975.67
897.811	4880.99
898.126	4937.03
898.441	4878.95
898.756	4886.86
899.071	4859.75
899.386	4854.55
899.7	4816.36
900.015	4828.79
900.33	4800.76
900.644	4750.82
900.959	4789.92
901.273	4789.24
901.588	4713.99
901.902	4711.73
902.216	4697.72
902.531	4737.26
902.845	4660.43
903.159	4654.55
903.473	4648.45
903.787	4616.59
904.101	4631.5
904.415	4612.75
904.729	4622.01
905.042	4524.84
905.356	4548.11
905.67	4569.36
905.984	4528.23
906.297	4516.03
906.611	4464.5
906.924	4472.86
907.237	4519.19
907.551	4467.21
907.864	4408.46
908.177	4448
908.491	4432.64
908.804	4408.46
909.117	4422.24
909.43	4344.5
909.743	4393.77
910.056	4293.43
910.368	4309.7
910.681	4300.44
910.994	4270.61
911.307	4278.74
911.619	4233.09
911.932	4220.44
912.244	4232.19
912.557	4207.56
912.869	4210.72
913.181	4152.19
913.494	4185.19
913.806	4149.71
914.118	4145.41
914.43	4087.11
914.742	4095.92
915.054	4079.2
915.366	4061.12
915.678	4105.64
915.99	4055.02
916.302	4022.48
916.613	4040.78
916.925	4052.31
917.236	4008.47
917.548	3924.18
917.859	3964.4
918.171	3915.59
918.482	3900.9
918.794	3909.49
919.105	3928.02
919.416	3874.46
919.727	3871.75
920.038	3899.54
920.349	3836.95
920.66	3840.79
920.971	3820
921.282	3791.07
921.593	3767.12
921.903	3757.4
922.214	3748.81
922.525	3732.09
922.835	3720.34
923.146	3691.87
923.456	3696.84
923.767	3666.78
924.077	3697.52
924.387	3670.85
924.697	3669.72
925.008	3620
925.318	3648.93
925.628	3600.12
925.938	3634.01
926.248	3539.1
926.558	3566.67
926.867	3561.93
927.177	3544.75
927.487	3505.66
927.796	3505.88
928.106	3493.45
928.416	3457.52
928.725	3492.1
929.034	3452.32
929.344	3432.89
929.653	3403.29
929.962	3429.05
930.271	3385.66
930.581	3374.59
930.89	3363.29
931.199	3346.56
931.508	3323.97
931.817	3341.59
932.125	3248.04
932.434	3355.83
932.743	3288.94
933.051	3300.24
933.36	3219.34
933.669	3273.35
933.977	3244.87
934.286	3228.83
934.594	3184.99
934.902	3190.18
935.21	3165.33
935.519	3207.81
935.827	3150.19
936.135	3142.28
936.443	3124.65
936.751	3112.45
937.059	3125.55
937.367	3076.29
937.674	3044.2
937.982	3069.96
938.29	3081.03
938.597	3072
938.905	3036.29
939.213	3046.01
939.52	3015.27
939.827	3010.3
940.135	2997.42
940.442	2985.44
940.749	2970.08
941.056	2960.81
941.363	2928.04
941.67	2968.95
941.977	2964.65
942.284	2918.1
942.591	2911.32
942.898	2890.76
943.205	2926.91
943.511	2853.92
943.818	2847.82
944.125	2873.13
944.431	2845.11
944.738	2841.04
945.044	2869.74
945.35	2764.43
945.657	2794.71
945.963	2775.28
946.269	2767.14
946.575	2758.11
946.881	2747.71
947.187	2739.8
947.493	2698.67
947.799	2741.61
948.105	2714.49
948.41	2707.49
948.716	2728.28
949.022	2711.33
949.327	2661.84
949.633	2642.4
949.938	2652.35
950.244	2639.46
950.549	2591.56
950.854	2634.49
951.16	2614.38
951.465	2592.91
951.77	2586.36
952.075	2573.7
952.38	2580.48
952.685	2567.15
952.99	2573.93
953.294	2548.17
953.599	2526.47
953.904	2495.06
954.209	2500.94
954.513	2515.4
954.818	2466.81
955.122	2501.39
955.426	2505.46
955.731	2465.46
956.035	2446.93
956.339	2449.19
956.643	2461.16
956.948	2451.67
957.252	2425.01
957.556	2411.9
957.86	2394.27
958.163	2412.13
958.467	2352.69
958.771	2386.36
959.075	2390.66
959.378	2386.14
959.682	2382.07
959.985	2368.96
960.289	2333.03
960.592	2300.26
960.896	2299.36
961.199	2293.03
961.502	2331
961.805	2278.8
962.108	2282.86
962.411	2253.94
962.714	2250.1
963.017	2289.42
963.32	2273.15
963.623	2254.16
963.926	2200.83
964.228	2208.29
964.531	2204.67
964.833	2208.52
965.136	2172.58
965.438	2204.45
965.741	2188.63
966.043	2173.04
966.345	2146.14
966.648	2135.52
966.95	2143.88
967.252	2133.26
967.554	2132.81
967.856	2110.44
968.158	2065.02
968.46	2104.56
968.761	2082.87
969.063	2085.13
969.365	2082.87
969.666	2085.13
969.968	2048.52
970.269	2051.91
970.571	2065.47
970.872	2059.82
971.174	2015.07
971.475	2055.98
971.776	2011.23
972.077	1993.38
972.378	1988.18
972.679	1978.24
972.98	1989.99
973.281	1973.95
973.582	1951.8
973.883	1978.92
974.183	1943.89
974.484	1938.47
974.785	1907.73
975.085	1948.18
975.386	1973.72
975.686	1895.76
975.986	1905.47
976.287	1909.99
976.587	1862.54
976.887	1870.9
977.187	1905.7
977.487	1869.32
977.787	1849.2
978.087	1854.4
978.387	1858.69
978.687	1832.25
978.987	1835.42
979.286	1815.98
979.586	1829.77
979.885	1832.48
980.185	1801.75
980.484	1771.01
980.784	1801.75
981.083	1777.79
981.382	1760.62
981.682	1770.11
981.981	1763.56
982.28	1765.14
982.579	1753.84
982.878	1785.25
983.177	1744.35
983.475	1728.98
983.774	1702.31
984.073	1740.51
984.372	1699.38
984.67	1705.93
984.969	1724.91
985.267	1695.99
985.566	1676.33
985.864	1660.28
986.162	1670.68
986.461	1654.86
986.759	1625.93
987.057	1652.82
987.355	1628.87
987.653	1633.39
987.951	1661.86
988.249	1631.58
988.547	1619.6
988.844	1642.43
989.142	1613.05
989.44	1613.95
989.737	1579.61
990.035	1594.97
990.332	1569.44
990.63	1599.72
990.927	1559.94
991.224	1543.9
991.521	1551.81
991.819	1570.34
992.116	1517.46
992.413	1551.58
992.71	1530.79
993.006	1522.43
993.303	1504.58
993.6	1533.73
993.897	1505.71
994.193	1507.06
994.49	1486.05
994.787	1482.88
995.083	1503
995.379	1481.53
995.676	1452.6
995.972	1449.67
996.268	1456.67
996.565	1416.45
996.861	1425.26
997.157	1415.77
997.453	1432.04
997.749	1407.63
998.044	1411.47
998.34	1399.27
998.636	1387.75
998.932	1393.17
999.227	1376.9
999.523	1380.29
999.818	1401.98
1000.114	1397.69
1000.409	1391.14
1000.704	1379.61
1001	1342.55
1001.295	1347.97
1001.59	1340.06
1001.885	1323.34
1002.18	1319.27
1002.475	1321.99
1002.77	1285.38
1003.065	1286.28
1003.359	1315.66
1003.654	1275.66
1003.949	1263.91
1004.243	1295.32
1004.538	1287.86
1004.832	1272.49
1005.127	1279.05
1005.421	1285.6
1005.715	1272.49
1006.009	1228.2
1006.304	1253.06
1006.598	1250.12
1006.892	1235.21
1007.186	1218.26
1007.48	1228.88
1007.773	1206.06
1008.067	1191.59
1008.361	1207.41
1008.655	1182.1
1008.948	1192.72
1009.242	1179.62
1009.535	1171.93
1009.829	1167.86
1010.122	1166.73
1010.415	1142.33
1010.708	1145.27
1011.001	1125.38
1011.295	1132.61
1011.588	1155.21
1011.881	1153.4
1012.173	1140.75
1012.466	1127.87
1012.759	1122.67
1013.052	1096.68
1013.344	1100.3
1013.637	1101.88
1013.93	1077.92
1014.222	1104.36
1014.514	1060.75
1014.807	1057.81
1015.099	1064.36
1015.391	1047.42
1015.683	1031.15
1015.976	1056.46
1016.268	1029.56
1016.56	1041.09
1016.851	1044.25
1017.143	1044.48
1017.435	1020.3
1017.727	1028.43
1018.018	1011.94
1018.31	1028.66
1018.602	1008.32
1018.893	1008.55
1019.185	999.28
1019.476	990.47
1019.767	996.57
1020.058	986.17
1020.35	992.28
1020.641	983.91
1020.932	959.51
1021.223	940.3
1021.514	955.67
1021.804	945.72
1022.095	948.66
1022.386	928.1
1022.677	938.04
1022.967	955.89
1023.258	911.6
1023.548	927.87
1023.839	926.97
1024.129	901.21
1024.419	897.14
1024.709	872.96
1025	868.89
1025.29	895.1
1025.58	908.44
1025.87	875.22
1026.16	876.57
1026.449	874.09
1026.739	846.07
1027.029	861.43
1027.319	823.92
1027.608	843.81
1027.898	872.96
1028.187	837.25
1028.477	820.53
1028.766	823.02
1029.055	801.77
1029.344	810.36
1029.634	815.11
1029.923	819.17
1030.212	796.8
1030.501	809.91
1030.79	803.13
1031.078	792.06
1031.367	792.51
1031.656	775.33
1031.945	786.63
1032.233	788.67
1032.522	784.15
1032.81	772.85
1033.099	763.58
1033.387	743.7
1033.675	747.08
1033.963	758.38
1034.251	766.75
1034.54	753.19
1034.828	734.66
1035.116	741.89
1035.403	731.94
1035.691	746.41
1035.979	713.41
1036.267	719.29
1036.554	723.13
1036.842	726.52
1037.129	712.51
1037.417	721.1
1037.704	717.03
1037.992	681.78
1038.279	705.96
1038.566	683.58
1038.853	683.58
1039.14	683.58
