Data from tablewood_brown_FLMS001491_004.txt Node
Date: Tue Feb 07 11:09:55 GMT 2017
User: dcchb
Spectrometer: FLMS00149
Trigger mode: 0
Integration Time (sec): 2.000000E-2
Scans to average: 10
Electric dark correction enabled: true
Nonlinearity correction enabled: false
Boxcar width: 0
XAxis mode: Wavelengths
Number of Pixels in Spectrum: 2048
>>>>>Begin Spectral Data<<<<<
341.393	-17.22
341.776	-17.22
342.16	-17.22
342.543	-74.16
342.927	-44.11
343.31	-53.83
343.693	-85.46
344.077	-49.08
344.46	-72.36
344.843	-57.89
345.226	-40.49
345.61	-29.65
345.993	-6.6
346.376	-14.28
346.759	4.7
347.142	44.02
347.525	59.39
347.908	58.26
348.291	78.37
348.674	79.05
349.057	85.83
349.44	110.01
349.823	131.03
350.206	147.75
350.588	190.24
350.971	206.05
351.354	238.14
351.737	241.31
352.119	256.67
352.502	259.39
352.884	295.09
353.267	281.08
353.65	277.01
354.032	293.51
354.414	303.9
354.797	314.53
355.179	321.76
355.562	344.81
355.944	324.92
356.326	331.02
356.709	338.03
357.091	343.68
357.473	325.82
357.855	351.59
358.238	352.49
358.62	333.96
359.002	329.67
359.384	357.46
359.766	343
360.148	347.52
360.53	336.22
360.912	346.16
361.294	324.02
361.676	337.58
362.057	340.29
362.439	334.19
362.821	354.98
363.203	335.77
363.584	313.85
363.966	333.73
364.348	324.47
364.729	324.24
365.111	330.34
365.493	339.16
365.874	329.21
366.256	308.2
366.637	330.57
367.019	338.48
367.4	326.5
367.781	339.38
368.163	321.76
368.544	319.27
368.925	327.18
369.306	324.02
369.688	313.17
370.069	349.33
370.45	328.54
370.831	331.02
371.212	336.45
371.593	320.4
371.974	330.8
372.355	317.24
372.736	319.5
373.117	336.67
373.498	324.24
373.879	349.55
374.26	332.15
374.641	336.22
375.021	319.05
375.402	317.92
375.783	341.87
376.163	346.84
376.544	347.07
376.925	362.89
377.305	352.94
377.686	353.39
378.066	363.11
378.447	362.43
378.827	352.04
379.208	360.85
379.588	344.58
379.968	355.2
380.349	360.85
380.729	344.13
381.109	380.51
381.489	383.22
381.87	373.96
382.25	388.42
382.63	377.8
383.01	370.8
383.39	359.04
383.77	364.02
384.15	357.24
384.53	393.39
384.91	405.6
385.29	400.63
385.67	385.71
386.049	399.04
386.429	418.25
386.809	390.91
387.189	399.95
387.568	419.38
387.948	419.16
388.328	425.71
388.707	413.51
389.087	409.89
389.466	420.29
389.846	409.66
390.225	423
390.605	451.25
390.984	423.9
391.363	451.02
391.743	427.07
392.122	432.26
392.501	422.55
392.881	447.4
393.26	444.24
393.639	456.89
394.018	459.15
394.397	485.14
394.776	469.1
395.155	453.05
395.534	467.74
395.913	457.57
396.292	463.45
396.671	457.35
397.05	455.54
397.429	484.69
397.808	485.37
398.186	503.22
398.565	482.2
398.944	483.33
399.323	494.18
399.701	472.26
400.08	521.3
400.458	511.36
400.837	506.61
401.215	500.74
401.594	517.23
401.972	489.44
402.351	519.27
402.729	530.79
403.107	540.96
403.486	544.8
403.864	557.91
404.242	547.06
404.62	565.37
404.999	573.05
405.377	583.67
405.755	582.09
406.133	570.79
406.511	562.88
406.889	583.22
407.267	589.55
407.645	571.24
408.023	604.24
408.401	602.43
408.779	591.13
409.156	630
409.534	634.29
409.912	641.3
410.29	656.21
410.667	643.56
411.045	646.72
411.422	617.79
411.8	641.52
412.178	653.05
412.555	663.22
412.933	669.54
413.31	703.89
413.687	660.73
414.065	689.21
414.442	692.82
414.819	695.53
415.197	693.05
415.574	710.22
415.951	717
416.328	724.68
416.705	735.53
417.082	715.87
417.46	753.84
417.837	756.32
418.214	726.27
418.591	759.71
418.967	760.84
419.344	765.59
419.721	783.21
420.098	774.85
420.475	785.93
420.852	786.15
421.228	794.96
421.605	816.89
421.982	823.21
422.358	802.42
422.735	806.94
423.111	819.37
423.488	836.77
423.864	840.39
424.241	829.09
424.617	851.91
424.994	865.92
425.37	857.11
425.746	859.37
426.123	856.43
426.499	872.7
426.875	888.07
427.251	913.83
427.627	917.45
428.003	941.4
428.379	922.87
428.756	927.39
429.132	952.47
429.507	954.28
429.883	974.17
430.259	982.53
430.635	995.86
431.011	982.08
431.387	1005.35
431.763	1033.15
432.138	1010.55
432.514	1029.31
432.89	1022.08
433.265	1083.09
433.641	1061.17
434.016	1058.23
434.392	1099.59
434.767	1111.11
435.143	1115.63
435.518	1126.26
435.894	1138.46
436.269	1155.63
436.644	1156.99
437.02	1191.34
437.395	1168.97
437.77	1212.81
438.145	1237.67
438.52	1222.3
438.895	1244.22
439.271	1238.57
439.646	1258
440.021	1263.43
440.395	1273.14
440.77	1274.05
441.145	1271.56
441.52	1307.27
441.895	1308.17
442.27	1307.95
442.645	1337.55
443.019	1333.48
443.394	1344.56
443.769	1352.69
444.143	1357.44
444.518	1356.53
444.892	1375.29
445.267	1371.22
445.641	1374.16
446.016	1371.45
446.39	1399.47
446.764	1423.65
447.139	1430.2
447.513	1432.69
447.887	1433.59
448.262	1455.06
448.636	1418.9
449.01	1492.57
449.384	1460.26
449.758	1488.96
450.132	1508.39
450.506	1535.51
450.88	1537.54
451.254	1503.19
451.628	1523.99
452.002	1532.8
452.376	1586.36
452.75	1573.02
453.123	1585.45
453.497	1602.85
453.871	1621.61
454.244	1663.87
454.618	1662.51
454.992	1690.08
455.365	1690.76
455.739	1706.81
456.112	1725.11
456.486	1742.74
456.859	1768.27
457.232	1813.02
457.606	1800.81
457.979	1833.58
458.352	1850.76
458.725	1863.19
459.099	1868.61
459.472	1903.41
459.845	1943.18
460.218	1946.35
460.591	1956.06
460.964	1966.23
461.337	2020.47
461.71	2064.31
462.083	2064.31
462.456	2096.4
462.829	2062.73
463.201	2115.38
463.574	2133.01
463.947	2177.08
464.32	2228.37
464.692	2238.09
465.065	2270.18
465.438	2251.88
465.81	2313.8
466.183	2349.5
466.555	2411.87
466.928	2419.78
467.3	2441.25
467.672	2453.45
468.045	2494.36
468.417	2516.95
468.789	2544.3
469.161	2607.35
469.534	2595.14
469.906	2686.21
470.278	2701.81
470.65	2716.27
471.022	2800.11
471.394	2822.93
471.766	2906.1
472.138	2939.99
472.51	2991.97
472.882	3038.75
473.253	3057.05
473.625	3124.4
473.997	3129.14
474.369	3174.79
474.74	3277.61
475.112	3322.58
475.484	3371.17
475.855	3467.89
476.227	3482.35
476.598	3571.62
476.97	3612.52
477.341	3684.38
477.713	3755.34
478.084	3817.71
478.455	3908.1
478.827	3994.88
479.198	4073.52
479.569	4068.1
479.94	4233.07
480.311	4265.38
480.682	4363.23
481.053	4415.43
481.424	4568.43
481.795	4585.6
482.166	4680.96
482.537	4718.25
482.908	4879.38
483.279	4912.82
483.65	4991.69
484.021	5104.46
484.391	5186.94
484.762	5245.7
485.133	5261.29
485.503	5375.18
485.874	5462.19
486.244	5506.25
486.615	5640.94
486.985	5692.46
487.356	5854.27
487.726	5849.3
488.097	6000.25
488.467	6012.23
488.837	6135.39
489.207	6227.82
489.578	6277.08
489.948	6362.28
490.318	6552.78
490.688	6519.79
491.058	6638.43
491.428	6676.39
491.798	6832.32
492.168	6948.48
492.538	6975.82
492.908	7044.74
493.278	7086.78
493.648	7161.58
494.017	7285.19
494.387	7334.91
494.757	7375.13
495.126	7457.61
495.496	7507.1
495.866	7562.7
496.235	7628.23
496.605	7696.25
496.974	7766.53
497.344	7841.33
497.713	7912.07
498.082	7971.73
498.452	8058.05
498.821	8114.55
499.19	8124.49
499.559	8224.15
499.928	8270.25
500.298	8331.04
500.667	8413.97
501.036	8435.89
501.405	8525.38
501.774	8554.76
502.143	8632.5
502.512	8670.01
502.88	8704.59
503.249	8772.38
503.618	8887.86
503.987	8892.83
504.356	9006.95
504.724	9000.17
505.093	9040.62
505.462	9090.11
505.83	9213.95
506.199	9255.76
506.567	9423.66
506.936	9379.15
507.304	9534.62
507.672	9562.42
508.041	9634.28
508.409	9687.39
508.777	9794.05
509.145	9895.97
509.514	9851
509.882	9932.58
510.25	9995.63
510.618	10173.25
510.986	10185.23
511.354	10249.86
511.722	10354.49
512.09	10463.64
512.458	10466.58
512.826	10574.37
513.193	10594.93
513.561	10672.67
513.929	10787.92
514.297	10966
514.664	10972.78
515.032	11088.71
515.4	11173.9
515.767	11234.01
516.135	11320.56
516.502	11270.62
516.869	11470.62
517.237	11507.9
517.604	11544.96
517.972	11715.13
518.339	11812.3
518.706	11846.43
519.073	11899.31
519.44	11971.85
519.808	12081
520.175	12165.06
520.542	12323.02
520.909	12432.85
521.276	12415.68
521.643	12571.38
522.009	12699.06
522.376	12768.44
522.743	12924.36
523.11	13005.49
523.477	13158.48
523.843	13197.8
524.21	13432.37
524.577	13474.86
524.943	13568.19
525.31	13632.37
525.676	13783.55
526.043	13947.16
526.409	13976.77
526.776	14107.61
527.142	14159.36
527.508	14305.57
527.874	14334.04
528.241	14452.46
528.607	14524.32
528.973	14664.66
529.339	14685
529.705	14868.95
530.071	14969.51
530.437	14959.79
530.803	15120.92
531.169	15271.87
531.535	15217.18
531.901	15266
532.267	15350.74
532.632	15500.57
532.998	15635.48
533.364	15673.44
533.73	15701.69
534.095	15776.04
534.461	15873.44
534.826	15961.57
535.192	16131.74
535.557	16171.96
535.923	16156.37
536.288	16267.33
536.653	16356.14
537.019	16363.14
537.384	16440.88
537.749	16483.37
538.114	16571.5
538.479	16611.05
538.845	16692.63
539.21	16724.94
539.575	16823.24
539.94	16903.02
540.305	16979.62
540.67	16969.91
541.034	17017.59
541.399	17086.06
541.764	17164.7
542.129	17270.46
542.494	17336.68
542.858	17383
543.223	17333.29
543.587	17536.45
543.952	17641.98
544.316	17515.88
544.681	17595.65
545.045	17682.43
545.41	17855.76
545.774	17888.98
546.138	17892.82
546.503	17979.37
546.867	17976.89
547.231	18026.38
547.595	18256.88
547.959	18262.75
548.324	18283.54
548.688	18340.49
549.052	18566.48
549.416	18560.15
549.779	18729.41
550.143	18758.11
550.507	18859.35
550.871	18888.05
551.235	18927.37
551.599	19163.3
551.962	19211.66
552.326	19271.77
552.689	19383.85
553.053	19375.04
553.417	19455.27
553.78	19813.67
554.143	19677.41
554.507	19789.04
554.87	19853.67
555.234	20152.42
555.597	20173.89
555.96	20265.41
556.323	20437.84
556.686	20398.97
557.05	20620.43
557.413	20720.32
557.776	20871.5
558.139	21015.45
558.502	21070.59
558.865	21282.11
559.228	21402.11
559.59	21471.26
559.953	21568.66
560.316	21786.5
560.679	21921.19
561.041	22152.82
561.404	22306.72
561.767	22428.29
562.129	22439.59
562.492	22738.12
562.854	22726.82
563.217	23056.98
563.579	23071.22
563.941	23227.82
564.304	23465.33
564.666	23590.3
565.028	23702.61
565.39	23789.16
565.753	23915.49
566.115	24193.22
566.477	24226.67
566.839	24482.7
567.201	24645.86
567.563	24701.46
567.925	24890.6
568.287	25129.47
568.648	25252.85
569.01	25433.19
569.372	25721.77
569.734	25850.13
570.095	26032.95
570.457	26271.58
570.819	26268.87
571.18	26421.86
571.542	26764.45
571.903	26844.68
572.265	27024.11
572.626	27189.98
572.987	27408.73
573.349	27470.65
573.71	27605.79
574.071	27796.06
574.432	27970.75
574.794	28113.12
575.155	28227.69
575.516	28142.27
575.877	28468.59
576.238	28587.23
576.599	28840.33
576.96	28960.33
577.32	28901.57
577.681	29221.11
578.042	29498.39
578.403	29521.67
578.763	29749.46
579.124	29801.43
579.485	29956.01
579.845	30163.23
580.206	30144.02
580.566	30233.51
580.927	30333.17
581.287	30396.45
581.648	30458.37
582.008	30595.76
582.368	30683.22
582.728	30846.83
583.089	30828.07
583.449	30946.71
583.809	31066.03
584.169	31105.35
584.529	31085.92
584.889	31392.58
585.249	31222.87
585.609	31293.82
585.969	31519.81
586.329	31550.31
586.688	31539.47
587.048	31476.87
587.408	31555.29
587.768	31621.05
588.127	31717.54
588.487	31588.28
588.846	31909.18
589.206	31818.1
589.565	31748.95
589.925	32015.39
590.284	31985.33
590.643	32000.25
591.003	32120.69
591.362	32179.9
591.721	32154.59
592.08	32246.57
592.44	32325.89
592.799	32342.38
593.158	32326.79
593.517	32363.85
593.876	32431.42
594.235	32312.1
594.593	32317.07
594.952	32476.84
595.311	32307.36
595.67	32510.52
596.029	32642.49
596.387	32672.54
596.746	32724.75
597.104	32570.63
597.463	32668.25
597.822	32757.51
598.18	32573.11
598.538	32677.52
598.897	32835.7
599.255	32605.88
599.613	33136.94
599.972	32785.76
600.33	32876.38
600.688	32780.34
601.046	32949.37
601.404	33147.56
601.762	33062.59
602.12	33156.83
602.478	33224.17
602.836	33160.89
603.194	33067.79
603.552	33127.22
603.91	33048.35
604.268	33131.74
604.625	33038.18
604.983	33356.37
605.341	33084.51
605.698	33186.2
606.056	33282.47
606.413	33317.73
606.771	33385.29
607.128	33544.61
607.485	33240.89
607.843	33294.22
608.2	33595.68
608.557	33628.45
608.914	33455.8
609.272	33771.27
609.629	33704.61
609.986	33818.73
610.343	33587.55
610.7	33897.6
611.057	33861.67
611.414	33892.63
611.771	33780.76
612.127	34028.22
612.484	34045.62
612.841	34148.89
613.198	33895.79
613.554	33924.72
613.911	34167.87
614.267	34164.94
614.624	34052.62
614.98	34231.83
615.337	34383.23
615.693	34281.77
616.05	34316.34
616.406	34438.15
616.762	34435.44
617.118	34321.09
617.475	34334.2
617.831	34615.09
618.187	34664.13
618.543	34597.47
618.899	34819.38
619.255	34826.16
619.611	34661.87
619.967	34735.54
620.323	34836.78
620.678	34729.21
621.034	34619.61
621.39	34561.53
621.746	34674.75
622.101	35010.34
622.457	34833.84
622.812	34788.87
623.168	34834.3
623.523	34869.55
623.879	35148.41
624.234	34822.77
624.589	34807.63
624.945	34819.16
625.3	34979.83
625.655	34912.71
626.01	34869.55
626.365	34955.65
626.72	34829.32
627.075	34831.36
627.43	34896.89
627.785	34598.6
628.14	34733.28
628.495	34798.59
628.85	34812.38
629.205	34609.22
629.559	34942.99
629.914	34726.95
630.269	34736.9
630.623	34580.52
630.978	34644.7
631.332	34850.57
631.687	34928.08
632.041	34599.95
632.396	34631.82
632.75	34562.89
633.104	34641.98
633.459	34477.02
633.813	34411.48
634.167	34432.72
634.521	34402.44
634.875	34406.51
635.229	34410.35
635.583	34033.19
635.937	34138.27
636.291	34122.22
636.645	34221.88
636.999	34200.41
637.352	34166.52
637.706	33987.76
638.06	34272.73
638.413	33993.64
638.767	33995
639.121	34106.86
639.474	33880.2
639.828	33800.65
640.181	33962.91
640.534	33934.43
640.888	33748.22
641.241	33677.94
641.594	33638.85
641.947	33797.94
642.301	33651.95
642.654	33773.53
643.007	33674.78
643.36	33751.84
643.713	33559.53
644.066	33653.08
644.419	33426.2
644.771	33150.5
645.124	32989.37
645.477	32917.51
645.83	32674.35
646.182	32538.99
646.535	32524.75
646.888	32575.82
647.24	32379.67
647.593	32610.17
647.945	32530.4
648.298	32445.21
648.65	32398.2
649.002	32323.4
649.355	32466.45
649.707	32443.85
650.059	32503.74
650.411	32825.76
650.763	32896.49
651.115	33201.34
651.467	33165.87
651.819	32999.77
652.171	33017.62
652.523	33023.72
652.875	33006.77
653.227	32881.58
653.578	33150.05
653.93	33143.27
654.282	32898.53
654.633	32906.21
654.985	32927.23
655.337	33107.34
655.688	33033.44
656.039	33053.55
656.391	32810.85
656.742	32966.77
657.094	32920.67
657.445	33039.09
657.796	32953.67
658.147	32916.15
658.498	32817.85
658.849	32930.39
659.2	32934.91
659.551	32806.55
659.902	32859.88
660.253	32722.04
660.604	32853.11
660.955	32661.7
661.306	32817.85
661.656	32738.98
662.007	32729.72
662.358	32724.75
662.708	32804.97
663.059	32739.44
663.409	32567.91
663.76	32875.25
664.11	32884.97
664.461	32882.93
664.811	32850.62
665.161	32857.4
665.511	32789.15
665.862	32816.72
666.212	32956.61
666.562	32902.82
666.912	32762.71
667.262	32729.04
667.612	32737.18
667.962	32838.87
668.312	32730.85
668.662	32807.46
669.011	32595.71
669.361	32698.98
669.711	32763.16
670.06	32590.74
670.41	32458.77
670.76	32495.6
671.109	32629.61
671.459	32529.5
671.808	32433.91
672.157	32557.29
672.507	32372.21
672.856	32455.15
673.205	32430.07
673.554	32601.13
673.904	32383.96
674.253	32465.77
674.602	32264.65
674.951	31924.77
675.3	31735.39
675.649	32268.71
675.998	32245.89
676.346	32329.73
676.695	32345.77
677.044	32120.02
677.393	32138.32
677.741	32166.34
678.09	32260.58
678.438	32045.22
678.787	32090.41
679.135	32061.71
679.484	31782.4
679.832	31917.76
680.181	31662.4
680.529	31877.99
680.877	31793.25
681.225	31819.91
681.573	31929.29
681.922	31605.45
682.27	31624.66
682.618	31547.15
682.966	31591.44
683.314	31524.1
683.661	31391.45
684.009	31285.01
684.357	31204.79
684.705	31245.92
685.053	31195.75
685.4	31084.34
685.748	31007.96
686.095	31001.63
686.443	30781.07
686.79	30721.41
687.138	30823.33
687.485	30779.71
687.832	30555.76
688.18	30732.03
688.527	30459.04
688.874	30453.17
689.221	30360.97
689.568	30327.97
689.915	30103.57
690.262	30204.59
690.609	30126.17
690.956	29974.54
691.303	29989.45
691.65	29856.8
691.997	29844.37
692.344	29651.16
692.69	29552.4
693.037	29561.89
693.383	29309.24
693.73	29471.95
694.077	29301.33
694.423	29228.12
694.769	29144.28
695.116	29111.06
695.462	28984.73
695.808	28824.06
696.155	28786.32
696.501	28662.25
696.847	28673.55
697.193	28354.92
697.539	28549.49
697.885	28358.99
698.231	28247.12
698.577	28173.91
698.923	28033.12
699.269	27929.62
699.614	27785.89
699.96	27760.36
700.306	27763.52
700.651	27665.67
700.997	27517.65
701.342	27490.31
701.688	27453.02
702.033	27347.71
702.379	27387.26
702.724	27115.18
703.069	27298.45
703.415	26879.93
703.76	26956.31
704.105	26858.23
704.45	26839.03
704.795	26721.29
705.14	26548.19
705.485	26554.29
705.83	26444.23
706.175	26445.36
706.52	26343.67
706.865	26209.21
707.209	26223.22
707.554	26081.31
707.899	26071.36
708.243	25841.54
708.588	25843.8
708.932	25873.4
709.277	25733.29
709.621	25745.27
709.966	25602
710.31	25630.7
710.654	25374.21
710.998	25586.86
711.342	25382.57
711.687	25343.02
712.031	25223.93
712.375	25100.77
712.719	25185.28
713.063	25113.42
713.407	25255.34
713.75	24997.04
714.094	25037.49
714.438	24973.76
714.782	24911.17
715.125	24776.03
715.469	24865.29
715.812	24699.65
716.156	24602.93
716.499	24628.46
716.843	24621.01
717.186	24519.54
717.53	24674.34
717.873	24646.54
718.216	24425.98
718.559	24315.48
718.902	24235.25
719.246	24372.65
719.589	24222.15
719.932	24165.42
720.275	24152.09
720.617	24107.12
720.96	24096.5
721.303	24134.69
721.646	24112.32
721.989	23952.77
722.331	24131.75
722.674	23993.68
723.016	24073.9
723.359	23939.67
723.701	23945.54
724.044	23818.09
724.386	23924.3
724.729	23867.58
725.071	23782.61
725.413	23920.46
725.755	23862.83
726.097	23753.91
726.439	23743.97
726.782	23728.15
727.124	23850.4
727.465	23781.71
727.807	23738.54
728.149	23690.86
728.491	23602.73
728.833	23622.16
729.175	23560.24
729.516	23543.75
729.858	23489.28
730.199	23640.69
730.541	23485.44
730.882	23508.94
731.224	23651.09
731.565	23408.61
731.906	23411.32
732.248	23557.98
732.589	23284.54
732.93	23317.08
733.271	23434.14
733.612	23418.78
733.953	23462.62
734.294	23236.86
734.635	23247.48
734.976	23417.42
735.317	23306.46
735.658	23394.6
735.999	23339
736.339	23407.48
736.68	23390.98
737.021	23233.02
737.361	23272.11
737.702	23353.02
738.042	23269.85
738.383	23449.96
738.723	23516.18
739.063	23325.45
739.404	23476.4
739.744	23354.82
740.084	23240.25
740.424	23415.16
740.764	23353.92
741.104	23418.55
741.444	23305.56
741.784	23242.96
742.124	23329.51
742.464	23347.14
742.804	23361.6
743.143	23230.31
743.483	23244.32
743.823	23174.72
744.162	23200.7
744.502	23234.83
744.841	23171.1
745.181	23324.54
745.52	23134.49
745.86	23149.41
746.199	23166.81
746.538	23227.82
746.877	23218.56
747.216	23295.16
747.556	23104.66
747.895	23168.39
748.234	23137.43
748.573	23202.74
748.911	23249.74
749.25	23104.66
749.589	23085
749.928	23151.44
750.267	23112.34
750.605	23169.74
750.944	23148.95
751.283	23023.76
751.621	23214.49
751.96	22988.28
752.298	23153.25
752.636	23122.51
752.975	23038.9
753.313	22987.38
753.651	23001.39
753.989	22962.29
754.327	22976.53
754.666	22880.26
755.004	22920.71
755.342	22949.41
755.679	22833.26
756.017	22685.91
756.355	22783.09
756.693	22710.55
757.031	22686.59
757.368	22570.44
757.706	22551.23
758.044	22524.34
758.381	22643.2
758.719	22507.84
759.056	22496.99
759.394	22350.33
759.731	22366.15
760.068	22362.08
760.405	22288.19
760.743	22139.49
761.08	22242.54
761.417	22135.65
761.754	21986.72
762.091	22003.45
762.428	22047.29
762.765	21919.83
763.102	21903.56
763.438	21783.57
763.775	21714.64
764.112	21788.09
764.449	21657.92
764.785	21520.97
765.122	21537.24
765.458	21391.94
765.795	21440.3
766.131	21305.61
766.467	21244.82
766.804	21185.39
767.14	21166.63
767.476	20971.84
767.812	21027.88
768.148	21024.26
768.485	20888.22
768.821	20741.33
769.157	20779.52
769.492	20708.11
769.828	20678.96
770.164	20485.75
770.5	20403.04
770.836	20593.09
771.171	20253.89
771.507	20283.49
771.842	20107.45
772.178	20176.83
772.513	20097.06
772.849	20050.73
773.184	19832.88
773.519	19972.54
773.855	19831.53
774.19	19791.53
774.525	19744.3
774.86	19733.22
775.195	19745.65
775.53	19536.62
775.865	19445.32
776.2	19397.87
776.535	19199.68
776.87	19230.41
777.205	19138.89
777.539	19015.05
777.874	19139.34
778.209	18876.75
778.543	18943.64
778.878	18782.06
779.212	18780.71
779.547	18691.67
779.881	18742.74
780.215	18591.33
780.55	18675.62
780.884	18370.77
781.218	18510.21
781.552	18421.85
781.886	18315.86
782.22	18254.62
782.554	18087.39
782.888	18024.12
783.222	17901.86
783.556	17918.36
783.889	17906.61
784.223	17690.11
784.557	17608.08
784.89	17694.18
785.224	17572.15
785.557	17487.86
785.891	17528.54
786.224	17408.54
786.558	17368.31
786.891	17192.05
787.224	17187.3
787.557	17166.06
787.891	17137.36
788.224	17151.6
788.557	17113.41
788.89	17023.92
789.223	17054.2
789.556	16917.25
789.888	16777.37
790.221	16655.11
790.554	16656.92
790.887	16552.29
791.219	16536.92
791.552	16437.27
791.884	16452.63
792.217	16376.93
792.549	16304.16
792.882	16242.24
793.214	16186.42
793.546	16235.01
793.879	16074.34
794.211	16007.45
794.543	16077.95
794.875	16028.69
795.207	15988.69
795.539	15895.13
795.871	15875.92
796.203	15805.19
796.535	15679.32
796.867	15655.14
797.198	15576.27
797.53	15591.86
797.862	15506.44
798.193	15478.42
798.525	15377.86
798.856	15401.59
799.188	15267.13
799.519	15233
799.85	15151.88
800.182	15172.67
800.513	15135.15
800.844	14934.25
801.175	15162.72
801.506	15110.97
801.837	14948.04
802.168	14944.65
802.499	14802.96
802.83	14769.06
803.161	14706.92
803.491	14750.3
803.822	14814.26
804.153	14597.31
804.483	14532.68
804.814	14498.79
805.145	14446.58
805.475	14463.53
805.805	14479.8
806.136	14470.54
806.466	14371.78
806.796	14334.72
807.126	14240.71
807.457	14168.17
807.787	14244.78
808.117	14204.1
808.447	14091.79
808.777	14083.88
809.107	14015.63
809.436	14061.28
809.766	14036.42
810.096	13831.91
810.426	13859.03
810.755	13859.71
811.085	13870.33
811.414	13827.62
811.744	13728.64
812.073	13718.02
812.403	13675.76
812.732	13610
813.061	13622.2
813.39	13499.26
813.719	13490.22
814.049	13602.76
814.378	13426.72
814.707	13382.88
815.036	13385.82
815.365	13299.95
815.693	13169.33
816.022	13189.67
816.351	13153.51
816.68	13117.13
817.008	13120.06
817.337	13062.44
817.665	13094.53
817.994	13109.22
818.322	12996.23
818.651	12991.93
818.979	12925.72
819.307	13000.75
819.636	12973.18
819.964	12897.47
820.292	12860.18
820.62	12892.95
820.948	12856.57
821.276	12916.23
821.604	12841.88
821.932	12860.86
822.259	12909.9
822.587	12800.75
822.915	12755.1
823.243	12828.55
823.57	12836.23
823.898	12775.44
824.225	12719.17
824.553	12779.06
824.88	12777.93
825.207	12858.38
825.535	12709.45
825.862	12803.24
826.189	12735.44
826.516	12746.29
826.843	12812.5
827.17	12797.14
827.497	12786.06
827.824	12790.81
828.151	12842.33
828.478	12736.8
828.805	12859.28
829.131	12820.64
829.458	12749
829.785	12764.82
830.111	12692.96
830.438	12793.75
830.764	12775.44
831.09	12837.59
831.417	12692.05
831.743	12704.48
832.069	12719.4
832.395	12595.33
832.722	12713.75
833.048	12605.73
833.374	12665.84
833.7	12652.96
834.026	12648.44
834.351	12617.7
834.677	12630.59
835.003	12568.67
835.329	12609.34
835.654	12605.28
835.98	12540.87
836.306	12537.48
836.631	12515.33
836.956	12493.64
837.282	12567.54
837.607	12419.52
837.932	12430.14
838.258	12396.02
838.583	12476.92
838.908	12294.32
839.233	12316.7
839.558	12363.47
839.883	12266.08
840.208	12196.93
840.533	12290.26
840.858	12235.34
841.182	12258.39
841.507	12251.61
841.832	12089.81
842.156	12134.55
842.481	12183.82
842.805	12081
843.13	12031.51
843.454	12057.04
843.778	11981.56
844.103	12028.34
844.427	11951.06
844.751	11961.23
845.075	11942.92
845.399	11900.89
845.723	11815.24
846.047	11840.78
846.371	11712.42
846.695	11716.71
847.019	11678.52
847.343	11624.51
847.666	11514.23
847.99	11455.93
848.313	11384.07
848.637	11353.56
848.96	11344.74
849.284	11312.65
849.607	11265.65
849.931	11315.14
850.254	11121.02
850.577	11162.83
850.9	11056.39
851.223	10950.63
851.546	10931.87
851.869	11009.39
852.192	10983.62
852.515	10855.72
852.838	10803.29
853.161	10843.51
853.483	10818.66
853.806	10759
854.129	10726
854.451	10638.1
854.774	10594.93
855.096	10564.88
855.419	10560.13
855.741	10463.19
856.063	10436.29
856.385	10490.08
856.708	10425.67
857.03	10418.44
857.352	10419.12
857.674	10304.55
857.996	10298.67
858.318	10226.58
858.64	10241.95
858.961	10180.48
859.283	10087.83
859.605	10097.55
859.926	10071.56
860.248	10154.72
860.57	10001.95
860.891	10047.15
861.212	9979.36
861.534	9989.98
861.855	9984.78
862.176	9963.76
862.498	10031.56
862.819	9980.49
863.14	9913.14
863.461	9854.16
863.782	9857.78
864.103	9872.92
864.424	9853.71
864.745	9849.64
865.065	9770.1
865.386	9796.31
865.707	9776.2
866.027	9821.39
866.348	9791.34
866.668	9802.41
866.989	9723.09
867.309	9679.7
867.63	9654.62
867.95	9613.26
868.27	9558.12
868.59	9574.17
868.91	9555.86
869.23	9632.47
869.55	9606.94
869.87	9581.85
870.19	9525.13
870.51	9513.61
870.83	9491.01
871.15	9503.44
871.469	9425.7
871.789	9510.22
872.109	9431.8
872.428	9426.6
872.748	9348.19
873.067	9415.98
873.386	9402.65
873.706	9437
874.025	9310.67
874.344	9247.17
874.663	9334.4
874.982	9289.2
875.301	9270.22
875.62	9215.08
875.939	9303.67
876.258	9202.65
876.577	9225.25
876.896	9259.6
877.214	9141.64
877.533	9161.07
877.852	9106.16
878.17	9154.52
878.489	9156.55
878.807	9118.14
879.125	9145.71
879.444	9167.63
879.762	9039.49
880.08	9091.24
880.398	9054.18
880.716	9006.05
881.034	8956.56
881.352	9006.27
881.67	8955.2
881.988	8928.76
882.306	8976.44
882.624	8858.93
882.941	8874.3
883.259	8877.69
883.577	8816.67
883.894	8839.27
884.212	8801.99
884.529	8865.26
884.846	8791.82
885.164	8724.47
885.481	8731.93
885.798	8765.15
886.115	8651.71
886.432	8673.4
886.75	8677.24
887.067	8629.11
887.383	8658.71
887.7	8654.65
888.017	8594.53
888.334	8541.2
888.651	8494.88
888.967	8577.13
889.284	8492.84
889.6	8440.41
889.917	8404.48
890.233	8421.21
890.55	8408.1
890.866	8315.9
891.182	8355.22
891.498	8365.61
891.815	8277.71
892.131	8248.55
892.447	8237.93
892.763	8192.74
893.079	8180.08
893.395	8173.98
893.71	8174.43
894.026	8143.02
894.342	8115.22
894.657	8044.94
894.973	8053.31
895.289	8073.42
895.604	8047.43
895.92	7940.31
896.235	7948.68
896.55	7958.84
896.865	7932.4
897.181	7900.99
897.496	7904.16
897.811	7758.85
898.126	7817.61
898.441	7744.39
898.756	7771.28
899.071	7747.55
899.386	7745.52
899.7	7645.41
900.015	7674.11
900.33	7579.65
900.644	7555.24
900.959	7529.25
901.273	7458.74
901.588	7462.13
901.902	7480.66
902.216	7452.19
902.531	7421.01
902.845	7343.04
903.159	7341.69
903.473	7338.07
903.787	7312.99
904.101	7232.08
904.415	7240.9
904.729	7225.98
905.042	7197.73
905.356	7185.53
905.67	7183.72
905.984	7165.42
906.297	7092.88
906.611	7067.12
906.924	7061.24
907.237	7059.21
907.551	6978.53
907.864	6985.76
908.177	6996.61
908.491	6882.49
908.804	6874.58
909.117	6877.29
909.43	6820.57
909.743	6778.76
910.056	6737.63
910.368	6739.89
910.681	6712.32
910.994	6724.53
911.307	6684.53
911.619	6620.12
911.932	6653.34
912.244	6560.92
912.557	6636.39
912.869	6524.76
913.181	6523.63
913.494	6518.66
913.806	6488.6
914.118	6498.09
914.43	6371.77
914.742	6377.19
915.054	6382.84
915.366	6357.53
915.678	6329.73
915.99	6307.59
916.302	6243.86
916.613	6182.39
916.925	6214.48
917.236	6188.04
917.548	6197.76
917.859	6136.75
918.171	6060.59
918.482	6128.16
918.794	6048.39
919.105	6035.73
919.416	5997.99
919.727	5981.95
920.038	6004.09
920.349	5919.12
920.66	5900.37
920.971	5929.07
921.282	5869.63
921.593	5837.32
921.903	5851.1
922.214	5791.67
922.525	5808.62
922.835	5717.55
923.146	5724.33
923.456	5670.32
923.767	5726.36
924.077	5663.31
924.387	5625.57
924.697	5619.24
925.008	5594.39
925.318	5532.02
925.628	5539.92
925.938	5495.86
926.248	5479.59
926.558	5475.52
926.867	5426.26
927.177	5456.31
927.487	5339.7
927.796	5376.09
928.106	5391.68
928.416	5339.7
928.725	5323.43
929.034	5267.39
929.344	5259.25
929.653	5243.44
929.962	5161.4
930.271	5153.72
930.581	5132.7
930.89	5102.2
931.199	5108.07
931.508	5119.82
931.817	5068.07
932.125	5113.5
932.434	5041.41
932.743	5014.97
933.051	5042.99
933.36	5002.54
933.669	5001.41
933.977	4917.57
934.286	4947.85
934.594	4913.73
934.902	4863.11
935.21	4899.72
935.519	4849.32
935.827	4844.58
936.135	4816.55
936.443	4751.02
936.751	4721.42
937.059	4739.04
937.367	4699.04
937.674	4703.56
937.982	4671.93
938.29	4661.76
938.597	4646.39
938.905	4622.21
939.213	4597.58
939.52	4540.63
939.827	4608.2
940.135	4561.19
940.442	4524.58
940.749	4515.32
941.056	4534.98
941.363	4466.28
941.67	4433.97
941.977	4428.99
942.284	4403.23
942.591	4397.58
942.898	4339.73
943.205	4396.9
943.511	4315.55
943.818	4305.61
944.125	4285.95
944.431	4291.6
944.738	4229.68
945.044	4239.17
945.35	4249.56
945.657	4240.75
945.963	4176.57
946.269	4186.06
946.575	4182.45
946.881	4116.69
947.187	4094.09
947.493	4060.64
947.799	4050.92
948.105	4068.1
948.41	4017.03
948.716	4040.3
949.022	4055.22
949.327	3972.06
949.633	3957.14
949.938	3970.93
950.244	3988.78
950.549	3930.93
950.854	3918.72
951.16	3901.78
951.465	3863.36
951.77	3845.96
952.075	3827.65
952.38	3839.18
952.685	3826.07
952.99	3803.02
953.294	3744.49
953.599	3739.29
953.904	3755.11
954.209	3735.68
954.513	3692.74
954.818	3690.48
955.122	3691.84
955.426	3659.3
955.731	3683.25
956.035	3681.44
956.339	3616.13
956.643	3612.74
956.948	3587.66
957.252	3571.39
957.556	3596.47
957.86	3535.46
958.163	3543.14
958.467	3517.61
958.771	3520.77
959.075	3475.8
959.378	3477.83
959.682	3487.55
959.985	3440.55
960.289	3385.18
960.592	3415.91
960.896	3398.96
961.199	3363.03
961.502	3362.58
961.805	3375.24
962.108	3363.94
962.411	3334.56
962.714	3309.25
963.017	3320.77
963.32	3319.64
963.623	3252.08
963.926	3271.28
964.228	3212.08
964.531	3260.66
964.833	3248.91
965.136	3226.77
965.438	3199.2
965.741	3167.33
966.043	3145.64
966.345	3138.18
966.648	3161.46
966.95	3111.74
967.252	3124.17
967.554	3128.91
967.856	3093.66
968.158	3086.43
968.46	3041.46
968.761	3037.17
969.063	3042.14
969.365	3015.47
969.666	2958.75
969.968	2942.25
970.269	2957.39
970.571	2974.12
970.872	2949.03
971.174	2939.09
971.475	2918.52
971.776	2949.26
972.077	2908.81
972.378	2904.06
972.679	2928.47
972.98	2856.38
973.281	2827.91
973.582	2853.67
973.883	2853.67
974.183	2837.85
974.484	2785.42
974.785	2815.02
975.085	2758.98
975.386	2816.15
975.686	2738.87
975.986	2743.61
976.287	2715.14
976.587	2719.43
976.887	2678.98
977.187	2680.11
977.487	2664.75
977.787	2674.01
978.087	2653.9
978.387	2661.81
978.687	2667.91
978.987	2644.41
979.286	2565.77
979.586	2601.47
979.885	2596.73
980.185	2583.62
980.484	2565.31
980.784	2535.48
981.083	2533.68
981.382	2507.24
981.682	2525.31
981.981	2522.83
982.28	2489.61
982.579	2467.24
982.878	2484.19
983.177	2472.21
983.475	2502.94
983.774	2460.68
984.073	2450.06
984.372	2469.95
984.67	2418.88
984.969	2444.41
985.267	2438.54
985.566	2394.02
985.864	2421.81
986.162	2375.49
986.461	2374.36
986.759	2341.82
987.057	2342.04
987.355	2338.65
987.653	2342.27
987.951	2357.18
988.249	2289.39
988.547	2271.99
988.844	2271.54
989.142	2251.88
989.44	2251.88
989.737	2266.34
990.035	2217.75
990.332	2228.6
990.63	2224.98
990.927	2196.96
991.224	2205.32
991.521	2215.72
991.819	2196.74
992.116	2194.7
992.413	2145.44
992.71	2158.77
993.006	2144.31
993.303	2180.24
993.6	2112.44
993.897	2119.68
994.193	2116.96
994.49	2086.91
994.787	2068.15
995.083	2065.67
995.379	2075.61
995.676	2039.68
995.972	2051.66
996.268	2014.14
996.565	2050.75
996.861	2031.77
997.157	2034.48
997.453	1990.87
997.749	1991.54
998.044	1946.8
998.34	1968.95
998.636	1969.4
998.932	1959
999.227	1958.32
999.523	1919.23
999.818	1899.57
1000.114	1855.05
1000.409	1874.48
1000.704	1884.2
1001	1888.5
1001.295	1872
1001.59	1891.66
1001.885	1850.76
1002.18	1856.18
1002.475	1846.24
1002.77	1837.2
1003.065	1809.85
1003.359	1820.47
1003.654	1815.5
1003.949	1789.52
1004.243	1783.41
1004.538	1754.04
1004.832	1744.77
1005.127	1753.58
1005.421	1700.25
1005.715	1729.86
1006.009	1722.4
1006.304	1682.85
1006.598	1648.5
1006.892	1693.02
1007.186	1705.68
1007.48	1696.18
1007.773	1652.12
1008.067	1653.47
1008.361	1637.65
1008.655	1626.58
1008.948	1618.22
1009.242	1594.04
1009.535	1624.1
1009.829	1588.16
1010.122	1586.81
1010.415	1571.44
1010.708	1574.15
1011.001	1570.09
1011.295	1566.92
1011.588	1510.88
1011.881	1536.64
1012.173	1531.22
1012.466	1497.77
1012.759	1505.23
1013.052	1532.57
1013.344	1505
1013.637	1470.43
1013.93	1488.96
1014.222	1506.58
1014.514	1431.11
1014.807	1447.83
1015.099	1428.85
1015.391	1452.12
1015.683	1418.45
1015.976	1422.07
1016.268	1408.51
1016.56	1411.45
1016.851	1399.02
1017.143	1390.2
1017.435	1375.74
1017.727	1391.56
1018.018	1362.18
1018.31	1370.32
1018.602	1346.36
1018.893	1323.31
1019.185	1342.97
1019.476	1313.37
1019.767	1281.73
1020.058	1320.15
1020.35	1263.88
1020.641	1303.65
1020.932	1272.69
1021.223	1241.96
1021.514	1264.11
1021.804	1264.33
1022.095	1242.86
1022.386	1256.87
1022.677	1255.29
1022.967	1214.61
1023.258	1211.68
1023.548	1210.1
1023.839	1204.9
1024.129	1210.55
1024.419	1176.88
1024.709	1191.34
1025	1197.21
1025.29	1180.49
1025.58	1187.05
1025.87	1173.71
1026.16	1145.24
1026.449	1118.8
1026.739	1115.63
1027.029	1107.95
1027.319	1124.45
1027.608	1121.51
1027.898	1103.88
1028.187	1091.68
1028.477	1080.16
1028.766	1094.17
1029.055	1061.62
1029.344	1062.75
1029.634	1052.13
1029.923	1069.31
1030.212	1019.82
1030.501	1050.1
1030.79	1032.47
1031.078	1037.67
1031.367	1021.17
1031.656	1010.1
1031.945	1024.79
1032.233	1004.23
1032.522	985.24
1032.81	1010.55
1033.099	976.43
1033.387	974.17
1033.675	980.5
1033.963	973.94
1034.251	968.52
1034.54	943.89
1034.828	943.89
1035.116	935.75
1035.403	950.22
1035.691	935.3
1035.979	933.27
1036.267	921.97
1036.554	909.31
1036.842	919.03
1037.129	896.43
1037.417	892.82
1037.704	893.04
1037.992	869.77
1038.279	900.95
1038.566	886.04
1038.853	886.04
1039.14	886.04
