Data from tablewood_dark_bookshelf_FLMS001491_00066.txt Node
Date: Wed Feb 08 14:15:23 GMT 2017
User: dcchb
Spectrometer: FLMS00149
Trigger mode: 0
Integration Time (sec): 2.000000E-2
Scans to average: 10
Electric dark correction enabled: true
Nonlinearity correction enabled: false
Boxcar width: 0
XAxis mode: Wavelengths
Number of Pixels in Spectrum: 2048
>>>>>Begin Spectral Data<<<<<
341.393	-20.48
341.776	-20.48
342.16	-20.48
342.543	-64.55
342.927	-60.25
343.31	-61.16
343.693	-58.9
344.077	-47.37
344.46	-42.4
344.843	-55.73
345.226	-42.85
345.61	-39.01
345.993	-20.48
346.376	-13.02
346.759	12.51
347.142	22.68
347.525	14.55
347.908	77.6
348.291	72.63
348.674	86.64
349.057	94.32
349.44	118.73
349.823	150.82
350.206	173.41
350.588	183.13
350.971	194.66
351.354	203.47
351.737	220.64
352.119	246.18
352.502	271.94
352.884	252.06
353.267	255.45
353.65	283.92
354.032	309
354.414	288.44
354.797	296.12
355.179	317.36
355.562	308.1
355.944	308.33
356.326	329.57
356.709	327.99
357.091	333.86
357.473	349.91
357.855	330.02
358.238	323.69
358.62	325.5
359.002	354.2
359.384	337.7
359.766	339.28
360.148	343.13
360.53	312.84
360.912	358.27
361.294	332.51
361.676	325.27
362.057	322.11
362.439	324.6
362.821	314.65
363.203	330.92
363.584	330.25
363.966	300.87
364.348	317.82
364.729	314.65
365.111	312.39
365.493	303.13
365.874	317.82
366.256	314.43
366.637	305.39
367.019	334.09
367.4	315.33
367.781	323.24
368.163	301.32
368.544	310.36
368.925	304.26
369.306	311.94
369.688	313.07
370.069	318.04
370.45	313.75
370.831	315.33
371.212	315.78
371.593	317.14
371.974	321.66
372.355	316.23
372.736	324.6
373.117	317.14
373.498	306.29
373.879	324.82
374.26	318.27
374.641	309.46
375.021	302.9
375.402	325.5
375.783	333.18
376.163	313.07
376.544	332.05
376.925	343.13
377.305	325.5
377.686	336.57
378.066	322.34
378.447	331.15
378.827	333.64
379.208	323.24
379.588	331.83
379.968	326.63
380.349	328.66
380.729	341.77
381.109	338.38
381.489	337.7
381.87	347.19
382.25	354.65
382.63	353.3
383.01	349
383.39	366.85
383.77	347.19
384.15	328.44
384.53	352.39
384.91	366.85
385.29	370.7
385.67	371.83
386.049	373.86
386.429	366.18
386.809	349.23
387.189	363.24
387.568	378.38
387.948	377.25
388.328	384.48
388.707	379.28
389.087	381.09
389.466	367.08
389.846	376.12
390.225	384.71
390.605	378.83
390.984	379.96
391.363	403.69
391.743	376.57
392.122	398.49
392.501	383.58
392.881	394.2
393.26	398.94
393.639	411.6
394.018	395.1
394.397	391.26
394.776	411.37
395.155	396.91
395.534	406.18
395.913	406.4
396.292	413.18
396.671	418.6
397.05	419.96
397.429	413.86
397.808	432.84
398.186	427.64
398.565	434.42
398.944	418.6
399.323	431.94
399.701	440.75
400.08	436.23
400.458	447.08
400.837	434.65
401.215	439.4
401.594	443.01
401.972	433.07
402.351	456.12
402.729	433.07
403.107	449.56
403.486	441.2
403.864	462.9
404.242	447.98
404.62	452.5
404.999	472.16
405.377	464.25
405.755	474.87
406.133	487.98
406.511	466.97
406.889	500.64
407.267	477.13
407.645	487.08
408.023	491.37
408.401	503.57
408.779	479.39
409.156	513.29
409.534	509.45
409.912	499.96
410.29	502.44
410.667	501.77
411.045	509.45
411.422	531.82
411.8	524.36
412.178	525.27
412.555	534.53
412.933	570.47
413.31	566.62
413.687	565.04
414.065	561.65
414.442	571.37
414.819	543.35
415.197	525.72
415.574	579.96
415.951	574.31
416.328	577.02
416.705	572.95
417.082	591.26
417.46	581.09
417.837	588.54
418.214	592.39
418.591	606.17
418.967	591.26
419.344	605.27
419.721	611.59
420.098	629.67
420.475	615.66
420.852	620.63
421.228	619.28
421.605	638.49
421.982	639.39
422.358	666.51
422.735	645.27
423.111	654.98
423.488	660.63
423.864	654.53
424.241	679.61
424.617	670.12
424.994	682.78
425.37	718.94
425.746	685.26
426.123	713.96
426.499	690.91
426.875	693.63
427.251	717.81
427.627	732.95
428.003	719.16
428.379	748.99
428.756	742.66
429.132	754.42
429.507	745.38
429.883	765.49
430.259	756.45
430.635	781.76
431.011	781.99
431.387	815.2
431.763	824.47
432.138	801.19
432.514	808.88
432.89	832.61
433.265	820.63
433.641	827.63
434.016	836.45
434.392	882.32
434.767	868.31
435.143	850.01
435.518	871.25
435.894	908.54
436.269	889.33
436.644	903.11
437.02	917.35
437.395	917.12
437.77	909.89
438.145	936.78
438.52	950.34
438.895	949.89
439.271	925.94
439.646	975.88
440.021	981.08
440.395	976.1
440.77	966.39
441.145	978.14
441.52	997.12
441.895	995.99
442.27	1029.44
442.645	1013.17
443.019	1006.61
443.394	1036.89
443.769	1033.05
444.143	1028.31
444.518	1042.77
444.892	1057.91
445.267	1056.1
445.641	1092.71
446.016	1074.41
446.39	1050
446.764	1092.71
447.139	1087.29
447.513	1125.03
447.887	1092.71
448.262	1117.34
448.636	1121.41
449.01	1115.08
449.384	1130.68
449.758	1125.7
450.132	1135.2
450.506	1165.48
450.88	1164.12
451.254	1166.83
451.628	1170.45
452.002	1194.18
452.376	1201.41
452.75	1193.73
453.123	1213.16
453.497	1240.5
453.871	1238.24
454.244	1269.88
454.618	1260.84
454.992	1294.06
455.365	1297.9
455.739	1322.54
456.112	1322.54
456.486	1330.45
456.859	1337.45
457.232	1392.36
457.606	1391.01
457.979	1351.69
458.352	1402.76
458.725	1448.63
459.099	1427.39
459.472	1462.65
459.845	1488.86
460.218	1469.2
460.591	1489.99
460.964	1513.94
461.337	1535.86
461.71	1559.59
462.083	1591.68
462.456	1554.62
462.829	1608.18
463.201	1624.22
463.574	1633.49
463.947	1609.31
464.32	1667.39
464.692	1693.15
465.065	1671
465.438	1733.15
465.81	1744.22
466.183	1743.54
466.555	1769.08
466.928	1833.03
467.3	1824.9
467.672	1828.96
468.045	1851.79
468.417	1861.05
468.789	1890.88
469.161	1880.04
469.534	1921.62
469.906	1971.11
470.278	1972.91
470.65	2004.33
471.022	2043.19
471.394	2088.17
471.766	2107.83
472.138	2133.14
472.51	2140.37
472.882	2195.73
473.253	2205
473.625	2242.06
473.997	2282.96
474.369	2293.13
474.74	2309.85
475.112	2357.76
475.484	2388.27
475.855	2421.49
476.227	2464.88
476.598	2498.1
476.97	2525.22
477.341	2592.33
477.713	2616.97
478.084	2626.68
478.455	2711.2
478.827	2714.14
479.198	2800.69
479.569	2823.51
479.94	2868.71
480.311	2887.24
480.682	2953
481.053	2991.87
481.424	3074.35
481.795	3083.39
482.166	3148.93
482.537	3166.56
482.908	3222.6
483.279	3263.05
483.65	3244.07
484.021	3356.38
484.391	3387.57
484.762	3461.24
485.133	3503.95
485.503	3517.28
485.874	3566.54
486.244	3647.22
486.615	3698.52
486.985	3749.14
487.356	3817.84
487.726	3864.16
488.097	3905.97
488.467	3906.2
488.837	4039.53
489.207	3993.43
489.578	4080.43
489.948	4105.51
490.318	4212.63
490.688	4178.51
491.058	4247.2
491.428	4335.56
491.798	4366.3
492.168	4427.09
492.538	4450.36
492.908	4543.92
493.278	4592.73
493.648	4577.14
494.017	4641.77
494.387	4695.1
494.757	4694.65
495.126	4758.83
495.496	4747.76
495.866	4839.51
496.235	4887.19
496.605	4934.42
496.974	4905.27
497.344	5002.67
497.713	5032.04
498.082	5038.6
498.452	5100.52
498.821	5127.18
499.19	5121.53
499.559	5195.43
499.928	5230.91
500.298	5269.1
500.667	5324.69
501.036	5293.05
501.405	5395.42
501.774	5363.33
502.143	5448.3
502.512	5443.33
502.88	5555.19
503.249	5504.57
503.618	5611.01
503.987	5582.54
504.356	5674.51
504.724	5683.1
505.093	5702.76
505.462	5697.79
505.83	5804.23
506.199	5882.42
506.567	5905.69
506.936	5910.66
507.304	5992.92
507.672	6046.03
508.041	6005.12
508.409	6137.55
508.777	6101.17
509.145	6204.89
509.514	6181.84
509.882	6238.34
510.25	6255.51
510.618	6312.69
510.986	6357.66
511.354	6391.1
511.722	6435.17
512.09	6511.78
512.458	6503.42
512.826	6604.43
513.193	6653.47
513.561	6630.19
513.929	6706.8
514.297	6750.42
514.664	6836.06
515.032	6875.16
515.4	6910.86
515.767	6956.06
516.135	7015.04
516.502	6972.56
516.869	7134.81
517.237	7101.82
517.604	7147.02
517.972	7216.39
518.339	7289.84
518.706	7264.3
519.073	7322.83
519.44	7446.22
519.808	7472.43
520.175	7584.07
520.542	7544.52
520.909	7657.96
521.276	7677.85
521.643	7727.57
522.009	7775.93
522.376	7836.94
522.743	7874.45
523.11	8010.95
523.477	8066.31
523.843	8110.83
524.21	8269.92
524.577	8254.11
524.943	8288
525.31	8369.13
525.676	8361.9
526.043	8444.38
526.409	8551.27
526.776	8649.12
527.142	8658.16
527.508	8666.52
527.874	8818.16
528.241	8821.1
528.607	8913.07
528.973	8904.48
529.339	9009.34
529.705	9032.62
530.071	9141.99
530.437	9215.66
530.803	9173.18
531.169	9325.49
531.535	9229.45
531.901	9336.79
532.267	9367.97
532.632	9452.72
532.998	9435.77
533.364	9566.61
533.73	9544.92
534.095	9632.83
534.461	9676.67
534.826	9735.65
535.192	9792.37
535.557	9858.36
535.923	9854.74
536.288	9864.46
536.653	9954.4
537.019	9958.24
537.384	9972.48
537.749	10119.82
538.114	10064.68
538.479	10141.51
538.845	10181.96
539.21	10130.44
539.575	10240.95
539.94	10237.1
540.305	10339.7
540.67	10268.74
541.034	10327.04
541.399	10366.59
541.764	10405.69
542.129	10438.23
542.494	10542.86
542.858	10583.31
543.223	10591.44
543.587	10660.6
543.952	10637.32
544.316	10684.32
544.681	10755.73
545.045	10732.91
545.41	10867.14
545.774	10854.49
546.138	10901.27
546.503	10921.83
546.867	10942.4
547.231	11074.82
547.595	11019
547.959	11079.12
548.324	11117.53
548.688	11109.17
549.052	11175.84
549.416	11219.45
549.779	11249.96
550.143	11274.36
550.507	11357.98
550.871	11376.06
551.235	11332.22
551.599	11510.52
551.962	11515.49
552.326	11546.22
552.689	11644.3
553.053	11609.05
553.417	11618.54
553.78	11830.06
554.143	11769.49
554.507	11848.81
554.87	11851.3
555.234	12011.52
555.597	11991.63
555.96	12049.26
556.323	12011.29
556.686	12088.13
557.05	12255.58
557.413	12225.07
557.776	12289.25
558.139	12317.95
558.502	12456.03
558.865	12490.6
559.228	12542.13
559.59	12606.53
559.953	12587.55
560.316	12751.16
560.679	12657.83
561.041	12839.07
561.404	12938.5
561.767	12938.95
562.129	12952.51
562.492	13047.65
562.854	13138.27
563.217	13198.16
563.579	13183.92
563.941	13275.67
564.304	13330.13
564.666	13397.47
565.028	13496.91
565.39	13544.59
565.753	13584.36
566.115	13738.93
566.477	13603.34
566.839	13752.72
567.201	13881.3
567.563	13936.89
567.925	13997.23
568.287	14094.4
568.648	14031.13
569.01	14128.75
569.372	14241.74
569.734	14364.45
570.095	14380.72
570.457	14425.24
570.819	14542.08
571.18	14509.76
571.542	14596.54
571.903	14649.19
572.265	14707.49
572.626	14783.65
572.987	14838.79
573.349	14780.04
573.71	14959.01
574.071	15053.93
574.432	15034.72
574.794	15136.64
575.155	15223.64
575.516	15159.91
575.877	15237.65
576.238	15272.68
576.599	15380.7
576.96	15412.56
577.32	15416.18
577.681	15476.97
578.042	15559.68
578.403	15505.67
578.763	15632.22
579.124	15732.78
579.485	15756.51
579.845	15807.58
580.206	15742.72
580.566	15837.41
580.927	15819.56
581.287	15928.48
581.648	16005.99
582.008	16016.39
582.368	16011.64
582.728	16111.3
583.089	15988.59
583.449	16140.68
583.809	16148.59
584.169	16241.69
584.529	16134.58
584.889	16363.04
585.249	16140.45
585.609	16175.93
585.969	16349.71
586.329	16317.85
586.688	16402.59
587.048	16418.64
587.408	16356.26
587.768	16423.16
588.127	16379.32
588.487	16406.43
588.846	16489.37
589.206	16470.61
589.565	16560.1
589.925	16616.82
590.284	16527.56
590.643	16671.28
591.003	16673.77
591.362	16654.79
591.721	16718.52
592.08	16680.32
592.44	16799.42
592.799	16793.09
593.158	16779.76
593.517	16783.6
593.876	16885.74
594.235	16864.95
594.593	16957.15
594.952	17018.62
595.311	16983.59
595.67	16991.05
596.029	17122.35
596.387	17064.49
596.746	17080.54
597.104	17041.9
597.463	17064.04
597.822	17191.95
598.18	17126.87
598.538	17186.07
598.897	17296.81
599.255	17161.44
599.613	17439.4
599.972	17339.97
600.33	17421.1
600.688	17340.19
601.046	17456.8
601.404	17549.45
601.762	17467.65
602.12	17566.85
602.478	17537.7
602.836	17551.71
603.194	17508.1
603.552	17466.74
603.91	17472.39
604.268	17593.75
604.625	17482.56
604.983	17673.29
605.341	17593.75
605.698	17651.82
606.056	17782.22
606.413	17718.04
606.771	17785.38
607.128	17816.79
607.485	17763.46
607.843	17843.91
608.2	17959.61
608.557	18045.94
608.914	17945.15
609.272	18085.48
609.629	18078.71
609.986	18050.01
610.343	18027.63
610.7	18245.03
611.057	18154.18
611.414	18168.65
611.771	18137.23
612.127	18258.36
612.484	18198.02
612.841	18334.74
613.198	18330
613.554	18302.65
613.911	18293.39
614.267	18336.33
614.624	18278.25
614.98	18346.95
615.337	18567.51
615.693	18534.96
616.05	18343.11
616.406	18616.54
616.762	18494.06
617.118	18474.4
617.475	18506.04
617.831	18573.16
618.187	18631.91
618.543	18611.12
618.899	18732.02
619.255	18593.04
619.611	18790.33
619.967	18791.68
620.323	18914.84
620.678	18742.19
621.034	18669.2
621.39	18722.53
621.746	18625.81
622.101	18908.06
622.457	18636.43
622.812	18818.8
623.168	18831
623.523	18776.09
623.879	18890.21
624.234	18687.73
624.589	18881.17
624.945	18844.56
625.3	18840.95
625.655	18868.74
626.01	18872.13
626.365	18754.17
626.72	18939.02
627.075	18779.25
627.43	18898.34
627.785	18779.7
628.14	18813.6
628.495	18902.41
628.85	18692.02
629.205	18739.25
629.559	18929.08
629.914	18765.92
630.269	18813.83
630.623	18741.74
630.978	18713.49
631.332	18814.96
631.687	18845.69
632.041	18686.15
632.396	18711.68
632.75	18691.57
633.104	18795.97
633.459	18628.07
633.813	18647.73
634.167	18612.02
634.521	18651.12
634.875	18746.94
635.229	18589.43
635.583	18654.74
635.937	18610.22
636.291	18539.26
636.645	18485.93
636.999	18561.18
637.352	18520.28
637.706	18402.09
638.06	18542.42
638.413	18496.55
638.767	18441.63
639.121	18455.87
639.474	18337.68
639.828	18399.83
640.181	18359.6
640.534	18421.75
640.888	18232.83
641.241	18198.48
641.594	18292.03
641.947	18351.24
642.301	18233.73
642.654	18317.57
643.007	18229.66
643.36	18115.77
643.713	18216.78
644.066	18323.22
644.419	18140.85
644.771	18087.52
645.124	17871.71
645.477	17901.76
645.83	17813.18
646.182	17699.28
646.535	17693.86
646.888	17650.47
647.24	17545.61
647.593	17667.64
647.945	17625.84
648.298	17500.19
648.65	17432.62
649.002	17370.25
649.355	17553.07
649.707	17487.53
650.059	17551.71
650.411	17848.88
650.763	17728.88
651.115	18045.71
651.467	17927.3
651.819	18008.2
652.171	17842.1
652.523	17848.2
652.875	17809.33
653.227	17763.69
653.578	17902.44
653.93	17800.07
654.282	17810.69
654.633	17713.52
654.985	17849.11
655.337	17722.56
655.688	17771.59
656.039	17835.32
656.391	17697.25
656.742	17763.01
657.094	17647.98
657.445	17806.4
657.796	17785.61
658.147	17709.22
658.498	17683.24
658.849	17788.54
659.2	17797.81
659.551	17688.66
659.902	17800.07
660.253	17696.79
660.604	17703.57
660.955	17607.98
661.306	17692.73
661.656	17632.84
662.007	17647.98
662.358	17713.07
662.708	17682.11
663.059	17707.19
663.409	17579.51
663.76	17758.04
664.11	17657.02
664.461	17655.21
664.811	17720.52
665.161	17656.8
665.511	17637.59
665.862	17651.82
666.212	17621.54
666.562	17777.47
666.912	17633.52
667.262	17733.4
667.612	17759.84
667.962	17619.73
668.312	17634.42
668.662	17732.05
669.011	17659.28
669.361	17649.56
669.711	17657.25
670.06	17644.37
670.41	17548.55
670.76	17552.17
671.109	17649.11
671.459	17599.17
671.808	17612.28
672.157	17596.23
672.507	17464.48
672.856	17619.28
673.205	17583.35
673.554	17575.67
673.904	17600.07
674.253	17616.57
674.602	17547.42
674.951	17372.96
675.3	17196.92
675.649	17568.21
675.998	17513.3
676.346	17526.63
676.695	17616.12
677.044	17424.49
677.393	17462
677.741	17424.26
678.09	17362.11
678.438	17459.29
678.787	17409.12
679.135	17535.89
679.484	17318.05
679.832	17389.01
680.181	17318.5
680.529	17378.84
680.877	17360.76
681.225	17376.35
681.573	17474.2
681.922	17252.74
682.27	17264.04
682.618	17107.66
682.966	17124.83
683.314	17260.65
683.661	17195.79
684.009	17080.99
684.357	17040.54
684.705	17046.19
685.053	17104.27
685.4	16986.98
685.748	16943.37
686.095	16906.31
686.443	16825.18
686.79	16821.11
687.138	16822.02
687.485	16868.12
687.832	16789.25
688.18	16741.57
688.527	16736.59
688.874	16782.92
689.221	16635.13
689.568	16682.13
689.915	16666.54
690.262	16590.38
690.609	16649.14
690.956	16598.29
691.303	16514.45
691.65	16477.84
691.997	16449.37
692.344	16251.41
692.69	16313.55
693.037	16371.86
693.383	16110.62
693.73	16300.67
694.077	16221.13
694.423	16143.16
694.769	16203.73
695.116	16046.67
695.462	16060
695.808	15947.24
696.155	15945.43
696.501	15863.62
696.847	15847.13
697.193	15691.65
697.539	15834.47
697.885	15726.22
698.231	15714.47
698.577	15618.66
698.923	15618.66
699.269	15539.11
699.614	15375.27
699.96	15464.08
700.306	15441.26
700.651	15387.48
700.997	15361.71
701.342	15288.04
701.688	15246.46
702.033	15210.98
702.379	15257.76
702.724	15095.73
703.069	15214.6
703.415	15053.02
703.76	15131.89
704.105	15095.96
704.45	15084.21
704.795	15065.23
705.14	14921.05
705.485	14950.43
705.83	14840.6
706.175	14902.07
706.52	14804.22
706.865	14728.29
707.209	14785.91
707.554	14656.42
707.899	14756.08
708.243	14731
708.588	14675.18
708.932	14606.25
709.277	14546.14
709.621	14495.75
709.966	14476.99
710.31	14484.9
710.654	14420.04
710.998	14469.76
711.342	14505.01
711.687	14397.22
712.031	14328.75
712.375	14260.73
712.719	14284.91
713.063	14216.66
713.407	14342.76
713.75	14235.19
714.094	14278.81
714.438	14221.41
714.782	14128.07
715.125	14080.62
715.469	14123.78
715.812	14017.57
716.156	14089.88
716.499	13973.28
716.843	13999.72
717.186	13852.83
717.53	13973.5
717.873	14026.61
718.216	13860.74
718.559	13940.96
718.902	13738.25
719.246	13885.6
719.589	13779.61
719.932	13774.86
720.275	13763.56
720.617	13734.41
720.96	13812.38
721.303	13777.35
721.646	13682.21
721.989	13688.09
722.331	13714.98
722.674	13771.7
723.016	13661.19
723.359	13665.49
723.701	13658.71
724.044	13562.67
724.386	13524.02
724.729	13638.37
725.071	13583.68
725.413	13557.47
725.755	13535.77
726.097	13501.65
726.439	13420.75
726.782	13432.05
727.124	13444.7
727.465	13423.46
727.807	13406.29
728.149	13437.92
728.491	13354.31
728.833	13442.22
729.175	13324.71
729.516	13310.47
729.858	13324.48
730.199	13401.31
730.541	13327.42
730.882	13296.68
731.224	13326.74
731.565	13174.88
731.906	13290.58
732.248	13298.27
732.589	13238.83
732.93	13298.27
733.271	13202
733.612	13192.73
733.953	13165.16
734.294	13190.02
734.635	13058.27
734.976	13140.53
735.317	13154.09
735.658	13142.34
735.999	13148.21
736.339	13100.53
736.68	13082
737.021	13145.5
737.361	13039.52
737.702	13053.98
738.042	13016.01
738.383	13015.11
738.723	13116.12
739.063	13091.94
739.404	13086.07
739.744	12976.01
740.084	12966.3
740.424	13075.9
740.764	12999.06
741.104	13025.73
741.444	12971.27
741.784	12968.11
742.124	12906.64
742.464	12968.11
742.804	12911.61
743.143	12878.84
743.483	12911.84
743.823	12828.45
744.162	12790.48
744.502	12923.59
744.841	12806.08
745.181	12809.24
745.52	12827.09
745.86	12819.18
746.199	12773.76
746.538	12814.21
746.877	12782.57
747.216	12840.43
747.556	12743.25
747.895	12720.88
748.234	12764.04
748.573	12686.53
748.911	12716.36
749.25	12749.35
749.589	12662.58
749.928	12676.36
750.267	12686.76
750.605	12625.06
750.944	12602.01
751.283	12582.35
751.621	12625.06
751.96	12490.15
752.298	12614.22
752.636	12529.25
752.975	12495.8
753.313	12433.66
753.651	12479.08
753.989	12483.6
754.327	12502.35
754.666	12423.03
755.004	12335.58
755.342	12438.85
755.679	12381.23
756.017	12267.56
756.355	12376.71
756.693	12231.4
757.031	12172.87
757.368	12218.29
757.706	12160.44
758.044	12216.26
758.381	12188.01
758.719	12102.82
759.056	12126.32
759.394	12127.9
759.731	11995.93
760.068	11999.32
760.405	11981.01
760.743	11881.13
761.08	11899.88
761.417	11861.92
761.754	11844.29
762.091	11795.93
762.428	11769.49
762.765	11773.11
763.102	11826.44
763.438	11685.43
763.775	11700.34
764.112	11670.51
764.449	11614.92
764.785	11611.3
765.122	11481.82
765.458	11479.56
765.795	11395.49
766.131	11440.01
766.467	11368.83
766.804	11354.36
767.14	11313.01
767.476	11278.88
767.812	11276.17
768.148	11324.08
768.485	11217.87
768.821	11106.91
769.157	11082.96
769.492	11069.62
769.828	11020.13
770.164	10987.59
770.5	10902.62
770.836	10872.12
771.171	10859.01
771.507	10791.67
771.842	10774.94
772.178	10766.81
772.513	10709.63
772.849	10695.62
773.184	10744.44
773.519	10650.88
773.855	10556.64
774.19	10534.5
774.525	10518.68
774.86	10434.61
775.195	10388.96
775.53	10389.64
775.865	10377.21
776.2	10303.77
776.535	10236.43
776.87	10238.01
777.205	10222.19
777.539	10147.61
777.874	10212.47
778.209	10054.28
778.543	10077.79
778.878	10038.92
779.212	10038.69
779.547	9936.09
779.881	9929.54
780.215	9864.01
780.55	9852.26
780.884	9825.36
781.218	9810.22
781.552	9728.42
781.886	9727.06
782.22	9673.5
782.554	9637.35
782.888	9598.7
783.222	9525.26
783.556	9525.48
783.889	9459.72
784.223	9411.81
784.557	9420.18
784.89	9458.14
785.224	9407.07
785.557	9341.08
785.891	9285.04
786.224	9257.24
786.558	9276
786.891	9172.05
787.224	9177.24
787.557	9129.56
787.891	9129.11
788.224	9056.34
788.557	9083.24
788.89	8996.46
789.223	9063.58
789.556	8966.85
789.888	8930.7
790.221	8904.71
790.554	8792.62
790.887	8815.45
791.219	8775.67
791.552	8793.53
791.884	8704.94
792.217	8703.81
792.549	8657.26
792.882	8655.68
793.214	8599.63
793.546	8586.3
793.879	8553.98
794.211	8504.72
794.543	8511.5
794.875	8402.12
795.207	8542.23
795.539	8457.49
795.871	8445.74
796.203	8277.16
796.535	8319.41
796.867	8291.17
797.198	8258.17
797.53	8237.83
797.862	8231.96
798.193	8294.56
798.525	8133.88
798.856	8192.86
799.188	8109.93
799.519	8035.58
799.85	8006.88
800.182	8023.38
800.513	8039.87
800.844	7944.73
801.175	7956.94
801.506	7956.94
801.837	7902.48
802.168	7899.54
802.499	7864.28
802.83	7808.92
803.161	7799.43
803.491	7787.22
803.822	7765.98
804.153	7731.41
804.483	7675.82
804.814	7656.61
805.145	7626.55
805.475	7632.65
805.805	7561.02
806.136	7596.95
806.466	7598.3
806.796	7507.01
807.126	7516.5
807.457	7511.98
807.787	7453.67
808.117	7438.76
808.447	7364.41
808.777	7409.38
809.107	7369.61
809.436	7382.04
809.766	7342.72
810.096	7357.63
810.426	7325.77
810.755	7320.34
811.085	7288.93
811.414	7243.96
811.744	7231.76
812.073	7212.1
812.403	7191.76
812.732	7111.99
813.061	7162.61
813.39	7118.77
813.719	7119.9
814.049	7109.28
814.378	7122.61
814.707	7076.06
815.036	7076.96
815.365	7027.24
815.693	6985.89
816.022	6997.87
816.351	6928.72
816.68	6918.32
817.008	6970.07
817.337	6867.02
817.665	6789.74
817.994	6878.77
818.322	6855.05
818.651	6797.19
818.979	6781.38
819.307	6824.31
819.636	6860.24
819.964	6766.91
820.292	6812.79
820.62	6786.12
820.948	6742.73
821.276	6790.87
821.604	6726.01
821.932	6781.83
822.259	6763.97
822.587	6730.76
822.915	6740.47
823.243	6759.68
823.57	6723.98
823.898	6713.35
824.225	6737.31
824.553	6702.06
824.88	6698.89
825.207	6722.62
825.535	6662.73
825.862	6731.43
826.189	6709.74
826.516	6732.56
826.843	6748.61
827.17	6807.14
827.497	6716.52
827.824	6674.26
828.151	6747.25
828.478	6740.47
828.805	6744.77
829.131	6715.16
829.458	6710.64
829.785	6689.4
830.111	6693.02
830.438	6738.21
830.764	6663.86
831.09	6666.58
831.417	6669.51
831.743	6657.31
832.069	6647.14
832.395	6666.8
832.722	6695.5
833.048	6606.46
833.374	6625.22
833.7	6577.76
834.026	6620.48
834.351	6642.85
834.677	6612.57
835.003	6658.67
835.329	6622.06
835.654	6628.61
835.98	6566.24
836.306	6633.13
836.631	6524.21
836.956	6582.28
837.282	6603.3
837.607	6566.24
837.932	6557.88
838.258	6607.14
838.583	6547.71
838.908	6529.86
839.233	6538.67
839.558	6493.02
839.883	6421.38
840.208	6424.77
840.533	6469.97
840.858	6463.42
841.182	6437.88
841.507	6418
841.832	6421.16
842.156	6339.13
842.481	6337.09
842.805	6356.3
843.13	6334.16
843.454	6349.52
843.778	6295.51
844.103	6269.07
844.427	6275.17
844.751	6234.5
845.075	6248.96
845.399	6233.37
845.723	6195.18
846.047	6190.66
846.371	6146.59
846.695	6166.7
847.019	6115.63
847.343	6096.2
847.666	6033.37
847.99	6022.07
848.313	6008.06
848.637	5939.82
848.96	5984.79
849.284	5968.06
849.607	5955.63
849.931	5886.71
850.254	5877.9
850.577	5874.51
850.9	5867.73
851.223	5777.11
851.546	5787.28
851.869	5722.87
852.192	5749.31
852.515	5753.38
852.838	5721.52
853.161	5681.74
853.483	5666.38
853.806	5660.05
854.129	5617.56
854.451	5632.71
854.774	5620.28
855.096	5582.76
855.419	5588.64
855.741	5533.5
856.063	5543.67
856.385	5530.56
856.708	5530.33
857.03	5528.53
857.352	5531.01
857.674	5479.94
857.996	5440.85
858.318	5443.11
858.64	5375.76
858.961	5376.44
859.283	5399.94
859.605	5356.78
859.926	5359.49
860.248	5345.25
860.57	5277.01
860.891	5321.07
861.212	5293.5
861.534	5313.62
861.855	5278.14
862.176	5232.94
862.498	5293.28
862.819	5283.11
863.14	5230
863.461	5245.82
863.782	5232.94
864.103	5209.67
864.424	5204.47
864.745	5190.23
865.065	5175.54
865.386	5197.01
865.707	5192.49
866.027	5191.13
866.348	5166.28
866.668	5200.85
866.989	5125.6
867.309	5099.16
867.63	5100.29
867.95	5148.88
868.27	5162.21
868.59	5085.6
868.91	5152.94
869.23	5081.99
869.55	5065.71
869.87	5089.67
870.19	5065.49
870.51	5091.02
870.83	5079.73
871.15	5039.5
871.469	5071.82
871.789	5062.78
872.109	5009.9
872.428	5052.38
872.748	5051.7
873.067	5015.77
873.386	5018.26
873.706	4988.2
874.025	4999.28
874.344	4930.35
874.663	4965.6
874.982	4972.84
875.301	4946.62
875.62	4950.69
875.939	4925.6
876.258	4950.69
876.577	4926.51
876.896	4926.96
877.214	4890.13
877.533	4889.45
877.852	4941.88
878.17	4887.41
878.489	4935.32
878.807	4859.84
879.125	4886.96
879.444	4840.18
879.762	4816.46
880.08	4836.57
880.398	4829.11
880.716	4825.49
881.034	4804.25
881.352	4841.31
881.67	4835.66
881.988	4818.72
882.306	4789.56
882.624	4804.93
882.941	4726.97
883.259	4764.25
883.577	4772.61
883.894	4696.46
884.212	4723.12
884.529	4689.68
884.846	4720.86
885.164	4731.71
885.481	4650.13
885.798	4693.52
886.115	4643.13
886.432	4670.47
886.75	4663.92
887.067	4634.31
887.383	4608.55
887.7	4608.78
888.017	4614.43
888.334	4604.26
888.651	4540.3
888.967	4578.5
889.284	4553.41
889.6	4587.53
889.917	4513.41
890.233	4561.32
890.55	4495.11
890.866	4543.92
891.182	4536.01
891.498	4471.15
891.815	4489.91
892.131	4450.59
892.447	4497.82
892.763	4419.18
893.079	4397.71
893.395	4416.24
893.71	4406.07
894.026	4392.51
894.342	4385.05
894.657	4364.72
894.973	4382.79
895.289	4350.03
895.604	4341.89
895.92	4303.93
896.235	4307.99
896.55	4356.35
896.865	4291.5
897.181	4283.14
897.496	4345.51
897.811	4266.41
898.126	4249.01
898.441	4312.74
898.756	4262.8
899.071	4192.06
899.386	4202.01
899.7	4193.65
900.015	4163.59
900.33	4103.25
900.644	4155.46
900.959	4126.3
901.273	4140.54
901.588	4101.9
901.902	4079.75
902.216	4053.09
902.531	4053.99
902.845	4058.96
903.159	4029.36
903.473	4034.78
903.787	4015.57
904.101	3984.16
904.415	3967.89
904.729	3954.11
905.042	3934.67
905.356	3930.6
905.67	3948
905.984	3959.75
906.297	3948.91
906.611	3860.77
906.924	3925.86
907.237	3865.07
907.551	3853.32
907.864	3832.53
908.177	3828.01
908.491	3837.05
908.804	3821
909.117	3797.73
909.43	3755.92
909.743	3793.88
910.056	3742.13
910.368	3737.16
910.681	3718.41
910.994	3700.33
911.307	3703.49
911.619	3702.59
911.932	3686.09
912.244	3661.68
912.557	3658.52
912.869	3658.07
913.181	3645.86
913.494	3606.32
913.806	3585.98
914.118	3589.82
914.43	3544.17
914.742	3599.76
915.054	3533.55
915.366	3496.04
915.678	3514.34
915.99	3521.8
916.302	3493.1
916.613	3487
916.925	3488.35
917.236	3451.07
917.548	3421.92
917.859	3445.19
918.171	3414.46
918.482	3432.31
918.794	3375.59
919.105	3395.02
919.416	3394.12
919.727	3398.87
920.038	3320.22
920.349	3338.98
920.66	3362.93
920.971	3337.85
921.282	3336.72
921.593	3294.24
921.903	3281.13
922.214	3249.49
922.525	3265.99
922.835	3235.25
923.146	3179.44
923.456	3159.55
923.767	3214.46
924.077	3190.06
924.387	3178.76
924.697	3134.24
925.008	3148.02
925.318	3186.89
925.628	3167.46
925.938	3105.99
926.248	3090.85
926.558	3064.64
926.867	3080.91
927.177	3112.77
927.487	3080.46
927.796	3042.72
928.106	3029.16
928.416	3028.25
928.725	3040.68
929.034	3002.94
929.344	3016.28
929.653	3038.87
929.962	3001.59
930.271	2968.82
930.581	2970.85
930.89	2943.06
931.199	2929.05
931.508	2926.34
931.817	2916.17
932.125	2901.7
932.434	2910.06
932.743	2890.86
933.051	2882.95
933.36	2901.48
933.669	2843.17
933.977	2821.03
934.286	2819.45
934.594	2802.5
934.902	2811.31
935.21	2816.06
935.519	2804.3
935.827	2776.51
936.135	2750.97
936.443	2724.98
936.751	2726.34
937.059	2725.44
937.367	2704.42
937.674	2710.3
937.982	2729.96
938.29	2682.73
938.597	2690.41
938.905	2655.16
939.213	2676.62
939.52	2630.52
939.827	2634.82
940.135	2635.95
940.442	2614.48
940.749	2597.53
941.056	2628.94
941.363	2578.1
941.67	2580.58
941.977	2589.62
942.284	2585.33
942.591	2541.94
942.898	2505.78
943.205	2535.39
943.511	2527.02
943.818	2525.44
944.125	2531.77
944.431	2513.24
944.738	2493.58
945.044	2501.26
945.35	2485.9
945.657	2444.09
945.963	2459
946.269	2479.79
946.575	2461.94
946.881	2448.38
947.187	2453.13
947.493	2423.75
947.799	2400.25
948.105	2401.6
948.41	2412.45
948.716	2375.62
949.022	2374.26
949.327	2353.7
949.633	2355.05
949.938	2362.28
950.244	2364.32
950.549	2340.14
950.854	2299.69
951.16	2327.03
951.465	2308.5
951.77	2274.15
952.075	2258.33
952.38	2269.63
952.685	2275.51
952.99	2232.12
953.294	2273.25
953.599	2254.71
953.904	2247.26
954.209	2264.66
954.513	2234.38
954.818	2187.15
955.122	2215.62
955.426	2184.21
955.731	2165.68
956.035	2162.74
956.339	2175.62
956.643	2157.99
956.948	2167.49
957.252	2182.17
957.556	2150.31
957.86	2132.68
958.163	2127.49
958.467	2137.2
958.771	2094.94
959.075	2106.24
959.378	2091.33
959.682	2102.18
959.985	2097.66
960.289	2078.22
960.592	2048.62
960.896	2072.35
961.199	2016.3
961.502	2043.87
961.805	2054.04
962.108	2047.04
962.411	2028.28
962.714	2049.75
963.017	2028.96
963.32	1995.96
963.623	2001.16
963.926	2001.16
964.228	1975.17
964.531	2018.11
964.833	1975.63
965.136	1938.56
965.438	1955.06
965.741	1920.49
966.043	1905.35
966.345	1884.33
966.648	1943.08
966.95	1968.39
967.252	1912.12
967.554	1906.02
967.856	1906.48
968.158	1869.19
968.46	1875.06
968.761	1851.34
969.063	1871.45
969.365	1867.83
969.666	1816.99
969.968	1831.22
970.269	1836.19
970.571	1849.75
970.872	1813.37
971.174	1810.88
971.475	1798.23
971.776	1799.36
972.077	1786.03
972.378	1788.51
972.679	1792.35
972.98	1781.05
973.281	1798.91
973.582	1787.38
973.883	1744.45
974.183	1746.03
974.484	1758.68
974.785	1738.34
975.085	1735.86
975.386	1706.25
975.686	1708.06
975.986	1716.2
976.287	1718.46
976.587	1673.71
976.887	1715.75
977.187	1677.55
977.487	1704.22
977.787	1656.54
978.087	1674.17
978.387	1655.18
978.687	1638.46
978.987	1635.07
979.286	1667.61
979.586	1629.42
979.885	1615.86
980.185	1614.51
980.484	1640.27
980.784	1631.23
981.083	1618.35
981.382	1620.61
981.682	1608.86
981.981	1621.29
982.28	1605.01
982.579	1588.07
982.878	1581.51
983.177	1579.25
983.475	1554.85
983.774	1545.13
984.073	1528.86
984.372	1546.71
984.67	1555.07
984.969	1522.53
985.267	1529.08
985.566	1515.75
985.864	1499.93
986.162	1511.46
986.461	1484.11
986.759	1490.89
987.057	1501.06
987.355	1447.28
987.653	1463.32
987.951	1495.86
988.249	1466.03
988.547	1459.26
988.844	1453.83
989.142	1445.47
989.44	1449.99
989.737	1460.39
990.035	1434.4
990.332	1434.85
990.63	1442.08
990.927	1434.17
991.224	1443.21
991.521	1419.71
991.819	1411.12
992.116	1419.71
992.413	1370.44
992.71	1379.03
993.006	1379.03
993.303	1370.44
993.6	1370.9
993.897	1354.85
994.193	1360.95
994.49	1370.22
994.787	1330.9
995.083	1359.6
995.379	1324.8
995.676	1337.68
995.972	1334.06
996.268	1310.56
996.565	1314.63
996.861	1331.8
997.157	1307.85
997.453	1298.81
997.749	1316.89
998.044	1292.48
998.34	1284.12
998.636	1278.7
998.932	1280.05
999.227	1251.13
999.523	1224.91
999.818	1251.58
1000.114	1226.72
1000.409	1247.74
1000.704	1244.8
1001	1238.24
1001.295	1227.17
1001.59	1238.02
1001.885	1226.49
1002.18	1203.67
1002.475	1194.4
1002.77	1195.76
1003.065	1183.78
1003.359	1174.74
1003.654	1179.71
1003.949	1162.99
1004.243	1171.13
1004.538	1153.5
1004.832	1165.48
1005.127	1164.57
1005.421	1146.04
1005.715	1139.04
1006.009	1132.71
1006.304	1137.23
1006.598	1115.54
1006.892	1146.5
1007.186	1111.92
1007.48	1107.17
1007.773	1101.75
1008.067	1090.68
1008.361	1089.77
1008.655	1071.69
1008.948	1095.42
1009.242	1075.76
1009.535	1106.5
1009.829	1092.26
1010.122	1044.35
1010.415	1040.51
1010.708	1067.63
1011.001	1060.4
1011.295	1048.87
1011.588	1054.75
1011.881	1014.07
1012.173	1037.12
1012.466	1034.41
1012.759	1027.18
1013.052	1001.19
1013.344	1005.03
1013.637	1003.9
1013.93	1016.33
1014.222	978.14
1014.514	996.22
1014.807	1000.06
1015.099	977.46
1015.391	969.78
1015.683	978.14
1015.976	954.64
1016.268	982.66
1016.56	977.01
1016.851	946.5
1017.143	964.35
1017.435	954.86
1017.727	926.84
1018.018	943.56
1018.31	925.94
1018.602	936.56
1018.893	936.11
1019.185	933.39
1019.476	920.96
1019.767	900.4
1020.058	919.61
1020.35	904.24
1020.641	901.98
1020.932	910.8
1021.223	876.9
1021.514	862.21
1021.804	872.6
1022.095	889.33
1022.386	866.28
1022.677	853.17
1022.967	875.32
1023.258	846.62
1023.548	902.43
1023.839	830.8
1024.129	848.2
1024.419	828.54
1024.709	837.58
1025	810.23
1025.29	817.46
1025.58	819.27
1025.87	814.75
1026.16	806.39
1026.449	808.43
1026.739	805.49
1027.029	807.07
1027.319	765.04
1027.608	796.67
1027.898	788.76
1028.187	778.14
1028.477	766.84
1028.766	799.16
1029.055	772.49
1029.344	769.33
1029.634	765.49
1029.923	770.69
1030.212	735.21
1030.501	757.8
1030.79	760.97
1031.078	735.88
1031.367	747.64
1031.656	757.8
1031.945	758.71
1032.233	714.64
1032.522	741.08
1032.81	689.78
1033.099	709.44
1033.387	706.28
1033.675	717.81
1033.963	712.16
1034.251	724.81
1034.54	694.3
1034.828	703.8
1035.116	706.96
1035.403	689.56
1035.691	656.56
1035.979	692.27
1036.267	687.98
1036.554	671.93
1036.842	675.77
1037.129	659.28
1037.417	670.58
1037.704	701.31
1037.992	653.63
1038.279	657.47
1038.566	625.61
1038.853	625.61
1039.14	625.61
