Data from tablewood_dark_bookshelf_FLMS001491_00007.txt Node
Date: Wed Feb 08 14:13:20 GMT 2017
User: dcchb
Spectrometer: FLMS00149
Trigger mode: 0
Integration Time (sec): 2.000000E-2
Scans to average: 10
Electric dark correction enabled: true
Nonlinearity correction enabled: false
Boxcar width: 0
XAxis mode: Wavelengths
Number of Pixels in Spectrum: 2048
>>>>>Begin Spectral Data<<<<<
341.393	-0.95
341.776	-0.95
342.16	-0.95
342.543	-62.64
342.927	-61.96
343.31	-63.09
343.693	-51.11
344.077	-58.8
344.46	-71
344.843	-46.14
345.226	-40.04
345.61	-17.22
345.993	-23.09
346.376	-20.83
346.759	4.25
347.142	21.2
347.525	37.7
347.908	69.56
348.291	57.36
348.674	86.74
349.057	114.53
349.44	120.63
349.823	141.87
350.206	161.08
350.588	181.42
350.971	197.69
351.354	231.14
351.737	245.15
352.119	257.35
352.502	259.84
352.884	280.85
353.267	281.98
353.65	300.74
354.032	306.39
354.414	279.72
354.797	295.77
355.179	308.42
355.562	314.07
355.944	321.53
356.326	335.09
356.709	337.12
357.091	330.12
357.473	340.06
357.855	337.12
358.238	321.76
358.62	345.26
359.002	335.54
359.384	348.2
359.766	371.93
360.148	328.08
360.53	344.81
360.912	348.2
361.294	324.92
361.676	324.69
362.057	334.19
362.439	330.57
362.821	344.81
363.203	341.19
363.584	331.93
363.966	348.42
364.348	325.37
364.729	338.48
365.111	331.7
365.493	335.32
365.874	316.79
366.256	321.31
366.637	333.73
367.019	311.14
367.4	326.95
367.781	326.95
368.163	320.85
368.544	305.71
368.925	313.4
369.306	346.84
369.688	330.34
370.069	335.99
370.45	312.27
370.831	334.64
371.212	328.31
371.593	335.09
371.974	317.69
372.355	331.7
372.736	300.51
373.117	333.73
373.498	317.69
373.879	333.96
374.26	335.32
374.641	333.06
375.021	332.83
375.402	349.55
375.783	357.24
376.163	375.54
376.544	345.49
376.925	347.07
377.305	332.6
377.686	361.3
378.066	358.59
378.447	370.12
378.827	333.73
379.208	385.71
379.588	371.47
379.968	363.56
380.349	368.54
380.729	369.89
381.109	371.7
381.489	338.25
381.87	365.6
382.25	368.31
382.63	359.5
383.01	396.78
383.39	379.83
383.77	375.31
384.15	368.54
384.53	377.12
384.91	375.99
385.29	385.71
385.67	383.22
386.049	397.69
386.429	408.31
386.809	415.77
387.189	395.43
387.568	410.79
387.948	383.22
388.328	397.69
388.707	411.7
389.087	425.48
389.466	427.52
389.846	421.19
390.225	411.92
390.605	427.29
390.984	425.71
391.363	421.64
391.743	428.65
392.122	441.98
392.501	434.52
392.881	408.08
393.26	455.76
393.639	449.21
394.018	449.44
394.397	446.95
394.776	457.35
395.155	443.34
395.534	468.65
395.913	456.67
396.292	466.84
396.671	457.35
397.05	446.5
397.429	483.79
397.808	472.26
398.186	456.44
398.565	488.08
398.944	463.9
399.323	494.86
399.701	472.04
400.08	478.14
400.458	499.83
400.837	494.18
401.215	501.87
401.594	461.19
401.972	481.07
402.351	500.51
402.729	518.14
403.107	506.16
403.486	506.38
403.864	511.13
404.242	541.64
404.62	531.47
404.999	538.7
405.377	535.31
405.755	538.47
406.133	555.42
406.511	525.59
406.889	526.27
407.267	550.68
407.645	560.85
408.023	570.11
408.401	586.38
408.779	606.04
409.156	572.6
409.534	594.97
409.912	588.64
410.29	608.3
410.667	622.31
411.045	618.7
411.422	613.95
411.8	608.3
412.178	639.71
412.555	636.55
412.933	639.71
413.31	625.93
413.687	633.16
414.065	646.49
414.442	668.41
414.819	662.31
415.197	674.29
415.574	699.37
415.951	683.78
416.328	700.05
416.705	696.44
417.082	698.7
417.46	709.32
417.837	709.54
418.214	689.88
418.591	709.54
418.967	724.68
419.344	748.64
419.721	734.63
420.098	740.28
420.475	745.47
420.852	772.37
421.228	765.36
421.605	765.81
421.982	758.13
422.358	766.04
422.735	780.5
423.111	796.09
423.488	803.33
423.864	776.66
424.241	783.44
424.617	804.91
424.994	803.33
425.37	832.93
425.746	841.29
426.123	846.49
426.499	862.99
426.875	858.47
427.251	872.03
427.627	879.48
428.003	896.43
428.379	896.43
428.756	901.18
429.132	931.23
429.507	925.36
429.883	913.38
430.259	944.34
430.635	944.34
431.011	954.28
431.387	953.6
431.763	1012.59
432.138	984.56
432.514	1011.46
432.89	1007.61
433.265	1020.5
433.641	1072.25
434.016	1030.66
434.392	1079.48
434.767	1099.82
435.143	1093.26
435.518	1083.09
435.894	1085.8
436.269	1114.5
436.644	1128.06
437.02	1129.87
437.395	1151.57
437.77	1131.68
438.145	1168.29
438.52	1159.25
438.895	1184.56
439.271	1173.94
439.646	1218.68
440.021	1214.39
440.395	1210.77
440.77	1244.67
441.145	1256.42
441.52	1265.24
441.895	1253.03
442.27	1278.12
442.645	1281.51
443.019	1252.35
443.394	1281.96
443.769	1297.1
444.143	1306.59
444.518	1347.72
444.892	1323.99
445.267	1307.27
445.641	1336.87
446.016	1317.44
446.39	1377.55
446.764	1376.64
447.139	1342.3
447.513	1371.9
447.887	1388.62
448.262	1394.27
448.636	1378.23
449.01	1437.43
449.384	1391.11
449.758	1416.19
450.132	1428.39
450.506	1462.52
450.88	1481.5
451.254	1469.98
451.628	1488.05
452.002	1517.88
452.376	1505.45
452.75	1511.56
453.123	1530.09
453.497	1569.86
453.871	1575.96
454.244	1588.39
454.618	1605.57
454.992	1622.51
455.365	1655.96
455.739	1667.94
456.112	1692.34
456.486	1701.16
456.859	1724.21
457.232	1730.99
457.606	1764.88
457.979	1793.81
458.352	1789.29
458.725	1820.47
459.099	1814.37
459.472	1864.77
459.845	1878.1
460.218	1890.76
460.591	1907.48
460.964	1884.2
461.337	1966.46
461.71	2000.58
462.083	1992.45
462.456	2037.42
462.829	2042.39
463.201	2058.66
463.574	2067.47
463.947	2106.12
464.32	2138.43
464.692	2163.97
465.065	2198.54
465.438	2189.96
465.81	2220.92
466.183	2282.38
466.555	2317.18
466.928	2295.49
467.3	2308.37
467.672	2368.26
468.045	2417.3
468.417	2419.78
468.789	2454.36
469.161	2449.84
469.534	2482.83
469.906	2554.47
470.278	2524.41
470.65	2570.74
471.022	2642.83
471.394	2638.31
471.766	2738.64
472.138	2723.05
472.51	2787.45
472.882	2838.53
473.253	2833.56
473.625	2912.88
473.997	2964.4
474.369	2961.01
474.74	3023.38
475.112	3033.55
475.484	3149.93
475.855	3159.65
476.227	3169.82
476.598	3285.52
476.97	3302.7
477.341	3347.67
477.713	3439.64
478.084	3407.1
478.455	3525.74
478.827	3527.77
479.198	3620.43
479.569	3651.84
479.94	3752.4
480.311	3742.91
480.682	3889.12
481.053	3944.71
481.424	3995.56
481.795	4057.48
482.166	4087.31
482.537	4155.78
482.908	4234.65
483.279	4269.22
483.65	4337.02
484.021	4366.62
484.391	4494.98
484.762	4517.8
485.133	4546.05
485.503	4608.42
485.874	4759.15
486.244	4764.13
486.615	4829.21
486.985	4864.91
487.356	5016.32
487.726	5053.84
488.097	5103.1
488.467	5174.96
488.837	5242.31
489.207	5256.09
489.578	5381.96
489.948	5421.51
490.318	5515.07
490.688	5533.15
491.058	5630.54
491.428	5697.66
491.798	5756.64
492.168	5866.92
492.538	5853.14
492.908	5920.71
493.278	6049.52
493.648	6020.59
494.017	6109.18
494.387	6136.97
494.757	6255.84
495.126	6304.88
495.496	6294.93
495.866	6385.78
496.235	6401.15
496.605	6482.5
496.974	6513.68
497.344	6528.37
497.713	6570.63
498.082	6608.82
498.452	6766.33
498.821	6758.88
499.19	6782.38
499.559	6880.23
499.928	6891.3
500.298	6922.71
500.667	7007.68
501.036	7060.11
501.405	7084.97
501.774	7096.04
502.143	7167.68
502.512	7204.97
502.88	7295.36
503.249	7359.76
503.618	7336.49
503.987	7394.34
504.356	7480.89
504.724	7531.51
505.093	7558.18
505.462	7609.48
505.83	7661.23
506.199	7717.49
506.567	7752.3
506.936	7792.52
507.304	7898.96
507.672	7932.86
508.041	7950.48
508.409	8064.6
508.777	8171.04
509.145	8175.34
509.514	8149.8
509.882	8253.07
510.25	8289.46
510.618	8347.08
510.986	8437.25
511.354	8500.53
511.722	8545.72
512.09	8640.18
512.458	8663.23
512.826	8739.84
513.193	8824.81
513.561	8842.89
513.929	8957.91
514.297	9035.88
514.664	9051.02
515.032	9121.75
515.4	9117.68
515.767	9157
516.135	9236.55
516.502	9218.02
516.869	9377.34
517.237	9472.93
517.604	9473.83
517.972	9593.6
518.339	9635.18
518.706	9633.83
519.073	9741.85
519.44	9827.04
519.808	9890.55
520.175	9968.96
520.542	10068.85
520.909	10076.75
521.276	10053.25
521.643	10241.27
522.009	10314.04
522.376	10369.4
522.743	10497.53
523.11	10561.26
523.477	10702.5
523.843	10775.49
524.21	10837.64
524.577	10957.41
524.943	10986.56
525.31	11021.14
525.676	11094.81
526.043	11210.74
526.409	11287.34
526.776	11443.27
527.142	11433.33
527.508	11459.32
527.874	11617.28
528.241	11658.18
528.607	11785.86
528.973	11846.88
529.339	11846.2
529.705	12012.98
530.071	12095.01
530.437	12162.58
530.803	12156.02
531.169	12330.93
531.535	12263.14
531.901	12406.86
532.267	12414.77
532.632	12411.83
532.998	12593.07
533.364	12684.82
533.73	12733.63
534.095	12745.84
534.461	12853.86
534.826	12920.75
535.192	12946.74
535.557	13064.7
535.923	13122.78
536.288	13096.79
536.653	13200.74
537.019	13140.86
537.384	13303.56
537.749	13283.45
538.114	13374.97
538.479	13435.99
538.845	13512.14
539.21	13453.16
539.575	13559.15
539.94	13633.95
540.305	13718.24
540.67	13682.76
541.034	13824.68
541.399	13897.22
541.764	13862.19
542.129	13928.18
542.494	14008.18
542.858	14080.94
543.223	13955.97
543.587	14111.9
543.952	14073.71
544.316	14148.74
544.681	14168.17
545.045	14291.11
545.41	14420.6
545.774	14355.29
546.138	14379.69
546.503	14417.21
546.867	14398.22
547.231	14603.42
547.595	14667.82
547.959	14666.46
548.324	14782.17
548.688	14818.78
549.052	14838.44
549.416	14935.61
549.779	14885.89
550.143	14962.28
550.507	15036.62
550.871	15235.72
551.235	15208.82
551.599	15252.66
551.962	15313
552.326	15357.97
552.689	15448.36
553.053	15458.99
553.417	15555.48
553.78	15636.16
554.143	15634.35
554.507	15696.49
554.87	15810.16
555.234	15963.83
555.597	15879.54
555.96	15964.51
556.323	16051.74
556.686	16068.69
557.05	16228.91
557.413	16151.62
557.776	16318.4
558.139	16409.92
558.502	16488.79
558.865	16488.56
559.228	16568.79
559.59	16607.88
559.953	16715.45
560.316	16840.19
560.679	16908.44
561.041	17094.2
561.404	17093.75
561.767	17184.82
562.129	17190.92
562.492	17362.66
562.854	17353.63
563.217	17461.19
563.579	17539.84
563.941	17630.91
564.304	17665.71
564.666	17823.9
565.028	17880.17
565.39	17962.42
565.753	18020.5
566.115	18111.8
566.477	18158.12
566.839	18253.26
567.201	18349.98
567.563	18439.92
567.925	18523.31
568.287	18668.17
568.648	18658
569.01	18684.66
569.372	18811.67
569.734	18845.79
570.095	18978.44
570.457	19035.39
570.819	19029.29
571.18	19122.62
571.542	19283.07
571.903	19272.45
572.265	19486.68
572.626	19434.25
572.987	19596.96
573.349	19588.37
573.71	19728.25
574.071	19771.87
574.432	19859.77
574.794	19969.15
575.155	20047.79
575.516	20006.89
575.877	20091.86
576.238	20203.27
576.599	20176.38
576.96	20335.24
577.32	20203.04
577.681	20405.07
578.042	20511.06
578.403	20525.07
578.763	20474.45
579.124	20586.08
579.485	20659.3
579.845	20781.78
580.206	20692.07
580.566	20777.04
580.927	20896.58
581.287	21021.33
581.648	20840.77
582.008	20982.46
582.368	21069.46
582.728	21055.68
583.089	21105.17
583.449	21108.78
583.809	21174.77
584.169	21172.73
584.529	21215.67
584.889	21359.62
585.249	21256.57
585.609	21289.79
585.969	21341.77
586.329	21333.41
586.688	21349.23
587.048	21434.87
587.408	21337.7
587.768	21414.54
588.127	21426.51
588.487	21441.88
588.846	21537.92
589.206	21505.61
589.565	21577.24
589.925	21691.59
590.284	21666.05
590.643	21685.49
591.003	21676.9
591.362	21809.1
591.721	21811.14
592.08	21805.71
592.44	21853.17
592.799	21894.07
593.158	21944.47
593.517	21883.68
593.876	21945.82
594.235	21969.55
594.593	22035.76
594.952	22049.55
595.311	22015.88
595.67	22110.34
596.029	22205.25
596.387	22208.87
596.746	22276.43
597.104	22146.72
597.463	22095.42
597.822	22301.29
598.18	22237.11
598.538	22143.33
598.897	22418.58
599.255	22274.85
599.613	22662.86
599.972	22451.34
600.33	22515.75
600.688	22315.08
601.046	22556.65
601.404	22694.73
601.762	22593.04
602.12	22609.76
602.478	22523.43
602.836	22737.21
603.194	22560.95
603.552	22706.71
603.91	22642.3
604.268	22684.11
604.625	22666.25
604.983	22833.93
605.341	22671.9
605.698	22888.85
606.056	22972.46
606.413	22902.41
606.771	23052.68
607.128	23019.24
607.485	22931.11
607.843	22949.64
608.2	23065.57
608.557	23238.44
608.914	23060.14
609.272	23181.27
609.629	23277.09
609.986	23381.72
610.343	23179.01
610.7	23387.82
611.057	23475.95
611.414	23397.99
611.771	23290.64
612.127	23583.29
612.484	23443.18
612.841	23565.44
613.198	23456.97
613.554	23458.55
613.911	23699
614.267	23631.88
614.624	23564.31
614.98	23668.71
615.337	23804.76
615.693	23758.88
616.05	23794.81
616.406	23901.7
616.762	23690.86
617.118	23829.39
617.475	23756.4
617.831	23943.96
618.187	24028.25
618.543	24057.18
618.899	24145.54
619.255	24093.11
619.611	24098.76
619.967	24279.77
620.323	24174.69
620.678	24039.1
621.034	23972.89
621.39	23946.45
621.746	24000.91
622.101	24275.48
622.457	24079.78
622.812	24080.23
623.168	24188.93
623.523	24316.83
623.879	24222.6
624.234	24115.71
624.589	24197.97
624.945	24225.08
625.3	24203.84
625.655	24291.75
626.01	24309.83
626.365	24183.95
626.72	24230.73
627.075	24102.15
627.43	24199.55
627.785	24156.16
628.14	24243.61
628.495	24237.51
628.85	24196.38
629.205	24120
629.559	24259.88
629.914	24132.88
630.269	24143.05
630.623	24046.56
630.978	24055.14
631.332	24145.09
631.687	24138.53
632.041	24021.02
632.396	24134.92
632.75	24039.78
633.104	23922.94
633.459	23910.97
633.813	23998.2
634.167	23988.03
634.521	23790.07
634.875	23952.55
635.229	23934.47
635.583	23784.64
635.937	23768.37
636.291	23738.54
636.645	23848.82
636.999	23814.7
637.352	23859.44
637.706	23738.32
638.06	23705.55
638.413	23720.92
638.767	23753.46
639.121	23556.17
639.474	23514.14
639.828	23489.74
640.181	23570.64
640.534	23667.81
640.888	23513.01
641.241	23448.61
641.594	23501.71
641.947	23519.34
642.301	23469.4
642.654	23466.01
643.007	23482.96
643.36	23426.23
643.713	23325.67
644.066	23427.82
644.419	23262.62
644.771	23176.98
645.124	22964.1
645.477	22909.41
645.83	22736.76
646.182	22704.22
646.535	22615.18
646.888	22491.8
647.24	22375.64
647.593	22633.71
647.945	22544.9
648.298	22422.87
648.65	22471.01
649.002	22295.87
649.355	22527.05
649.707	22551.68
650.059	22516.43
650.411	22738.34
650.763	22739.47
651.115	23068.5
651.467	22910.77
651.819	22906.02
652.171	22775.4
652.523	22860.37
652.875	22844.55
653.227	22634.16
653.578	22937.21
653.93	22898.79
654.282	22814.72
654.633	22697.67
654.985	22765.46
655.337	22632.13
655.688	22769.3
656.039	22762.07
656.391	22569.76
656.742	22659.25
657.094	22639.59
657.445	22736.76
657.796	22699.02
658.147	22626.93
658.498	22776.99
658.849	22781.51
659.2	22668.97
659.551	22611.11
659.902	22653.15
660.253	22598.91
660.604	22767.27
660.955	22534.28
661.306	22706.71
661.656	22571.57
662.007	22559.14
662.358	22631.68
662.708	22671.9
663.059	22576.09
663.409	22430.78
663.76	22612.92
664.11	22718.91
664.461	22668.97
664.811	22506.48
665.161	22659.47
665.511	22488.86
665.862	22467.16
666.212	22563.43
666.562	22532.47
666.912	22548.97
667.262	22519.14
667.612	22531.79
667.962	22547.16
668.312	22461.51
668.662	22716.2
669.011	22543.77
669.361	22517.33
669.711	22509.65
670.06	22510.55
670.41	22409.76
670.76	22407.73
671.109	22475.07
671.459	22394.62
671.808	22333.38
672.157	22485.24
672.507	22152.82
672.856	22316.43
673.205	22315.08
673.554	22385.36
673.904	22314.17
674.253	22361.63
674.602	22280.05
674.951	22019.27
675.3	21886.16
675.649	22395.75
675.998	22252.71
676.346	22300.39
676.695	22461.06
677.044	22184.91
677.393	22219.03
677.741	22308.75
678.09	22226.72
678.438	22083.67
678.787	22217.9
679.135	22087.74
679.484	22093.61
679.832	22121.64
680.181	22069.43
680.529	22180.39
680.877	22114.86
681.225	22002.32
681.573	22220.39
681.922	21986.27
682.27	21924.8
682.618	21930
682.966	21831.7
683.314	22041.86
683.661	21831.47
684.009	21812.49
684.357	21810.23
684.705	21616.56
685.053	21673.06
685.4	21730.01
685.748	21519.62
686.095	21589.22
686.443	21485.49
686.79	21585.15
687.138	21487.75
687.485	21525.27
687.832	21390.36
688.18	21488.21
688.527	21295.67
688.874	21239.85
689.221	21228.55
689.568	21191.04
689.915	21136.8
690.262	21162.11
690.609	21076.92
690.956	20950.37
691.303	20983.36
691.65	20837.6
691.997	20849.35
692.344	20750.37
692.69	20720.54
693.037	20721.45
693.383	20566.42
693.73	20645.52
694.077	20501.11
694.423	20487.55
694.769	20443.94
695.116	20404.84
695.462	20383.6
695.808	20332.08
696.155	20359.2
696.501	20252.08
696.847	20174.12
697.193	20119.43
697.539	20236.26
697.885	20008.47
698.231	20024.06
698.577	20046.66
698.923	19999.21
699.269	19789.04
699.614	19758.76
699.96	19679.67
700.306	19720.12
700.651	19673.11
700.997	19602.15
701.342	19477.41
701.688	19478.09
702.033	19443.74
702.379	19444.42
702.724	19461.14
703.069	19443.97
703.415	19151.77
703.76	19215.72
704.105	19244.65
704.45	19167.59
704.795	19022.06
705.14	19011.89
705.485	19101.15
705.83	18888.5
706.175	18928.05
706.52	18830.87
706.865	18681.5
707.209	18820.25
707.554	18665.68
707.899	18801.5
708.243	18561.05
708.588	18544.33
708.932	18533.71
709.277	18542.97
709.621	18509.98
709.966	18390.43
710.31	18535.74
710.654	18304.34
710.998	18273.15
711.342	18336.65
711.687	18208.74
712.031	18207.84
712.375	18120.39
712.719	18109.76
713.063	18112.93
713.407	18195.41
713.75	18085.13
714.094	18054.62
714.438	18000.84
714.782	18007.85
715.125	17932.37
715.469	17912.03
715.812	17850.11
716.156	17789.55
716.499	17750.68
716.843	17819.15
717.186	17743.22
717.53	17763.56
717.873	17730.56
718.216	17814.18
718.559	17711.81
718.902	17558.14
719.246	17639.49
719.589	17488.09
719.932	17466.84
720.275	17499.61
720.617	17461.19
720.96	17428.2
721.303	17395.88
721.646	17468.42
721.989	17238.15
722.331	17361.31
722.674	17317.69
723.016	17305.94
723.359	17257.81
723.701	17397.01
724.044	17232.5
724.386	17126.96
724.729	17300.52
725.071	17232.72
725.413	17231.59
725.755	17176
726.097	17099.4
726.439	17015.78
726.782	17084.93
727.124	17074.31
727.465	16974.43
727.807	17015.78
728.149	16945.73
728.491	17012.17
728.833	16967.42
729.175	16859.18
729.516	16875.67
729.858	16920.42
730.199	16913.64
730.541	16892.17
730.882	16801.32
731.224	16852.62
731.565	16724.72
731.906	16650.14
732.248	16827.31
732.589	16726.98
732.93	16766.75
733.271	16706.64
733.612	16661.67
733.953	16695.34
734.294	16595.91
734.635	16583.7
734.976	16621.67
735.317	16561.78
735.658	16599.07
735.999	16552.06
736.339	16531.5
736.68	16510.03
737.021	16436.59
737.361	16475.46
737.702	16513.65
738.042	16485.17
738.383	16448.11
738.723	16437.49
739.063	16444.95
739.404	16368.57
739.744	16329.47
740.084	16318.17
740.424	16386.87
740.764	16269.81
741.104	16378.96
741.444	16246.76
741.784	16285.18
742.124	16301.68
742.464	16164.05
742.804	16190.94
743.143	16115.69
743.483	16230.94
743.823	16133.32
744.162	16192.98
744.502	16129.93
744.841	16137.84
745.181	16149.14
745.52	16096.94
745.86	16094.22
746.199	16107.78
746.538	16064.62
746.877	16006.77
747.216	16082.25
747.556	15998.41
747.895	15935.13
748.234	15938.97
748.573	15833.89
748.911	15887.45
749.25	15885.64
749.589	15847.22
749.928	15906.43
750.267	15836.6
750.605	15849.26
750.944	15774.91
751.283	15739.43
751.621	15750.5
751.96	15687.91
752.298	15712.99
752.636	15676.38
752.975	15682.71
753.313	15577.18
753.651	15636.83
753.989	15575.82
754.327	15575.37
754.666	15505.76
755.004	15544.63
755.342	15513.9
755.679	15478.87
756.017	15358.65
756.355	15409.95
756.693	15335.15
757.031	15346.67
757.368	15293.11
757.706	15254.92
758.044	15177.19
758.381	15214.47
758.719	15214.47
759.056	15106.23
759.394	15116.17
759.731	14988.26
760.068	14952.33
760.405	14914.14
760.743	14838.21
761.08	14879.34
761.417	14757.76
761.754	14795.05
762.091	14687.48
762.428	14688.38
762.765	14663.07
763.102	14658.33
763.438	14580.59
763.775	14547.37
764.112	14507.6
764.449	14388.51
764.785	14375.85
765.122	14365.46
765.458	14329.07
765.795	14299.24
766.131	14185.57
766.467	14160.94
766.804	14081.62
767.14	14008.4
767.476	13991.23
767.812	13969.76
768.148	14010.89
768.485	13902.19
768.821	13794.4
769.157	13684.34
769.492	13795.53
769.828	13749.88
770.164	13675.53
770.5	13629.2
770.836	13603.44
771.171	13490.68
771.507	13462.43
771.842	13394.41
772.178	13390.57
772.513	13282.55
772.849	13346.27
773.184	13275.77
773.519	13252.94
773.855	13176.11
774.19	13142.44
774.525	13130.01
774.86	13099.95
775.195	13021.31
775.53	12917.81
775.865	12929.34
776.2	12842.11
776.535	12727.53
776.87	12812.28
777.205	12704.93
777.539	12586.97
777.874	12645.5
778.209	12530.25
778.543	12528.89
778.878	12492.28
779.212	12477.14
779.547	12364.6
779.881	12386.98
780.215	12229.92
780.55	12306.53
780.884	12253.87
781.218	12199.18
781.552	12171.84
781.886	12084.61
782.22	12088.45
782.554	12042.13
782.888	11854.34
783.222	11849.36
783.556	11783.83
783.889	11766.43
784.223	11746.99
784.557	11673.1
784.89	11637.62
785.224	11623.15
785.557	11463.39
785.891	11465.64
786.224	11483.5
786.558	11442.14
786.891	11367.57
787.224	11375.03
787.557	11246.22
787.891	11362.6
788.224	11195.37
788.557	11231.3
788.89	11165.31
789.223	11217.52
789.556	11093.9
789.888	11074.02
790.221	10940.46
790.554	10952.44
790.887	10974.81
791.219	10946.34
791.552	10843.74
791.884	10784.76
792.217	10787.92
792.549	10734.59
792.882	10641.49
793.214	10568.95
793.546	10672.67
793.879	10587.25
794.211	10468.83
794.543	10514.48
794.875	10459.12
795.207	10457.08
795.539	10484.88
795.871	10393.36
796.203	10290.08
796.535	10238.78
796.867	10211.21
797.198	10272.68
797.53	10295.28
797.862	10141.61
798.193	10185.68
798.525	10172.8
798.856	10150.43
799.188	10052.35
799.519	9979.13
799.85	9985.46
800.182	9963.54
800.513	9923.54
800.844	9864.11
801.175	9858.23
801.506	9847.61
801.837	9811.23
802.168	9779.36
802.499	9744.79
802.83	9703.88
803.161	9673.15
803.491	9717.89
803.822	9665.92
804.153	9540.5
804.483	9513.15
804.814	9538.24
805.145	9486.71
805.475	9420.05
805.805	9435.64
806.136	9373.04
806.466	9413.04
806.796	9360.84
807.126	9273.39
807.457	9285.36
807.787	9256.66
808.117	9232.03
808.447	9180.28
808.777	9235.42
809.107	9220.51
809.436	9133.5
809.766	9168.3
810.096	9081.53
810.426	9033.39
810.755	9057.57
811.085	9009.89
811.414	9001.08
811.744	8919.5
812.073	8887.63
812.403	8896.45
812.732	8851.25
813.061	8844.92
813.39	8756.56
813.719	8760.63
814.049	8822.55
814.378	8810.35
814.707	8730.8
815.036	8754.76
815.365	8657.13
815.693	8657.58
816.022	8654.19
816.351	8642.67
816.68	8586.17
817.008	8592.95
817.337	8495.33
817.665	8508.43
817.994	8483.8
818.322	8441.54
818.651	8463.69
818.979	8376.46
819.307	8453.29
819.636	8435.22
819.964	8420.08
820.292	8389.57
820.62	8380.98
820.948	8324.03
821.276	8405.39
821.604	8383.01
821.932	8371.71
822.259	8323.35
822.587	8359.96
822.915	8224.37
823.243	8356.57
823.57	8271.38
823.898	8383.47
824.225	8315.9
824.553	8329.68
824.88	8284.03
825.207	8343.92
825.535	8336.91
825.862	8347.31
826.189	8261.21
826.516	8374.88
826.843	8361.77
827.17	8283.81
827.497	8334.2
827.824	8322.9
828.151	8273.86
828.478	8262.34
828.805	8312.73
829.131	8333.07
829.458	8251.72
829.785	8247.88
830.111	8267.31
830.438	8285.16
830.764	8300.76
831.09	8283.13
831.417	8223.92
831.743	8312.06
832.069	8283.58
832.395	8280.42
832.722	8231.15
833.048	8241.55
833.374	8208.1
833.7	8181.89
834.026	8197.71
834.351	8210.82
834.677	8239.74
835.003	8151.16
835.329	8146.64
835.654	8185.51
835.98	8136.92
836.306	8135.79
836.631	8115.68
836.956	8135.56
837.282	8100.31
837.607	8062.12
837.932	8044.04
838.258	7978.96
838.583	8002.69
838.908	8053.08
839.233	7996.13
839.558	7973.08
839.883	7979.41
840.208	7962.23
840.533	7996.58
840.858	7941.9
841.182	8002.46
841.507	7903.03
841.832	7940.99
842.156	7905.29
842.481	7861.45
842.805	7869.13
843.13	7816.48
843.454	7739.42
843.778	7741.9
844.103	7772.86
844.427	7787.55
844.751	7708.46
845.075	7749.58
845.399	7728.34
845.723	7637.5
846.047	7687.44
846.371	7592.53
846.695	7562.92
847.019	7511.17
847.343	7521.12
847.666	7491.74
847.99	7439.76
848.313	7373.78
848.637	7363.38
848.96	7382.36
849.284	7385.53
849.607	7308.24
849.931	7324.51
850.254	7298.97
850.577	7178.98
850.9	7121.35
851.223	7139.43
851.546	7123.16
851.869	7087.23
852.192	7136.72
852.515	7051.07
852.838	7028.93
853.161	7044.52
853.483	7017.4
853.806	7008.59
854.129	6942.15
854.451	6896.5
854.774	6865.99
855.096	6905.99
855.419	6871.64
855.741	6835.03
856.063	6824.18
856.385	6802.94
856.708	6745.09
857.03	6734.24
857.352	6724.07
857.674	6728.37
857.996	6703.74
858.318	6683.62
858.64	6611.08
858.961	6639.56
859.283	6605.89
859.605	6602.5
859.926	6615.83
860.248	6624.87
860.57	6582.16
860.891	6560.69
861.212	6557.75
861.534	6501.26
861.855	6459.67
862.176	6491.54
862.498	6491.09
862.819	6531.54
863.14	6481.6
863.461	6430.97
863.782	6409.28
864.103	6420.13
864.424	6329.51
864.745	6346.46
865.065	6382.84
865.386	6405.89
865.707	6335.84
866.027	6316.63
866.348	6331.54
866.668	6336.97
866.989	6307.36
867.309	6272.34
867.63	6275.95
867.95	6289.96
868.27	6304.65
868.59	6313.01
868.91	6236.86
869.23	6264.43
869.55	6240.47
869.87	6276.4
870.19	6214.03
870.51	6217.65
870.83	6252.22
871.15	6213.13
871.469	6202.05
871.789	6178.78
872.109	6178.55
872.428	6122.73
872.748	6185.33
873.067	6099.01
873.386	6166.35
873.706	6089.97
874.025	6113.92
874.344	6110.08
874.663	6102.4
874.982	6102.62
875.301	6093.58
875.62	6063.98
875.939	6044.77
876.258	6106.92
876.577	6012.23
876.896	6036.64
877.214	6000.03
877.533	6045.22
877.852	5989.63
878.17	5950.99
878.489	6019.01
878.807	5979.69
879.125	5953.93
879.444	6017.2
879.762	5971.1
880.08	5970.87
880.398	5866.7
880.716	5941.04
881.034	5856.07
881.352	5852.69
881.67	5837.77
881.988	5896.3
882.306	5877.09
882.624	5839.35
882.941	5825.79
883.259	5777.66
883.577	5795.29
883.894	5784.21
884.212	5733.82
884.529	5760.71
884.846	5751.22
885.164	5719.36
885.481	5713.25
885.798	5742.63
886.115	5726.59
886.432	5732.24
886.75	5698.79
887.067	5681.39
887.383	5677.55
887.7	5628.06
888.017	5635.97
888.334	5646.36
888.651	5553.94
888.967	5630.54
889.284	5602.07
889.6	5564.78
889.917	5548.74
890.233	5514.39
890.55	5516.87
890.866	5547.83
891.182	5502.19
891.498	5478.01
891.815	5487.27
892.131	5449.76
892.447	5459.25
892.763	5457.89
893.079	5396.88
893.395	5434.39
893.71	5421.74
894.026	5385.58
894.342	5369.31
894.657	5330.66
894.973	5286.37
895.289	5321.85
895.604	5309.2
895.92	5270.33
896.235	5240.95
896.55	5220.61
896.865	5254.51
897.181	5199.37
897.496	5272.59
897.811	5202.98
898.126	5222.87
898.441	5173.15
898.756	5098.58
899.071	5115.3
899.386	5100.16
899.7	5114.4
900.015	5074.63
900.33	5020.84
900.644	5050.67
900.959	5063.78
901.273	4983.33
901.588	4981.3
901.902	4955.99
902.216	4983.78
902.531	4957.34
902.845	4918.47
903.159	4864.46
903.473	4903.33
903.787	4853.62
904.101	4860.39
904.415	4874.41
904.729	4817.46
905.042	4801.19
905.356	4804.8
905.67	4764.58
905.984	4802.09
906.297	4792.83
906.611	4750.57
906.924	4795.76
907.237	4703.34
907.551	4717.12
907.864	4693.62
908.177	4639.38
908.491	4652.72
908.804	4661.76
909.117	4600.06
909.43	4583.79
909.743	4603.23
910.056	4588.76
910.368	4595.32
910.681	4580.4
910.994	4547.18
911.307	4499.27
911.619	4498.82
911.932	4500.18
912.244	4457.24
912.557	4462.67
912.869	4397.13
913.181	4405.49
913.494	4426.51
913.806	4381.76
914.118	4320.75
914.43	4333.4
914.742	4373.63
915.054	4330.47
915.366	4328.66
915.678	4297.02
915.99	4252.95
916.302	4240.52
916.613	4220.19
916.925	4214.54
917.236	4229.22
917.548	4164.14
917.859	4214.99
918.171	4165.05
918.482	4106.29
918.794	4123.24
919.105	4126.4
919.416	4026.52
919.727	4044.15
920.038	4047.53
920.349	4045.5
920.66	3991.72
920.971	4051.15
921.282	4025.61
921.593	4000.3
921.903	3980.64
922.214	3974.32
922.525	3931.38
922.835	3897.93
923.146	3909.91
923.456	3900.42
923.767	3859.74
924.077	3889.12
924.387	3859.74
924.697	3844.83
925.008	3813.19
925.318	3834.89
925.628	3802.8
925.938	3756.47
926.248	3760.08
926.558	3708.33
926.867	3689.58
927.177	3720.54
927.487	3673.99
927.796	3691.61
928.106	3658.62
928.416	3632.4
928.725	3649.13
929.034	3635.34
929.344	3639.86
929.653	3618.85
929.962	3605.96
930.271	3549.02
930.581	3564.84
930.89	3544.72
931.199	3546.53
931.508	3564.61
931.817	3515.35
932.125	3500.43
932.434	3492.75
932.743	3485.29
933.051	3475.8
933.36	3419.53
933.669	3391.96
933.977	3425.63
934.286	3415.91
934.594	3418.85
934.902	3383.37
935.21	3362.13
935.519	3382.02
935.827	3324.84
936.135	3356.93
936.443	3316.93
936.751	3308.35
937.059	3278.97
937.367	3265.18
937.674	3322.58
937.982	3275.58
938.29	3239.87
938.597	3260.44
938.905	3210.27
939.213	3189.03
939.52	3193.32
939.827	3174.34
940.135	3156.94
940.442	3179.76
940.749	3162.36
941.056	3185.86
941.363	3078.97
941.67	3141.8
941.977	3116.71
942.284	3062.7
942.591	3058.18
942.898	3064.96
943.205	3067.9
943.511	2998.07
943.818	3034.68
944.125	3004.85
944.431	3007.56
944.738	3018.41
945.044	2973.89
945.35	2970.5
945.657	2955.59
945.963	2968.69
946.269	2939.77
946.575	2926.21
946.881	2909.71
947.187	2904.74
947.493	2907.23
947.799	2883.5
948.105	2883.5
948.41	2845.31
948.716	2864.52
949.022	2801.24
949.327	2808.92
949.633	2811.41
949.938	2813.22
950.244	2826.55
950.549	2779.55
950.854	2720.11
951.16	2765.99
951.465	2754.69
951.77	2744.97
952.075	2767.79
952.38	2720.34
952.685	2725.54
952.99	2693.67
953.294	2693.67
953.599	2670.85
953.904	2675.82
954.209	2650.74
954.513	2630.85
954.818	2663.39
955.122	2614.58
955.426	2607.8
955.731	2632.66
956.035	2597.63
956.339	2593.56
956.643	2616.61
956.948	2528.7
957.252	2549.72
957.556	2563.51
957.86	2527.35
958.163	2558.53
958.467	2496.62
958.771	2536.84
959.075	2511.98
959.378	2487.58
959.682	2507.01
959.985	2478.54
960.289	2453.68
960.592	2413.68
960.896	2439.67
961.199	2438.99
961.502	2385.66
961.805	2357.86
962.108	2396.73
962.411	2368.26
962.714	2392.44
963.017	2377.97
963.32	2357.18
963.623	2391.08
963.926	2375.04
964.228	2349.5
964.531	2333.46
964.833	2332.78
965.136	2330.74
965.438	2287.81
965.741	2290.97
966.043	2273.34
966.345	2273.34
966.648	2281.48
966.95	2260.24
967.252	2240.58
967.554	2236.28
967.856	2229.28
968.158	2217.75
968.46	2196.06
968.761	2205.32
969.063	2208.04
969.365	2242.38
969.666	2208.49
969.968	2175.04
970.269	2219.11
970.571	2186.79
970.872	2144.08
971.174	2156.06
971.475	2147.02
971.776	2132.1
972.077	2133.23
972.378	2131.2
972.679	2118.32
972.98	2097.53
973.281	2106.57
973.582	2098.43
973.883	2068.83
974.183	2086.23
974.484	2079.22
974.785	2048.04
975.085	2058.66
975.386	2011.66
975.686	2028.6
975.986	2002.39
976.287	2001.71
976.587	2017.53
976.887	2010.98
977.187	1999.91
977.487	1987.02
977.787	1983.86
978.087	1940.25
978.387	1968.04
978.687	1932.79
978.987	1954.26
979.286	1943.64
979.586	1947.48
979.885	1929.62
980.185	1939.34
980.484	1898.89
980.784	1886.01
981.083	1896.18
981.382	1885.11
981.682	1883.75
981.981	1876.29
982.28	1870.64
982.579	1859.57
982.878	1875.16
983.177	1837.42
983.475	1824.99
983.774	1813.24
984.073	1853.24
984.372	1801.04
984.67	1798.78
984.969	1826.8
985.267	1816.41
985.566	1818.21
985.864	1770.76
986.162	1774.6
986.461	1756.07
986.759	1731.66
987.057	1764.66
987.355	1767.37
987.653	1726.24
987.951	1742.51
988.249	1740.02
988.547	1735.51
988.844	1710.65
989.142	1699.12
989.44	1697.31
989.737	1693.7
990.035	1665.68
990.332	1686.24
990.63	1662.29
990.927	1636.07
991.224	1644.66
991.521	1648.5
991.819	1649.63
992.116	1631.55
992.413	1634.72
992.71	1655.73
993.006	1604.66
993.303	1605.57
993.6	1588.16
993.897	1613.02
994.193	1615.73
994.49	1569.18
994.787	1576.64
995.083	1536.87
995.379	1565.79
995.676	1555.85
995.972	1553.14
996.268	1548.17
996.565	1507.71
996.861	1515.17
997.157	1519.69
997.453	1513.36
997.749	1510.88
998.044	1526.92
998.34	1490.54
998.636	1488.28
998.932	1450.99
999.227	1466.81
999.523	1448.28
999.818	1454.16
1000.114	1450.99
1000.409	1457.32
1000.704	1436.08
1001	1411.45
1001.295	1434.27
1001.59	1440.6
1001.885	1415.74
1002.18	1424.55
1002.475	1414.61
1002.77	1411.9
1003.065	1373.71
1003.359	1388.4
1003.654	1376.19
1003.949	1392.24
1004.243	1352.46
1004.538	1328.74
1004.832	1352.46
1005.127	1330.09
1005.421	1345.91
1005.715	1337.1
1006.009	1345.23
1006.304	1284.9
1006.598	1328.28
1006.892	1331
1007.186	1270.88
1007.48	1279.7
1007.773	1284.9
1008.067	1263.65
1008.361	1259.36
1008.655	1253.94
1008.948	1253.48
1009.242	1245.8
1009.535	1250.32
1009.829	1236.08
1010.122	1222.07
1010.415	1234.28
1010.708	1207.84
1011.001	1223.88
1011.295	1199.02
1011.588	1172.13
1011.881	1196.31
1012.173	1180.49
1012.466	1182.07
1012.759	1176.42
1013.052	1165.8
1013.344	1169.42
1013.637	1172.81
1013.93	1163.99
1014.222	1161.06
1014.514	1132.13
1014.807	1133.04
1015.099	1102.53
1015.391	1102.98
1015.683	1137.55
1015.976	1088.29
1016.268	1131
1016.56	1116.09
1016.851	1098.91
1017.143	1085.8
1017.435	1075.18
1017.727	1052.59
1018.018	1063.43
1018.31	1082.87
1018.602	1062.98
1018.893	1054.39
1019.185	1067.5
1019.476	1039.7
1019.767	1025.92
1020.058	1016.43
1020.35	1022.3
1020.641	1028.41
1020.932	1026.82
1021.223	1003.1
1021.514	998.58
1021.804	992.7
1022.095	1023.21
1022.386	989.99
1022.677	983.43
1022.967	969.65
1023.258	977.33
1023.548	973.49
1023.839	963.32
1024.129	956.54
1024.419	958.8
1024.709	960.84
1025	940.05
1025.29	921.97
1025.58	913.83
1025.87	891.46
1026.16	959.03
1026.449	905.7
1026.739	919.48
1027.029	913.15
1027.319	887.62
1027.608	876.09
1027.898	884.45
1028.187	893.27
1028.477	914.06
1028.766	878.58
1029.055	871.12
1029.344	890.56
1029.634	856.88
1029.923	859.6
1030.212	837
1030.501	874.06
1030.79	815.98
1031.078	841.29
1031.367	824.12
1031.656	820.95
1031.945	809.43
1032.233	818.24
1032.522	823.44
1032.81	806.26
1033.099	814.4
1033.387	804.68
1033.675	778.69
1033.963	792.71
1034.251	784.34
1034.54	783.89
1034.828	775.53
1035.116	778.24
1035.403	757.9
1035.691	742.54
1035.979	756.55
1036.267	751.8
1036.554	744.57
1036.842	747.06
1037.129	763.55
1037.417	742.76
1037.704	777.56
1037.992	747.51
1038.279	736.44
1038.566	724.01
1038.853	724.01
1039.14	724.01
