Data from tablewood_brown_FLMS001491_049.txt Node
Date: Tue Feb 07 11:10:31 GMT 2017
User: dcchb
Spectrometer: FLMS00149
Trigger mode: 0
Integration Time (sec): 2.000000E-2
Scans to average: 10
Electric dark correction enabled: true
Nonlinearity correction enabled: false
Boxcar width: 0
XAxis mode: Wavelengths
Number of Pixels in Spectrum: 2048
>>>>>Begin Spectral Data<<<<<
341.393	-24.63
341.776	-24.63
342.16	-24.63
342.543	-53.78
342.927	-76.16
343.31	-66.89
343.693	-77.06
344.077	-68.25
344.46	-50.85
344.843	-39.55
345.226	-30.51
345.61	-3.84
345.993	-38.87
346.376	5.65
346.759	2.71
347.142	21.92
347.525	37.29
347.908	59.66
348.291	74.57
348.674	81.13
349.057	92.88
349.44	116.83
349.823	151.86
350.206	154.8
350.588	192.99
350.971	196.15
351.354	232.99
351.737	248.36
352.119	249.94
352.502	256.72
352.884	286.55
353.267	278.18
353.65	312.31
354.032	312.99
354.414	297.39
354.797	311.18
355.179	307.79
355.562	336.26
355.944	348.24
356.326	340.56
356.709	341.69
357.091	350.05
357.473	348.01
357.855	356.15
358.238	343.04
358.62	345.08
359.002	328.13
359.384	327.9
359.766	330.16
360.148	342.59
360.53	348.24
360.912	348.47
361.294	333.1
361.676	343.95
362.057	337.39
362.439	347.56
362.821	322.7
363.203	343.49
363.584	339.43
363.966	333.32
364.348	322.93
364.729	336.71
365.111	331.52
365.493	316.6
365.874	344.85
366.256	320.67
366.637	339.43
367.019	325.42
367.4	316.6
367.781	301.91
368.163	331.06
368.544	317.05
368.925	325.64
369.306	334.91
369.688	309.37
370.069	307.79
370.45	328.13
370.831	312.99
371.212	345.08
371.593	320.9
371.974	337.84
372.355	343.04
372.736	348.47
373.117	311.63
373.498	312.08
373.879	318.86
374.26	337.84
374.641	314.34
375.021	329.93
375.402	328.8
375.783	336.49
376.163	348.69
376.544	329.48
376.925	341.91
377.305	331.29
377.686	323.61
378.066	357.73
378.447	362.02
378.827	352.76
379.208	334.23
379.588	358.86
379.968	347.34
380.349	364.06
380.729	363.83
381.109	338.3
381.489	355.47
381.87	352.08
382.25	343.49
382.63	348.24
383.01	359.54
383.39	367.9
383.77	377.62
384.15	348.69
384.53	382.36
384.91	372.42
385.29	378.07
385.67	391.4
386.049	383.94
386.429	376.71
386.809	389.82
387.189	404.51
387.568	384.85
387.948	373.1
388.328	364.51
388.707	402.93
389.087	411.51
389.466	402.93
389.846	407.9
390.225	404.28
390.605	384.17
390.984	412.42
391.363	417.16
391.743	410.16
392.122	429.14
392.501	410.16
392.881	408.35
393.26	440.67
393.639	430.5
394.018	444.96
394.397	409.48
394.776	445.86
395.155	428.01
395.534	444.28
395.913	427.79
396.292	451.74
396.671	461
397.05	459.87
397.429	463.49
397.808	451.29
398.186	459.42
398.565	469.82
398.944	484.51
399.323	461.68
399.701	495.35
400.08	457.84
400.458	471.17
400.837	470.5
401.215	490.61
401.594	474.56
401.972	491.96
402.351	506.88
402.729	493.32
403.107	483.38
403.486	501.23
403.864	496.03
404.242	506.43
404.62	511.17
404.999	515.01
405.377	497.84
405.755	499.65
406.133	544.62
406.511	528.57
406.889	529.48
407.267	546.88
407.645	567.89
408.023	534.22
408.401	569.7
408.779	600.89
409.156	573.77
409.534	599.76
409.912	583.49
410.29	569.48
410.667	604.5
411.045	586.2
411.422	596.82
411.8	590.72
412.178	610.38
412.555	628.91
412.933	583.71
413.31	613.09
413.687	637.95
414.065	635.92
414.442	627.33
414.819	656.03
415.197	647.89
415.574	628.46
415.951	670.94
416.328	668.01
416.705	663.49
417.082	684.95
417.46	676.14
417.837	688.8
418.214	699.19
418.591	696.93
418.967	706.87
419.344	694.9
419.721	701.45
420.098	698.74
420.475	712.75
420.852	723.37
421.228	745.74
421.605	729.25
421.982	746.42
422.358	747.55
422.735	758.85
423.111	762.24
423.488	764.27
423.864	772.86
424.241	761.79
424.617	750.71
424.994	780.09
425.37	758.17
425.746	791.62
426.123	794.78
426.499	788.23
426.875	802.01
427.251	807.44
427.627	834.78
428.003	810.15
428.379	852.63
428.756	850.15
429.132	846.08
429.507	873.42
429.883	864.61
430.259	888.34
430.635	884.27
431.011	889.47
431.387	910.03
431.763	923.59
432.138	900.54
432.514	954.78
432.89	971.95
433.265	927.66
433.641	973.31
434.016	955.46
434.392	968.56
434.767	976.7
435.143	988.22
435.518	1025.28
435.894	1031.61
436.269	1024.83
436.644	1043.81
437.02	1055.57
437.395	1072.06
437.77	1085.4
438.145	1098.5
438.52	1077.03
438.895	1086.75
439.271	1099.86
439.646	1137.37
440.021	1127.43
440.395	1141.21
440.77	1123.81
441.145	1146.86
441.52	1170.36
441.895	1144.15
442.27	1149.35
442.645	1176.01
443.019	1182.34
443.394	1197.26
443.769	1224.37
444.143	1180.08
444.518	1243.58
444.892	1230.48
445.267	1200.19
445.641	1241.1
446.016	1242.23
446.39	1239.06
446.764	1262.11
447.139	1249.46
447.513	1274.77
447.887	1241.55
448.262	1305.05
448.636	1304.82
449.01	1320.42
449.384	1304.6
449.758	1320.19
450.132	1357.03
450.506	1337.37
450.88	1340.08
451.254	1355.44
451.628	1350.7
452.002	1377.82
452.376	1359.74
452.75	1400.19
453.123	1414.65
453.497	1431.37
453.871	1445.39
454.244	1495.78
454.618	1454.2
454.992	1480.64
455.365	1493.97
455.739	1522.45
456.112	1533.07
456.486	1555.89
456.859	1549.79
457.232	1607.19
457.606	1596.57
457.979	1596.12
458.352	1615.1
458.725	1626.62
459.099	1658.49
459.472	1708.88
459.845	1716.57
460.218	1717.02
460.591	1759.05
460.964	1752.72
461.337	1783
461.71	1804.25
462.083	1826.62
462.456	1831.36
462.829	1898.26
463.201	1905.71
463.574	1862.32
463.947	1876.33
464.32	1948.65
464.692	1947.29
465.065	1994.52
465.438	2033.62
465.81	2042.66
466.183	2043.34
466.555	2091.7
466.928	2117.01
467.3	2150.23
467.672	2171.69
468.045	2208.08
468.417	2225.48
468.789	2258.7
469.161	2250.56
469.534	2314.29
469.906	2370.79
470.278	2370.56
470.65	2408.75
471.022	2480.16
471.394	2536.2
471.766	2530.1
472.138	2578.92
472.51	2607.16
472.882	2672.25
473.253	2695.07
473.625	2769.42
473.997	2872.92
474.369	2876.99
474.74	2912.92
475.112	2923.31
475.484	3051.67
475.855	3072.24
476.227	3109.97
476.598	3174.61
476.97	3249.63
477.341	3316.3
477.713	3394.71
478.084	3379.57
478.455	3454.82
478.827	3516.97
479.198	3632.22
479.569	3670.86
479.94	3792.89
480.311	3819.11
480.682	3907.02
481.053	4008.93
481.424	4066.56
481.795	4141.59
482.166	4201.25
482.537	4270.62
482.908	4370.96
483.279	4380.45
483.65	4510.16
484.021	4571.18
484.391	4664.51
484.762	4699.31
485.133	4746.99
485.503	4840.55
485.874	4935.24
486.244	4983.37
486.615	5112.18
486.985	5213.87
487.356	5248
487.726	5332.06
488.097	5431.27
488.467	5454.77
488.837	5584.94
489.207	5650.25
489.578	5723.24
489.948	5755.55
490.318	5900.86
490.688	5841.65
491.058	5979.5
491.428	6113.74
491.798	6131.14
492.168	6278.93
492.538	6320.29
492.908	6360.96
493.278	6486.38
493.648	6521.86
494.017	6504.01
494.387	6631.46
494.757	6664.01
495.126	6784.45
495.496	6789.88
495.866	6863.1
496.235	6944.68
496.605	7014.5
496.974	7066.48
497.344	7116.65
497.713	7141.73
498.082	7179.02
498.452	7268.51
498.821	7333.82
499.19	7373.37
499.559	7473.93
499.928	7482.74
500.298	7514.83
500.667	7624.43
501.036	7629.18
501.405	7720.7
501.774	7751.89
502.143	7865.56
502.512	7871.66
502.88	7930.64
503.249	7995.72
503.618	8026
503.987	8105.1
504.356	8130.41
504.724	8155.94
505.093	8262.61
505.462	8223.51
505.83	8366.79
506.199	8400.01
506.567	8492.21
506.936	8542.37
507.304	8636.84
507.672	8693.1
508.041	8749.6
508.409	8824.4
508.777	8867.79
509.145	8957.73
509.514	8980.55
509.882	9061.68
510.25	9111.85
510.618	9225.75
510.986	9287.44
511.354	9350.49
511.722	9422.13
512.09	9478.39
512.458	9474.33
512.826	9678.84
513.193	9665.73
513.561	9663.7
513.929	9842.45
514.297	9948.89
514.664	10043.58
515.032	10038.15
515.4	10166.74
515.767	10137.59
516.135	10288.99
516.502	10208.32
516.869	10438.14
517.237	10526.73
517.604	10487.41
517.972	10667.06
518.339	10700.96
518.706	10811.02
519.073	10890.11
519.44	10974.85
519.808	11137.33
520.175	11098.47
520.542	11308.4
520.909	11329.19
521.276	11383.2
521.643	11456.2
522.009	11534.39
522.376	11654.38
522.743	11661.16
523.11	11885.11
523.477	12028.38
523.843	12105.67
524.21	12174.82
524.577	12268.38
524.943	12370.52
525.31	12422.5
525.676	12600.35
526.043	12632.44
526.409	12729.61
526.776	12898.87
527.142	12912.65
527.508	12973.44
527.874	13074.23
528.241	13260.89
528.607	13176.83
528.973	13271.97
529.339	13321.01
529.705	13584.05
530.071	13678.51
530.437	13685.29
530.803	13789.92
531.169	13845.29
531.535	13914.21
531.901	14026.75
532.267	14064.94
532.632	14197.37
532.998	14135.9
533.364	14346.97
533.73	14311.49
534.095	14462.44
534.461	14510.35
534.826	14605.27
535.192	14700.4
535.557	14782.44
535.923	14828.76
536.288	14823.11
536.653	14940.85
537.019	14875.09
537.384	15035.31
537.749	15107.17
538.114	15191.92
538.479	15161.41
538.845	15339.26
539.21	15306.04
539.575	15309.43
539.94	15451.12
540.305	15456.99
540.67	15529.99
541.034	15651.57
541.399	15677.55
541.764	15647.05
542.129	15824.67
542.494	15881.16
542.858	15931.11
543.223	15957.55
543.587	15964.1
543.952	16014.95
544.316	16081.39
544.681	16036.19
545.045	16151.89
545.41	16285.22
545.774	16319.34
546.138	16453.58
546.503	16468.04
546.867	16496.74
547.231	16580.35
547.595	16732.67
547.959	16690.63
548.324	16838.2
548.688	16901.93
549.052	16929.72
549.416	16980.57
549.779	17105.31
550.143	17066.9
550.507	17250.62
550.871	17322.03
551.235	17329.94
551.599	17542.14
551.962	17650.16
552.326	17694.68
552.689	17723.83
553.053	17741.68
553.417	17833.88
553.78	18155.91
554.143	18101.22
554.507	18136.02
554.87	18258.05
555.234	18531.04
555.597	18424.37
555.96	18608.1
556.323	18728.1
556.686	18738.04
557.05	18871.59
557.413	18987.3
557.776	19064.13
558.139	19259.15
558.502	19392.48
558.865	19489.21
559.228	19667.05
559.59	19774.62
559.953	19777.79
560.316	20035.86
560.679	20134.84
561.041	20261.61
561.404	20486.02
561.767	20566.92
562.129	20695.95
562.492	20846.46
562.854	20921.71
563.217	20973.69
563.579	21186.11
563.941	21397.86
564.304	21464.07
564.666	21667
565.028	21768.24
565.39	21951.97
565.753	22114.22
566.115	22311.28
566.477	22378.62
566.839	22623.13
567.201	22737.03
567.563	22891.15
567.925	23153.74
568.287	23149.9
568.648	23379.5
569.01	23626.95
569.372	23713.95
569.734	23705.37
570.095	23948.07
570.457	24101.51
570.819	24322.75
571.18	24359.59
571.542	24574.27
571.903	24635.74
572.265	24913.47
572.626	25002.96
572.987	25134.71
573.349	25308.71
573.71	25550.97
574.071	25616.95
574.432	25818.3
574.794	25960.22
575.155	26101.23
575.516	26018.52
575.877	26290.61
576.238	26496.48
576.599	26689.92
576.96	26846.53
577.32	26862.8
577.681	27017.37
578.042	27205.61
578.403	27253.97
578.763	27406.96
579.124	27578.48
579.485	27633.85
579.845	27794.07
580.206	27761.08
580.566	27968.08
580.927	28036.1
581.287	28128.98
581.648	28072.03
582.008	28397.67
582.368	28396.54
582.728	28651
583.089	28529.42
583.449	28578.91
583.809	28662.52
584.169	28782.97
584.529	28635.63
584.889	28938.22
585.249	28907.26
585.609	28808.28
585.969	29101.16
586.329	29048.28
586.688	29046.69
587.048	29178.67
587.408	29155.39
587.768	29141.83
588.127	29316.97
588.487	29264.77
588.846	29504.76
589.206	29455.72
589.565	29329.17
589.925	29646.9
590.284	29446.23
590.643	29602.16
591.003	29624.08
591.362	29720.8
591.721	29817.52
592.08	29789.73
592.44	29822.49
592.799	29804.64
593.158	29848.48
593.517	29713.34
593.876	29847.8
594.235	29805.54
594.593	29843.28
594.952	29918.76
595.311	29833.11
595.67	29933.68
596.029	30106.1
596.387	30224.52
596.746	30187.91
597.104	30091.19
597.463	30148.81
597.822	30237.4
598.18	30127.8
598.538	30185.65
598.897	30241.01
599.255	30081.92
599.613	30557.39
599.972	30228.36
600.33	30457.28
600.688	30326.89
601.046	30435.13
601.404	30524.85
601.762	30402.36
602.12	30543.6
602.478	30630.16
602.836	30718.06
603.194	30544.51
603.552	30604.17
603.91	30560.55
604.268	30701.34
604.625	30575.02
604.983	30532.3
605.341	30523.04
605.698	30837.16
606.056	30859.98
606.413	30750.83
606.771	30887.1
607.128	30963.71
607.485	30850.71
607.843	30944.5
608.2	31018.39
608.557	31053.87
608.914	31005.29
609.272	31110.59
609.629	31123.48
609.986	31220.2
610.343	31177.26
610.7	31238.95
611.057	31159.18
611.414	31412.06
611.771	31345.16
612.127	31476.46
612.484	31458.61
612.841	31509.23
613.198	31494.31
613.554	31527.53
613.911	31658.6
614.267	31801.88
614.624	31615.89
614.98	31696.34
615.337	31857.47
615.693	31765.72
616.05	31667.19
616.406	31875.77
616.762	31837.81
617.118	31815.89
617.475	31752.16
617.831	31867.64
618.187	31916.9
618.543	31941.31
618.899	32195.99
619.255	32023.56
619.611	31918.03
619.967	32247.97
620.323	32180.62
620.678	32081.64
621.034	32043.45
621.39	32039.38
621.746	32001.42
622.101	32373.84
622.457	32110.34
622.812	32195.31
623.168	32161.64
623.523	32181.75
623.879	32429.88
624.234	32093.62
624.589	32245.93
624.945	32279.6
625.3	32327.29
625.655	32402.99
626.01	32407.28
626.365	32344.46
626.72	32310.56
627.075	32410.67
627.43	32325.48
627.785	32325.25
628.14	32293.84
628.495	32257.91
628.85	32346.27
629.205	32111.25
629.559	32386.95
629.914	32380.39
630.269	32261.07
630.623	32130.91
630.978	31991.48
631.332	32258.36
631.687	32206.38
632.041	32003.23
632.396	32067.63
632.75	32045.26
633.104	32068.08
633.459	31878.48
633.813	31804.81
634.167	31917.58
634.521	31855.43
634.875	31934.08
635.229	31852.04
635.583	31684.59
635.937	31694.99
636.291	31691.37
636.645	31656.12
636.999	31579.96
637.352	31615.44
637.706	31501.54
638.06	31567.08
638.413	31456.8
638.767	31494.31
639.121	31490.47
639.474	31262.23
639.828	31174.55
640.181	31352.62
640.534	31329.8
640.888	31117.37
641.241	31071.73
641.594	31247.77
641.947	31306.07
642.301	31212.96
642.654	31203.47
643.007	31188.56
643.36	31141.1
643.713	31042.57
644.066	31259.29
644.419	30989.24
644.771	30772.52
645.124	30546.32
645.477	30429.71
645.83	30271.29
646.182	30155.37
646.535	30114.24
646.888	30170.51
647.24	29963.05
647.593	30162.37
647.945	30113.33
648.298	29903.85
648.65	29955.82
649.002	29946.33
649.355	29916.5
649.707	29987.46
650.059	30109.94
650.411	30469.93
650.763	30481.68
651.115	30710.83
651.467	30641.68
651.819	30589.03
652.171	30587.9
652.523	30560.55
652.875	30620.21
653.227	30474
653.578	30740.66
653.93	30686.88
654.282	30459.99
654.633	30474.45
654.985	30505.41
655.337	30581.79
655.688	30450.27
656.039	30598.74
656.391	30280.11
656.742	30367.56
657.094	30370.5
657.445	30519.65
657.796	30398.52
658.147	30583.15
658.498	30373.89
658.849	30354
659.2	30313.1
659.551	30436.71
659.902	30455.02
660.253	30377.51
660.604	30401.69
660.955	30252.09
661.306	30484.17
661.656	30300.22
662.007	30393.55
662.358	30353.78
662.708	30396.94
663.059	30327.34
663.409	30115.82
663.76	30394.68
664.11	30378.41
664.461	30405.75
664.811	30485.3
665.161	30474.9
665.511	30264.51
665.862	30268.58
666.212	30245.53
666.562	30383.83
666.912	30348.58
667.262	30310.39
667.612	30351.74
667.962	30532.53
668.312	30288.47
668.662	30398.97
669.011	30283.72
669.361	30308.36
669.711	30179.77
670.06	30207.57
670.41	30031.53
670.76	30047.57
671.109	30208.02
671.459	30085.31
671.808	30054.58
672.157	30125.31
672.507	29828.37
672.856	29914.69
673.205	30040.79
673.554	30127.57
673.904	29976.61
674.253	30108.36
674.602	29979.1
674.951	29542.73
675.3	29481.48
675.649	29835.83
675.998	29822.94
676.346	29822.94
676.695	29884.41
677.044	29607.58
677.393	29817.3
677.741	29729.84
678.09	29751.99
678.438	29666.11
678.787	29719.67
679.135	29676.73
679.484	29582.5
679.832	29537.53
680.181	29345.22
680.529	29604.65
680.877	29327.36
681.225	29254.15
681.573	29556.51
681.922	29257.08
682.27	29198.78
682.618	29251.43
682.966	29148.84
683.314	29225.67
683.661	29170.08
684.009	28982.74
684.357	28923.99
684.705	28913.59
685.053	28801.95
685.4	28745.23
685.748	28787.04
686.095	28702.52
686.443	28514.96
686.79	28511.79
687.138	28576.2
687.485	28514.73
687.832	28412.36
688.18	28396.32
688.527	28326.71
688.874	28215.3
689.221	28157
689.568	28075.19
689.915	27892.6
690.262	27985.93
690.609	27898.93
690.956	27851.47
691.303	27771.7
691.65	27645.37
691.997	27684.24
692.344	27378.72
692.69	27331.94
693.037	27397.25
693.383	27156.12
693.73	27303.01
694.077	27046.97
694.423	27025.96
694.769	26934.88
695.116	26845.4
695.462	26762.91
695.808	26726.3
696.155	26704.16
696.501	26498.51
696.847	26612.18
697.193	26317.95
697.539	26428.01
697.885	26148.92
698.231	26179.42
698.577	26216.49
698.923	26086.77
699.269	25893.33
699.614	25677.29
699.96	25745.31
700.306	25748.93
700.651	25557.97
700.997	25475.94
701.342	25478.43
701.688	25474.81
702.033	25349.62
702.379	25179
702.724	25256.96
703.069	25144.88
703.415	24862.62
703.76	24911.89
704.105	24880.02
704.45	24840.02
704.795	24695.85
705.14	24589.41
705.485	24580.37
705.83	24492.92
706.175	24528.39
706.52	24366.82
706.865	24329.98
707.209	24256.31
707.554	24297.67
707.899	24207.73
708.243	24021.74
708.588	24031.68
708.932	23784.23
709.277	23932.7
709.621	23860.16
709.966	23651.81
710.31	23742.43
710.654	23558.02
710.998	23658.81
711.342	23604.8
711.687	23448.65
712.031	23383.11
712.375	23415.66
712.719	23367.75
713.063	23283
713.407	23395.32
713.75	23257.47
714.094	23195.32
714.438	23215.21
714.782	23184.25
715.125	23078.94
715.469	23177.7
715.812	22884.6
716.156	22838.72
716.499	22847.53
716.843	22909
717.186	22765.05
717.53	22891.83
717.873	22840.3
718.216	22826.52
718.559	22626.75
718.902	22484.83
719.246	22591.72
719.589	22663.58
719.932	22417.04
720.275	22435.34
720.617	22398.51
720.96	22467.88
721.303	22437.6
721.646	22433.99
721.989	22284.61
722.331	22349.47
722.674	22289.58
723.016	22370.71
723.359	22227.89
723.701	22334.33
724.044	22166.2
724.386	22118.97
724.729	22256.82
725.071	22233.77
725.413	22202.13
725.755	22209.36
726.097	22111.51
726.439	21938.41
726.782	22113.77
727.124	22143.6
727.465	22044.84
727.807	21990.16
728.149	21994
728.491	21926.66
728.833	21992.87
729.175	21914.45
729.516	21876.03
729.858	21903.38
730.199	21889.59
730.541	21904.06
730.882	21878.07
731.224	21910.16
731.565	21798.3
731.906	21789.48
732.248	21847.56
732.589	21768.02
732.93	21664.74
733.271	21798.97
733.612	21789.71
733.953	21768.47
734.294	21701.12
734.635	21681.92
734.976	21799.2
735.317	21624.74
735.658	21641.69
735.999	21750.39
736.339	21743.38
736.68	21824.28
737.021	21675.14
737.361	21694.12
737.702	21765.08
738.042	21642.59
738.383	21686.89
738.723	21655.48
739.063	21619.54
739.404	21787.22
739.744	21661.8
740.084	21719.88
740.424	21718.98
740.764	21518.98
741.104	21708.13
741.444	21622.93
741.784	21492.77
742.124	21575.03
742.464	21628.13
742.804	21661.13
743.143	21494.35
743.483	21558.53
743.823	21379.32
744.162	21576.61
744.502	21453.45
744.841	21442.83
745.181	21479.44
745.52	21396.73
745.86	21490.73
746.199	21489.15
746.538	21464.52
746.877	21547.23
747.216	21509.72
747.556	21483.95
747.895	21491.64
748.234	21378.65
748.573	21422.04
748.911	21489.6
749.25	21491.64
749.589	21319.21
749.928	21486.44
750.267	21428.59
750.605	21387.91
750.944	21373.68
751.283	21294.36
751.621	21333
751.96	21247.8
752.298	21292.55
752.636	21308.59
752.975	21165.55
753.313	21134.13
753.651	21231.08
753.989	21211.87
754.327	21150.4
754.666	21167.81
755.004	21083.51
755.342	21181.59
755.679	21141.82
756.017	20922.16
756.355	21091.42
756.693	20895.95
757.031	20882.16
757.368	20870.19
757.706	20825.67
758.044	20777.53
758.381	20845.1
758.719	20640.59
759.056	20715.84
759.394	20608.27
759.731	20522.62
760.068	20439.46
760.405	20369.86
760.743	20450.54
761.08	20447.37
761.417	20314.04
761.754	20355.4
762.091	20210.32
762.428	20153.37
762.765	20102.3
763.102	20137.78
763.438	20114.05
763.775	20009.87
764.112	19911.57
764.449	19917.67
764.785	19937.1
765.122	19760.84
765.458	19623.89
765.795	19660.5
766.131	19687.17
766.467	19623.44
766.804	19515.19
767.14	19397.23
767.476	19422.31
767.812	19318.81
768.148	19245.14
768.485	19191.36
768.821	19101.42
769.157	19110.91
769.492	19097.8
769.828	19096.9
770.164	18898.26
770.5	18853.29
770.836	18945.26
771.171	18761.54
771.507	18710.47
771.842	18554.99
772.178	18567.42
772.513	18597.48
772.849	18468.89
773.184	18410.59
773.519	18482.9
773.855	18234.77
774.19	18270.25
774.525	18120.2
774.86	18090.6
775.195	18142.35
775.53	17972.41
775.865	17884.95
776.2	17805.41
776.535	17702.81
776.87	17693.77
777.205	17632.76
777.539	17628.01
777.874	17598.86
778.209	17495.13
778.543	17354.12
778.878	17296.49
779.212	17196.84
779.547	17171.07
779.881	17179.44
780.215	17106.44
780.55	17200.23
780.884	17015.15
781.218	16821.93
781.552	16935.6
781.886	16720.46
782.22	16646.57
782.554	16664.65
782.888	16674.14
783.222	16453.13
783.556	16420.36
783.889	16410.42
784.223	16327.03
784.557	16321.15
784.89	16302.4
785.224	16131.78
785.557	15997.32
785.891	16029.64
786.224	16082.51
786.558	15955.51
786.891	15885.01
787.224	15804.1
787.557	15781.05
787.891	15759.59
788.224	15691.79
788.557	15688.18
788.89	15598.69
789.223	15625.58
789.556	15497.67
789.888	15484.34
790.221	15388.52
790.554	15271.69
790.887	15300.84
791.219	15275.98
791.552	15183.56
791.884	15072.6
792.217	15052.94
792.549	15030.79
792.882	14940.62
793.214	14907.18
793.546	14835.54
793.879	14778.37
794.211	14764.58
794.543	14782.66
794.875	14753.28
795.207	14697.92
795.539	14650.91
795.871	14705.6
796.203	14485.27
796.535	14395.55
796.867	14402.79
797.198	14373.63
797.53	14335.44
797.862	14243.47
798.193	14291.83
798.525	14116.46
798.856	14113.3
799.188	14005.28
799.519	13968.9
799.85	13887.32
800.182	13942.46
800.513	14034.89
800.844	13821.33
801.175	13910.82
801.506	13879.86
801.837	13780.2
802.168	13724.38
802.499	13624.05
802.83	13617.72
803.161	13579.3
803.491	13581.56
803.822	13512.64
804.153	13460.66
804.483	13316.94
804.814	13268.13
805.145	13324.4
805.475	13337.73
805.805	13210.5
806.136	13232.87
806.466	13274.45
806.796	13247.11
807.126	13081.92
807.457	13048.47
807.787	13043.95
808.117	12979.32
808.447	12972.99
808.777	12959.43
809.107	12909.27
809.436	12920.34
809.766	12881.7
810.096	12819.1
810.426	12752.43
810.755	12788.14
811.085	12705.2
811.414	12730.96
811.744	12552.44
812.073	12503.4
812.403	12549.27
812.732	12437.87
813.061	12570.52
813.39	12470.63
813.719	12399.45
814.049	12526.9
814.378	12451.88
814.707	12330.3
815.036	12333.69
815.365	12254.37
815.693	12176.18
816.022	12272.9
816.351	12048.27
816.68	12086.46
817.008	12164.43
817.337	12061.6
817.665	11993.81
817.994	12000.36
818.322	11985
818.651	11934.6
818.979	11903.87
819.307	11966.69
819.636	11889.18
819.964	11828.84
820.292	11801.27
820.62	11854.38
820.948	11859.35
821.276	11877.65
821.604	11810.31
821.932	11778
822.259	11827.94
822.587	11821.38
822.915	11798.79
823.243	11854.6
823.57	11765.79
823.898	11797.2
824.225	11736.87
824.553	11733.48
824.88	11780.71
825.207	11785.68
825.535	11772.35
825.862	11790.65
826.189	11785.45
826.516	11762.85
826.843	11885.34
827.17	11810.99
827.497	11791.55
827.824	11751.33
828.151	11840.59
828.478	11727.83
828.805	11842.85
829.131	11812.8
829.458	11666.36
829.785	11613.25
830.111	11690.31
830.438	11761.72
830.764	11674.95
831.09	11728.96
831.417	11629.98
831.743	11745.68
832.069	11667.49
832.395	11659.13
832.722	11743.65
833.048	11655.96
833.374	11643.99
833.7	11637.43
834.026	11602.41
834.351	11651.67
834.677	11669.75
835.003	11628.62
835.329	11580.71
835.654	11609.41
835.98	11508.4
836.306	11508.4
836.631	11533.93
836.956	11528.51
837.282	11542.07
837.607	11481.51
837.932	11415.29
838.258	11446.93
838.583	11389.98
838.908	11328.52
839.233	11309.31
839.558	11352.47
839.883	11339.36
840.208	11350.66
840.533	11264.79
840.858	11303.88
841.182	11269.31
841.507	11236.09
841.832	11301.4
842.156	11255.52
842.481	11195.86
842.805	11112.48
843.13	11158.8
843.454	11090.1
843.778	11102.31
844.103	11091.23
844.427	11029.31
844.751	11027.28
845.075	10953.84
845.399	10938.92
845.723	10946.6
846.047	10960.39
846.371	10773.95
846.695	10789.09
847.019	10729.89
847.343	10700.28
847.666	10771.47
847.99	10604.47
848.313	10561.76
848.637	10501.87
848.96	10456.22
849.284	10434.98
849.607	10428.88
849.931	10324.93
850.254	10285.15
850.577	10220.52
850.9	10235.21
851.223	10167.87
851.546	10129.45
851.869	10058.27
852.192	10116.12
852.515	10038.83
852.838	10046.29
853.161	10019.17
853.483	9908.21
853.806	9893.98
854.129	9897.37
854.451	9858.95
854.774	9755.9
855.096	9790.93
855.419	9762.91
855.741	9743.92
856.063	9702.57
856.385	9643.14
856.708	9625.06
857.03	9607.88
857.352	9620.09
857.674	9546.19
857.996	9522.01
858.318	9436.59
858.64	9479.52
858.961	9385.52
859.283	9350.26
859.605	9356.59
859.926	9352.97
860.248	9333.09
860.57	9312.98
860.891	9283.6
861.212	9237.27
861.534	9186.88
861.855	9222.81
862.176	9249.47
862.498	9207.89
862.819	9171.74
863.14	9139.19
863.461	9189.14
863.782	9164.28
864.103	9137.39
864.424	9049.93
864.745	9040.67
865.065	9048.12
865.386	8985.75
865.707	8967.45
866.027	9089.25
866.348	8996.15
866.668	9018.75
866.989	8923.83
867.309	8879.54
867.63	8951.63
867.95	8831.86
868.27	8875.47
868.59	8949.14
868.91	8909.6
869.23	8835.25
869.55	8849.48
869.87	8824.4
870.19	8818.07
870.51	8788.92
870.83	8746.89
871.15	8754.8
871.469	8776.94
871.789	8809.26
872.109	8745.98
872.428	8657.17
872.748	8672.09
873.067	8650.85
873.386	8740.34
873.706	8713.44
874.025	8644.97
874.344	8631.86
874.663	8667.34
874.982	8608.14
875.301	8688.81
875.62	8600.45
875.939	8549.15
876.258	8575.82
876.577	8560.23
876.896	8531.75
877.214	8501.7
877.533	8468.25
877.852	8445.43
878.17	8449.27
878.489	8515.93
878.807	8408.14
879.125	8408.82
879.444	8385.54
879.762	8391.64
880.08	8364.53
880.398	8359.78
880.716	8288.6
881.034	8280.23
881.352	8321.82
881.67	8284.3
881.988	8264.64
882.306	8259.9
882.624	8238.2
882.941	8222.61
883.259	8149.16
883.577	8176.73
883.894	8173.34
884.212	8130.63
884.529	8131.31
884.846	8101.26
885.164	8133.35
885.481	8002.05
885.798	8059.45
886.115	7990.3
886.432	8015.61
886.75	8050.86
887.067	8032.11
887.383	7955.72
887.7	7948.49
888.017	7909.85
888.334	7947.14
888.651	7901.26
888.967	7878.66
889.284	7836.4
889.6	7841.38
889.917	7783.07
890.233	7789.85
890.55	7735.62
890.866	7720.7
891.182	7723.41
891.498	7715.96
891.815	7710.08
892.131	7614.94
892.447	7600.03
892.763	7609.29
893.079	7582.63
893.395	7551.21
893.71	7509.63
894.026	7473.25
894.342	7485
894.657	7524.77
894.973	7451.1
895.289	7385.34
895.604	7380.14
895.92	7332.91
896.235	7295.4
896.55	7361.16
896.865	7296.98
897.181	7318.45
897.496	7296.76
897.811	7289.98
898.126	7194.16
898.441	7185.35
898.756	7147.38
899.071	7180.6
899.386	7121.62
899.7	7080.27
900.015	7038.01
900.33	6999.36
900.644	6956.2
900.959	6990.32
901.273	6953.94
901.588	6921.85
901.902	6895.41
902.216	6866.71
902.531	6903.1
902.845	6839.59
903.159	6806.37
903.473	6830.33
903.787	6822.42
904.101	6717.79
904.415	6679.15
904.729	6694.97
905.042	6673.95
905.356	6631.69
905.67	6579.71
905.984	6605.25
906.297	6594.85
906.611	6575.19
906.924	6567.51
907.237	6542.2
907.551	6497.91
907.864	6489.32
908.177	6457.23
908.491	6383.79
908.804	6414.07
909.117	6296.56
909.43	6317.12
909.743	6307.18
910.056	6287.74
910.368	6217.46
910.681	6203
910.994	6203.9
911.307	6141.76
911.619	6125.71
911.932	6139.27
912.244	6076
912.557	6126.62
912.869	6050.24
913.181	6076.22
913.494	6063.34
913.806	5957.81
914.118	5964.14
914.43	5947.19
914.742	5939.05
915.054	5929.11
915.366	5928.43
915.678	5862.44
915.99	5826.29
916.302	5758.94
916.613	5842.11
916.925	5774.31
917.236	5762.11
917.548	5654.09
917.859	5698.83
918.171	5720.98
918.482	5595.56
918.794	5592.85
919.105	5604.37
919.416	5536.35
919.727	5557.59
920.038	5504.49
920.349	5496.58
920.66	5501.32
920.971	5491.16
921.282	5476.69
921.593	5408.67
921.903	5376.58
922.214	5338.62
922.525	5321.44
922.835	5316.47
923.146	5324.38
923.456	5299.52
923.767	5241.67
924.077	5271.95
924.387	5235.79
924.697	5192.41
925.008	5179.75
925.318	5152.86
925.628	5126.19
925.938	5115.12
926.248	5105.63
926.558	5029.25
926.867	5011.17
927.177	5017.04
927.487	4981.11
927.796	4924.16
928.106	4901.79
928.416	4942.47
928.725	4942.24
929.034	4902.02
929.344	4870.61
929.653	4839.42
929.962	4838.74
930.271	4836.48
930.581	4810.72
930.89	4816.82
931.199	4734.11
931.508	4740.44
931.817	4713.77
932.125	4723.49
932.434	4692.76
932.743	4688.01
933.051	4634.91
933.36	4638.07
933.669	4586.77
933.977	4601.69
934.286	4574.79
934.594	4523.72
934.902	4518.07
935.21	4467.23
935.519	4489.15
935.827	4474.91
936.135	4423.61
936.443	4380.9
936.751	4391.97
937.059	4373.22
937.367	4375.48
937.674	4318.98
937.982	4411.18
938.29	4338.42
938.597	4330.51
938.905	4236.72
939.213	4230.85
939.52	4250.06
939.827	4237.4
940.135	4205.77
940.442	4205.77
940.749	4180.23
941.056	4186.78
941.363	4112.89
941.67	4138.42
941.977	4077.41
942.284	4058.2
942.591	4069.95
942.898	4103.39
943.205	4041.02
943.511	4031.08
943.818	4014.36
944.125	3972.1
944.431	3976.84
944.738	3972.1
945.044	3943.63
945.35	3930.74
945.657	3885.77
945.963	3867.69
946.269	3869.95
946.575	3838.54
946.881	3828.6
947.187	3801.71
947.493	3812.78
947.799	3799
948.105	3760.81
948.41	3768.94
948.716	3768.26
949.022	3711.77
949.327	3723.29
949.633	3687.59
949.938	3661.6
950.244	3695.5
950.549	3663.41
950.854	3633.8
951.16	3643.07
951.465	3587.7
951.77	3597.42
952.075	3577.53
952.38	3589.74
952.685	3571.21
952.99	3533.92
953.294	3541.15
953.599	3498.67
953.904	3470.42
954.209	3483.52
954.513	3476.97
954.818	3445.33
955.122	3437.42
955.426	3406.69
955.731	3374.83
956.035	3427.93
956.339	3384.32
956.643	3391.78
956.948	3316.07
957.252	3305.22
957.556	3341.38
957.86	3325.79
958.163	3301.16
958.467	3299.35
958.771	3254.38
959.075	3257.77
959.378	3229.07
959.682	3204.89
959.985	3210.76
960.289	3184.55
960.592	3180.03
960.896	3169.63
961.199	3139.58
961.502	3123.08
961.805	3109.3
962.108	3128.05
962.411	3093.03
962.714	3070.43
963.017	3040.37
963.32	3041.28
963.623	3041.73
963.926	3028.39
964.228	3016.87
964.531	3034.5
964.833	2976.87
965.136	2956.98
965.438	2966.93
965.741	2955.18
966.043	2940.04
966.345	2923.76
966.648	2940.26
966.95	2945.91
967.252	2880.15
967.554	2891
967.856	2847.83
968.158	2876.53
968.46	2859.13
968.761	2857.33
969.063	2809.42
969.365	2796.99
969.666	2791.11
969.968	2728.97
970.269	2754.28
970.571	2779.14
970.872	2768.51
971.174	2790.21
971.475	2750.44
971.776	2703.21
972.077	2716.76
972.378	2672.25
972.679	2697.33
972.98	2665.24
973.281	2666.82
973.582	2670.89
973.883	2639.03
974.183	2651
974.484	2606.26
974.785	2602.64
975.085	2606.94
975.386	2614.39
975.686	2588.86
975.986	2545.92
976.287	2568.52
976.587	2528.07
976.887	2541.85
977.187	2510.22
977.487	2530.55
977.787	2475.87
978.087	2438.35
978.387	2463.66
978.687	2493.95
978.987	2468.86
979.286	2440.84
979.586	2438.58
979.885	2452.14
980.185	2423.89
980.484	2373.04
980.784	2411.01
981.083	2389.32
981.382	2375.98
981.682	2364.68
981.981	2317.45
982.28	2358.36
982.579	2310.67
982.878	2318.58
983.177	2310.45
983.475	2290.79
983.774	2270.9
984.073	2258.47
984.372	2276.32
984.67	2262.77
984.969	2283.1
985.267	2260.05
985.566	2212.37
985.864	2206.5
986.162	2199.72
986.461	2194.52
986.759	2198.81
987.057	2167.85
987.355	2153.39
987.653	2149.55
987.951	2140.96
988.249	2141.86
988.547	2122.2
988.844	2100.51
989.142	2082.21
989.44	2117.01
989.737	2119.49
990.035	2103.22
990.332	2127.85
990.63	2062.09
990.927	2067.06
991.224	2047.18
991.521	2038.36
991.819	2023.68
992.116	2030.23
992.413	2018.93
992.71	2026.16
993.006	1984.13
993.303	1995.2
993.6	1975.99
993.897	1997.01
994.193	1981.19
994.49	1933.51
994.787	1959.72
995.083	1939.38
995.379	1941.19
995.676	1915.2
995.972	1938.48
996.268	1926.05
996.565	1862.55
996.861	1884.92
997.157	1851.93
997.453	1888.54
997.749	1828.65
998.044	1857.13
998.34	1836.11
998.636	1818.71
998.932	1822.55
999.227	1819.61
999.523	1780.52
999.818	1804.7
1000.114	1776.9
1000.409	1757.69
1000.704	1774.64
1001	1759.28
1001.295	1738.71
1001.59	1762.21
1001.885	1734.87
1002.18	1726.06
1002.475	1736.68
1002.77	1700.29
1003.065	1693.97
1003.359	1665.04
1003.654	1677.47
1003.949	1665.49
1004.243	1675.44
1004.538	1659.17
1004.832	1646.74
1005.127	1634.08
1005.421	1605.83
1005.715	1626.62
1006.009	1618.94
1006.304	1626.62
1006.598	1609.45
1006.892	1556.12
1007.186	1564.25
1007.48	1563.12
1007.773	1548.66
1008.067	1571.48
1008.361	1530.13
1008.655	1546.85
1008.948	1520.41
1009.242	1516.34
1009.535	1501.66
1009.829	1495.1
1010.122	1495.1
1010.415	1469.57
1010.708	1474.54
1011.001	1431.83
1011.295	1454.43
1011.588	1448.55
1011.881	1464.14
1012.173	1454.43
1012.466	1434.54
1012.759	1412.62
1013.052	1412.17
1013.344	1398.16
1013.637	1410.36
1013.93	1360.42
1014.222	1384.37
1014.514	1373.3
1014.807	1354.31
1015.099	1338.95
1015.391	1355.22
1015.683	1359.06
1015.976	1320.42
1016.268	1320.87
1016.56	1357.93
1016.851	1316.8
1017.143	1301.66
1017.435	1296.01
1017.727	1272.73
1018.018	1274.54
1018.31	1283.13
1018.602	1241.78
1018.893	1256.69
1019.185	1261.21
1019.476	1256.01
1019.767	1255.56
1020.058	1227.76
1020.35	1219.4
1020.641	1190.93
1020.932	1201.55
1021.223	1190.93
1021.514	1185.51
1021.804	1151.83
1022.095	1186.86
1022.386	1187.09
1022.677	1159.97
1022.967	1134.43
1023.258	1139.18
1023.548	1130.37
1023.839	1157.26
1024.129	1118.61
1024.419	1126.98
1024.709	1110.93
1025	1117.71
1025.29	1105.06
1025.58	1067.99
1025.87	1103.25
1026.16	1082.91
1026.449	1056.92
1026.739	1084.94
1027.029	1058.73
1027.319	1055.57
1027.608	1058.73
1027.898	1014.89
1028.187	1069.58
1028.477	1013.53
1028.766	1013.31
1029.055	1013.98
1029.344	1013.98
1029.634	997.26
1029.923	983.03
1030.212	970.37
1030.501	965.4
1030.79	992.06
1031.078	989.8
1031.367	947.55
1031.656	965.85
1031.945	953.42
1032.233	939.41
1032.522	953.42
1032.81	955.91
1033.099	933.76
1033.387	929.24
1033.675	927.66
1033.963	940.31
1034.251	894.67
1034.54	900.54
1034.828	913.2
1035.116	879.07
1035.403	908.22
1035.691	897.38
1035.979	902.58
1036.267	900.77
1036.554	860.09
1036.842	867.32
1037.129	867.1
1037.417	861.22
1037.704	837.94
1037.992	841.33
1038.279	831.16
1038.566	836.81
1038.853	836.81
1039.14	836.81
