Data from tablewood_brown_FLMS001491_066.txt Node
Date: Tue Feb 07 11:10:50 GMT 2017
User: dcchb
Spectrometer: FLMS00149
Trigger mode: 0
Integration Time (sec): 2.000000E-2
Scans to average: 10
Electric dark correction enabled: true
Nonlinearity correction enabled: false
Boxcar width: 0
XAxis mode: Wavelengths
Number of Pixels in Spectrum: 2048
>>>>>Begin Spectral Data<<<<<
341.393	-11.89
341.776	-11.89
342.16	-11.89
342.543	-63.19
342.927	-43.53
343.31	-65.22
343.693	-50.54
344.077	-59.8
344.46	-57.77
344.843	-41.95
345.226	-29.52
345.61	-35.85
345.993	-18.45
346.376	-9.86
346.759	2.34
347.142	23.36
347.525	43.02
347.908	62
348.291	49.12
348.674	84.83
349.057	104.26
349.44	110.59
349.823	148.33
350.206	146.07
350.588	192.4
350.971	210.47
351.354	220.87
351.737	240.98
352.119	274.43
352.502	281.21
352.884	278.72
353.267	304.71
353.65	297.03
354.032	290.02
354.414	313.3
354.797	323.92
355.179	330.25
355.562	330.7
355.944	323.69
356.326	339.51
356.709	339.96
357.091	334.77
357.473	359.17
357.855	342.22
358.238	351.49
358.62	348.78
359.002	338.61
359.384	342.9
359.766	337.93
360.148	341.54
360.53	338.83
360.912	356.01
361.294	338.83
361.676	340.41
362.057	330.02
362.439	349
362.821	321.43
363.203	355.1
363.584	326.4
363.966	351.94
364.348	343.35
364.729	333.41
365.111	327.08
365.493	323.92
365.874	322.11
366.256	343.13
366.637	336.35
367.019	342.67
367.4	327.31
367.781	335.9
368.163	322.34
368.544	319.85
368.925	312.84
369.306	325.95
369.688	300.64
370.069	327.53
370.45	323.92
370.831	328.44
371.212	332.73
371.593	313.52
371.974	316.91
372.355	345.61
372.736	344.93
373.117	337.03
373.498	339.96
373.879	347.19
374.26	323.69
374.641	340.64
375.021	338.38
375.402	334.31
375.783	337.7
376.163	347.65
376.544	357.59
376.925	356.01
377.305	318.27
377.686	348.55
378.066	370.02
378.447	345.16
378.827	349.23
379.208	378.15
379.588	361.88
379.968	349.91
380.349	341.54
380.729	361.88
381.109	375.44
381.489	343.8
381.87	364.59
382.25	367.08
382.63	355.56
383.01	359.62
383.39	351.04
383.77	345.61
384.15	384.03
384.53	395.33
384.91	401.2
385.29	375.89
385.67	396.91
386.049	378.38
386.429	397.81
386.809	390.81
387.189	375.89
387.568	402.79
387.948	380.19
388.328	401.66
388.707	399.17
389.087	400.53
389.466	407.08
389.846	399.62
390.225	424.03
390.605	402.56
390.984	416.34
391.363	425.38
391.743	409.79
392.122	426.29
392.501	432.62
392.881	423.12
393.26	430.36
393.639	434.42
394.018	436.91
394.397	440.53
394.776	437.81
395.155	426.51
395.534	451.37
395.913	465.61
396.292	459.96
396.671	468.77
397.05	456.57
397.429	452.5
397.808	487.3
398.186	485.95
398.565	466.06
398.944	471.03
399.323	485.5
399.701	466.06
400.08	471.94
400.458	500.86
400.837	505.38
401.215	508.32
401.594	502.67
401.972	509.9
402.351	504.7
402.729	504.25
403.107	492.5
403.486	504.93
403.864	523.46
404.242	526.4
404.62	537.02
404.999	539.05
405.377	550.13
405.755	545.83
406.133	540.18
406.511	566.85
406.889	553.29
407.267	549.67
407.645	562.33
408.023	587.19
408.401	588.54
408.779	588.54
409.156	591.71
409.534	591.93
409.912	610.24
410.29	599.84
410.667	614.76
411.045	599.62
411.422	628.09
411.8	612.72
412.178	642.1
412.555	640.07
412.933	631.48
413.31	669.22
413.687	647.07
414.065	624.93
414.442	657.02
414.819	676.68
415.197	667.41
415.574	695.21
415.951	683.46
416.328	678.94
416.705	697.47
417.082	708.31
417.46	678.03
417.837	695.43
418.214	729.11
418.591	705.6
418.967	733.85
419.344	733.4
419.721	732.49
420.098	748.31
420.475	730.46
420.852	749.67
421.228	735.21
421.605	753.06
421.982	734.75
422.358	772.27
422.735	753.51
423.111	768.65
423.488	747.18
423.864	778.14
424.241	792.38
424.617	817.92
424.994	794.64
425.37	833.96
425.746	808.2
426.123	815.66
426.499	813.17
426.875	830.35
427.251	826.28
427.627	861.31
428.003	858.59
428.379	844.81
428.756	884.81
429.132	884.58
429.507	874.19
429.883	890.46
430.259	899.04
430.635	911.7
431.011	935.65
431.387	925.71
431.763	920.96
432.138	973.39
432.514	967.97
432.89	974.3
433.265	1005.93
433.641	1002.09
434.016	1007.29
434.392	1052.94
434.767	1064.46
435.143	1059.94
435.518	1044.35
435.894	1062.43
436.269	1067.4
436.644	1085.25
437.02	1117.34
437.395	1102.65
437.77	1116.44
438.145	1121.19
438.52	1126.83
438.895	1132.71
439.271	1170.22
439.646	1160.28
440.021	1192.6
440.395	1179.49
440.77	1184.46
441.145	1177.45
441.52	1198.25
441.895	1226.49
442.27	1245.25
442.645	1221.3
443.019	1235.31
443.394	1257.23
443.769	1265.59
444.143	1247.28
444.518	1269.43
444.892	1298.36
445.267	1292.93
445.641	1339.26
446.016	1318.02
446.39	1358.92
446.764	1343.1
447.139	1316.66
447.513	1337.68
447.887	1347.85
448.262	1341.29
448.636	1341.29
449.01	1355.76
449.384	1384.68
449.758	1384.23
450.132	1402.53
450.506	1412.48
450.88	1408.41
451.254	1430.78
451.628	1420.84
452.002	1451.35
452.376	1478.69
452.75	1426.49
453.123	1474.62
453.497	1529.99
453.871	1525.24
454.244	1531.57
454.618	1542.19
454.992	1540.16
455.365	1579.25
455.739	1578.35
456.112	1603.43
456.486	1624.22
456.859	1659.25
457.232	1682.53
457.606	1692.24
457.979	1711.23
458.352	1711
458.725	1773.37
459.099	1726.82
459.472	1786.48
459.845	1813.14
460.218	1802.52
460.591	1831.45
460.964	1819.47
461.337	1858.34
461.71	1879.58
462.083	1936.08
462.456	1940.82
462.829	1981.5
463.201	1980.6
463.574	1999.81
463.947	2041.61
464.32	2099.46
464.692	2087.04
465.065	2111.22
465.438	2138.33
465.81	2134.94
466.183	2200.7
466.555	2232.34
466.928	2246.58
467.3	2260.59
467.672	2327.26
468.045	2367.03
468.417	2351.89
468.789	2406.58
469.161	2425.33
469.534	2454.03
469.906	2511.88
470.278	2560.02
470.65	2545.33
471.022	2635.72
471.394	2689.51
471.766	2749.17
472.138	2768.83
472.51	2789.62
472.882	2832.1
473.253	2890.86
473.625	2967.24
473.997	2997.97
474.369	3031.42
474.74	3045.43
475.112	3149.83
475.484	3242.26
475.855	3294.91
476.227	3317.29
476.598	3397.06
476.97	3460.56
477.341	3565.19
477.713	3613.55
478.084	3581.46
478.455	3808.35
478.827	3773.09
479.198	3924.95
479.569	3883.15
479.94	4047.89
480.311	4063.93
480.682	4192.29
481.053	4278.16
481.424	4363.36
481.795	4416.24
482.166	4501.21
482.537	4564.48
482.908	4692.84
483.279	4738.49
483.65	4833.63
484.021	4926.06
484.391	4994.98
484.762	5048.77
485.133	5077.69
485.503	5202.43
485.874	5355.88
486.244	5371.47
486.615	5510
486.985	5540.28
487.356	5677.22
487.726	5697.79
488.097	5866.15
488.467	5833.38
488.837	5966.03
489.207	6045.8
489.578	6129.42
489.948	6214.84
490.318	6332.35
490.688	6318.11
491.058	6465.9
491.428	6489.86
491.798	6569.18
492.168	6741.6
492.538	6783.41
492.908	6884.88
493.278	6956.96
493.648	6960.35
494.017	7063.63
494.387	7053.91
494.757	7200.57
495.126	7297.52
495.496	7293.23
495.866	7333.45
496.235	7406.9
496.605	7591.52
496.974	7566.21
497.344	7690.05
497.713	7729.15
498.082	7758.75
498.452	7899.54
498.821	7883.04
499.19	7994.22
499.559	7991.97
499.928	8066.09
500.298	8191.96
500.667	8241.9
501.036	8214.33
501.405	8419.07
501.774	8449.81
502.143	8435.34
502.512	8434.44
502.88	8583.59
503.249	8607.99
503.618	8647.77
503.987	8768.67
504.356	8838.72
504.724	8829.23
505.093	8914.2
505.462	8965.5
505.83	9015.67
506.199	9162.78
506.567	9224.93
506.936	9167.53
507.304	9371.14
507.672	9421.08
508.041	9420.4
508.409	9530.91
508.777	9607.52
509.145	9705.59
509.514	9768.64
509.882	9892.71
510.25	9843.44
510.618	9990.33
510.986	10059.03
511.354	10084.34
511.722	10212.25
512.09	10312.36
512.458	10292.02
512.826	10454.27
513.193	10496.08
513.561	10504.89
513.929	10667.6
514.297	10801.16
514.664	10850.42
515.032	10914.15
515.4	11011.77
515.767	11047.03
516.135	11203.18
516.502	11147.59
516.869	11333.8
517.237	11342.16
517.604	11354.36
517.972	11557.75
518.339	11662.15
518.706	11713.45
519.073	11780.11
519.44	11891.75
519.808	12039.09
520.175	11986.44
520.542	12206.09
520.909	12283.83
521.276	12359.31
521.643	12443.15
522.009	12554.78
522.376	12617.15
522.743	12727.21
523.11	12955
523.477	13092.62
523.843	13099.4
524.21	13293.52
524.577	13371.26
524.943	13491.48
525.31	13538.49
525.676	13651.93
526.043	13735.54
526.409	13774.19
526.776	14012.6
527.142	14083.78
527.508	14213.04
527.874	14289.2
528.241	14350.22
528.607	14486.71
528.973	14636.31
529.339	14585.46
529.705	14751.56
530.071	14868.17
530.437	15030.88
530.803	15089.63
531.169	15194.94
531.535	15066.81
531.901	15222.96
532.267	15277.88
532.632	15391.54
532.998	15494.59
533.364	15613.23
533.73	15600.58
534.095	15728.48
534.461	15849.39
534.826	15956.73
535.192	15992.66
535.557	16043.05
535.923	16127.57
536.288	16083.96
536.653	16262.03
537.019	16167.34
537.384	16351.52
537.749	16471.06
538.114	16388.81
538.479	16458.64
538.845	16706.54
539.21	16646.88
539.575	16767.78
539.94	16722.36
540.305	16761
540.67	16807.55
541.034	16973.65
541.399	17030.15
541.764	17101.78
542.129	17271.72
542.494	17238.28
542.858	17254.77
543.223	17336.8
543.587	17428.1
543.952	17333.87
544.316	17486.18
544.681	17526.63
545.045	17636.68
545.41	17636.23
545.774	17702.44
546.138	17884.81
546.503	17820.63
546.867	17940.86
547.231	18080.51
547.595	18155.09
547.959	18046.62
548.324	18191.92
548.688	18259.04
549.052	18344.91
549.416	18369.55
549.779	18405.02
550.143	18517.79
550.507	18625.81
550.871	18800.27
551.235	18747.16
551.599	18986.25
551.962	18975.86
552.326	19087.72
552.689	19236.64
553.053	19289.52
553.417	19348.28
553.78	19717.08
554.143	19579.68
554.507	19744.2
554.87	19834.37
555.234	20094.92
555.597	19960.69
555.96	20219.67
556.323	20252.43
556.686	20319.55
557.05	20465.08
557.413	20619.2
557.776	20595.25
558.139	20909.14
558.502	20980.32
558.865	21112.98
559.228	21337.15
559.59	21433.42
559.953	21568.11
560.316	21783.24
560.679	21858.49
561.041	22037.47
561.404	22184.59
561.767	22383.68
562.129	22450.12
562.492	22628.64
562.854	22758.58
563.217	22808.07
563.579	22943.21
563.941	23085.81
564.304	23263.88
564.666	23503.65
565.028	23739.57
565.39	23733.02
565.753	23916.29
566.115	24090.07
566.477	24291.88
566.839	24577.29
567.201	24696.84
567.563	24746.78
567.925	24999.2
568.287	25098.63
568.648	25253.88
569.01	25430.15
569.372	25696.13
569.734	25581.33
570.095	26022.45
570.457	26005.95
570.819	26421.76
571.18	26304.93
571.542	26687.29
571.903	26811.58
572.265	27012.93
572.626	27160.95
572.987	27218.58
573.349	27349.42
573.71	27592.58
574.071	27700.83
574.432	27872.12
574.794	28144.2
575.155	28225.56
575.516	28242.73
575.877	28484.53
576.238	28696.28
576.599	28877.52
576.96	28927.46
577.32	29033.9
577.681	29331.97
578.042	29445.41
578.403	29498.29
578.763	29576.48
579.124	29776.48
579.485	29983.7
579.845	30081.78
580.206	29890.15
580.566	30141.67
580.927	30291.04
581.287	30471.83
581.648	30531.71
582.008	30726.96
582.368	30710.92
582.728	30680.63
583.089	30804.25
583.449	30828.2
583.809	30956.11
584.169	31062.54
584.529	30950.01
584.889	31280.17
585.249	31183.45
585.609	31213.05
585.969	31540.5
586.329	31434.51
586.688	31463.21
587.048	31439.94
587.408	31419.82
587.768	31503.89
588.127	31466.15
588.487	31630.67
588.846	31839.7
589.206	31761.51
589.565	31770.1
589.925	31829.08
590.284	31775.52
590.643	32076.76
591.003	32081.95
591.362	32009.41
591.721	31986.36
592.08	32074.5
592.44	32093.48
592.799	32227.03
593.158	32105.68
593.517	32143.42
593.876	32182.29
594.235	32178.9
594.593	32403.98
594.952	32411.66
595.311	32220.03
595.67	32376.63
596.029	32541.6
596.387	32462.28
596.746	32584.54
597.104	32542.73
597.463	32514.71
597.822	32756.96
598.18	32512.22
598.538	32580.7
598.897	32701.82
599.255	32542.28
599.613	32953.79
599.972	32785.89
600.33	32770.3
600.688	32762.39
601.046	32960.12
601.404	32982.49
601.762	32833.12
602.12	33074.92
602.478	32978.43
602.836	32977.97
603.194	32864.76
603.552	33050.74
603.91	32938.2
604.268	33039.22
604.625	33036.05
604.983	33129.38
605.341	32877.41
605.698	33128.48
606.056	33161.47
606.413	33115.15
606.771	33353.78
607.128	33342.71
607.485	33206.67
607.843	33213.22
608.2	33385.65
608.557	33647.79
608.914	33375.25
609.272	33644.17
609.629	33548.36
609.986	33701.8
610.343	33469.49
610.7	33869.25
611.057	33734.34
611.414	33814.34
611.771	33754.23
612.127	33933.2
612.484	33928.01
612.841	34042.58
613.198	34017.72
613.554	33956.93
613.911	34132.52
614.267	34065.18
614.624	34174.78
614.98	34256.81
615.337	34351.95
615.693	34189.92
616.05	34382.01
616.406	34563.24
616.762	34386.3
617.118	34300.2
617.475	34296.13
617.831	34473.53
618.187	34492.51
618.543	34450.25
618.899	34584.49
619.255	34561.44
619.611	34459.07
619.967	34626.52
620.323	34587.88
620.678	34573.19
621.034	34590.36
621.39	34600.76
621.746	34599.4
622.101	35071.25
622.457	34731.83
622.812	34746.29
623.168	34848.21
623.523	34869.9
623.879	34811.82
624.234	34691.38
624.589	34713.07
624.945	34841.2
625.3	34890.92
625.655	34810.92
626.01	34791.71
626.365	34857.93
626.72	34828.77
627.075	34984.25
627.43	34753.3
627.785	34760.75
628.14	34872.16
628.495	34822.45
628.85	34861.99
629.205	34806.18
629.559	34923.91
629.914	34710.58
630.269	34705.16
630.623	34680.75
630.978	34578.84
631.332	34727.99
631.687	34782.9
632.041	34556.01
632.396	34510.36
632.75	34523.47
633.104	34572.96
633.459	34464.49
633.813	34403.02
634.167	34350.37
634.521	34269.69
634.875	34278.96
635.229	34342.46
635.583	34239.41
635.937	34189.02
636.291	34146.08
636.645	34170.94
636.999	34143.37
637.352	34253.87
637.706	33967.55
638.06	34101.11
638.413	33971.17
638.767	33937.05
639.121	33984.05
639.474	33921.45
639.828	33773.89
640.181	33893.66
640.534	33786.77
640.888	33722.36
641.241	33649.6
641.594	33775.24
641.947	33657.73
642.301	33664.28
642.654	33711.51
643.007	33731.4
643.36	33684.62
643.713	33478.98
644.066	33690.27
644.419	33352.2
644.771	33247.57
645.124	33049.84
645.477	32946.56
645.83	32660.69
646.182	32636.29
646.535	32446.01
646.888	32599
647.24	32294.83
647.593	32650.98
647.945	32615.72
648.298	32320.14
648.65	32337.31
649.002	32236.07
649.355	32521.04
649.707	32432.68
650.059	32411.21
650.411	32730.07
650.763	32904.08
651.115	33242.15
651.467	33027.69
651.819	33171.64
652.171	33081.47
652.523	32900.91
652.875	32975.49
653.227	32951.76
653.578	33149.72
653.93	32931.65
654.282	32763.74
654.633	32870.41
654.985	32819.79
655.337	32969.39
655.688	32914.02
656.039	32900.46
656.391	32749.05
656.742	32755.83
657.094	32830.63
657.445	32835.38
657.796	32824.76
658.147	32843.74
658.498	32896.85
658.849	32906.56
659.2	32836.06
659.551	32701.15
659.902	32833.35
660.253	32733.91
660.604	32833.57
660.955	32709.73
661.306	32815.27
661.656	32740.01
662.007	32735.04
662.358	32782.95
662.708	32712.22
663.059	32788.38
663.409	32596.97
663.76	32843.74
664.11	32742.95
664.461	32818.2
664.811	32674.25
665.161	32700.24
665.511	32662.95
665.862	32737.3
666.212	32804.65
666.562	32745.44
666.912	32696.17
667.262	32654.59
667.612	32653.69
667.962	32674.03
668.312	32649.62
668.662	32695.5
669.011	32563.75
669.361	32675.84
669.711	32574.14
670.06	32512
670.41	32626.35
670.76	32477.42
671.109	32643.97
671.459	32461.6
671.808	32429.29
672.157	32489.85
672.507	32338.67
672.856	32251.21
673.205	32341.61
673.554	32414.37
673.904	32252.34
674.253	32379.57
674.602	32272.68
674.951	31822.07
675.3	31698.23
675.649	32186.81
675.998	32089.18
676.346	32108.85
676.695	32203.08
677.044	31903.43
677.393	31930.77
677.741	32162.63
678.09	32125.12
678.438	32064.78
678.787	32040.37
679.135	32039.69
679.484	31825.01
679.832	31961.28
680.181	31851.45
680.529	31918.34
680.877	31711.34
681.225	31662.76
681.573	31853.48
681.922	31540.5
682.27	31516.77
682.618	31489.88
682.966	31451.24
683.314	31475.42
683.661	31519.26
684.009	31311.13
684.357	31204.69
684.705	31152.71
685.053	31198.81
685.4	31148.42
685.748	30986.16
686.095	30868.2
686.443	30950.46
686.79	30782.1
687.138	30879.5
687.485	30836.34
687.832	30614.2
688.18	30670.69
688.527	30513.18
688.874	30367.87
689.221	30414.43
689.568	30243.81
689.915	30256.92
690.262	30272.51
690.609	30159.52
690.956	30051.95
691.303	29965.85
691.65	29844.72
691.997	29725.4
692.344	29573.09
692.69	29555.69
693.037	29609.48
693.383	29339.2
693.73	29403.38
694.077	29228.24
694.423	29414.68
694.769	29103.95
695.116	29029.15
695.462	28973.56
695.808	28783.06
696.155	29136.95
696.501	28655.15
696.847	28597.3
697.193	28460.81
697.539	28627.35
697.885	28341.49
698.231	28226.91
698.577	28290.19
698.923	28202.96
699.269	28004.09
699.614	27929.07
699.96	27917.99
700.306	27868.05
700.651	27685.91
700.997	27624.44
701.342	27635.52
701.688	27564.78
702.033	27464.22
702.379	27457.22
702.724	27221.29
703.069	27364.34
703.415	26984.23
703.76	27070.79
704.105	27002.09
704.45	26876.67
704.795	26719.83
705.14	26567.75
705.485	26638.03
705.83	26550.57
706.175	26466.73
706.52	26322.33
706.865	26289.11
707.209	26165.72
707.554	26199.4
707.899	26245.72
708.243	25950.59
708.588	25986.07
708.932	25956.24
709.277	25860.65
709.621	25957.14
709.966	25633.08
710.31	25693.87
710.654	25533.88
710.998	25636.25
711.342	25522.13
711.687	25550.83
712.031	25327.78
712.375	25278.29
712.719	25380.21
713.063	25259.08
713.407	25378.17
713.75	24988.13
714.094	25170.72
714.438	24942.03
714.782	25052.99
715.125	24854.12
715.469	24917.4
715.812	24757.85
716.156	24675.14
716.499	24671.75
716.843	24696.84
717.186	24585.65
717.53	24738.87
717.873	24659.32
718.216	24631.08
718.559	24483.51
718.902	24463.17
719.246	24487.35
719.589	24393.79
719.932	24402.83
720.275	24363.06
720.617	24407.13
720.96	24246.68
721.303	24262.72
721.646	24361.7
721.989	24158.09
722.331	24235.61
722.674	24062.05
723.016	24174.59
723.359	24041.03
723.701	24153.12
724.044	23975.73
724.386	23902.28
724.729	24040.13
725.071	24004.65
725.413	23982.73
725.755	23974.37
726.097	23867.03
726.439	23731.89
726.782	23758.56
727.124	24006.91
727.465	23789.52
727.807	23810.08
728.149	23759.69
728.491	23771.89
728.833	23727.37
729.175	23662.97
729.516	23665.45
729.858	23594.49
730.199	23771.21
730.541	23733.47
730.882	23691.89
731.224	23665.23
731.565	23551.56
731.906	23641.05
732.248	23632.91
732.589	23509.52
732.93	23566.92
733.271	23544.55
733.612	23491.67
733.953	23600.37
734.294	23421.62
734.635	23447.83
734.976	23507.04
735.317	23370.32
735.658	23394.27
735.999	23410.54
736.339	23416.87
736.68	23478.79
737.021	23332.58
737.361	23401.5
737.702	23378.23
738.042	23392.69
738.383	23271.56
738.723	23417.1
739.063	23247.16
739.404	23369.19
739.744	23239.02
740.084	23254.61
740.424	23263.65
740.764	23209.64
741.104	23393.14
741.444	23254.61
741.784	23335.97
742.124	23292.58
742.464	23238.12
742.804	23159.02
743.143	23206.03
743.483	23202.41
743.823	23033.15
744.162	23159.7
744.502	23199.7
744.841	23003.32
745.181	23132.81
745.52	22982.08
745.86	23115.64
746.199	23016.43
746.538	23058.01
746.877	23081.96
747.216	23120.38
747.556	23023.89
747.895	23035.19
748.234	23041.74
748.573	23046.94
748.911	23089.65
749.25	22956.09
749.589	23009.42
749.928	23018.01
750.267	23014.85
750.605	23022.08
750.944	22913.38
751.283	22838.58
751.621	22843.1
751.96	22753.84
752.298	22805.36
752.636	22848.07
752.975	22795.64
753.313	22688.53
753.651	22702.54
753.989	22549.1
754.327	22573.28
754.666	22497.12
755.004	22453.51
755.342	22607.17
755.679	22474.52
756.017	22428.87
756.355	22501.87
756.693	22344.13
757.031	22418.48
757.368	22233.4
757.706	22295.09
758.044	22183.46
758.381	22233.85
758.719	22187.98
759.056	22204.25
759.394	22088.54
759.731	21921.09
760.068	22070.01
760.405	21944.59
760.743	21827.53
761.08	21888.77
761.417	21687.88
761.754	21770.81
762.091	21739.4
762.428	21561.78
762.765	21438.17
763.102	21599.97
763.438	21513.87
763.775	21429.13
764.112	21474.55
764.449	21342.35
764.785	21271.39
765.122	21178.06
765.458	21016.93
765.795	21053.54
766.131	20957.27
766.467	21005.63
766.804	20788.46
767.14	20690.84
767.476	20678.41
767.812	20561.58
768.148	20689.71
768.485	20521.58
768.821	20477.74
769.157	20381.7
769.492	20345.54
769.828	20359.78
770.164	20107.58
770.5	20026
770.836	20203.4
771.171	20092.21
771.507	20028.26
771.842	19875.49
772.178	19850.41
772.513	19784.88
772.849	19698.1
773.184	19521.38
773.519	19578.55
773.855	19578.78
774.19	19427.6
774.525	19365.68
774.86	19424.21
775.195	19396.64
775.53	19217.88
775.865	19120.03
776.2	19056.53
776.535	18934.5
776.87	18946.25
777.205	18849.31
777.539	18625.36
777.874	18764.34
778.209	18660.84
778.543	18568.64
778.878	18497.23
779.212	18500.62
779.547	18397.34
779.881	18460.39
780.215	18347.4
780.55	18416.32
780.884	18205.03
781.218	18203.9
781.552	18085.71
781.886	18051.59
782.22	17953.96
782.554	17833.51
782.888	17760.07
783.222	17651.6
783.556	17685.27
783.889	17619.96
784.223	17431.72
784.557	17443.47
784.89	17460.42
785.224	17278.05
785.557	17189.69
785.891	17231.04
786.224	17092.97
786.558	17043.03
786.891	16878.29
787.224	16916.48
787.557	16741.34
787.891	16805.52
788.224	16766.65
788.557	16693.21
788.89	16704.5
789.223	16721.68
789.556	16507.22
789.888	16482.82
790.221	16479.65
790.554	16336.83
790.887	16261.35
791.219	16281.24
791.552	16226.32
791.884	16194.91
792.217	16140.23
792.549	16050.74
792.882	15901.36
793.214	15790.63
793.546	15876.5
793.879	15912.21
794.211	15689.39
794.543	15739.11
794.875	15689.39
795.207	15712.21
795.539	15586.34
795.871	15602.16
796.203	15419.57
796.535	15417.76
796.867	15388.83
797.198	15327.37
797.53	15381.15
797.862	15201.49
798.193	15287.37
798.525	15132.79
798.856	15250.53
799.188	15006.7
799.519	14976.41
799.85	14857.32
800.182	14877.21
800.513	14866.36
800.844	14747.04
801.175	14837.66
801.506	14807.38
801.837	14662.75
802.168	14667.27
802.499	14587.95
802.83	14531.68
803.161	14496.43
803.491	14471.79
803.822	14442.64
804.153	14363.55
804.483	14349.54
804.814	14191.8
805.145	14245.36
805.475	14164.91
805.805	14169.43
806.136	14154.97
806.466	14110.9
806.796	14075.19
807.126	13938.7
807.457	13937.57
807.787	13942.99
808.117	13805.82
808.447	13849.89
808.777	13840.85
809.107	13830
809.436	13749.33
809.766	13818.25
810.096	13688.76
810.426	13681.08
810.755	13626.85
811.085	13573.06
811.414	13601.54
811.744	13464.36
812.073	13412.16
812.403	13475.66
812.732	13431.82
813.061	13376.68
813.39	13317.25
813.719	13214.43
814.049	13324.71
814.378	13265.5
814.707	13147.08
815.036	13294.88
815.365	13122.9
815.693	12966.07
816.022	12995.45
816.351	12977.6
816.68	12839.75
817.008	12955.68
817.337	12796.81
817.665	12816.02
817.994	12824.83
818.322	12900.99
818.651	12802.01
818.979	12703.25
819.307	12761.78
819.636	12712.29
819.964	12613.09
820.292	12626.87
820.62	12624.16
820.948	12524.95
821.276	12609.47
821.604	12628.23
821.932	12634.78
822.259	12643.37
822.587	12569.92
822.915	12606.53
823.243	12646.76
823.57	12534.22
823.898	12607.44
824.225	12533.54
824.553	12559.3
824.88	12588.45
825.207	12534.22
825.535	12550.94
825.862	12606.31
826.189	12513.2
826.516	12541.68
826.843	12562.24
827.17	12563.6
827.497	12541.45
827.824	12484.73
828.151	12614.89
828.478	12589.36
828.805	12553.43
829.131	12554.33
829.458	12491.96
829.785	12462.58
830.111	12453.32
830.438	12534.67
830.764	12468.46
831.09	12476.14
831.417	12465.97
831.743	12491.28
832.069	12491.06
832.395	12499.42
832.722	12520.66
833.048	12451.51
833.374	12399.53
833.7	12394.56
834.026	12463.71
834.351	12434.79
834.677	12359.31
835.003	12363.38
835.329	12309.14
835.654	12361.79
835.98	12271.85
836.306	12331.06
836.631	12325.41
836.956	12324.73
837.282	12216.94
837.607	12274.34
837.932	12218.52
838.258	12225.07
838.583	12190.95
838.908	12068.24
839.233	12105.08
839.558	12132.2
839.883	12009.71
840.208	12003.61
840.533	12070.73
840.858	12077.96
841.182	12049.49
841.507	11983.95
841.832	11993.89
842.156	12023.27
842.481	11878.19
842.805	11932.65
843.13	11890.62
843.454	11876.61
843.778	11818.31
844.103	11777.85
844.427	11712.09
844.751	11687.01
845.075	11706.9
845.399	11649.95
845.723	11602.72
846.047	11628.03
846.371	11556.62
846.695	11535.6
847.019	11419.67
847.343	11322.05
847.666	11282.5
847.99	11290.18
848.313	11306.68
848.637	11272.56
848.96	11140.58
849.284	11161.37
849.607	11066.01
849.931	11023.75
850.254	10952.34
850.577	10906.24
850.9	10836.86
851.223	10825.34
851.546	10833.7
851.869	10725.9
852.192	10780.82
852.515	10618.79
852.838	10609.3
853.161	10699.69
853.483	10565.91
853.806	10524.33
854.129	10559.81
854.451	10403.43
854.774	10382.64
855.096	10366.14
855.419	10315.29
855.741	10365.46
856.063	10289.53
856.385	10291.57
856.708	10242.53
857.03	10186.26
857.352	10208.4
857.674	10165.47
857.996	10089.99
858.318	10035.98
858.64	10013.15
858.961	10020.84
859.283	10043.44
859.605	9952.59
859.926	10037.79
860.248	9958.47
860.57	9948.75
860.891	9932.93
861.212	9817.45
861.534	9832.82
861.855	9811.58
862.176	9769.09
862.498	9847.96
862.819	9831.69
863.14	9772.71
863.461	9718.47
863.782	9678.47
864.103	9732.03
864.424	9677.12
864.745	9679.6
865.065	9594.41
865.386	9619.04
865.707	9585.37
866.027	9651.81
866.348	9573.39
866.668	9593.5
866.989	9496.11
867.309	9462.89
867.63	9531.36
867.95	9508.54
868.27	9361.19
868.59	9423.79
868.91	9422.89
869.23	9414.53
869.55	9383.57
869.87	9440.51
870.19	9414.07
870.51	9401.19
870.83	9370.69
871.15	9303.79
871.469	9294.08
871.789	9330.23
872.109	9243.91
872.428	9251.14
872.748	9251.14
873.067	9252.72
873.386	9265.38
873.706	9276.23
874.025	9158.04
874.344	9112.84
874.663	9149.45
874.982	9079.85
875.301	9146.06
875.62	9160.52
875.939	9055.44
876.258	9095.44
876.577	9072.39
876.896	9051.15
877.214	9035.33
877.533	8972.05
877.852	8982.67
878.17	8996.01
878.489	9050.24
878.807	8974.54
879.125	8937.48
879.444	8923.24
879.762	8950.36
880.08	8891.83
880.398	8887.76
880.716	8844.82
881.034	8824.03
881.352	8806.41
881.67	8810.02
881.988	8825.62
882.306	8787.42
882.624	8837.59
882.941	8692.74
883.259	8669.69
883.577	8689.57
883.894	8681.66
884.212	8668.33
884.529	8685.51
884.846	8560.99
885.164	8630.82
885.481	8573.42
885.798	8627.2
886.115	8498.62
886.432	8540.88
886.75	8510.82
887.067	8497.04
887.383	8497.26
887.7	8474.21
888.017	8391.28
888.334	8428.79
888.651	8369.58
888.967	8403.71
889.284	8365.06
889.6	8315.35
889.917	8244.84
890.233	8262.69
890.55	8277.16
890.866	8305.18
891.182	8252.52
891.498	8113.77
891.815	8173.88
892.131	8130.04
892.447	8109.25
892.763	8077.39
893.079	8024.96
893.395	8024.28
893.71	7993.77
894.026	7986.54
894.342	8004.17
894.657	7963.27
894.973	7879.65
895.289	7898.86
895.604	7935.47
895.92	7863.15
896.235	7793.78
896.55	7833.1
896.865	7764.63
897.181	7659.32
897.496	7789.48
897.811	7704.51
898.126	7649.38
898.441	7648.02
898.756	7605.53
899.071	7539.77
899.386	7593.11
899.7	7512.43
900.015	7437.86
900.33	7465.65
900.644	7453.45
900.959	7433.56
901.273	7376.84
901.588	7334.36
901.902	7343.39
902.216	7300.68
902.531	7282.83
902.845	7274.7
903.159	7245.32
903.473	7193.79
903.787	7177.75
904.101	7154.47
904.415	7154.47
904.729	7048.94
905.042	7097.75
905.356	7101.37
905.67	6990.18
905.984	7069.5
906.297	6970.07
906.611	6962.61
906.924	6862.96
907.237	6879.45
907.551	6909.06
907.864	6863.41
908.177	6836.74
908.491	6863.86
908.804	6792.9
909.117	6769.4
909.43	6695.05
909.743	6679.68
910.056	6630.19
910.368	6621.83
910.681	6613.92
910.994	6572.57
911.307	6535.51
911.619	6535.51
911.932	6547.94
912.244	6515.85
912.557	6462.29
912.869	6451.67
913.181	6381.61
913.494	6403.53
913.806	6323.99
914.118	6362.63
914.43	6326.92
914.742	6306.36
915.054	6260.94
915.366	6237.66
915.678	6211.9
915.99	6165.8
916.302	6110.88
916.613	6128.96
916.925	6082.18
917.236	6096.65
917.548	6063.88
917.859	6044.9
918.171	6008.51
918.482	5974.84
918.794	5998.35
919.105	5965.35
919.416	5909.53
919.727	5906.82
920.038	5853.49
920.349	5805.58
920.66	5814.85
920.971	5834.06
921.282	5772.36
921.593	5742.76
921.903	5722.42
922.214	5709.09
922.525	5634.29
922.835	5630.9
923.146	5625.47
923.456	5611.01
923.767	5549.77
924.077	5522.43
924.387	5554.29
924.697	5506.61
925.008	5483.78
925.318	5417.34
925.628	5434.52
925.938	5402.2
926.248	5375.08
926.558	5372.82
926.867	5358.81
927.177	5295.31
927.487	5253.96
927.796	5262.32
928.106	5210.57
928.416	5214.64
928.725	5182.32
929.034	5171.02
929.344	5199.04
929.653	5126.05
929.962	5136.22
930.271	5098.03
930.581	5022.55
930.89	5063.91
931.199	5042.44
931.508	5039.73
931.817	5023
932.125	4990.69
932.434	4941.65
932.743	4885.61
933.051	4924.48
933.36	4879.73
933.669	4811.26
933.977	4824.14
934.286	4846.96
934.594	4825.49
934.902	4744.59
935.21	4755.21
935.519	4741.2
935.827	4745.95
936.135	4714.76
936.443	4669.11
936.751	4634.54
937.059	4617.14
937.367	4619.62
937.674	4632.28
937.982	4598.38
938.29	4551.38
938.597	4620.75
938.905	4556.12
939.213	4493.07
939.52	4510.7
939.827	4509.57
940.135	4477.71
940.442	4442.68
940.749	4439.29
941.056	4476.13
941.363	4388.9
941.67	4377.37
941.977	4328.56
942.284	4333.3
942.591	4256.7
942.898	4331.04
943.205	4284.94
943.511	4239.3
943.818	4212.4
944.125	4225.28
944.431	4223.25
944.738	4191.39
945.044	4208.79
945.35	4141.67
945.657	4168.79
945.963	4136.93
946.269	4150.71
946.575	4099.41
946.881	4092.18
947.187	4076.59
947.493	4047.66
947.799	4022.8
948.105	4015.8
948.41	3952.07
948.716	3973.99
949.022	3931.73
949.327	3940.32
949.633	3870.94
949.938	3930.83
950.244	3913.43
950.549	3889.02
950.854	3854.9
951.16	3879.08
951.465	3812.64
951.77	3835.24
952.075	3762.02
952.38	3785.75
952.685	3762.7
952.99	3738.74
953.294	3700.55
953.599	3693.55
953.904	3684.06
954.209	3670.72
954.513	3652.64
954.818	3666.2
955.122	3630.05
955.426	3625.75
955.731	3603.15
956.035	3582.82
956.339	3567.9
956.643	3558.41
956.948	3541.91
957.252	3477.96
957.556	3490.16
957.86	3520.44
958.163	3492.42
958.467	3465.98
958.771	3461.24
959.075	3423.5
959.378	3418.53
959.682	3368.81
959.985	3362.93
960.289	3382.14
960.592	3347.79
960.896	3309.38
961.199	3334.46
961.502	3316.38
961.805	3326.1
962.108	3250.85
962.411	3226.44
962.714	3240.9
963.017	3214.46
963.32	3238.42
963.623	3245.42
963.926	3198.19
964.228	3223.5
964.531	3188.02
964.833	3161.58
965.136	3156.84
965.438	3162.04
965.741	3136.5
966.043	3116.84
966.345	3106.22
966.648	3096.95
966.95	3117.52
967.252	3047.91
967.554	3034.81
967.856	3056.95
968.158	3008.59
968.46	3023.28
968.761	3026.45
969.063	2970.4
969.365	2985.99
969.666	2956.17
969.968	2908.71
970.269	2941.48
970.571	2919.33
970.872	2920.69
971.174	2879.11
971.475	2885.43
971.776	2858.54
972.077	2873
972.378	2826
972.679	2848.15
972.98	2816.51
973.281	2812.44
973.582	2803.4
973.883	2786.9
974.183	2752.33
974.484	2763.4
974.785	2759.33
975.085	2741.48
975.386	2717.08
975.686	2698.09
975.986	2686.79
976.287	2683.63
976.587	2699
976.887	2694.48
977.187	2673.69
977.487	2659.22
977.787	2648.6
978.087	2605.67
978.387	2601.37
978.687	2628.49
978.987	2549.4
979.286	2614.71
979.586	2583.07
979.885	2591.2
980.185	2547.81
980.484	2512.79
980.784	2519.79
981.083	2513.24
981.382	2531.09
981.682	2481.38
981.981	2507.36
982.28	2435.5
982.579	2449.74
982.878	2496.29
983.177	2435.27
983.475	2446.12
983.774	2414.03
984.073	2407.25
984.372	2402.96
984.67	2418.33
984.969	2417.65
985.267	2346.01
985.566	2369.06
985.864	2342.4
986.162	2350.98
986.461	2327.03
986.759	2334.49
987.057	2321.61
987.355	2268.05
987.653	2280.48
987.951	2282.74
988.249	2253.58
988.547	2211.1
988.844	2295.84
989.142	2221.04
989.44	2222.17
989.737	2200.48
990.035	2181.27
990.332	2177.2
990.63	2202.06
990.927	2188.73
991.224	2150.76
991.521	2155.06
991.819	2121.61
992.116	2145.57
992.413	2128.62
992.71	2111.67
993.006	2091.78
993.303	2096.98
993.6	2108.5
993.897	2086.58
994.193	2063.53
994.49	2068.73
994.787	2056.53
995.083	2068.96
995.379	2048.39
995.676	2005
995.972	2019.69
996.268	1997.32
996.565	1995.96
996.861	2014.27
997.157	1968.62
997.453	1955.51
997.749	1944.67
998.044	1915.51
998.34	1941.95
998.636	1924.33
998.932	1933.37
999.227	1870.77
999.523	1906.02
999.818	1864.44
1000.114	1870.77
1000.409	1881.39
1000.704	1853.6
1001	1854.5
1001.295	1838
1001.59	1841.39
1001.885	1792.58
1002.18	1798.46
1002.475	1791.68
1002.77	1811.56
1003.065	1810.21
1003.359	1780.83
1003.654	1769.76
1003.949	1774.73
1004.243	1742.86
1004.538	1715.07
1004.832	1695.41
1005.127	1710.77
1005.421	1706.03
1005.715	1696.99
1006.009	1734.05
1006.304	1696.09
1006.598	1665.13
1006.892	1659.02
1007.186	1673.26
1007.48	1631.68
1007.773	1642.08
1008.067	1657.89
1008.361	1633.94
1008.655	1618.8
1008.948	1595.52
1009.242	1592.81
1009.535	1619.48
1009.829	1592.36
1010.122	1561.85
1010.415	1571.34
1010.708	1537.67
1011.001	1524.56
1011.295	1540.16
1011.588	1544.9
1011.881	1518.69
1012.173	1502.19
1012.466	1520.27
1012.759	1495.19
1013.052	1478.69
1013.344	1453.61
1013.637	1442.08
1013.93	1473.94
1014.222	1476.88
1014.514	1421.52
1014.807	1430.56
1015.099	1424
1015.391	1398.92
1015.683	1410.22
1015.976	1428.07
1016.268	1375.42
1016.56	1415.87
1016.851	1364.34
1017.143	1365.92
1017.435	1377.9
1017.727	1362.76
1018.018	1347.39
1018.31	1313.5
1018.602	1333.38
1018.893	1311.01
1019.185	1332.93
1019.476	1291.35
1019.767	1274.4
1020.058	1254.52
1020.35	1278.02
1020.641	1256.32
1020.932	1284.34
1021.223	1285.02
1021.514	1246.61
1021.804	1227.62
1022.095	1238.47
1022.386	1233.95
1022.677	1216.32
1022.967	1210.22
1023.258	1183.33
1023.548	1188.3
1023.839	1193.27
1024.129	1179.49
1024.419	1175.65
1024.709	1170
1025	1149.89
1025.29	1150.11
1025.58	1130.45
1025.87	1145.82
1026.16	1110.11
1026.449	1126.61
1026.739	1128.87
1027.029	1090.68
1027.319	1102.43
1027.608	1085.48
1027.898	1097.23
1028.187	1108.53
1028.477	1073.05
1028.766	1073.5
1029.055	1048.19
1029.344	1061.53
1029.634	1049.55
1029.923	1055.88
1030.212	1037.57
1030.501	1023.56
1030.79	1014.75
1031.078	1031.7
1031.367	998.7
1031.656	1007.29
1031.945	999.15
1032.233	982.21
1032.522	988.31
1032.81	992.38
1033.099	963
1033.387	963.68
1033.675	951.25
1033.963	961.42
1034.251	961.19
1034.54	941.75
1034.828	941.3
1035.116	937.24
1035.403	917.8
1035.691	927.29
1035.979	918.48
1036.267	933.39
1036.554	908.99
1036.842	876.22
1037.129	880.06
1037.417	895.88
1037.704	882.77
1037.992	905.6
1038.279	871.93
1038.566	852.27
1038.853	852.27
1039.14	852.27
