Data from tablewood_dark_bookshelf_FLMS001491_00005.txt Node
Date: Wed Feb 08 14:13:19 GMT 2017
User: dcchb
Spectrometer: FLMS00149
Trigger mode: 0
Integration Time (sec): 2.000000E-2
Scans to average: 10
Electric dark correction enabled: true
Nonlinearity correction enabled: false
Boxcar width: 0
XAxis mode: Wavelengths
Number of Pixels in Spectrum: 2048
>>>>>Begin Spectral Data<<<<<
341.393	-5.18
341.776	-5.18
342.16	-5.18
342.543	-60.55
342.927	-74.33
343.31	-72.98
343.693	-69.59
344.077	-67.33
344.46	-56.03
344.843	-56.93
345.226	-34.56
345.61	-18.06
345.993	-22.81
346.376	-3.38
346.759	21.26
347.142	29.62
347.525	40.69
347.908	59.22
348.291	61.71
348.674	87.7
349.057	101.48
349.44	118.88
349.823	126.79
350.206	161.82
350.588	195.26
350.971	209.95
351.354	233.91
351.737	209.5
352.119	247.24
352.502	259.22
352.884	264.19
353.267	283.85
353.65	289.05
354.032	278.42
354.414	318.42
354.797	319.55
355.179	310.97
355.562	314.13
355.944	325.66
356.326	330.4
356.709	323.62
357.091	336.73
357.473	355.03
357.855	350.51
358.238	337.86
358.62	343.28
359.002	354.36
359.384	340.8
359.766	348.25
360.148	344.64
360.53	329.72
360.912	348.93
361.294	321.36
361.676	329.5
362.057	348.03
362.439	310.74
362.821	319.78
363.203	338.31
363.584	345.32
363.966	337.41
364.348	326.56
364.729	328.59
365.111	325.88
365.493	327.92
365.874	336.05
366.256	333.79
366.637	309.38
367.019	305.99
367.4	317.07
367.781	318.42
368.163	320.01
368.544	321.14
368.925	305.32
369.306	327.92
369.688	317.07
370.069	340.57
370.45	333.56
370.831	301.25
371.212	333.34
371.593	336.05
371.974	315.26
372.355	314.13
372.736	344.41
373.117	307.35
373.498	353.68
373.879	329.95
374.26	330.17
374.641	325.2
375.021	317.75
375.402	329.72
375.783	348.03
376.163	340.8
376.544	363.39
376.925	343.51
377.305	327.24
377.686	325.66
378.066	339.44
378.447	346.22
378.827	352.77
379.208	356.61
379.588	359.33
379.968	350.51
380.349	367.46
380.729	364.07
381.109	367.24
381.489	359.55
381.87	360.46
382.25	362.94
382.63	381.7
383.01	380.57
383.39	377.41
383.77	376.5
384.15	382.15
384.53	385.09
384.91	374.92
385.29	410.4
385.67	381.92
386.049	387.57
386.429	378.31
386.809	399.1
387.189	375.15
387.568	394.13
387.948	382.83
388.328	377.86
388.707	412.21
389.087	385.31
389.466	408.59
389.846	425.99
390.225	410.4
390.605	395.26
390.984	401.81
391.363	407.46
391.743	400.46
392.122	418.31
392.501	421.47
392.881	439.32
393.26	435.48
393.639	448.59
394.018	444.75
394.397	447.91
394.776	448.36
395.155	442.04
395.534	460.79
395.913	450.17
396.292	450.17
396.671	455.6
397.05	457.86
397.429	477.52
397.808	455.14
398.186	473
398.565	459.44
398.944	496.05
399.323	456.73
399.701	493.79
400.08	507.8
400.458	487.01
400.837	486.78
401.215	508.93
401.594	503.5
401.972	514.8
402.351	486.33
402.729	498.76
403.107	502.83
403.486	530.17
403.864	515.48
404.242	506.67
404.62	510.28
404.999	555.25
405.377	527.46
405.755	525.42
406.133	543.28
406.511	541.69
406.889	555.93
407.267	559.32
407.645	548.7
408.023	566.33
408.401	554.12
408.779	582.6
409.156	596.38
409.534	595.03
409.912	573.78
410.29	616.04
410.667	594.35
411.045	629.38
411.422	610.39
411.8	621.47
412.178	648.13
412.555	605.87
412.933	621.01
413.31	652.2
413.687	665.31
414.065	648.36
414.442	663.27
414.819	670.96
415.197	670.96
415.574	689.49
415.951	697.62
416.328	680.22
416.705	723.38
417.082	698.75
417.46	679.54
417.837	708.02
418.214	710.28
418.591	722.48
418.967	717.06
419.344	735.81
419.721	758.19
420.098	721.35
420.475	732.42
420.852	758.86
421.228	729.94
421.605	756.15
421.982	779.43
422.358	783.04
422.735	769.94
423.111	768.13
423.488	799.09
423.864	778.3
424.241	811.29
424.617	823.72
424.994	826.21
425.37	837.28
425.746	816.49
426.123	852.87
426.499	857.62
426.875	862.36
427.251	867.79
427.627	872.99
428.003	862.82
428.379	880.22
428.756	899.2
429.132	917.73
429.507	911.18
429.883	923.15
430.259	945.3
430.635	974.23
431.011	939.88
431.387	980.78
431.763	990.5
432.138	979.65
432.514	984.17
432.89	998.63
433.265	1033.66
433.641	1037.5
434.016	1062.13
434.392	1059.42
434.767	1078.4
435.143	1072.75
435.518	1099.19
435.894	1101.45
436.269	1086.54
436.644	1134.22
437.02	1134.45
437.395	1131.51
437.77	1146.88
438.145	1176.48
438.52	1178.74
438.895	1162.24
439.271	1180.55
439.646	1191.62
440.021	1210.83
440.395	1218.06
440.77	1216.93
441.145	1258.74
441.52	1244.95
441.895	1243.37
442.27	1228.23
442.645	1254.22
443.019	1281.11
443.394	1268.91
443.769	1298.96
444.143	1265.07
444.518	1329.92
444.892	1273.43
445.267	1291.28
445.641	1315.46
446.016	1356.81
446.39	1344.16
446.764	1354.78
447.139	1379.86
447.513	1361.79
447.887	1383.25
448.262	1366.08
448.636	1404.72
449.01	1392.52
449.384	1441.33
449.758	1401.79
450.132	1451.5
450.506	1423.03
450.88	1472.74
451.254	1443.37
451.628	1463.03
452.002	1521.78
452.376	1496.25
452.75	1515.91
453.123	1548.22
453.497	1541.67
453.871	1581.44
454.244	1606.98
454.618	1600.42
454.992	1621.67
455.365	1647.43
455.739	1641.55
456.112	1688.11
456.486	1674.32
456.859	1684.49
457.232	1747.09
457.606	1760.65
457.979	1752.51
458.352	1774.66
458.725	1800.42
459.099	1819.18
459.472	1902.34
459.845	1869.57
460.218	1883.58
460.591	1890.59
460.964	1891.04
461.337	1979.4
461.71	1985.72
462.083	2019.85
462.456	2006.74
462.829	2034.31
463.201	2077.7
463.574	2081.54
463.947	2105.72
464.32	2162.67
464.692	2171.48
465.065	2167.64
465.438	2182.33
465.81	2226.4
466.183	2240.63
466.555	2287.86
466.928	2314.53
467.3	2319.73
467.672	2359.5
468.045	2403.57
468.417	2451.7
468.789	2418.93
469.161	2499.61
469.534	2497.12
469.906	2566.05
470.278	2574.41
470.65	2579.61
471.022	2652.83
471.394	2675.65
471.766	2723.33
472.138	2716.33
472.51	2799.04
472.882	2818.92
473.253	2863.22
473.625	2919.49
473.997	2966.94
474.369	2989.54
474.74	3023.44
475.112	3015.53
475.484	3109.54
475.855	3182.08
476.227	3184.11
476.598	3302.53
476.97	3275.18
477.341	3343.43
477.713	3417.55
478.084	3393.15
478.455	3505.23
478.827	3555.4
479.198	3638.79
479.569	3680.82
479.94	3748.16
480.311	3781.38
480.682	3869.29
481.053	3935.5
481.424	3997.2
481.795	4009.17
482.166	4105.44
482.537	4160.13
482.908	4260.24
483.279	4231.54
483.65	4319.22
484.021	4402.61
484.391	4499.78
484.762	4501.14
485.133	4570.74
485.503	4612.1
485.874	4686.22
486.244	4727.57
486.615	4854.58
486.985	4909.72
487.356	4998.98
487.726	5028.36
488.097	5107.9
488.467	5167.56
488.837	5212.98
489.207	5334.79
489.578	5374.11
489.948	5437.39
490.318	5490.94
490.688	5516.93
491.058	5620.88
491.428	5677.15
491.798	5745.85
492.168	5850.26
492.538	5822.91
492.908	5917.82
493.278	5988.11
493.648	5981.1
494.017	6076.92
494.387	6173.41
494.757	6205.27
495.126	6294.31
495.496	6257.25
495.866	6333.63
496.235	6428.09
496.605	6438.71
496.974	6457.02
497.344	6553.51
497.713	6588.32
498.082	6690.23
498.452	6709.67
498.821	6758.25
499.19	6743.79
499.559	6872.6
499.928	6845.71
500.298	6968.19
500.667	7033.73
501.036	7019.72
501.405	7061.07
501.774	7103.56
502.143	7189.88
502.512	7219.26
502.88	7290.67
503.249	7278.47
503.618	7368.18
503.987	7409.99
504.356	7455.64
504.724	7530.89
505.093	7511.68
505.462	7615.86
505.83	7614.28
506.199	7729.53
506.567	7857.21
506.936	7814.95
507.304	7925.46
507.672	7980.14
508.041	7986.47
508.409	8051.55
508.777	8089.97
509.145	8143.53
509.514	8233.24
509.882	8182.17
510.25	8322.28
510.618	8347.82
510.986	8407.93
511.354	8456.29
511.722	8597.08
512.09	8630.75
512.458	8636.62
512.826	8723.4
513.193	8764.98
513.561	8836.62
513.929	8915.26
514.297	9036.16
514.664	9070.51
515.032	9092.2
515.4	9115.48
515.767	9208.81
516.135	9280
516.502	9295.14
516.869	9425.3
517.237	9436.83
517.604	9364.29
517.972	9583.04
518.339	9603.6
518.706	9660.1
519.073	9703.49
519.44	9809.7
519.808	9939.87
520.175	9905.74
520.542	10070.26
520.909	10118.84
521.276	10143.02
521.643	10236.81
522.009	10345.73
522.376	10450.81
522.743	10446.07
523.11	10583.92
523.477	10658.49
523.843	10669.56
524.21	10843.8
524.577	10963.12
524.943	11010.35
525.31	11061.42
525.676	11103.45
526.043	11187.06
526.409	11323.56
526.776	11347.29
527.142	11376.66
527.508	11474.06
527.874	11631.8
528.241	11651.91
528.607	11745.92
528.973	11847.84
529.339	11898.46
529.705	11989.53
530.071	12089.19
530.437	12018.68
530.803	12269.52
531.169	12339.58
531.535	12269.75
531.901	12361.05
532.267	12512.68
532.632	12547.93
532.998	12506.35
533.364	12673.81
533.73	12657.08
534.095	12839
534.461	12791.09
534.826	12878.09
535.192	12928.71
535.557	13019.78
535.923	13009.16
536.288	13051.87
536.653	13175.03
537.019	13175.71
537.384	13265.43
537.749	13334.35
538.114	13320.34
538.479	13399.89
538.845	13468.81
539.21	13472.65
539.575	13569.6
539.94	13579.54
540.305	13663.84
540.67	13744.96
541.034	13772.08
541.399	13873.32
541.764	13852.53
542.129	13942.25
542.494	14042.36
542.858	13960.33
543.223	13998.06
543.587	14213.43
543.952	14201.22
544.316	14246.65
544.681	14216.36
545.045	14384.49
545.41	14307.21
545.774	14483.93
546.138	14410.03
546.503	14498.39
546.867	14499.75
547.231	14615.22
547.595	14617.26
547.959	14754.88
548.324	14723.69
548.688	14748.55
549.052	14829
549.416	14896.57
549.779	14913.97
550.143	15030.35
550.507	15063.12
550.871	15158.26
551.235	15064.25
551.599	15289.33
551.962	15314.87
552.326	15342.89
552.689	15410.46
553.053	15370.23
553.417	15415.65
553.78	15680.05
554.143	15559.15
554.507	15705.82
554.87	15807.06
555.234	15923.21
555.597	15784.46
555.96	15927.96
556.323	16050.67
556.686	16073.49
557.05	16237.78
557.413	16237.1
557.776	16307.83
558.139	16429.19
558.502	16509.64
558.865	16497.43
559.228	16646.81
559.59	16688.16
559.953	16710.76
560.316	16868.5
560.679	16939.23
561.041	16990.53
561.404	17059
561.767	17177.64
562.129	17200.47
562.492	17481.59
562.854	17354.13
563.217	17412.21
563.579	17472.1
563.941	17544.64
564.304	17722.03
564.666	17792.31
565.028	17818.08
565.39	17978.98
565.753	18029.6
566.115	18091.52
566.477	18087.67
566.839	18252.87
567.201	18392.52
567.563	18462.81
567.925	18620.54
568.287	18633.42
568.648	18632.52
569.01	18760.2
569.372	18823.25
569.734	18872.96
570.095	18934.43
570.457	19067.99
570.819	19020.76
571.18	19139.17
571.542	19256.91
571.903	19267.53
572.265	19305.95
572.626	19562.21
572.987	19497.81
573.349	19645.37
573.71	19760.4
574.071	19718.82
574.432	19858.25
574.794	19980.51
575.155	19968.3
575.516	19971.47
575.877	20139.37
576.238	20097.11
576.599	20283.1
576.96	20286.49
577.32	20314.51
577.681	20378.69
578.042	20514.5
578.403	20499.14
578.763	20463.66
579.124	20532.36
579.485	20626.36
579.845	20825.23
580.206	20707.72
580.566	20710.2
580.927	20838.56
581.287	20895.74
581.648	20910.88
582.008	21001.04
582.368	21015.51
582.728	21231.09
583.089	20969.86
583.449	21160.36
583.809	21063.19
584.169	21192.68
584.529	21156.29
584.889	21354.25
585.249	21193.58
585.609	21209.17
585.969	21421.6
586.329	21366.46
586.688	21457.53
587.048	21409.39
587.408	21374.14
587.768	21385.67
588.127	21401.49
588.487	21438.32
588.846	21576.62
589.206	21538.43
589.565	21535.72
589.925	21614.14
590.284	21710.63
590.643	21730.29
591.003	21742.72
591.362	21776.84
591.721	21715.83
592.08	21830.4
592.44	21763.06
592.799	21961.92
593.158	21905.43
593.517	21913.11
593.876	21948.36
594.235	21890.29
594.593	21944.52
594.952	22058.19
595.311	21959.66
595.67	22069.04
596.029	22131.64
596.387	22201.01
596.746	22175.02
597.104	22124.18
597.463	22137.96
597.822	22317.17
598.18	22150.84
598.538	22338.64
598.897	22344.51
599.255	22268.13
599.613	22562.58
599.972	22399.88
600.33	22522.13
600.688	22475.58
601.046	22547.67
601.404	22576.6
601.762	22573.88
602.12	22780.21
602.478	22671.73
602.836	22725.29
603.194	22574.56
603.552	22686.2
603.91	22732.75
604.268	22810.71
604.625	22687.1
604.983	22705.63
605.341	22749.47
605.698	22918.51
606.056	22914.21
606.413	22915.12
606.771	22928.45
607.128	23122.34
607.485	22921.22
607.843	23013.87
608.2	23017.71
608.557	23199.18
608.914	23015.91
609.272	23169.35
609.629	23364.15
609.986	23251.15
610.343	23229.46
610.7	23494.99
611.057	23375.67
611.414	23453.41
611.771	23425.16
612.127	23414.77
612.484	23476.91
612.841	23599.85
613.198	23498.38
613.554	23509
613.911	23620.86
614.267	23688.2
614.624	23657.25
614.98	23629
615.337	23764.14
615.693	23822.66
616.05	23830.12
616.406	24013.85
616.762	23705.83
617.118	23801.2
617.475	23806.85
617.831	23998.71
618.187	23861.08
618.543	24059.72
618.899	24132.94
619.255	24029.89
619.611	24101.3
619.967	24065.14
620.323	24103.34
620.678	24071.92
621.034	23983.56
621.39	24038.25
621.746	23980.17
622.101	24302.2
622.457	24090.23
622.812	24111.92
623.168	24214.52
623.523	24262.88
623.879	24247.96
624.234	24132.49
624.589	24202.99
624.945	24210.9
625.3	24290
625.655	24197.34
626.01	24163.67
626.365	24247.74
626.72	24259.72
627.075	24285.25
627.43	24188.3
627.785	24053.17
628.14	24240.96
628.495	24196.89
628.85	24200.28
629.205	24135.88
629.559	24318.02
629.914	24179.72
630.269	24123.22
630.623	24049.33
630.978	24022.43
631.332	24214.97
631.687	24153.5
632.041	24053.84
632.396	24192.6
632.75	24021.08
633.104	24053.39
633.459	24013.62
633.813	23941.31
634.167	23876.22
634.521	23965.49
634.875	23925.71
635.229	23902.44
635.583	23868.31
635.937	23800.07
636.291	23820.4
636.645	23892.95
636.999	23794.42
637.352	23804.13
637.706	23706.28
638.06	23788.77
638.413	23648.88
638.767	23520.75
639.121	23645.95
639.474	23488.89
639.828	23489.79
640.181	23565.72
640.534	23493.63
640.888	23446.18
641.241	23404.6
641.594	23475.78
641.947	23528.89
642.301	23568.43
642.654	23549.45
643.007	23462.9
643.36	23520.3
643.713	23442.11
644.066	23485.72
644.419	23308.55
644.771	23135.45
645.124	22939.07
645.477	22911.05
645.83	22871.5
646.182	22578.18
646.535	22547.44
646.888	22620.44
647.24	22336.15
647.593	22637.84
647.945	22552.42
648.298	22423.61
648.65	22309.71
649.002	22311.97
649.355	22362.59
649.707	22389.03
650.059	22591.28
650.411	22692.75
650.763	22747.89
651.115	23104.72
651.467	22954.21
651.819	22876.47
652.171	22927.55
652.523	22892.29
652.875	22912.63
653.227	22800.54
653.578	22871.28
653.93	22858.85
654.282	22810.49
654.633	22608.46
654.985	22772.52
655.337	22823.82
655.688	22729.13
656.039	22760.32
656.391	22687.78
656.742	22629.02
657.094	22707.67
657.445	22808.23
657.796	22837.38
658.147	22689.36
658.498	22706.31
658.849	22733.43
659.2	22641
659.551	22581.34
659.902	22701.79
660.253	22549.03
660.604	22711.73
660.955	22546.31
661.306	22630.61
661.656	22570.72
662.007	22574.79
662.358	22597.16
662.708	22522.36
663.059	22562.36
663.409	22434.68
663.76	22655.69
664.11	22577.5
664.461	22670.83
664.811	22639.19
665.161	22522.13
665.511	22485.3
665.862	22590.83
666.212	22529.37
666.562	22602.36
666.912	22517.39
667.262	22467.9
667.612	22556.71
667.962	22526.2
668.312	22550.16
668.662	22654.33
669.011	22466.09
669.361	22489.82
669.711	22537.27
670.06	22510.16
670.41	22458.63
670.76	22416.83
671.109	22469.71
671.459	22365.98
671.808	22358.07
672.157	22355.81
672.507	22315.13
672.856	22269.49
673.205	22228.81
673.554	22370.05
673.904	22367.79
674.253	22338.86
674.602	22422.7
674.951	21975.93
675.3	21904.52
675.649	22282.14
675.998	22230.39
676.346	22176.61
676.695	22315.81
677.044	22177.28
677.393	22243.5
677.741	22214.8
678.09	22216.38
678.438	22148.36
678.787	22172.76
679.135	22226.32
679.484	22053.67
679.832	22162.6
680.181	22055.71
680.529	22121.92
680.877	22012.99
681.225	22007.8
681.573	22113.56
681.922	21965.31
682.27	21991.07
682.618	21938.42
682.966	21882.38
683.314	21894.13
683.661	21842.15
684.009	21707.92
684.357	21673.34
684.705	21715.38
685.053	21688.94
685.4	21612.78
685.748	21571.65
686.095	21461.37
686.443	21471.09
686.79	21449.85
687.138	21454.14
687.485	21325.78
687.832	21376.4
688.18	21376.63
688.527	21388.38
688.874	21222.51
689.221	21205.56
689.568	21125.56
689.915	21124.88
690.262	21245.33
690.609	21036.98
690.956	21049.63
691.303	21002.85
691.65	20848.73
691.997	20989.07
692.344	20740.03
692.69	20720.83
693.037	20671.56
693.383	20571.68
693.73	20646.02
694.077	20481.51
694.423	20470.21
694.769	20400.83
695.116	20375.75
695.462	20324.23
695.808	20254.17
696.155	20406.94
696.501	20164.68
696.847	20269.99
697.193	20082.88
697.539	20285.13
697.885	20007.17
698.231	19959.72
698.577	19961.3
698.923	19934.18
699.269	19901.64
699.614	19702.55
699.96	19806.72
700.306	19842.2
700.651	19630.01
700.997	19511.59
701.342	19573.96
701.688	19506.17
702.033	19486.73
702.379	19432.5
702.724	19355.44
703.069	19334.2
703.415	19188.44
703.76	19271.37
704.105	19215.78
704.45	19186.4
704.795	19134.88
705.14	18981.89
705.485	18933.08
705.83	18960.65
706.175	18957.03
706.52	18871.61
706.865	18713.42
707.209	18653.31
707.554	18719.97
707.899	18680.43
708.243	18642.91
708.588	18667.09
708.932	18527.66
709.277	18446.99
709.621	18625.51
709.966	18451.96
710.31	18446.76
710.654	18217.16
710.998	18284.28
711.342	18180.78
711.687	18290.15
712.031	18192.3
712.375	18110.72
712.719	18243.38
713.063	18087
713.407	18180.1
713.75	18037.96
714.094	18030.73
714.438	17908.7
714.782	17964.74
715.125	17970.39
715.469	17960.22
715.812	17889.26
716.156	17798.87
716.499	17762.26
716.843	17792.77
717.186	17720.23
717.53	17840.67
717.873	17805.87
718.216	17752.54
718.559	17664.18
718.902	17559.1
719.246	17523.4
719.589	17574.47
719.932	17416.96
720.275	17485.88
720.617	17403.4
720.96	17423.51
721.303	17357.98
721.646	17418.09
721.989	17242.72
722.331	17402.04
722.674	17338.54
723.016	17341.93
723.359	17303.51
723.701	17367.02
724.044	17247.92
724.386	17211.99
724.729	17268.71
725.071	17139.22
725.413	17084.76
725.755	17132.9
726.097	17094.93
726.439	16945.11
726.782	17030.07
727.124	17117.08
727.465	16949.85
727.807	16941.94
728.149	16907.37
728.491	16948.04
728.833	16969.06
729.175	16901.49
729.516	16848.84
729.858	16939.46
730.199	16895.39
730.541	16897.42
730.882	16790.08
731.224	16876.41
731.565	16648.62
731.906	16758.67
732.248	16686.81
732.589	16671.44
732.93	16638.9
733.271	16708.05
733.612	16707.82
733.953	16677.54
734.294	16629.41
734.635	16547.83
734.976	16618.11
735.317	16530.2
735.658	16496.76
735.999	16593.02
736.339	16532.01
736.68	16581.27
737.021	16475.74
737.361	16452.69
737.702	16503.31
738.042	16470.77
738.383	16462.63
738.723	16540.14
739.063	16446.81
739.404	16401.16
739.744	16400.71
740.084	16310.77
740.424	16334.95
740.764	16268.96
741.104	16370.43
741.444	16212.7
741.784	16172.24
742.124	16315.97
742.464	16222.19
742.804	16230.77
743.143	16204.33
743.483	16190.55
743.823	16010.89
744.162	16076.88
744.502	16187.39
744.841	15960.05
745.181	16154.84
745.52	16100.38
745.86	16095.86
746.199	16128.18
746.538	16047.5
746.877	16141.06
747.216	16013.83
747.556	15928.63
747.895	16034.62
748.234	15925.25
748.573	15869.43
748.911	15904
749.25	15929.09
749.589	15859.26
749.928	15802.54
750.267	15818.13
750.605	15817.9
750.944	15726.61
751.283	15795.53
751.621	15781.29
751.96	15735.65
752.298	15613.39
752.636	15668.08
752.975	15488.65
753.313	15604.35
753.651	15539.04
753.989	15595.99
754.327	15554.86
754.666	15478.03
755.004	15539.94
755.342	15479.61
755.679	15491.13
756.017	15375.43
756.355	15390.34
756.693	15282.1
757.031	15294.75
757.368	15215.66
757.706	15170.01
758.044	15215.21
758.381	15208.65
758.719	15212.27
759.056	15072.61
759.394	15049.56
759.731	15043.23
760.068	14925.5
760.405	14881.2
760.743	14903.13
761.08	14893.41
761.417	14814.77
761.754	14759.17
762.091	14693.41
762.428	14714.66
762.765	14568.9
763.102	14758.04
763.438	14480.99
763.775	14572.96
764.112	14539.52
764.449	14520.99
764.785	14419.75
765.122	14362.57
765.458	14277.15
765.795	14311.73
766.131	14228.11
766.467	14129.13
766.804	14141.56
767.14	14046.2
767.476	13995.35
767.812	13942.92
768.148	13963.04
768.485	13901.57
768.821	13791.74
769.157	13827.67
769.492	13780.22
769.828	13786.09
770.164	13695.47
770.5	13669.71
770.836	13564.86
771.171	13552.2
771.507	13575.93
771.842	13441.69
772.178	13388.59
772.513	13288.03
772.849	13280.34
773.184	13250.74
773.519	13250.51
773.855	13139.33
774.19	13137.52
774.525	13082.38
774.86	13070.86
775.195	12974.81
775.53	12908.6
775.865	12896.62
776.2	12817.98
776.535	12743.41
776.87	12685.1
777.205	12694.14
777.539	12677.42
777.874	12677.42
778.209	12487.14
778.543	12514.94
778.878	12341.16
779.212	12389.52
779.547	12395.17
779.881	12351.78
780.215	12288.5
780.55	12245.57
780.884	12225.23
781.218	12197.21
781.552	12179.81
781.886	12121.28
782.22	12059.58
782.554	11974.39
782.888	11871.57
783.222	11850.78
783.556	11844.67
783.889	11833.15
784.223	11630.44
784.557	11674.74
784.89	11739.82
785.224	11605.58
785.557	11616.88
785.891	11518.58
786.224	11554.96
786.558	11405.82
786.891	11411.24
787.224	11344.12
787.557	11246.5
787.891	11287.85
788.224	11204.24
788.557	11226.84
788.89	11228.87
789.223	11188.87
789.556	11065.71
789.888	11057.58
790.221	11021.87
790.554	10933.06
790.887	10907.3
791.219	10912.27
791.552	10788.66
791.884	10746.85
792.217	10769.67
792.549	10724.25
792.882	10688.55
793.214	10600.19
793.546	10610.81
793.879	10612.16
794.211	10468.21
794.543	10563.13
794.875	10436.58
795.207	10496.46
795.539	10399.97
795.871	10362.91
796.203	10312.29
796.535	10284.04
796.867	10240.87
797.198	10204.49
797.53	10170.82
797.862	10167.66
798.193	10110.26
798.525	10143.25
798.856	10144.61
799.188	10025.06
799.519	9985.97
799.85	9959.3
800.182	9988
800.513	9972.18
800.844	9805.41
801.175	9881.79
801.506	9794.56
801.837	9778.06
802.168	9773.54
802.499	9702.13
802.83	9670.27
803.161	9667.56
803.491	9669.59
803.822	9569.71
804.153	9608.8
804.483	9543.04
804.814	9512.31
805.145	9483.15
805.475	9480.67
805.805	9386.89
806.136	9458.3
806.466	9380.78
806.796	9385.53
807.126	9285.19
807.457	9298.75
807.787	9358.19
808.117	9244.74
808.447	9214.24
808.777	9191.64
809.107	9190.96
809.436	9153.45
809.766	9192.77
810.096	9152.54
810.426	9105.54
810.755	8977.41
811.085	9021.92
811.414	9079.55
811.744	8939.89
812.073	8921.36
812.403	8921.81
812.732	8853.11
813.061	8838.43
813.39	8793
813.719	8738.32
814.049	8800.23
814.378	8751.87
814.707	8685.21
815.036	8747.13
815.365	8691.54
815.693	8665.1
816.022	8678.43
816.351	8596.85
816.68	8593.46
817.008	8576.74
817.337	8516.85
817.665	8435.05
817.994	8506.23
818.322	8514.14
818.651	8412.67
818.979	8359.12
819.307	8407.7
819.636	8415.61
819.964	8407.48
820.292	8377.42
820.62	8367.25
820.948	8299.91
821.276	8364.77
821.604	8384.43
821.932	8334.48
822.259	8429.4
822.587	8341.26
822.915	8309.17
823.243	8383.52
823.57	8323.64
823.898	8273.47
824.225	8298.1
824.553	8317.54
824.88	8341.72
825.207	8331.55
825.535	8272.79
825.862	8321.83
826.189	8305.11
826.516	8303.75
826.843	8305.56
827.17	8346.91
827.497	8338.33
827.824	8312.56
828.151	8332.45
828.478	8308.95
828.805	8352.79
829.131	8282.51
829.458	8224.43
829.785	8230.98
830.111	8274.6
830.438	8306.01
830.764	8249.29
831.09	8206.35
831.417	8219.01
831.743	8264.43
832.069	8302.62
832.395	8206.35
832.722	8225.33
833.048	8244.77
833.374	8188.5
833.7	8174.94
834.026	8202.74
834.351	8216.07
834.677	8188.5
835.003	8273.02
835.329	8193.25
835.654	8145.34
835.98	8128.61
836.306	8170.87
836.631	8120.93
836.956	8094.04
837.282	8102.17
837.607	8092.23
837.932	8033.93
838.258	8031.44
838.583	8036.64
838.908	7978.34
839.233	7989.86
839.558	7969.97
839.883	7930.88
840.208	7928.85
840.533	7990.54
840.858	7952.57
841.182	7964.1
841.507	7958.67
841.832	7871.9
842.156	7855.4
842.481	7927.26
842.805	7832.35
843.13	7791.22
843.454	7849.07
843.778	7755.29
844.103	7754.61
844.427	7780.15
844.751	7747.38
845.075	7796.42
845.399	7676.87
845.723	7661.28
846.047	7650.89
846.371	7610.66
846.695	7608.18
847.019	7536.54
847.343	7484.56
847.666	7509.2
847.99	7406.37
848.313	7424
848.637	7407.5
848.96	7371.8
849.284	7332.48
849.607	7266.04
849.931	7370.44
850.254	7235.98
850.577	7228.75
850.9	7135.42
851.223	7185.81
851.546	7121.41
851.869	7104.23
852.192	7128.19
852.515	7030.11
852.838	6980.4
853.161	7057.46
853.483	6988.08
853.806	6938.81
854.129	6945.37
854.451	6886.61
854.774	6853.17
855.096	6864.01
855.419	6839.16
855.741	6761.42
856.063	6787.86
856.385	6774.3
856.708	6727.97
857.03	6741.08
857.352	6691.14
857.674	6692.04
857.996	6641.65
858.318	6637.13
858.64	6630.57
858.961	6636.68
859.283	6609.33
859.605	6609.56
859.926	6590.12
860.248	6635.55
860.57	6542.21
860.891	6578.82
861.212	6581.54
861.534	6513.06
861.855	6528.88
862.176	6504.25
862.498	6498.37
862.819	6497.02
863.14	6455.21
863.461	6444.36
863.782	6443.69
864.103	6377.47
864.424	6372.28
864.745	6364.82
865.065	6378.6
865.386	6372.95
865.707	6361.43
866.027	6390.35
866.348	6338.6
866.668	6283.46
866.989	6327.98
867.309	6273.75
867.63	6287.76
867.95	6273.3
868.27	6276.69
868.59	6259.51
868.91	6252.28
869.23	6256.12
869.55	6229.23
869.87	6254.09
870.19	6198.04
870.51	6248.21
870.83	6239.85
871.15	6183.35
871.469	6193.07
871.789	6236.91
872.109	6185.84
872.428	6164.15
872.748	6146.07
873.067	6134.54
873.386	6097.03
873.706	6093.19
874.025	6125.05
874.344	6079.63
874.663	6090.48
874.982	6053.64
875.301	6099.51
875.62	6038.5
875.939	6072.4
876.258	6071.49
876.577	6037.37
876.896	6026.07
877.214	5981.1
877.533	6016.13
877.852	5961.21
878.17	6021.78
878.489	5988.11
878.807	5980.2
879.125	5976.58
879.444	6006.18
879.762	5935.68
880.08	6029.01
880.398	5916.47
880.716	5936.13
881.034	5949.24
881.352	5856.36
881.67	5871.5
881.988	5904.04
882.306	5841.67
882.624	5829.01
882.941	5832.86
883.259	5797.83
883.577	5814.78
883.894	5811.16
884.212	5787.88
884.529	5752.18
884.846	5770.03
885.164	5747.66
885.481	5733.2
885.798	5712.86
886.115	5676.7
886.432	5683.03
886.75	5669.7
887.067	5640.54
887.383	5640.77
887.7	5636.93
888.017	5666.53
888.334	5629.7
888.651	5617.95
888.967	5603.48
889.284	5552.64
889.6	5584.5
889.917	5537.27
890.233	5532.98
890.55	5497.04
890.866	5520.32
891.182	5460.66
891.498	5506.08
891.815	5474.67
892.131	5468.34
892.447	5456.59
892.763	5467.22
893.079	5422.7
893.395	5377.5
893.71	5376.37
894.026	5384.28
894.342	5351.96
894.657	5311.29
894.973	5324.85
895.289	5291.4
895.604	5347.67
895.92	5240.78
896.235	5270.61
896.55	5235.13
896.865	5239.42
897.181	5239.88
897.496	5217.73
897.811	5142.7
898.126	5183.61
898.441	5151.97
898.756	5145.19
899.071	5065.19
899.386	5092.54
899.7	5092.08
900.015	5079.65
900.33	5008.7
900.644	5009.6
900.959	5040.79
901.273	5007.11
901.588	5035.81
901.902	4993.56
902.216	4939.55
902.531	4975.93
902.845	4901.58
903.159	4900.22
903.473	4891.18
903.787	4897.51
904.101	4869.49
904.415	4853.45
904.729	4802.6
905.042	4874.24
905.356	4831.3
905.67	4775.71
905.984	4776.84
906.297	4821.81
906.611	4696.16
906.924	4728.03
907.237	4744.97
907.551	4726.44
907.864	4666.11
908.177	4677.18
908.491	4643.96
908.804	4620.68
909.117	4612.1
909.43	4576.39
909.743	4522.16
910.056	4589.27
910.368	4551.53
910.681	4548.6
910.994	4551.76
911.307	4471.53
911.619	4470.41
911.932	4467.02
912.244	4434.25
912.557	4390.63
912.869	4433.57
913.181	4423.4
913.494	4430.63
913.806	4376.4
914.118	4374.14
914.43	4354.25
914.742	4323.52
915.054	4294.59
915.366	4271.31
915.678	4280.35
915.99	4264.31
916.302	4237.42
916.613	4206.91
916.925	4182.73
917.236	4232.22
917.548	4180.02
917.859	4212.78
918.171	4155.84
918.482	4155.39
918.794	4101.83
919.105	4146.12
919.416	4053.47
919.727	4106.12
920.038	4067.7
920.349	4069.29
920.66	4036.74
920.971	4014.37
921.282	4023.41
921.593	3990.42
921.903	3961.94
922.214	3947.71
922.525	3925.11
922.835	3934.37
923.146	3888.27
923.456	3911.55
923.767	3870.87
924.077	3901.15
924.387	3881.27
924.697	3828.39
925.008	3815.96
925.318	3831.1
925.628	3795.85
925.938	3781.84
926.248	3755.62
926.558	3729.86
926.867	3744.32
927.177	3690.31
927.487	3689.18
927.796	3674.04
928.106	3688.28
928.416	3658.45
928.725	3669.97
929.034	3645.79
929.344	3626.36
929.653	3599.47
929.962	3594.72
930.271	3578.23
930.581	3563.08
930.89	3554.04
931.199	3525.35
931.508	3538.45
931.817	3526.02
932.125	3486.93
932.434	3491
932.743	3463.2
933.051	3443.09
933.36	3442.18
933.669	3402.86
933.977	3415.29
934.286	3394.28
934.594	3373.71
934.902	3348.4
935.21	3356.76
935.519	3367.16
935.827	3344.56
936.135	3297.55
936.443	3297.1
936.751	3307.05
937.059	3289.19
937.367	3294.62
937.674	3235.18
937.982	3236.54
938.29	3220.49
938.597	3234.73
938.905	3201.74
939.213	3204
939.52	3185.02
939.827	3235.64
940.135	3172.81
940.442	3163.09
940.749	3121.06
941.056	3157.45
941.363	3131.91
941.67	3088.75
941.977	3122.19
942.284	3040.16
942.591	3117.9
942.898	3091.01
943.205	3089.2
943.511	2992.48
943.818	3000.84
944.125	3021.63
944.431	2982.53
944.738	3013.49
945.044	2995.19
945.35	2984.79
945.657	2923.78
945.963	2942.08
946.269	2935.53
946.575	2926.49
946.881	2894.4
947.187	2929.88
947.493	2868.87
947.799	2873.61
948.105	2862.31
948.41	2817.79
948.716	2837.45
949.022	2848.75
949.327	2824.12
949.633	2814.4
949.938	2799.26
950.244	2842.65
950.549	2793.84
950.854	2784.35
951.16	2745.25
951.465	2721.75
951.77	2746.83
952.075	2714.52
952.38	2744.57
952.685	2721.52
952.99	2700.96
953.294	2709.1
953.599	2678.14
953.904	2663.67
954.209	2645.59
954.513	2621.41
954.818	2646.95
955.122	2630.45
955.426	2604.69
955.731	2576.67
956.035	2597.91
956.339	2592.04
956.643	2566.5
956.948	2563.56
957.252	2535.77
957.556	2565.82
957.86	2519.95
958.163	2548.42
958.467	2498.48
958.771	2500.74
959.075	2516.78
959.378	2505.26
959.682	2480.85
959.985	2471.14
960.289	2465.94
960.592	2441.31
960.896	2453.51
961.199	2430.91
961.502	2443.79
961.805	2406.5
962.108	2398.6
962.411	2389.78
962.714	2359.27
963.017	2343
963.32	2365.83
963.623	2360.18
963.926	2358.14
964.228	2319.28
964.531	2320.18
964.833	2319.5
965.136	2316.34
965.438	2304.36
965.741	2305.04
966.043	2281.54
966.345	2277.47
966.648	2269.78
966.95	2227.75
967.252	2242.44
967.554	2239.05
967.856	2231.14
968.158	2227.98
968.46	2206.51
968.761	2204.48
969.063	2211.26
969.365	2165.15
969.666	2196.11
969.968	2183.91
970.269	2183.91
970.571	2174.65
970.872	2147.75
971.174	2155.66
971.475	2133.07
971.776	2122.22
972.077	2110.24
972.378	2100.75
972.679	2093.97
972.98	2086.51
973.281	2088.09
973.582	2098.94
973.883	2075.21
974.183	2060.98
974.484	2043.12
974.785	2061.43
975.085	2054.2
975.386	2043.8
975.686	2027.98
975.986	1986.18
976.287	1975.78
976.587	1998.38
976.887	1985.27
977.187	2004.26
977.487	1982.33
977.787	1955.44
978.087	1918.16
978.387	1953.64
978.687	1952.28
978.987	1948.66
979.286	1941.88
979.586	1931.49
979.885	1911.38
980.185	1914.54
980.484	1904.14
980.784	1903.24
981.083	1884.94
981.382	1917.48
981.682	1867.99
981.981	1844.71
982.28	1867.54
982.579	1851.04
982.878	1874.99
983.177	1869.12
983.475	1841.77
983.774	1806.97
984.073	1813.53
984.372	1790.7
984.67	1809.46
984.969	1806.29
985.267	1816.92
985.566	1769.69
985.864	1775.79
986.162	1753.64
986.461	1747.54
986.759	1775.56
987.057	1736.24
987.355	1747.76
987.653	1747.09
987.951	1720.87
988.249	1697.14
988.547	1720.65
988.844	1724.04
989.142	1687.43
989.44	1707.99
989.737	1645.85
990.035	1686.07
990.332	1676.58
990.63	1637.03
990.927	1632.51
991.224	1617.82
991.521	1666.86
991.819	1624.83
992.116	1616.69
992.413	1645.39
992.71	1624.83
993.006	1635.68
993.303	1600.2
993.6	1590.71
993.897	1609.24
994.193	1599.97
994.49	1578.28
994.787	1571.95
995.083	1572.63
995.379	1542.57
995.676	1558.62
995.972	1524.49
996.268	1521.33
996.565	1512.74
996.861	1524.72
997.157	1517.49
997.453	1515.23
997.749	1502.8
998.044	1515
998.34	1496.47
998.636	1495.34
998.932	1442.91
999.227	1470.26
999.523	1457.6
999.818	1477.94
1000.114	1456.47
1000.409	1432.07
1000.704	1414.89
1001	1454.67
1001.295	1433.87
1001.59	1411.28
1001.885	1425.51
1002.18	1388.68
1002.475	1421.22
1002.77	1413.76
1003.065	1370.6
1003.359	1369.7
1003.654	1360.66
1003.949	1348.45
1004.243	1366.53
1004.538	1350.71
1004.832	1338.51
1005.127	1343.93
1005.421	1338.06
1005.715	1324.27
1006.009	1312.75
1006.304	1300.09
1006.598	1301.9
1006.892	1316.36
1007.186	1287.89
1007.48	1264.61
1007.773	1265.52
1008.067	1251.51
1008.361	1260.77
1008.655	1275.46
1008.948	1244.28
1009.242	1268.68
1009.535	1228.46
1009.829	1219.42
1010.122	1245.86
1010.415	1239.76
1010.708	1219.42
1011.001	1218.97
1011.295	1164.28
1011.588	1212.64
1011.881	1193.66
1012.173	1180.77
1012.466	1207.21
1012.759	1193.66
1013.052	1155.92
1013.344	1164.28
1013.637	1161.57
1013.93	1139.19
1014.222	1165.41
1014.514	1136.93
1014.807	1136.48
1015.099	1115.92
1015.391	1129.93
1015.683	1105.3
1015.976	1113.21
1016.268	1100.55
1016.56	1097.16
1016.851	1095.58
1017.143	1070.27
1017.435	1084.51
1017.727	1058.07
1018.018	1088.35
1018.31	1057.16
1018.602	1066.43
1018.893	1039.53
1019.185	1065.75
1019.476	1064.84
1019.767	1012.42
1020.058	1030.95
1020.35	1030.5
1020.641	1038.4
1020.932	1020.33
1021.223	1006.09
1021.514	1009.48
1021.804	993.66
1022.095	976.26
1022.386	958.63
1022.677	970.84
1022.967	971.29
1023.258	952.76
1023.548	958.18
1023.839	936.49
1024.129	947.79
1024.419	961.34
1024.709	941.68
1025	925.41
1025.29	912.53
1025.58	928.35
1025.87	902.36
1026.16	919.76
1026.449	905.3
1026.739	887.22
1027.029	897.84
1027.319	900.56
1027.608	901.69
1027.898	889.93
1028.187	848.81
1028.477	856.04
1028.766	852.2
1029.055	846.77
1029.344	839.31
1029.634	838.41
1029.923	834.34
1030.212	859.2
1030.501	841.57
1030.79	828.92
1031.078	820.11
1031.367	828.24
1031.656	804.06
1031.945	831.86
1032.233	818.07
1032.522	817.62
1032.81	812.65
1033.099	807.45
1033.387	793.44
1033.675	786.66
1033.963	790.95
1034.251	751.86
1034.54	793.44
1034.828	797.73
1035.116	770.84
1035.403	761.8
1035.691	754.34
1035.979	718.87
1036.267	770.39
1036.554	728.13
1036.842	747.57
1037.129	746.66
1037.417	737.85
1037.704	726.1
1037.992	734.01
1038.279	738.07
1038.566	705.76
1038.853	705.76
1039.14	705.76
