Data from tablewood_dark_bookshelf_FLMS001491_00075.txt Node
Date: Wed Feb 08 14:15:36 GMT 2017
User: dcchb
Spectrometer: FLMS00149
Trigger mode: 0
Integration Time (sec): 2.000000E-2
Scans to average: 10
Electric dark correction enabled: true
Nonlinearity correction enabled: false
Boxcar width: 0
XAxis mode: Wavelengths
Number of Pixels in Spectrum: 2048
>>>>>Begin Spectral Data<<<<<
341.393	5.62
341.776	5.62
342.16	5.62
342.543	-52.91
342.927	-56.3
343.31	-68.05
343.693	-81.38
344.077	-33.7
344.46	-66.69
344.843	-67.15
345.226	-39.35
345.61	-46.13
345.993	10.37
346.376	-9.07
346.759	14.43
347.142	28.45
347.525	27.32
347.908	62.12
348.291	68.44
348.674	79.74
349.057	120.65
349.44	134.66
349.823	139.63
350.206	155.67
350.588	177.14
350.971	225.95
351.354	205.39
351.737	217.82
352.119	246.52
352.502	239.74
352.884	262.34
353.267	252.62
353.65	291.49
354.032	294.65
354.414	297.82
354.797	308.44
355.179	300.75
355.562	323.81
355.944	304.14
356.326	338.49
356.709	313.18
357.091	315.67
357.473	346.63
357.855	335.78
358.238	333.07
358.62	313.64
359.002	324.26
359.384	354.99
359.766	323.81
360.148	321.09
360.53	338.49
360.912	321.09
361.294	321.77
361.676	319.96
362.057	309.57
362.439	335.33
362.821	325.16
363.203	320.42
363.584	306.4
363.966	341.66
364.348	305.95
364.729	329
365.111	312.28
365.493	301.43
365.874	301.21
366.256	323.81
366.637	311.83
367.019	331.49
367.4	320.42
367.781	330.36
368.163	324.93
368.544	340.08
368.925	321.77
369.306	324.26
369.688	304.6
370.069	321.55
370.45	314.99
370.831	310.7
371.212	334.43
371.593	333.3
371.974	313.86
372.355	323.58
372.736	314.77
373.117	340.53
373.498	334.65
373.879	329.68
374.26	310.92
374.641	330.81
375.021	321.09
375.402	343.24
375.783	321.77
376.163	346.4
376.544	343.92
376.925	341.66
377.305	331.04
377.686	344.82
378.066	338.95
378.447	351.6
378.827	353.86
379.208	346.63
379.588	340.75
379.968	345.27
380.349	340.08
380.729	345.5
381.109	370.36
381.489	365.84
381.87	377.81
382.25	358.15
382.63	366.06
383.01	370.13
383.39	362.67
383.77	381.43
384.15	379.4
384.53	375.33
384.91	374.65
385.29	374.88
385.67	373.07
386.049	402.9
386.429	404.25
386.809	412.16
387.189	396.57
387.568	396.12
387.948	402
388.328	405.61
388.707	408.1
389.087	380.07
389.466	412.16
389.846	406.97
390.225	381.88
390.605	395.22
390.984	425.27
391.363	449
391.743	430.47
392.122	431.37
392.501	415.78
392.881	414.65
393.26	414.65
393.639	420.07
394.018	420.53
394.397	445.61
394.776	437.25
395.155	423.46
395.534	466.17
395.913	452.16
396.292	460.07
396.671	443.58
397.05	465.04
397.429	453.75
397.808	440.64
398.186	447.42
398.565	441.32
398.944	444.25
399.323	454.65
399.701	460.07
400.08	473.41
400.458	487.19
400.837	488.55
401.215	473.86
401.594	489.22
401.972	481.32
402.351	477.47
402.729	492.16
403.107	469.79
403.486	521.09
403.864	503.01
404.242	480.64
404.62	512.27
404.999	526.29
405.377	538.71
405.755	533.07
406.133	538.26
406.511	537.13
406.889	549.56
407.267	538.49
407.645	549.34
408.023	554.53
408.401	559.96
408.779	569.22
409.156	548.43
409.534	579.17
409.912	573.06
410.29	593.63
410.667	599.05
411.045	597.47
411.422	611.48
411.8	627.3
412.178	613.06
412.555	592.72
412.933	643.57
413.31	656.68
413.687	643.12
414.065	646.51
414.442	643.57
414.819	677.47
415.197	652.16
415.574	653.51
415.951	677.69
416.328	679.05
416.705	658.49
417.082	649.67
417.46	679.28
417.837	677.92
418.214	690.12
418.591	701.2
418.967	725.6
419.344	695.77
419.721	724.47
420.098	728.09
420.475	715.43
420.852	721.31
421.228	748.2
421.605	746.62
421.982	771.48
422.358	750.69
422.735	745.49
423.111	749.1
423.488	775.54
423.864	771.7
424.241	783.68
424.617	790.46
424.994	782.55
425.37	794.75
425.746	773.28
426.123	806.05
426.499	818.48
426.875	840.18
427.251	837.46
427.627	827.07
428.003	843.34
428.379	869.55
428.756	887.18
429.132	868.42
429.507	903.9
429.883	901.87
430.259	907.74
430.635	929.66
431.011	947.74
431.387	943.22
431.763	948.87
432.138	947.07
432.514	949.55
432.89	971.47
433.265	975.99
433.641	1014.63
434.016	1024.35
434.392	1008.98
434.767	1020.51
435.143	1037.46
435.518	1068.87
435.894	1048.76
436.269	1073.62
436.644	1104.35
437.02	1109.32
437.395	1080.17
437.77	1102.99
438.145	1132.15
438.52	1111.58
438.895	1125.14
439.271	1148.42
439.646	1175.08
440.021	1166.95
440.395	1170.11
440.77	1174.4
441.145	1143.67
441.52	1210.56
441.895	1177.12
442.27	1174.4
442.645	1197
443.019	1211.01
443.394	1224.12
443.769	1243.33
444.143	1225.7
444.518	1255.76
444.892	1236.1
445.267	1266.15
445.641	1288.53
446.016	1264.8
446.39	1314.29
446.764	1303.89
447.139	1291.92
447.513	1332.59
447.887	1323.78
448.262	1304.34
448.636	1338.02
449.01	1334.17
449.384	1359.94
449.758	1355.87
450.132	1390.44
450.506	1381.4
450.88	1396.77
451.254	1398.58
451.628	1433.38
452.002	1414.62
452.376	1412.82
452.75	1458.69
453.123	1461.85
453.497	1474.74
453.871	1480.16
454.244	1514.51
454.618	1489.2
454.992	1541.4
455.365	1547.28
455.739	1560.16
456.112	1598.35
456.486	1572.36
456.859	1624.11
457.232	1645.8
457.606	1634.96
457.979	1676.76
458.352	1688.06
458.725	1714.28
459.099	1707.95
459.472	1766.03
459.845	1796.76
460.218	1764.45
460.591	1791.11
460.964	1817.55
461.337	1834.95
461.71	1915.18
462.083	1886.02
462.456	1878.34
462.829	1897.1
463.201	1961.95
463.574	1962.86
463.947	2017.77
464.32	2021.84
464.692	2017.09
465.065	2036.98
465.438	2093.7
465.81	2078.56
466.183	2117.43
466.555	2149.97
466.928	2185.23
467.3	2166.47
467.672	2196.98
468.045	2247.14
468.417	2258.22
468.789	2267.48
469.161	2321.04
469.534	2338.67
469.906	2399
470.278	2387.71
470.65	2400.13
471.022	2491.43
471.394	2527.59
471.766	2526.23
472.138	2537.98
472.51	2601.49
472.882	2645.55
473.253	2699.11
473.625	2716.51
473.997	2751.31
474.369	2779.33
474.74	2845.09
475.112	2869.27
475.484	2901.59
475.855	2951.98
476.227	2996.28
476.598	3057.74
476.97	3070.85
477.341	3158.31
477.713	3210.06
478.084	3203.28
478.455	3269.94
478.827	3334.8
479.198	3412.76
479.569	3453.89
479.94	3511.52
480.311	3530.5
480.682	3589.93
481.053	3655.24
481.424	3728.24
481.795	3757.16
482.166	3828.35
482.537	3880.1
482.908	3925.29
483.279	3985.18
483.65	4050.49
484.021	4142.69
484.391	4148.34
484.762	4208.22
485.133	4250.03
485.503	4303.14
485.874	4387.88
486.244	4400.08
486.615	4476.01
486.985	4574.54
487.356	4618.61
487.726	4664.03
488.097	4723.69
488.467	4813.4
488.837	4921.65
489.207	4898.6
489.578	4964.81
489.948	5062.21
490.318	5082.1
490.688	5135.88
491.058	5247.07
491.428	5283.67
491.798	5338.81
492.168	5447.74
492.538	5404.8
492.908	5520.05
493.278	5548.3
493.648	5596.66
494.017	5665.81
494.387	5755.53
494.757	5770.22
495.126	5812.47
495.496	5877.33
495.866	5863.09
496.235	5944.45
496.605	6018.12
496.974	6031.68
497.344	6110.77
497.713	6170.43
498.082	6212.01
498.452	6193.48
498.821	6284.55
499.19	6277.09
499.559	6363.42
499.928	6403.65
500.298	6427.6
500.667	6508.05
501.036	6499.01
501.405	6595.05
501.774	6536.75
502.143	6622.17
502.512	6658.78
502.88	6756.18
503.249	6719.34
503.618	6859
503.987	6808.38
504.356	6888.15
504.724	6910.07
505.093	6959.56
505.462	7019.67
505.83	7053.12
506.199	7083.4
506.567	7151.2
506.936	7287.92
507.304	7291.31
507.672	7308.48
508.041	7390.06
508.409	7458.53
508.777	7424.18
509.145	7576.95
509.514	7582.15
509.882	7632.77
510.25	7579.89
510.618	7772.2
510.986	7774.68
511.354	7817.39
511.722	7945.3
512.09	7934.68
512.458	7950.05
512.826	8106.2
513.193	8101
513.561	8117.5
513.929	8185.52
514.297	8329.92
514.664	8327.66
515.032	8328.79
515.4	8393.65
515.767	8450.15
516.135	8532.4
516.502	8531.05
516.869	8661.21
517.237	8702.12
517.604	8719.29
517.972	8791.15
518.339	8822.79
518.706	8879.29
519.073	9011.49
519.44	9083.57
519.808	9134.87
520.175	9118.15
520.542	9224.14
520.909	9380.29
521.276	9328.77
521.643	9360.18
522.009	9516.11
522.376	9572.15
522.743	9608.53
523.11	9727.85
523.477	9749.09
523.843	9891.01
524.21	9975.3
524.577	10006.26
524.943	10150.89
525.31	10205.35
525.676	10249.65
526.043	10397.44
526.409	10444.67
526.776	10504.33
527.142	10566.02
527.508	10629.07
527.874	10642.4
528.241	10737.54
528.607	10781.84
528.973	10911.1
529.339	10920.14
529.705	11034.48
530.071	11153.58
530.437	11181.6
530.803	11266.12
531.169	11248.94
531.535	11256.17
531.901	11316.96
532.267	11476.28
532.632	11493.68
532.998	11534.81
533.364	11648.25
533.73	11634.47
534.095	11817.97
534.461	11831.98
534.826	11932.31
535.192	11896.38
535.557	12019.32
535.923	12071.07
536.288	12033.55
536.653	12104.74
537.019	12157.84
537.384	12191.52
537.749	12288.24
538.114	12314.22
538.479	12278.52
538.845	12409.59
539.21	12365.97
539.575	12512.41
539.94	12479.64
540.305	12577.04
540.67	12659.53
541.034	12597.83
541.399	12707.89
541.764	12769.35
542.129	12868.33
542.494	12834.44
542.858	12935.45
543.223	12942
543.587	13026.07
543.952	13074.2
544.316	13124.15
544.681	13039.4
545.045	13257.25
545.41	13286.4
545.774	13353.07
546.138	13289.79
546.503	13315.33
546.867	13363.69
547.231	13513.74
547.595	13656.56
547.959	13620.18
548.324	13697.92
548.688	13570.69
549.052	13775.43
549.416	13714.41
549.779	13694.3
550.143	13779.04
550.507	13931.58
550.871	14027.63
551.235	13963.67
551.599	14047.29
551.962	14101.52
552.326	14129.09
552.689	14295.64
553.053	14194.17
553.417	14322.08
553.78	14469.42
554.143	14474.39
554.507	14598.68
554.87	14552.81
555.234	14814.95
555.597	14651.11
555.96	14701.96
556.323	14853.82
556.686	14826.47
557.05	14929.3
557.413	14961.84
557.776	14988.05
558.139	15160.93
558.502	15214.03
558.865	15235.73
559.228	15309.85
559.59	15433.46
559.953	15482.95
560.316	15566.34
560.679	15683.18
561.041	15704.64
561.404	15855.15
561.767	15934.02
562.129	15819.44
562.492	16058.98
562.854	16069.15
563.217	16123.39
563.579	16256.49
563.941	16290.39
564.304	16373.55
564.666	16483.38
565.028	16503.27
565.39	16662.36
565.753	16664.39
566.115	16738.51
566.477	16832.75
566.839	17033.87
567.201	17116.36
567.563	17070.26
567.925	17222.34
568.287	17288.1
568.648	17297.6
569.01	17505.5
569.372	17533.75
569.734	17511.6
570.095	17615.55
570.457	17712.73
570.819	17787.3
571.18	17823.68
571.542	17910.69
571.903	18000.85
572.265	18091.25
572.626	18150.68
572.987	18204.01
573.349	18295.76
573.71	18358.81
574.071	18498.92
574.432	18443.55
574.794	18534.63
575.155	18582.31
575.516	18591.12
575.877	18783.88
576.238	18828.18
576.599	18872.02
576.96	18992.47
577.32	18969.42
577.681	19093.26
578.042	19138.45
578.403	19140.94
578.763	19204.21
579.124	19207.6
579.485	19279.69
579.845	19466.13
580.206	19324.89
580.566	19467.26
580.927	19420.93
581.287	19633.81
581.648	19559.68
582.008	19693.47
582.368	19657.53
582.728	19751.54
583.089	19738.66
583.449	19878.77
583.809	19768.49
584.169	19897.53
584.529	19857.08
584.889	19957.87
585.249	19925.78
585.609	19914.93
585.969	20013.23
586.329	19995.38
586.688	20050.52
587.048	20106.34
587.408	20070.18
587.768	20158.99
588.127	20139.1
588.487	20137.52
588.846	20288.93
589.206	20186.56
589.565	20209.16
589.925	20367.57
590.284	20281.92
590.643	20292.32
591.003	20508.59
591.362	20528.7
591.721	20497.96
592.08	20473.11
592.44	20597.17
592.799	20531.64
593.158	20558.08
593.517	20573.67
593.876	20593.78
594.235	20703.38
594.593	20639.66
594.952	20793.32
595.311	20667.45
595.67	20698.86
596.029	20836.49
596.387	20924.39
596.746	20982.47
597.104	20878.74
597.463	21046.65
597.822	21054.11
598.18	21069.02
598.538	20954.22
598.897	21213.65
599.255	21013.88
599.613	21316.7
599.972	21113.54
600.33	21204.39
600.688	21142.92
601.046	21330.71
601.404	21351.05
601.762	21323.7
602.12	21454.77
602.478	21428.33
602.836	21511.72
603.194	21342.69
603.552	21454.55
603.91	21394.21
604.268	21509.01
604.625	21504.94
604.983	21581.78
605.341	21569.12
605.698	21706.07
606.056	21737.03
606.413	21645.5
606.771	21806.18
607.128	21904.25
607.485	21732.06
607.843	21763.02
608.2	21880.07
608.557	21897.25
608.914	21799.62
609.272	22082.1
609.629	22044.36
609.986	22207.3
610.343	21977.92
610.7	22217.92
611.057	22135.66
611.414	22142.44
611.771	22174.08
612.127	22211.14
612.484	22310.8
612.841	22334.07
613.198	22224.25
613.554	22324.58
613.911	22392.6
614.267	22366.62
614.624	22452.71
614.98	22442.55
615.337	22617.68
615.693	22563.45
616.05	22438.7
616.406	22577.01
616.762	22534.75
617.118	22579.04
617.475	22628.08
617.831	22772.48
618.187	22697.68
618.543	22817.22
618.899	22953.49
619.255	22898.58
619.611	22851.57
619.967	22974.51
620.323	22985.13
620.678	22795.53
621.034	22788.3
621.39	22773.61
621.746	22839.6
622.101	23064.45
622.457	22866.26
622.812	22907.84
623.168	23027.16
623.523	22989.88
623.879	23044.79
624.234	22911.69
624.589	22857.68
624.945	22934.96
625.3	23012.93
625.655	23134.96
626.01	22894.29
626.365	23050.21
626.72	22924.11
627.075	23013.15
627.43	22945.13
627.785	22948.52
628.14	22995.98
628.495	23070.78
628.85	23008.86
629.205	22891.8
629.559	23080.49
629.914	22937
630.269	22942.87
630.623	22833.5
630.978	22774.97
631.332	22923.66
631.687	22934.28
632.041	22936.77
632.396	22830.56
632.75	22765.25
633.104	22818.58
633.459	22644.8
633.813	22715.08
634.167	22799.37
634.521	22816.55
634.875	22767.96
635.229	22666.95
635.583	22564.12
635.937	22592.6
636.291	22458.36
636.645	22624.91
636.999	22518.25
637.352	22594.63
637.706	22467.86
638.06	22584.46
638.413	22385.37
638.767	22409.33
639.121	22395.32
639.474	22295.2
639.828	22315.09
640.181	22330.01
640.534	22328.65
640.888	22327.07
641.241	22213.85
641.594	22267.18
641.947	22338.82
642.301	22304.7
642.654	22271.25
643.007	22219.27
643.36	22217.24
643.713	22134.76
644.066	22223.12
644.419	21989
644.771	21989.45
645.124	21778.83
645.477	21767.99
645.83	21618.84
646.182	21419.3
646.535	21358.96
646.888	21467.88
647.24	21297.94
647.593	21481.89
647.945	21398.28
648.298	21332.07
648.65	21257.72
649.002	21177.95
649.355	21312.63
649.707	21203.26
650.059	21370.48
650.411	21782.22
650.763	21660.87
651.115	21901.32
651.467	21818.38
651.819	21813.18
652.171	21851.37
652.523	21712.85
652.875	21751.04
653.227	21656.13
653.578	21815.22
653.93	21710.14
654.282	21598.73
654.633	21648.44
654.985	21544.26
655.337	21676.92
655.688	21620.87
656.039	21678.05
656.391	21520.08
656.742	21588.56
657.094	21624.04
657.445	21706.97
657.796	21641.21
658.147	21612.74
658.498	21605.73
658.849	21592.17
659.2	21535
659.551	21412.06
659.902	21551.04
660.253	21488.67
660.604	21549.69
660.955	21436.92
661.306	21607.54
661.656	21564.15
662.007	21573.87
662.358	21544.04
662.708	21436.92
663.059	21523.7
663.409	21275.57
663.76	21456.36
664.11	21505.17
664.461	21437.15
664.811	21419.52
665.161	21499.97
665.511	21415
665.862	21419.3
666.212	21440.99
666.562	21452.97
666.912	21389.92
667.262	21448.45
667.612	21436.92
667.962	21451.16
668.312	21332.74
668.662	21495.9
669.011	21271.95
669.361	21392.63
669.711	21457.26
670.06	21312.86
670.41	21331.39
670.76	21384.04
671.109	21378.62
671.459	21263.37
671.808	21351.95
672.157	21354.44
672.507	21383.36
672.856	21254.1
673.205	21269.24
673.554	21349.01
673.904	21268.57
674.253	21344.27
674.602	21340.65
674.951	21046.2
675.3	20919.2
675.649	21186.31
675.998	21251.16
676.346	21218.4
676.695	21260.43
677.044	21038.51
677.393	21223.37
677.741	21104.95
678.09	21082.81
678.438	21063.6
678.787	21109.47
679.135	21099.98
679.484	20923.49
679.832	21101.34
680.181	20970.72
680.529	20977.95
680.877	20878.52
681.225	20918.97
681.573	21056.82
681.922	20921.23
682.27	20798.97
682.618	20795.13
682.966	20742.93
683.314	20854.56
683.661	20722.59
684.009	20759.43
684.357	20644.63
684.705	20565.76
685.053	20666.32
685.4	20638.3
685.748	20418.19
686.095	20516.49
686.443	20481.47
686.79	20441.24
687.138	20448.47
687.485	20401.47
687.832	20405.54
688.18	20328.48
688.527	20236.5
688.874	20269.27
689.221	20238.08
689.568	20123.28
689.915	20079.44
690.262	20116.28
690.609	20008.49
690.956	19937.75
691.303	19924.42
691.65	19848.94
691.997	19906.79
692.344	19756.97
692.69	19753.8
693.037	19736.63
693.383	19515.39
693.73	19697.53
694.077	19469.06
694.423	19498.89
694.769	19396.07
695.116	19402.63
695.462	19396.75
695.808	19378.9
696.155	19357.88
696.501	19277.2
696.847	19183.87
697.193	19127.6
697.539	19139.58
697.885	19064.78
698.231	18929.42
698.577	19025.91
698.923	18930.1
699.269	18859.36
699.614	18756.09
699.96	18743.43
700.306	18797.22
700.651	18676.09
700.997	18652.14
701.342	18622.31
701.688	18481.52
702.033	18586.6
702.379	18506.38
702.724	18423.67
703.069	18454.4
703.415	18275.42
703.76	18234.75
704.105	18214.18
704.45	18150.91
704.795	18131.02
705.14	18072.72
705.485	18054.19
705.83	17957.47
706.175	17973.74
706.52	17976.67
706.865	17920.18
707.209	17809.45
707.554	17765.15
707.899	17870.24
708.243	17823.01
708.588	17732.61
708.932	17557.7
709.277	17546.63
709.621	17639.51
709.966	17509.57
710.31	17503.47
710.654	17326.07
710.998	17367.88
711.342	17454.2
711.687	17380.76
712.031	17411.49
712.375	17209.46
712.719	17317.71
713.063	17364.26
713.407	17240.87
713.75	17273.42
714.094	17161.55
714.438	17094.66
714.782	17053.99
715.125	17029.81
715.469	17008.34
715.812	16906.87
716.156	16900.09
716.499	16912.52
716.843	16966.31
717.186	16892.41
717.53	16916.14
717.873	16843.37
718.216	16859.64
718.559	16831.62
718.902	16610.83
719.246	16709.81
719.589	16594.34
719.932	16497.17
720.275	16616.94
720.617	16611.96
720.96	16689.7
721.303	16606.77
721.646	16577.61
721.989	16404.06
722.331	16483.15
722.674	16483.61
723.016	16481.12
723.359	16480.44
723.701	16488.8
724.044	16391.63
724.386	16317.73
724.729	16362.71
725.071	16364.06
725.413	16311.63
725.755	16274.8
726.097	16213.1
726.439	16104.86
726.782	16125.2
727.124	16193.22
727.465	16138.3
727.807	16084.97
728.149	16063.96
728.491	16074.35
728.833	16077.74
729.175	16044.07
729.516	15961.81
729.858	15932.21
730.199	16020.57
730.541	15930.4
730.882	16007.46
731.224	16005.88
731.565	15847.01
731.906	15953.68
732.248	15982.6
732.589	15804.98
732.93	15826
733.271	15815.6
733.612	15851.98
733.953	15860.8
734.294	15800.91
734.635	15741.25
734.976	15848.82
735.317	15709.16
735.658	15740.35
735.999	15746.9
736.339	15684.76
736.68	15807.69
737.021	15663.06
737.361	15710.97
737.702	15696.51
738.042	15675.04
738.383	15566.12
738.723	15623.52
739.063	15539.9
739.404	15606.12
739.744	15558.43
740.084	15600.69
740.424	15580.13
740.764	15516.4
741.104	15487.7
741.444	15482.28
741.784	15346.01
742.124	15463.29
742.464	15446.8
742.804	15514.37
743.143	15298.33
743.483	15446.8
743.823	15324.99
744.162	15275.73
744.502	15392.56
744.841	15281.6
745.181	15290.64
745.52	15251.55
745.86	15322.96
746.199	15291.32
746.538	15236.41
746.877	15325.67
747.216	15224.2
747.556	15273.69
747.895	15276.86
748.234	15195.73
748.573	15151.89
748.911	15185.11
749.25	15169.06
749.589	15066.02
749.928	15137.2
750.267	15110.08
750.605	15037.09
750.944	15061.95
751.283	15030.76
751.621	15066.92
751.96	15006.81
752.298	14939.92
752.636	14939.47
752.975	14854.95
753.313	14799.58
753.651	14806.36
753.989	14806.81
754.327	14759.58
754.666	14719.58
755.004	14670.77
755.342	14749.64
755.679	14646.14
756.017	14523.43
756.355	14672.35
756.693	14549.42
757.031	14557.1
757.368	14455.86
757.706	14543.32
758.044	14439.59
758.381	14444.34
758.719	14313.72
759.056	14440.04
759.394	14337.9
759.731	14193.27
760.068	14176.55
760.405	14233.95
760.743	14137.91
761.08	14235.98
761.417	14056.1
761.754	14035.31
762.091	14030.56
762.428	13933.84
762.765	13818.59
763.102	13957.12
763.438	13847.52
763.775	13794.64
764.112	13847.52
764.449	13813.85
764.785	13746.28
765.122	13675.54
765.458	13575.89
765.795	13503.8
766.131	13569.56
766.467	13538.37
766.804	13413.86
767.14	13443.23
767.476	13397.36
767.812	13327.3
768.148	13295.44
768.485	13244.37
768.821	13086.63
769.157	13145.16
769.492	13164.82
769.828	13120.08
770.164	12998.95
770.5	12965.96
770.836	12902.91
771.171	12898.84
771.507	12780.65
771.842	12711.05
772.178	12686.42
772.513	12687.1
772.849	12654.55
773.184	12617.04
773.519	12534.78
773.855	12587.44
774.19	12504.28
774.525	12422.24
774.86	12474.9
775.195	12490.04
775.53	12331.17
775.865	12328.24
776.2	12202.59
776.535	12138.86
776.87	12137.73
777.205	12083.5
777.539	12004.18
777.874	12051.41
778.209	11921.47
778.543	11917.4
778.878	11855.71
779.212	11755.59
779.547	11775.71
779.881	11745.88
780.215	11757.63
780.55	11681.47
780.884	11565.09
781.218	11534.13
781.552	11596.5
781.886	11448.94
782.22	11453.91
782.554	11344.31
782.888	11283.74
783.222	11270.18
783.556	11203.52
783.889	11237.64
784.223	11085.33
784.557	11138.21
784.89	11143.41
785.224	11058.89
785.557	10940.25
785.891	10971.66
786.224	10944.09
786.558	10932.79
786.891	10818.67
787.224	10766.47
787.557	10747.26
787.891	10745.9
788.224	10718.11
788.557	10639.69
788.89	10649.41
789.223	10652.57
789.556	10507.27
789.888	10470.43
790.221	10421.84
790.554	10387.95
790.887	10449.87
791.219	10380.49
791.552	10336.2
791.884	10263.66
792.217	10233.83
792.549	10244.22
792.882	10128.29
793.214	10073.15
793.546	10071.35
793.879	10042.65
794.211	9999.26
794.543	10046.94
794.875	9963.55
795.207	9995.87
795.539	9930.78
795.871	9867.96
796.203	9770.56
796.535	9758.13
796.867	9789.32
797.198	9733.28
797.53	9728.53
797.862	9680.4
798.193	9704.58
798.525	9603.34
798.856	9592.94
799.188	9558.36
799.519	9474.52
799.85	9437.01
800.182	9424.81
800.513	9427.07
800.844	9332.61
801.175	9384.58
801.506	9413.06
801.837	9249.67
802.168	9241.54
802.499	9225.94
802.83	9217.13
803.161	9153.63
803.491	9107.53
803.822	9188.66
804.153	9068.89
804.483	9032.95
804.814	9014.42
805.145	9029.56
805.475	9013.07
805.805	8982.56
806.136	8948.44
806.466	8979.62
806.796	8969
807.126	8919.29
807.457	8895.11
807.787	8840.64
808.117	8836.12
808.447	8771.49
808.777	8809.46
809.107	8734.66
809.436	8706.18
809.766	8625.51
810.096	8667.09
810.426	8624.83
810.755	8584.38
811.085	8658.95
811.414	8533.98
811.744	8488.11
812.073	8535.79
812.403	8491.73
812.732	8480.43
813.061	8440.43
813.39	8391.16
813.719	8313.65
814.049	8350.26
814.378	8372.18
814.707	8319.53
815.036	8286.99
815.365	8272.97
815.693	8173.77
816.022	8273.43
816.351	8191.39
816.68	8177.38
817.008	8214.22
817.337	8134.45
817.665	8084.05
817.994	8161.79
818.322	8108.91
818.651	8042.02
818.979	8055.13
819.307	8052.19
819.636	8058.06
819.964	7949.82
820.292	7944.85
820.62	7998.41
820.948	7924.06
821.276	7994.79
821.604	7879.31
821.932	7941.68
822.259	7883.38
822.587	7944.62
822.915	7884.06
823.243	7964.28
823.57	7968.58
823.898	7869.82
824.225	7931.74
824.553	7917.28
824.88	7862.82
825.207	7902.36
825.535	7910.72
825.862	7916.83
826.189	7837.73
826.516	7898.97
826.843	7873.21
827.17	7937.16
827.497	7945.98
827.824	7843.61
828.151	7936.26
828.478	7897.17
828.805	7887.22
829.131	7854.91
829.458	7859.65
829.785	7862.36
830.111	7852.87
830.438	7864.4
830.764	7848.58
831.09	7866.43
831.417	7793.89
831.743	7786.43
832.069	7874.11
832.395	7824.17
832.722	7851.97
833.048	7814.46
833.374	7811.97
833.7	7808.35
834.026	7774.68
834.351	7766.32
834.677	7755.93
835.003	7738.98
835.329	7774.46
835.654	7833.21
835.98	7699.66
836.306	7724.74
836.631	7705.76
836.956	7766.32
837.282	7777.39
837.607	7677.96
837.932	7658.08
838.258	7679.54
838.583	7673.22
838.908	7604.29
839.233	7605.42
839.558	7610.39
839.883	7589.15
840.208	7555.71
840.533	7546.21
840.858	7607
841.182	7590.05
841.507	7485.2
841.832	7490.17
842.156	7489.27
842.481	7459.44
842.805	7456.27
843.13	7426.44
843.454	7402.04
843.778	7388.03
844.103	7398.65
844.427	7335.37
844.751	7357.07
845.075	7328.59
845.399	7332.21
845.723	7277.97
846.047	7293.11
846.371	7197.3
846.695	7214.02
847.019	7189.39
847.343	7131.31
847.666	7102.84
847.99	7042.95
848.313	7059.45
848.637	6965.89
848.96	6997.75
849.284	7049.5
849.607	6984.42
849.931	6983.06
850.254	6897.19
850.577	6887.25
850.9	6767.93
851.223	6824.2
851.546	6794.37
851.869	6751.43
852.192	6756.63
852.515	6704.2
852.838	6701.94
853.161	6692.23
853.483	6605.9
853.806	6580.14
854.129	6642.96
854.451	6595.73
854.774	6611.1
855.096	6544.21
855.419	6541.49
855.741	6483.19
856.063	6490.42
856.385	6446.13
856.708	6452.01
857.03	6340.6
857.352	6449.75
857.674	6401.84
857.996	6369.3
858.318	6346.92
858.64	6305.34
858.961	6310.77
859.283	6324.33
859.605	6256.53
859.926	6267.38
860.248	6253.82
860.57	6211.79
860.891	6220.83
861.212	6164.56
861.534	6157.55
861.855	6152.58
862.176	6177.44
862.498	6201.62
862.819	6156.42
863.14	6132.47
863.461	6115.74
863.782	6122.97
864.103	6112.35
864.424	6068.74
864.745	6112.58
865.065	6008.4
865.386	6072.58
865.707	6039.59
866.027	6042.75
866.348	6028.51
866.668	6005.46
866.989	6069.19
867.309	6005.46
867.63	5983.32
867.95	5973.83
868.27	5908.06
868.59	5952.13
868.91	5943.54
869.23	5892.7
869.55	5890.89
869.87	5952.36
870.19	5907.61
870.51	5943.54
870.83	5914.17
871.15	5835.3
871.469	5882.08
871.789	5864
872.109	5866.26
872.428	5814.06
872.748	5856.99
873.067	5851.8
873.386	5876.43
873.706	5834.85
874.025	5831.23
874.344	5777.67
874.663	5836.88
874.982	5799.82
875.301	5769.31
875.62	5748.3
875.939	5762.76
876.258	5740.16
876.577	5749.88
876.896	5715.98
877.214	5722.99
877.533	5700.61
877.852	5644.12
878.17	5680.95
878.489	5694.96
878.807	5686.83
879.125	5707.84
879.444	5621.97
879.762	5687.05
880.08	5655.19
880.398	5624
880.716	5602.31
881.034	5650.9
881.352	5675.3
881.67	5631.91
881.988	5552.82
882.306	5596.66
882.624	5555.76
882.941	5554.4
883.259	5536.1
883.577	5477.34
883.894	5487.74
884.212	5454.07
884.529	5504.69
884.846	5464.01
885.164	5417
885.481	5452.94
885.798	5402.32
886.115	5387.85
886.432	5403.67
886.75	5394.18
887.067	5385.14
887.383	5348.08
887.7	5376.55
888.017	5366.16
888.334	5383.78
888.651	5335.42
888.967	5320.28
889.284	5257.91
889.6	5304.24
889.917	5246.39
890.233	5248.42
890.55	5228.76
890.866	5298.82
891.182	5225.15
891.498	5194.41
891.815	5204.35
892.131	5168.88
892.447	5174.07
892.763	5127.07
893.079	5160.51
893.395	5142.66
893.71	5103.34
894.026	5120.52
894.342	5081.19
894.657	5007.52
894.973	5054.53
895.289	5024.25
895.604	5017.01
895.92	4971.59
896.235	4971.14
896.55	5010.24
896.865	4946.28
897.181	4949.22
897.496	4931.14
897.811	4885.94
898.126	4864.93
898.441	4859.28
898.756	4837.13
899.071	4841.43
899.386	4839.39
899.7	4843.46
900.015	4783.12
900.33	4762.33
900.644	4792.61
900.959	4832.39
901.273	4746.74
901.588	4722.33
901.902	4708.32
902.216	4712.39
902.531	4728.66
902.845	4720.75
903.159	4636.23
903.473	4625.16
903.787	4642.79
904.101	4603.69
904.415	4568.67
904.729	4583.35
905.042	4629.45
905.356	4527.99
905.67	4542.9
905.984	4523.02
906.297	4547.87
906.611	4495.45
906.924	4533.41
907.237	4479.85
907.551	4443.24
907.864	4429.91
908.177	4409.8
908.491	4411.61
908.804	4393.53
909.117	4400.08
909.43	4355.79
909.743	4317.6
910.056	4340.2
910.368	4349.91
910.681	4295.9
910.994	4301.55
911.307	4209.35
911.619	4243.48
911.932	4219.75
912.244	4228.34
912.557	4203.25
912.869	4178.39
913.181	4196.25
913.494	4153.31
913.806	4113.08
914.118	4135.46
914.43	4098.4
914.742	4085.06
915.054	4075.12
915.366	4076.47
915.678	4075.8
915.99	4025.18
916.302	4017.04
916.613	3980.66
916.925	4048.68
917.236	3934.11
917.548	3985.18
917.859	3938.85
918.171	3974.33
918.482	3931.85
918.794	3907.89
919.105	3911.96
919.416	3846.88
919.727	3866.99
920.038	3866.31
920.349	3832.19
920.66	3820.44
920.971	3834.45
921.282	3800.1
921.593	3783.15
921.903	3749.03
922.214	3727.78
922.525	3738.18
922.835	3728.69
923.146	3729.59
923.456	3699.76
923.767	3690.5
924.077	3659.08
924.387	3614.11
924.697	3665.64
925.008	3643.04
925.318	3573.44
925.628	3600.78
925.938	3586.54
926.248	3552.19
926.558	3513.55
926.867	3521.01
927.177	3534.79
927.487	3535.92
927.796	3464.29
928.106	3494.34
928.416	3485.98
928.725	3433.33
929.034	3425.19
929.344	3447.11
929.653	3442.82
929.962	3427.45
930.271	3335.25
930.581	3367.57
930.89	3347.45
931.199	3290.28
931.508	3348.81
931.817	3355.82
932.125	3301.35
932.434	3297.96
932.743	3308.59
933.051	3278.76
933.36	3272.43
933.669	3246.67
933.977	3210.28
934.286	3246.44
934.594	3189.49
934.902	3193.56
935.21	3198.08
935.519	3135.26
935.827	3201.02
936.135	3153.11
936.443	3115.6
936.751	3113.34
937.059	3110.4
937.367	3085.54
937.674	3109.72
937.982	3092.32
938.29	3094.58
938.597	3055.71
938.905	3017.75
939.213	3060.68
939.52	3054.81
939.827	3035.6
940.135	3000.12
940.442	2997.63
940.749	2973.9
941.056	3014.58
941.363	2935.49
941.67	2943.4
941.977	2939.78
942.284	2904.08
942.591	2888.94
942.898	2920.12
943.205	2902.95
943.511	2897.75
943.818	2891.2
944.125	2817.52
944.431	2881.93
944.738	2845.77
945.044	2847.13
945.35	2808.49
945.657	2797.41
945.963	2765.77
946.269	2745.44
946.575	2760.58
946.881	2763.51
947.187	2754.25
947.493	2725.78
947.799	2716.51
948.105	2723.06
948.41	2695.95
948.716	2693.23
949.022	2664.31
949.327	2706.34
949.633	2681.03
949.938	2624.99
950.244	2633.57
950.549	2620.24
950.854	2595.84
951.16	2604.42
951.465	2589.28
951.77	2591.99
952.075	2573.92
952.38	2570.98
952.685	2547.48
952.99	2567.59
953.294	2550.87
953.599	2543.41
953.904	2498.89
954.209	2507.25
954.513	2501.37
954.818	2519.91
955.122	2500.47
955.426	2453.24
955.731	2472.45
956.035	2441.26
956.339	2446.69
956.643	2427.7
956.948	2417.31
957.252	2438.33
957.556	2421.6
957.86	2389.97
958.163	2376.86
958.467	2370.53
958.771	2401.72
959.075	2344.77
959.378	2358.33
959.682	2354.94
959.985	2341.15
960.289	2307.48
960.592	2300.7
960.896	2319.01
961.199	2320.59
961.502	2297.31
961.805	2287.6
962.108	2281.49
962.411	2267.71
962.714	2260.93
963.017	2269.74
963.32	2229.74
963.623	2233.81
963.926	2216.41
964.228	2225.45
964.531	2221.83
964.833	2176.41
965.136	2199.01
965.438	2192.68
965.741	2146.13
966.043	2159.69
966.345	2153.59
966.648	2142.97
966.95	2187.94
967.252	2112.23
967.554	2113.14
967.856	2110.42
968.158	2093.02
968.46	2079.01
968.761	2094.38
969.063	2084.89
969.365	2076.08
969.666	2040.37
969.968	2054.38
970.269	2070.65
970.571	2042.18
970.872	2042.86
971.174	2019.35
971.475	2011.22
971.776	2003.53
972.077	1972.35
972.378	1980.71
972.679	2007.38
972.98	2013.48
973.281	1951.78
973.582	1959.69
973.883	1968.28
974.183	1932.8
974.484	1966.02
974.785	1928.51
975.085	1927.6
975.386	1953.82
975.686	1894.84
975.986	1894.61
976.287	1928.51
976.587	1903.2
976.887	1882.63
977.187	1860.49
977.487	1877.89
977.787	1864.78
978.087	1846.7
978.387	1854.61
978.687	1880.83
978.987	1843.54
979.286	1819.13
979.586	1810.77
979.885	1798.12
980.185	1814.16
980.484	1817.1
980.784	1771.45
981.083	1755.18
981.382	1775.97
981.682	1763.54
981.981	1759.7
982.28	1740.49
982.579	1723.09
982.878	1709.98
983.177	1745.01
983.475	1767.16
983.774	1699.81
984.073	1698.23
984.372	1725.12
984.67	1722.86
984.969	1673.6
985.267	1707.05
985.566	1699.14
985.864	1666.37
986.162	1695.52
986.461	1657.33
986.759	1612.36
987.057	1623.21
987.355	1648.52
987.653	1624.34
987.951	1615.97
988.249	1632.02
988.547	1628.18
988.844	1620.72
989.142	1593.15
989.44	1608.74
989.737	1606.03
990.035	1567.39
990.332	1601.74
990.63	1566.94
990.927	1544.56
991.224	1557.22
991.521	1560.16
991.819	1544.11
992.116	1536.2
992.413	1513.83
992.71	1524.9
993.006	1548.86
993.303	1499.14
993.6	1521.51
993.897	1496.88
994.193	1516.77
994.49	1478.58
994.787	1487.39
995.083	1482.87
995.379	1463.89
995.676	1472.25
995.972	1465.02
996.268	1445.36
996.565	1455.98
996.861	1435.87
997.157	1451.68
997.453	1382.99
997.749	1400.61
998.044	1418.01
998.34	1389.09
998.636	1387.51
998.932	1396.09
999.227	1373.95
999.523	1389.09
999.818	1381.63
1000.114	1379.37
1000.409	1370.11
1000.704	1365.59
1001	1348.86
1001.295	1354.29
1001.59	1346.6
1001.885	1341.86
1002.18	1321.52
1002.475	1313.38
1002.77	1316.32
1003.065	1293.27
1003.359	1284.01
1003.654	1300.05
1003.949	1276.32
1004.243	1296.89
1004.538	1258.7
1004.832	1242.42
1005.127	1270.67
1005.421	1232.03
1005.715	1255.98
1006.009	1239.71
1006.304	1244.01
1006.598	1225.93
1006.892	1235.42
1007.186	1215.76
1007.48	1210.34
1007.773	1216.44
1008.067	1170.79
1008.361	1192.71
1008.655	1208.08
1008.948	1187.29
1009.242	1183.22
1009.535	1182.77
1009.829	1175.31
1010.122	1180.28
1010.415	1146.61
1010.708	1135.31
1011.001	1145.7
1011.295	1122.88
1011.588	1121.52
1011.881	1115.2
1012.173	1147.29
1012.466	1085.59
1012.759	1111.81
1013.052	1107.29
1013.344	1086.95
1013.637	1051.24
1013.93	1114.07
1014.222	1083.56
1014.514	1066.61
1014.807	1084.91
1015.099	1071.58
1015.391	1077.91
1015.683	1060.51
1015.976	1049.66
1016.268	1051.7
1016.56	1028.19
1016.851	1033.39
1017.143	1025.03
1017.435	1031.81
1017.727	1024.58
1018.018	990.68
1018.31	1015.54
1018.602	999.49
1018.893	977.12
1019.185	972.6
1019.476	991.58
1019.767	1004.47
1020.058	978.25
1020.35	983.67
1020.641	974.41
1020.932	938.48
1021.223	942.32
1021.514	955.88
1021.804	931.7
1022.095	935.77
1022.386	931.02
1022.677	951.59
1022.967	926.05
1023.258	922.66
1023.548	914.07
1023.839	910
1024.129	892.15
1024.419	904.58
1024.709	890.12
1025	876.33
1025.29	885.6
1025.58	871.59
1025.87	860.51
1026.16	836.56
1026.449	884.92
1026.739	853.28
1027.029	856.45
1027.319	847.63
1027.608	833.4
1027.898	849.89
1028.187	845.83
1028.477	818.93
1028.766	832.72
1029.055	805.15
1029.344	831.59
1029.634	808.09
1029.923	805.15
1030.212	790.91
1030.501	775.09
1030.79	794.75
1031.078	775.77
1031.367	789.33
1031.656	795.66
1031.945	776.22
1032.233	773.96
1032.522	764.7
1032.81	794.53
1033.099	753.17
1033.387	759.5
1033.675	762.44
1033.963	777.58
1034.251	750.23
1034.54	736.9
1034.828	727.86
1035.116	719.73
1035.403	734.19
1035.691	720.63
1035.979	723.57
1036.267	719.27
1036.554	725.6
1036.842	719.27
1037.129	707.52
1037.417	695.09
1037.704	726.73
1037.992	675.89
1038.279	700.74
1038.566	679.95
1038.853	679.95
1039.14	679.95
