Data from tablewood_brown_FLMS001491_067.txt Node
Date: Tue Feb 07 11:10:50 GMT 2017
User: dcchb
Spectrometer: FLMS00149
Trigger mode: 0
Integration Time (sec): 2.000000E-2
Scans to average: 10
Electric dark correction enabled: true
Nonlinearity correction enabled: false
Boxcar width: 0
XAxis mode: Wavelengths
Number of Pixels in Spectrum: 2048
>>>>>Begin Spectral Data<<<<<
341.393	-0.85
341.776	-0.85
342.16	-0.85
342.543	-49.89
342.927	-59.83
343.31	-70.45
343.693	-71.58
344.077	-89.66
344.46	-58.47
344.843	-49.89
345.226	-47.17
345.61	-18.02
345.993	-17.34
346.376	0.28
346.759	17.68
347.142	28.3
347.525	45.93
347.908	50.45
348.291	65.37
348.674	96.78
349.057	117.79
349.44	159.6
349.823	131.8
350.206	147.4
350.588	177
350.971	221.07
351.354	232.14
351.737	248.64
352.119	261.97
352.502	257.45
352.884	273.5
353.267	297.68
353.65	278.24
354.032	286.6
354.414	328.86
354.797	309.88
355.179	307.17
355.562	327.51
355.944	335.19
356.326	339.93
356.709	322.53
357.091	326.83
357.473	341.97
357.855	335.41
358.238	354.4
358.62	344.45
359.002	325.47
359.384	333.61
359.766	345.36
360.148	334.96
360.53	355.3
360.912	331.12
361.294	328.41
361.676	331.57
362.057	357.34
362.439	317.56
362.821	332.48
363.203	331.12
363.584	325.47
363.966	334.74
364.348	335.19
364.729	338.58
365.111	326.6
365.493	342.65
365.874	328.64
366.256	325.92
366.637	317.11
367.019	302.87
367.4	322.99
367.781	330.22
368.163	349.65
368.544	328.86
368.925	317.11
369.306	308.3
369.688	329.09
370.069	315.08
370.45	322.08
370.831	323.89
371.212	303.1
371.593	356.43
371.974	316.88
372.355	337.9
372.736	318.92
373.117	304.91
373.498	301.29
373.879	333.61
374.26	321.63
374.641	297.45
375.021	324.57
375.402	344.68
375.783	346.71
376.163	347.84
376.544	343.55
376.925	336.09
377.305	331.57
377.686	343.1
378.066	344.45
378.447	362.08
378.827	346.71
379.208	355.3
379.588	344.91
379.968	336.54
380.349	349.88
380.729	348.75
381.109	349.65
381.489	368.41
381.87	364.57
382.25	366.15
382.63	359.14
383.01	348.52
383.39	357.79
383.77	367.28
384.15	368.63
384.53	362.08
384.91	369.31
385.29	389.2
385.67	383.1
386.049	384.45
386.429	384.68
386.809	362.98
387.189	388.52
387.568	401.63
387.948	407.5
388.328	395.98
388.707	376.77
389.087	392.36
389.466	444.56
389.846	387.62
390.225	392.59
390.605	395.07
390.984	410.89
391.363	426.71
391.743	427.62
392.122	416.54
392.501	425.81
392.881	425.36
393.26	436.66
393.639	443.89
394.018	430.78
394.397	433.49
394.776	463.55
395.155	458.8
395.534	454.06
395.913	440.27
396.292	436.2
396.671	434.4
397.05	458.12
397.429	450.21
397.808	452.02
398.186	476.65
398.565	479.14
398.944	463.77
399.323	466.94
399.701	486.82
400.08	486.15
400.458	491.79
400.837	501.51
401.215	500.16
401.594	485.47
401.972	486.6
402.351	511
402.729	512.36
403.107	525.69
403.486	505.58
403.864	532.02
404.242	532.47
404.62	523.66
404.999	518.46
405.377	522.98
405.755	555.75
406.133	537.67
406.511	545.8
406.889	545.8
407.267	557.1
407.645	546.48
408.023	559.82
408.401	575.41
408.779	567.95
409.156	565.47
409.534	595.97
409.912	577.44
410.29	591.45
410.667	614.5
411.045	593.49
411.422	613.37
411.8	597.33
412.178	623.32
412.555	640.72
412.933	633.49
413.31	650.66
413.687	648.4
414.065	621.28
414.442	654.95
414.819	658.57
415.197	676.87
415.574	681.39
415.951	686.59
416.328	657.44
416.705	698.34
417.082	694.73
417.46	709.64
417.837	676.65
418.214	682.3
418.591	711.45
418.967	705.35
419.344	727.72
419.721	707.38
420.098	737.44
420.475	715.29
420.852	733.14
421.228	758.68
421.605	754.39
421.982	768.17
422.358	736.99
422.735	772.92
423.111	782.86
423.488	798.91
423.864	786.48
424.241	807.94
424.617	774.5
424.994	782.41
425.37	811.56
425.746	811.79
426.123	810.66
426.499	830.32
426.875	822.41
427.251	819.47
427.627	828.06
428.003	864.89
428.379	873.93
428.756	867.38
429.132	879.36
429.507	909.64
429.883	917.55
430.259	926.59
430.635	921.39
431.011	921.84
431.387	935.63
431.763	959.81
432.138	961.61
432.514	975.4
432.89	954.83
433.265	1012.69
433.641	999.13
434.016	1014.27
434.392	1021.05
434.767	1054.49
435.143	1040.93
435.518	1067.6
435.894	1050.2
436.269	1069.18
436.644	1091.55
437.02	1085.45
437.395	1085.9
437.77	1134.72
438.145	1128.39
438.52	1133.59
438.895	1166.35
439.271	1134.94
439.646	1175.39
440.021	1167.71
440.395	1188.5
440.77	1181.27
441.145	1181.27
441.52	1194.83
441.895	1237.09
442.27	1199.12
442.645	1231.66
443.019	1266.01
443.394	1225.11
443.769	1253.58
444.143	1251.1
444.518	1268.27
444.892	1277.09
445.267	1293.36
445.641	1277.09
446.016	1291.77
446.39	1297.88
446.764	1301.72
447.139	1329.97
447.513	1336.07
447.887	1324.77
448.262	1332.22
448.636	1372.22
449.01	1375.61
449.384	1372.9
449.758	1389.62
450.132	1392.56
450.506	1405.22
450.88	1415.16
451.254	1416.74
451.628	1426.01
452.002	1466.68
452.376	1455.61
452.75	1467.59
453.123	1487.7
453.497	1499.68
453.871	1485.67
454.244	1534.48
454.618	1546.46
454.992	1567.47
455.365	1567.02
455.739	1581.03
456.112	1595.27
456.486	1610.64
456.859	1651.76
457.232	1662.84
457.606	1661.71
457.979	1677.75
458.352	1708.49
458.725	1730.63
459.099	1752.78
459.472	1787.58
459.845	1787.35
460.218	1801.82
460.591	1808.14
460.964	1807.69
461.337	1898.76
461.71	1929.05
462.083	1930.63
462.456	1938.99
462.829	1949.84
463.201	1970.85
463.574	2023.28
463.947	2012.66
464.32	2046.1
464.692	2073.67
465.065	2075.48
465.438	2158.19
465.81	2180.56
466.183	2185.76
466.555	2226.66
466.928	2208.36
467.3	2247.46
467.672	2269.15
468.045	2357.51
468.417	2352.54
468.789	2365.64
469.161	2395.7
469.534	2403.61
469.906	2489.93
470.278	2534.45
470.65	2592.76
471.022	2614
471.394	2689.48
471.766	2720.44
472.138	2736.03
472.51	2817.61
472.882	2842.47
473.253	2893.77
473.625	2943.03
473.997	2975.35
474.369	3062.8
474.74	3110.48
475.112	3136.7
475.484	3220.76
475.855	3226.86
476.227	3344.38
476.598	3397.48
476.97	3461.21
477.341	3537.14
477.713	3603.8
478.084	3644.03
478.455	3775.1
478.827	3745.04
479.198	3850.35
479.569	3938.26
479.94	4050.57
480.311	4052.15
480.682	4183
481.053	4289.89
481.424	4378.02
481.795	4449.66
482.166	4453.95
482.537	4539.37
482.908	4618.24
483.279	4712.47
483.65	4816.65
484.021	4908.85
484.391	5000.15
484.762	5056.87
485.133	5073.82
485.503	5216.19
485.874	5295.74
486.244	5324.66
486.615	5507.71
486.985	5519.91
487.356	5690.3
487.726	5667.48
488.097	5781.37
488.467	5841.71
488.837	5967.81
489.207	6079.9
489.578	6129.39
489.948	6242.38
490.318	6289.83
490.688	6296.61
491.058	6411.41
491.428	6458.87
491.798	6541.81
492.168	6714.23
492.538	6765.08
492.908	6836.03
493.278	6933.89
493.648	6959.65
494.017	7044.39
494.387	7101.56
494.757	7245.74
495.126	7284.16
495.496	7274.22
495.866	7367.09
496.235	7476.02
496.605	7513.76
496.974	7579.07
497.344	7612.06
497.713	7667.65
498.082	7836.69
498.452	7851.6
498.821	7878.95
499.19	7879.85
499.559	8063.35
499.928	8060.86
500.298	8074.19
500.667	8222.21
501.036	8198.03
501.405	8412.72
501.774	8408.87
502.143	8464.69
502.512	8474.18
502.88	8555.99
503.249	8633.5
503.618	8666.72
503.987	8647.06
504.356	8805.7
504.724	8766.15
505.093	8849.32
505.462	9012.02
505.83	8994.62
506.199	9140.38
506.567	9284.11
506.936	9198.91
507.304	9320.04
507.672	9400.49
508.041	9434.84
508.409	9500.15
508.777	9593.48
509.145	9706.92
509.514	9755.96
509.882	9835.05
510.25	9783.98
510.618	9986.01
510.986	9970.87
511.354	10061.71
511.722	10212.9
512.09	10250.18
512.458	10272.55
512.826	10379.22
513.193	10462.15
513.561	10615.37
513.929	10661.92
514.297	10766.55
514.664	10858.3
515.032	10812.2
515.4	10965.19
515.767	11079.54
516.135	11191.85
516.502	11067.34
516.869	11302.58
517.237	11393.88
517.604	11373.09
517.972	11532.41
518.339	11629.13
518.706	11756.81
519.073	11806.75
519.44	11821.21
519.808	11987.76
520.175	12072.28
520.542	12244.71
520.909	12343.91
521.276	12315.44
521.643	12463.91
522.009	12526.28
522.376	12608.54
522.743	12763.56
523.11	12953.84
523.477	13035.19
523.843	13127.85
524.21	13276.77
524.577	13353.15
524.943	13412.59
525.31	13554.28
525.676	13746.14
526.043	13788.17
526.409	13797.66
526.776	14068.16
527.142	14072.23
527.508	14159.91
527.874	14252.11
528.241	14358.55
528.607	14467.7
528.973	14580.24
529.339	14616.4
529.705	14741.14
530.071	14968.25
530.437	14954.24
530.803	14999.21
531.169	15226.1
531.535	15057.06
531.901	15269.49
532.267	15308.58
532.632	15384.96
532.998	15531.63
533.364	15584.96
533.73	15601.45
534.095	15805.06
534.461	15751.96
534.826	15947.21
535.192	15930.94
535.557	16059.3
535.923	16088.9
536.288	16173.19
536.653	16195.11
537.019	16237.14
537.384	16369.34
537.749	16324.82
538.114	16501.32
538.479	16504.03
538.845	16585.61
539.21	16586.29
539.575	16682.1
539.94	16751.03
540.305	16905.83
540.67	16907.63
541.034	17002.77
541.399	17044.58
541.764	17139.27
542.129	17139.27
542.494	17247.06
542.858	17256.33
543.223	17210
543.587	17413.16
543.952	17417
544.316	17456.55
544.681	17523.21
545.045	17546.49
545.41	17738.12
545.774	17788.29
546.138	17765.47
546.503	17842.98
546.867	17831.23
547.231	17973.14
547.595	17957.32
547.959	18122.29
548.324	18181.5
548.688	18322.06
549.052	18334.72
549.416	18344.21
549.779	18408.16
550.143	18446.35
550.507	18748.26
550.871	18867.58
551.235	18843.4
551.599	19086.56
551.962	19010.63
552.326	19165.65
552.689	19368.59
553.053	19260.12
553.417	19356.61
553.78	19578.3
554.143	19567.9
554.507	19754.79
554.87	19859.2
555.234	20104.84
555.597	19968.12
555.96	20119.98
556.323	20269.13
556.686	20363.14
557.05	20501.89
557.413	20666.86
557.776	20676.57
558.139	20826.85
558.502	21014.42
558.865	21047.19
559.228	21272.27
559.59	21465.71
559.953	21557.91
560.316	21843.32
560.679	21842.42
561.041	22028.18
561.404	22228.62
561.767	22363.08
562.129	22414.61
562.492	22617.99
562.854	22796.75
563.217	22710.19
563.579	22959.23
563.941	23119.67
564.304	23309.27
564.666	23492.09
565.028	23672.88
565.39	23827.45
565.753	24075.36
566.115	24072.42
566.477	24335.01
566.839	24416.82
567.201	24651.61
567.563	24800.76
567.925	25038.27
568.287	25045.73
568.648	25207.53
569.01	25436.68
569.372	25788.76
569.734	25782.2
570.095	25918.25
570.457	26185.58
570.819	26295.41
571.18	26288.4
571.542	26675.74
571.903	26734.27
572.265	26890.2
572.626	27026.01
572.987	27276.4
573.349	27384.2
573.71	27530.18
574.071	27762.72
574.432	27976.5
574.794	28154.34
575.155	28162.03
575.516	28159.77
575.877	28467.33
576.238	28637.72
576.599	28766.08
576.96	28889.24
577.32	29016.92
577.681	29177.14
578.042	29456.91
578.403	29417.36
578.763	29566.74
579.124	29778.03
579.485	29925.6
579.845	30022.54
580.206	30002.88
580.566	30166.72
580.927	30327.39
581.287	30397.68
581.648	30563.77
582.008	30493.94
582.368	30595.86
582.728	30715.41
583.089	30773.48
583.449	30828.62
583.809	30810.09
584.169	31028.85
584.529	31097.54
584.889	31269.29
585.249	31092.35
585.609	31196.52
585.969	31360.36
586.329	31339.12
586.688	31526.69
587.048	31471.77
587.408	31484.88
587.768	31539.11
588.127	31538.21
588.487	31519.68
588.846	31731.2
589.206	31516.97
589.565	31674.7
589.925	31798.09
590.284	31855.94
590.643	31961.25
591.003	31982.94
591.362	32065.43
591.721	32014.58
592.08	32090.74
592.44	32107.46
592.799	32130.96
593.158	32117.63
593.517	32146.78
593.876	32402.82
594.235	32071.76
594.593	32354.46
594.952	32445.31
595.311	32262.26
595.67	32283.05
596.029	32572.99
596.387	32671.51
596.746	32647.56
597.104	32451.41
597.463	32389.49
597.822	32544.96
598.18	32528.24
598.538	32482.14
598.897	32746.54
599.255	32510.39
599.613	32948.12
599.972	32755.35
600.33	32816.14
600.688	32659.08
601.046	32848.91
601.404	33065.18
601.762	32901.34
602.12	33094.33
602.478	33095.23
602.836	32986.08
603.194	32816.37
603.552	32972.07
603.91	32964.61
604.268	33181.1
604.625	33072.63
604.983	33149.24
605.341	32977.95
605.698	33233.31
606.056	33290.25
606.413	33179.52
606.771	33246.87
607.128	33321.21
607.485	33297.49
607.843	33174.33
608.2	33501.1
608.557	33503.81
608.914	33284.83
609.272	33541.55
609.629	33588.1
609.986	33760.75
610.343	33452.74
610.7	33731.15
611.057	33769.79
611.414	33753.29
611.771	33681.43
612.127	33983.57
612.484	33813.4
612.841	33992.84
613.198	33894.76
613.554	33922.33
613.911	34037.35
614.267	34145.37
614.624	33988.09
614.98	34032.61
615.337	34282.32
615.693	34330.91
616.05	34285.93
616.406	34494.97
616.762	34339.94
617.118	34354.41
617.475	34270.34
617.831	34412.48
618.187	34425.82
618.543	34544.23
618.899	34653.83
619.255	34619.49
619.611	34405.71
619.967	34686.83
620.323	34601.86
620.678	34486.16
621.034	34511.69
621.39	34703.55
621.746	34450.22
622.101	34905.35
622.457	34631.01
622.812	34885.47
623.168	34874.85
623.523	34790.55
623.879	34861.51
624.234	34702.87
624.589	34858.12
624.945	34873.72
625.3	34863.09
625.655	34925.69
626.01	34899.7
626.365	34691.35
626.72	34918.23
627.075	34779.26
627.43	34817.22
627.785	34662.42
628.14	34788.52
628.495	34791.68
628.85	34784.68
629.205	34720.73
629.559	34773.38
629.914	34716.21
630.269	34686.15
630.623	34570.67
630.978	34672.14
631.332	34671.46
631.687	34716.21
632.041	34577.68
632.396	34697.9
632.75	34547.62
633.104	34574.51
633.459	34318.25
633.813	34293.84
634.167	34352.83
634.521	34341.3
634.875	34382.43
635.229	34475.53
635.583	34237.57
635.937	34242.77
636.291	34212.04
636.645	34158.25
636.999	34093.4
637.352	34188.99
637.706	33871.26
638.06	34185.82
638.413	34004.59
638.767	33906.51
639.121	34014.53
639.474	33807.76
639.828	33660.41
640.181	33779.51
640.534	33834.42
640.888	33790.13
641.241	33608.44
641.594	33672.39
641.947	33741.09
642.301	33622.9
642.654	33626.52
643.007	33698.61
643.36	33529.12
643.713	33610.25
644.066	33560.98
644.419	33495.67
644.771	33211.39
645.124	32952.18
645.477	33057.04
645.83	32730.5
646.182	32610.05
646.535	32576.6
646.888	32686.43
647.24	32457.96
647.593	32502.25
647.945	32573.89
648.298	32347.45
648.65	32377.74
649.002	32251.86
649.355	32400.11
649.707	32261.36
650.059	32481.24
650.411	32840.77
650.763	32869.93
651.115	33130.94
651.467	32959.42
651.819	33095.68
652.171	32919.19
652.523	33003.03
652.875	32952.64
653.227	32793.32
653.578	33099.53
653.93	32962.58
654.282	32935.46
654.633	32738.63
654.985	32883.26
655.337	32910.38
655.688	32970.26
656.039	32993.99
656.391	32651.85
656.742	32817.27
657.094	32826.31
657.445	32898.63
657.796	32949.25
658.147	32898.85
658.498	32899.53
658.849	32751.29
659.2	32785.64
659.551	32751.29
659.902	32755.81
660.253	32683.04
660.604	32806.88
660.955	32621.12
661.306	32665.86
661.656	32775.47
662.007	32824.05
662.358	32741.79
662.708	32797.84
663.059	32764.39
663.409	32522.14
663.76	32887.1
664.11	32761
664.461	32704.73
664.811	32720.33
665.161	32634
665.511	32584.74
665.862	32628.8
666.212	32718.97
666.562	32733.89
666.912	32626.54
667.262	32655.24
667.612	32644.4
667.962	32748.35
668.312	32614.57
668.662	32745.64
669.011	32712.19
669.361	32591.74
669.711	32445.98
670.06	32627.22
670.41	32560.56
670.76	32538.18
671.109	32553.55
671.459	32458.41
671.808	32399.2
672.157	32363.27
672.507	32229.94
672.856	32235.82
673.205	32306.55
673.554	32351.3
673.904	32217.29
674.253	32402.14
674.602	32256.61
674.951	31960.12
675.3	31702.05
675.649	32217.06
675.998	32078.08
676.346	32235.82
676.695	32312.2
677.044	31935.04
677.393	32200.11
677.741	32168.48
678.09	32085.31
678.438	31966
678.787	31996.28
679.135	31948.37
679.484	31781.37
679.832	31974.13
680.181	31734.36
680.529	31967.13
680.877	31744.31
681.225	31663.4
681.573	31935.26
681.922	31500.7
682.27	31593.35
682.618	31565.55
682.966	31334.6
683.314	31512.9
683.661	31357.2
684.009	31333.7
684.357	31139.12
684.705	31185.23
685.053	31128.05
685.4	30978
685.748	30914.5
686.095	30990.2
686.443	30938.23
686.79	30694.16
687.138	30713.83
687.485	30641.28
687.832	30668.18
688.18	30642.64
688.527	30421.4
688.874	30458.69
689.221	30327.85
689.568	30159.49
689.915	30157.68
690.262	30229.09
690.609	30051.24
690.956	30090.34
691.303	29982.77
691.65	29818.26
691.997	29850.8
692.344	29677.47
692.69	29614.87
693.037	29629.56
693.383	29281.77
693.73	29479.28
694.077	29138.05
694.423	29180.76
694.769	29116.58
695.116	29056.24
695.462	28898.73
695.808	28867.09
696.155	28847.21
696.501	28630.26
696.847	28729.24
697.193	28400.67
697.539	28508.46
697.885	28308.01
698.231	28271.86
698.577	28244.06
698.923	28212.87
699.269	28005.2
699.614	27791.64
699.96	27759.78
700.306	27770.85
700.651	27681.59
700.997	27513.91
701.342	27428.71
701.688	27342.16
702.033	27356.17
702.379	27357.53
702.724	27237.98
703.069	27307.14
703.415	27024.2
703.76	26971.1
704.105	26880.48
704.45	26915.28
704.795	26643.65
705.14	26670.09
705.485	26552.8
705.83	26444.33
706.175	26474.16
706.52	26303.09
706.865	26291.12
707.209	26262.19
707.554	26073.95
707.899	26214.96
708.243	26056.32
708.588	26029.88
708.932	25764.12
709.277	25765.03
709.621	25780.85
709.966	25603
710.31	25654.52
710.654	25428.09
710.998	25547.86
711.342	25507.18
711.687	25383.12
712.031	25418.82
712.375	25181.32
712.719	25281.2
713.063	25219.96
713.407	25203.24
713.75	25258.6
714.094	25161.43
714.438	24910.36
714.782	25024.71
715.125	24865.17
715.469	24964.37
715.812	24738.84
716.156	24726.64
716.499	24761.44
716.843	24793.08
717.186	24480.99
717.53	24660.65
717.873	24769.57
718.216	24526.87
718.559	24414.1
718.902	24524.84
719.246	24457.72
719.589	24409.81
719.932	24313.77
720.275	24270.6
720.617	24217.05
720.96	24258.4
721.303	24306.08
721.646	24244.84
721.989	24076.49
722.331	24119.65
722.674	24077.16
723.016	24154.45
723.359	24105.19
723.701	24131.85
724.044	24021.8
724.386	23836.04
724.729	24004.4
725.071	23854.12
725.413	23914.23
725.755	24002.14
726.097	23937.51
726.439	23793.78
726.782	23926.43
727.124	23874.68
727.465	23726.66
727.807	23806.66
728.149	23811.86
728.491	23762.6
728.833	23790.17
729.175	23691.18
729.516	23519.89
729.858	23616.16
730.199	23610.96
730.541	23536.61
730.882	23553.11
731.224	23673.78
731.565	23514.92
731.906	23574.58
732.248	23563.5
732.589	23546.33
732.93	23459.55
733.271	23467.24
733.612	23551.53
733.953	23580.45
734.294	23406.45
734.635	23494.35
734.976	23504.07
735.317	23385.43
735.658	23483.05
735.999	23396.96
736.339	23365.77
736.68	23424.3
737.021	23403.51
737.361	23294.13
737.702	23324.64
738.042	23401.25
738.383	23391.08
738.723	23445.99
739.063	23345.66
739.404	23380.23
739.744	23328.03
740.084	23191.76
740.424	23294.36
740.764	23264.3
741.104	23378.88
741.444	23184.08
741.784	23040.81
742.124	23267.69
742.464	23149.5
742.804	23263.63
743.143	23232.21
743.483	23144.08
743.823	23045.33
744.162	23113.8
744.502	23179.56
744.841	22993.8
745.181	23283.06
745.52	23165.32
745.86	23091.43
746.199	23122.61
746.538	23132.78
746.877	23108.83
747.216	23053.24
747.556	23041.26
747.895	23020.24
748.234	23008.94
748.573	23009.39
748.911	22996.74
749.25	23018.21
749.589	22938.44
749.928	22949.96
750.267	23043.74
750.605	22887.59
750.944	22979.11
751.283	22726.01
751.621	22928.95
751.96	22829.74
752.298	22738.67
752.636	22796.75
752.975	22634.49
753.313	22587.26
753.651	22674.04
753.989	22664.55
754.327	22485.34
754.666	22553.59
755.004	22526.47
755.342	22498.67
755.679	22522.18
756.017	22381.84
756.355	22429.07
756.693	22320.83
757.031	22396.98
757.368	22310.43
757.706	22294.16
758.044	22178.46
758.381	22244.44
758.719	22223.43
759.056	22094.39
759.394	22116.09
759.731	21986.6
760.068	21941.17
760.405	21967.61
760.743	21834.74
761.08	21859.37
761.417	21655.98
761.754	21706.6
762.091	21765.81
762.428	21636.1
762.765	21603.56
763.102	21730.56
763.438	21484.46
763.775	21312.72
764.112	21361.75
764.449	21371.7
764.785	21282.66
765.122	21157.24
765.458	21059.39
765.795	21052.84
766.131	21034.08
766.467	20983.23
766.804	20781.2
767.14	20750.92
767.476	20747.31
767.812	20585.28
768.148	20657.82
768.485	20495.56
768.821	20447.43
769.157	20355.23
769.492	20281.78
769.828	20324.72
770.164	20148
770.5	20148.91
770.836	20080.88
771.171	19863.94
771.507	19958.63
771.842	19752.76
772.178	19752.31
772.513	19729.71
772.849	19792.76
773.184	19562.48
773.519	19593.21
773.855	19497.4
774.19	19400.9
774.525	19317.51
774.86	19463.27
775.195	19266.89
775.53	19185.77
775.865	19154.13
776.2	18995.49
776.535	18886.34
776.87	18930.41
777.205	18875.94
777.539	18758.89
777.874	18805.66
778.209	18579.91
778.543	18610.64
778.878	18421.49
779.212	18459.01
779.547	18367.71
779.881	18457.42
780.215	18266.24
780.55	18312.12
780.884	18110.09
781.218	18186.24
781.552	18088.17
781.886	17979.47
782.22	17901.05
782.554	17924.1
782.888	17623.55
783.222	17630.1
783.556	17564.34
783.889	17570.22
784.223	17396.89
784.557	17435.98
784.89	17396.44
785.224	17327.74
785.557	17207.06
785.891	17153.73
786.224	17104.92
786.558	17067.18
786.891	16919.84
787.224	16847.07
787.557	16822.21
787.891	16757.36
788.224	16821.76
788.557	16733.4
788.89	16626.96
789.223	16612.73
789.556	16534.09
789.888	16438.27
790.221	16436.69
790.554	16316.46
790.887	16311.27
791.219	16248.44
791.552	16227.65
791.884	16071.72
792.217	16056.13
792.549	16038.28
792.882	15919.19
793.214	15885.51
793.546	15911.28
793.879	15799.87
794.211	15712.64
794.543	15808
794.875	15648.68
795.207	15730.26
795.539	15608.91
795.871	15633.09
796.203	15396.26
796.535	15356.04
796.867	15317.85
797.198	15256.15
797.53	15301.35
797.862	15180.22
798.193	15245.98
798.525	15095.25
798.856	15142.26
799.188	14985.2
799.519	14904.52
799.85	14839.21
800.182	14835.82
800.513	14800.12
800.844	14729.39
801.175	14735.71
801.506	14825.88
801.837	14665.43
802.168	14649.16
802.499	14572.55
802.83	14533.46
803.161	14524.87
803.491	14501.6
803.822	14441.26
804.153	14390.64
804.483	14170.76
804.814	14221.83
805.145	14194.49
805.475	14137.99
805.805	14111.55
806.136	14077.2
806.466	14044.21
806.796	14055.05
807.126	14007.82
807.457	13916.98
807.787	13928.05
808.117	13867.04
808.447	13910.2
808.777	13883.31
809.107	13767.83
809.436	13691
809.766	13752.46
810.096	13721.96
810.426	13655.52
810.755	13663.65
811.085	13563.77
811.414	13538.01
811.744	13512.24
812.073	13471.79
812.403	13447.16
812.732	13369.65
813.061	13341.4
813.39	13254.85
813.719	13285.13
814.049	13323.32
814.378	13184.34
814.707	13195.19
815.036	13135.3
815.365	13092.14
815.693	13015.08
816.022	12977.57
816.351	12912.26
816.68	12898.93
817.008	12919.94
817.337	12898.7
817.665	12851.24
817.994	12842.66
818.322	12842.43
818.651	12768.76
818.979	12700.97
819.307	12797.01
819.636	12817.12
819.964	12614.41
820.292	12696.22
820.62	12603.11
820.948	12602.44
821.276	12665.26
821.604	12639.05
821.932	12667.07
822.259	12675.2
822.587	12536.45
822.915	12531.7
823.243	12600.63
823.57	12523.34
823.898	12559.95
824.225	12555.66
824.553	12538.71
824.88	12497.81
825.207	12599.27
825.535	12571.93
825.862	12527.18
826.189	12498.26
826.516	12545.26
826.843	12540.07
827.17	12613.06
827.497	12527.41
827.824	12560.18
828.151	12557.92
828.478	12521.31
828.805	12571.93
829.131	12479.5
829.458	12444.25
829.785	12441.54
830.111	12483.34
830.438	12509.33
830.764	12481.76
831.09	12570.57
831.417	12515.43
831.743	12507.98
832.069	12498.26
832.395	12360.86
832.722	12547.07
833.048	12392.72
833.374	12450.8
833.7	12311.37
834.026	12360.86
834.351	12446.51
834.677	12396.57
835.003	12407.87
835.329	12320.86
835.654	12346.4
835.98	12255.78
836.306	12292.16
836.631	12265.5
836.956	12265.5
837.282	12307.98
837.607	12208.32
837.932	12111.15
838.258	12174.88
838.583	12103.24
838.908	12080.87
839.233	12183.92
839.558	12070.93
839.883	12055.78
840.208	12078.38
840.533	12066.86
840.858	12010.14
841.182	12042.23
841.507	11969.91
841.832	11988.44
842.156	11896.01
842.481	11920.87
842.805	11917.26
843.13	11807.2
843.454	11867.77
843.778	11764.49
844.103	11771.95
844.427	11754.1
844.751	11720.43
845.075	11623.71
845.399	11645.4
845.723	11634.1
846.047	11621.67
846.371	11513.2
846.695	11500.32
847.019	11323.15
847.343	11419.87
847.666	11295.8
847.99	11312.98
848.313	11299.87
848.637	11159.54
848.96	11242.02
849.284	11158.18
849.607	11089.93
849.931	11075.02
850.254	10927.23
850.577	10990.95
850.9	10834.35
851.223	10892.2
851.546	10716.16
851.869	10708.93
852.192	10793.22
852.515	10638.87
852.838	10640.45
853.161	10571.53
853.483	10534.47
853.806	10525.2
854.129	10500.12
854.451	10460.8
854.774	10362.72
855.096	10318.43
855.419	10330.63
855.741	10294.48
856.063	10281.59
856.385	10258.32
856.708	10265.78
857.03	10198.21
857.352	10225.55
857.674	10155.95
857.996	10101.03
858.318	10087.47
858.64	10099.45
858.961	10032.34
859.283	10042.5
859.605	9908.27
859.926	9979
860.248	9988.04
860.57	9893.81
860.891	9825.56
861.212	9837.31
861.534	9880.7
861.855	9796.41
862.176	9789.86
862.498	9758.67
862.819	9830.53
863.14	9727.71
863.461	9731.55
863.782	9612.91
864.103	9697.43
864.424	9623.31
864.745	9692.68
865.065	9600.03
865.386	9543.76
865.707	9590.99
866.027	9601.84
866.348	9569.52
866.668	9593.7
866.989	9539.01
867.309	9426.25
867.63	9471.67
867.95	9501.28
868.27	9461.05
868.59	9448.17
868.91	9367.95
869.23	9414.27
869.55	9391.22
869.87	9465.12
870.19	9305.57
870.51	9388.51
870.83	9326.36
871.15	9260.15
871.469	9306.03
871.789	9359.36
872.109	9286.59
872.428	9256.08
872.748	9265.12
873.067	9220.83
873.386	9204.56
873.706	9211.79
874.025	9191
874.344	9073.49
874.663	9188.29
874.982	9158.69
875.301	9122.75
875.62	9039.14
875.939	9068.07
876.258	9046.6
876.577	9055.86
876.896	9095.64
877.214	9018.58
877.533	9022.42
877.852	8997.11
878.17	8979.26
878.489	9002.76
878.807	8987.16
879.125	8929.54
879.444	9016.77
879.762	8997.33
880.08	8931.8
880.398	8921.63
880.716	8852.93
881.034	8858.81
881.352	8805.93
881.67	8785.59
881.988	8758.24
882.306	8755.76
882.624	8809.99
882.941	8748.3
883.259	8754.18
883.577	8642.32
883.894	8660.85
884.212	8711.47
884.529	8621.52
884.846	8618.81
885.164	8602.99
885.481	8614.52
885.798	8562.77
886.115	8454.75
886.432	8518.48
886.75	8558.48
887.067	8532.94
887.383	8472.6
887.7	8470.79
888.017	8393.51
888.334	8428.08
888.651	8441.19
888.967	8417.01
889.284	8360.29
889.6	8369.78
889.917	8238.71
890.233	8275.55
890.55	8260.86
890.866	8245.72
891.182	8223.12
891.498	8140.18
891.815	8138.83
892.131	8134.31
892.447	8059.05
892.763	8104.93
893.079	8096.79
893.395	7992.16
893.71	8005.72
894.026	8012.73
894.342	7967.76
894.657	7926.85
894.973	7948.32
895.289	7905.84
895.604	7869.23
895.92	7811.15
896.235	7807.08
896.55	7778.61
896.865	7814.54
897.181	7678.5
897.496	7699.06
897.811	7695.67
898.126	7635.34
898.441	7591.5
898.756	7603.92
899.071	7544.26
899.386	7556.92
899.7	7521.44
900.015	7427.43
900.33	7455.45
900.644	7382.91
900.959	7398.05
901.273	7363.25
901.588	7347.66
901.902	7321.45
902.216	7280.99
902.531	7283.48
902.845	7231.5
903.159	7204.39
903.473	7184.95
903.787	7199.87
904.101	7144.28
904.415	7133.2
904.729	7123.71
905.042	7081
905.356	7010.72
905.67	7049.59
905.984	7082.36
906.297	7010.04
906.611	6931.4
906.924	6883.94
907.237	6861.35
907.551	6911.51
907.864	6842.14
908.177	6836.71
908.491	6788.35
908.804	6796.71
909.117	6683.95
909.43	6753.1
909.743	6669.03
910.056	6681.01
910.368	6682.59
910.681	6631.52
910.994	6581.35
911.307	6555.82
911.619	6507.91
911.932	6553.33
912.244	6455.25
912.557	6417.29
912.869	6471.52
913.181	6408.48
913.494	6417.51
913.806	6332.77
914.118	6340.45
914.43	6297.52
914.742	6301.36
915.054	6275.15
915.366	6258.87
915.678	6171.19
915.99	6150.63
916.302	6188.14
916.613	6130.06
916.925	6051.87
917.236	6081.03
917.548	6038.54
917.859	6110.63
918.171	5991.76
918.482	5989.05
918.794	5955.38
919.105	5959.22
919.416	5876.51
919.727	5846
920.038	5888.72
920.349	5848.04
920.66	5812.11
920.971	5787.47
921.282	5749.06
921.593	5707.93
921.903	5710.64
922.214	5673.13
922.525	5629.51
922.835	5641.04
923.146	5603.52
923.456	5588.38
923.767	5587.71
924.077	5578.44
924.387	5476.07
924.697	5468.16
925.008	5507.26
925.318	5436.75
925.628	5418.22
925.938	5441.95
926.248	5361.05
926.558	5360.59
926.867	5293.25
927.177	5331.22
927.487	5254.38
927.796	5218.22
928.106	5217.77
928.416	5211.22
928.725	5173.93
929.034	5129.64
929.344	5190.88
929.653	5127.83
929.962	5149.07
930.271	5069.98
930.581	5053.71
930.89	5034.05
931.199	5035.86
931.508	5018.23
931.817	5023.65
932.125	4997.67
932.434	4992.02
932.743	4913.83
933.051	4898.91
933.36	4862.3
933.669	4854.84
933.977	4816.43
934.286	4838.57
934.594	4791.12
934.902	4749.54
935.21	4692.36
935.519	4732.36
935.827	4712.47
936.135	4665.02
936.443	4660.5
936.751	4653.27
937.059	4677.45
937.367	4562.87
937.674	4617.79
937.982	4546.38
938.29	4581.63
938.597	4548.41
938.905	4529.2
939.213	4505.93
939.52	4470.22
939.827	4453.27
940.135	4464.35
940.442	4408.53
940.749	4391.81
941.056	4442.43
941.363	4355.42
941.67	4397.45
941.977	4329.89
942.284	4325.14
942.591	4286.27
942.898	4286.95
943.205	4286.72
943.511	4250.57
943.818	4249.89
944.125	4193.17
944.431	4262.54
944.738	4232.04
945.044	4152.72
945.35	4185.26
945.657	4144.35
945.963	4129.21
946.269	4072.49
946.575	4096.45
946.881	4094.19
947.187	4054.19
947.493	4025.94
947.799	4007.63
948.105	4011.7
948.41	3928.54
948.716	3942.78
949.022	3952.27
949.327	3943.23
949.633	3942.33
949.938	3924.25
950.244	3902.1
950.549	3855.1
950.854	3895.77
951.16	3885.15
951.465	3801.99
951.77	3802.44
952.075	3776.91
952.38	3733.52
952.685	3774.19
952.99	3698.49
953.294	3706.4
953.599	3671.37
953.904	3687.64
954.209	3615.55
954.513	3668.66
954.818	3665.72
955.122	3598.15
955.426	3568.78
955.731	3554.31
956.035	3543.47
956.339	3552.73
956.643	3538.27
956.948	3499.4
957.252	3503.92
957.556	3489.91
957.86	3466.18
958.163	3458.5
958.467	3452.62
958.771	3421.44
959.075	3433.64
959.378	3396.58
959.682	3423.7
959.985	3373.75
960.289	3342.79
960.592	3347.54
960.896	3345.73
961.199	3304.15
961.502	3302.57
961.805	3339.18
962.108	3292.85
962.411	3251.5
962.714	3258.95
963.017	3217.6
963.32	3218.95
963.623	3231.61
963.926	3208.79
964.228	3190.71
964.531	3205.4
964.833	3164.27
965.136	3152.06
965.438	3165.4
965.741	3103.93
966.043	3061.44
966.345	3073.2
966.648	3078.85
966.95	3073.65
967.252	3070.71
967.554	3054.67
967.856	3025.97
968.158	3044.04
968.46	2997.49
968.761	3004.5
969.063	2984.61
969.365	2936.02
969.666	2944.16
969.968	2950.26
970.269	2918.4
970.571	2929.7
970.872	2863.71
971.174	2873.88
971.475	2898.06
971.776	2835.69
972.077	2846.54
972.378	2835.69
972.679	2860.09
972.98	2787.1
973.281	2770.15
973.582	2782.58
973.883	2781
974.183	2723.6
974.484	2758.85
974.785	2763.15
975.085	2716.82
975.386	2699.19
975.686	2711.4
975.986	2715.69
976.287	2713.21
976.587	2670.95
976.887	2655.13
977.187	2643.38
977.487	2658.52
977.787	2642.25
978.087	2628.91
978.387	2612.19
978.687	2574.9
978.987	2582.36
979.286	2558.41
979.586	2561.8
979.885	2539.42
980.185	2527.9
980.484	2517.96
980.784	2518.18
981.083	2516.15
981.382	2496.26
981.682	2432.76
981.981	2479.31
982.28	2466.43
982.579	2490.84
982.878	2439.99
983.177	2412.2
983.475	2397.51
983.774	2388.69
984.073	2374.23
984.372	2404.97
984.67	2387.56
984.969	2381.91
985.267	2353.67
985.566	2370.84
985.864	2324.74
986.162	2341.46
986.461	2300.79
986.759	2333.55
987.057	2252.88
987.355	2300.33
987.653	2286.78
987.951	2263.73
988.249	2250.62
988.547	2249.94
988.844	2225.31
989.142	2244.97
989.44	2204.07
989.737	2176.95
990.035	2186.21
990.332	2167.68
990.63	2181.47
990.927	2181.69
991.224	2134.24
991.521	2160.68
991.819	2154.58
992.116	2127.23
992.413	2128.81
992.71	2125.42
993.006	2094.24
993.303	2082.26
993.6	2072.09
993.897	2091.53
994.193	2071.87
994.49	2068.93
994.787	2056.27
995.083	2030.29
995.379	2009.72
995.676	2005.43
995.972	1992.32
996.268	1981.7
996.565	1999.33
996.861	1975.15
997.157	1963.62
997.453	1949.61
997.749	1936.95
998.044	1955.94
998.34	1926.56
998.636	1912.77
998.932	1908.71
999.227	1925.88
999.523	1891.76
999.818	1852.44
1000.114	1836.62
1000.409	1866
1000.704	1846.11
1001	1847.92
1001.295	1850.63
1001.59	1830.29
1001.885	1803.17
1002.18	1812.89
1002.475	1761.14
1002.77	1786.45
1003.065	1773.12
1003.359	1734.47
1003.654	1775.15
1003.949	1761.14
1004.243	1749.62
1004.538	1727.69
1004.832	1757.07
1005.127	1723.4
1005.421	1712.1
1005.715	1694.48
1006.009	1713.01
1006.304	1687.7
1006.598	1680.46
1006.892	1662.16
1007.186	1660.8
1007.48	1650.41
1007.773	1613.8
1008.067	1585.78
1008.361	1627.81
1008.655	1598.21
1008.948	1607.02
1009.242	1587.13
1009.535	1568.15
1009.829	1578.55
1010.122	1578.55
1010.415	1566.12
1010.708	1544.87
1011.001	1505.33
1011.295	1531.09
1011.588	1517.98
1011.881	1506.91
1012.173	1496.97
1012.466	1515.72
1012.759	1485.44
1013.052	1498.1
1013.344	1462.62
1013.637	1448.15
1013.93	1446.8
1014.222	1438.44
1014.514	1442.96
1014.807	1440.7
1015.099	1413.8
1015.391	1418.1
1015.683	1406.8
1015.976	1395.73
1016.268	1379.68
1016.56	1395.05
1016.851	1375.39
1017.143	1350.08
1017.435	1340.81
1017.727	1336.52
1018.018	1342.39
1018.31	1319.34
1018.602	1319.8
1018.893	1302.4
1019.185	1298.55
1019.476	1305.33
1019.767	1309.4
1020.058	1288.16
1020.35	1266.46
1020.641	1237.99
1020.932	1234.83
1021.223	1241.15
1021.514	1270.08
1021.804	1224.21
1022.095	1226.92
1022.386	1230.08
1022.677	1214.71
1022.967	1205.67
1023.258	1202.96
1023.548	1195.51
1023.839	1169.97
1024.129	1175.84
1024.419	1162.74
1024.709	1147.6
1025	1162.29
1025.29	1150.76
1025.58	1118.9
1025.87	1132.91
1026.16	1116.41
1026.449	1130.2
1026.739	1112.57
1027.029	1108.95
1027.319	1088.62
1027.608	1086.81
1027.898	1073.7
1028.187	1103.76
1028.477	1050.88
1028.766	1063.98
1029.055	1058.79
1029.344	1043.87
1029.634	1039.35
1029.923	1035.51
1030.212	1041.61
1030.501	1008.17
1030.79	1008.84
1031.078	999.35
1031.367	1012.23
1031.656	997.09
1031.945	1004.78
1032.233	1007.26
1032.522	992.8
1032.81	982.86
1033.099	965.68
1033.387	952.35
1033.675	962.07
1033.963	948.51
1034.251	926.36
1034.54	933.82
1034.828	941.95
1035.116	920.71
1035.403	932.91
1035.691	926.59
1035.979	948.73
1036.267	910.77
1036.554	915.51
1036.842	915.06
1037.129	897.89
1037.417	877.77
1037.704	851.79
1037.992	879.36
1038.279	874.38
1038.566	886.59
1038.853	886.59
1039.14	886.59
