Data from tablewood_brown_FLMS001491_008.txt Node
Date: Tue Feb 07 11:09:56 GMT 2017
User: dcchb
Spectrometer: FLMS00149
Trigger mode: 0
Integration Time (sec): 2.000000E-2
Scans to average: 10
Electric dark correction enabled: true
Nonlinearity correction enabled: false
Boxcar width: 0
XAxis mode: Wavelengths
Number of Pixels in Spectrum: 2048
>>>>>Begin Spectral Data<<<<<
341.393	-28.86
341.776	-28.86
342.16	-28.86
342.543	-58.91
342.927	-68.18
343.31	-61.17
343.693	-77.89
344.077	-75.41
344.46	-68.63
344.843	-52.13
345.226	-40.83
345.61	-24.11
345.993	-9.42
346.376	6.17
346.759	11.14
347.142	17.92
347.525	48.88
347.908	45.72
348.291	79.16
348.674	83.91
349.057	116.68
349.44	147.19
349.823	125.04
350.206	169.11
350.588	205.04
350.971	203
351.354	214.98
351.737	236.9
352.119	265.15
352.502	280.97
352.884	292.04
353.267	275.54
353.65	275.32
354.032	301.53
354.414	296.56
354.797	323
355.179	316.67
355.562	339.04
355.944	340.4
356.326	320.51
356.709	353.06
357.091	347.63
357.473	352.83
357.855	355.32
358.238	330.23
358.62	347.86
359.002	348.76
359.384	345.37
359.766	350.34
360.148	335.43
360.53	328.65
360.912	337.01
361.294	368.2
361.676	348.76
362.057	354.41
362.439	343.79
362.821	341.76
363.203	325.03
363.584	342.66
363.966	327.52
364.348	363
364.729	322.32
365.111	323.45
365.493	331.59
365.874	315.99
366.256	309.89
366.637	339.04
367.019	339.27
367.4	346.73
367.781	312.83
368.163	347.63
368.544	335.88
368.925	318.03
369.306	351.7
369.688	324.13
370.069	329.55
370.45	340.4
370.831	350.12
371.212	337.24
371.593	331.14
371.974	348.99
372.355	329.1
372.736	341.98
373.117	342.43
373.498	320.74
373.879	345.37
374.26	339.27
374.641	333.4
375.021	309.22
375.402	327.75
375.783	342.66
376.163	349.67
376.544	344.47
376.925	356.45
377.305	368.42
377.686	339.27
378.066	355.99
378.447	353.96
378.827	342.89
379.208	344.92
379.588	361.87
379.968	370.68
380.349	373.39
380.729	367.74
381.109	370.46
381.489	384.69
381.87	363.9
382.25	402.77
382.63	382.66
383.01	386.28
383.39	383.56
383.77	389.66
384.15	381.98
384.53	383.34
384.91	376.33
385.29	380.63
385.67	401.42
386.049	393.28
386.429	402.55
386.809	392.6
387.189	399.38
387.568	420.4
387.948	408.65
388.328	402.77
388.707	385.82
389.087	426.5
389.466	417.23
389.846	414.75
390.225	418.14
390.605	417.23
390.984	414.07
391.363	453.84
391.743	441.64
392.122	429.89
392.501	444.8
392.881	456.1
393.26	462.43
393.639	455.43
394.018	473.05
394.397	455.65
394.776	461.53
395.155	466.05
395.534	479.61
395.913	463.79
396.292	485.48
396.671	493.16
397.05	493.16
397.429	502.66
397.808	506.05
398.186	490.68
398.565	499.94
398.944	490.68
399.323	494.97
399.701	492.49
400.08	507.4
400.458	498.81
400.837	518.7
401.215	509.66
401.594	497.91
401.972	541.07
402.351	527.97
402.729	533.62
403.107	526.61
403.486	568.64
403.864	540.4
404.242	566.61
404.62	558.93
404.999	563.45
405.377	570.68
405.755	570.23
406.133	552.82
406.511	598.02
406.889	604.57
407.267	608.64
407.645	605.7
408.023	594.41
408.401	596.44
408.779	631.01
409.156	628.53
409.534	616.33
409.912	618.13
410.29	650.9
410.667	649.55
411.045	621.3
411.422	651.58
411.8	647.06
412.178	650.67
412.555	664.46
412.933	682.09
413.31	700.84
413.687	695.87
414.065	683.67
414.442	707.85
414.819	711.92
415.197	706.27
415.574	707.85
415.951	714.85
416.328	739.03
416.705	740.62
417.082	729.77
417.46	742.2
417.837	737.45
418.214	741.75
418.591	761.63
418.967	756.66
419.344	774.06
419.721	784.68
420.098	791.46
420.475	787.17
420.852	783.78
421.228	817.22
421.605	812.48
421.982	828.07
422.358	808.18
422.735	812.7
423.111	815.42
423.488	852.7
423.864	845.47
424.241	835.3
424.617	836.66
424.994	860.61
425.37	895.19
425.746	882.53
426.123	857.22
426.499	897.22
426.875	906.49
427.251	908.97
427.627	938.35
428.003	944.9
428.379	946.26
428.756	916.88
429.132	933.61
429.507	942.64
429.883	965.24
430.259	973.83
430.635	1011.34
431.011	1012.02
431.387	1005.47
431.763	1026.03
432.138	1031
432.514	1040.27
432.89	1075.3
433.265	1068.97
433.641	1080.27
434.016	1072.58
434.392	1113.71
434.767	1130.89
435.143	1117.1
435.518	1105.58
435.894	1128.85
436.269	1164.56
436.644	1186.48
437.02	1194.16
437.395	1185.8
437.77	1179.02
438.145	1216.54
438.52	1227.83
438.895	1240.94
439.271	1249.76
439.646	1245.46
440.021	1280.04
440.395	1300.6
440.77	1258.57
441.145	1296.53
441.52	1338.11
441.895	1286.36
442.27	1298.79
442.645	1357.55
443.019	1358.9
443.394	1344.22
443.769	1320.49
444.143	1330.66
444.518	1363.88
444.892	1357.1
445.267	1371.33
445.641	1406.81
446.016	1384.89
446.39	1420.15
446.764	1439.35
447.139	1422.18
447.513	1440.94
447.887	1446.59
448.262	1447.26
448.636	1455.4
449.01	1463.31
449.384	1471.67
449.758	1467.83
450.132	1523.65
450.506	1513.48
450.88	1523.87
451.254	1534.04
451.628	1558.45
452.002	1579.92
452.376	1579.24
452.75	1574.72
453.123	1598.45
453.497	1593.02
453.871	1631.89
454.244	1646.13
454.618	1677.99
454.992	1718.22
455.365	1688.61
455.739	1728.61
456.112	1706.01
456.486	1736.52
456.859	1757.54
457.232	1802.28
457.606	1765.67
457.979	1806.58
458.352	1859.46
458.725	1847.25
459.099	1870.08
459.472	1906.69
459.845	1939
460.218	1959.12
460.591	1976.29
460.964	1979.91
461.337	1994.82
461.71	2060.58
462.083	2096.29
462.456	2107.59
462.829	2102.84
463.201	2113.24
463.574	2165.21
463.947	2142.61
464.32	2207.24
464.692	2232.1
465.065	2236.17
465.438	2269.62
465.81	2303.29
466.183	2347.13
466.555	2381.48
466.928	2397.75
467.3	2411.76
467.672	2439.33
468.045	2501.47
468.417	2525.43
468.789	2561.59
469.161	2603.84
469.534	2647.01
469.906	2660.79
470.278	2708.7
470.65	2727.23
471.022	2826.66
471.394	2836.61
471.766	2861.46
472.138	2937.17
472.51	2953.44
472.882	2993.66
473.253	3058.75
473.625	3096.71
473.997	3194.56
474.369	3205.86
474.74	3259.19
475.112	3319.08
475.484	3409.47
475.855	3429.36
476.227	3494.22
476.598	3617.6
476.97	3672.74
477.341	3738.73
477.713	3787.77
478.084	3802
478.455	3911.61
478.827	3950.7
479.198	4089.68
479.569	4106.86
479.94	4246.06
480.311	4270.69
480.682	4385.49
481.053	4441.99
481.424	4551.14
481.795	4598.59
482.166	4713.17
482.537	4750.23
482.908	4860.51
483.279	4919.26
483.65	4992.48
484.021	5086.94
484.391	5182.76
484.762	5255.53
485.133	5314.28
485.503	5377.33
485.874	5518.12
486.244	5534.16
486.615	5658.23
486.985	5760.37
487.356	5871.1
487.726	5872.23
488.097	6017.09
488.467	6040.59
488.837	6176.63
489.207	6255.73
489.578	6371.88
489.948	6416.63
490.318	6448.04
490.688	6560.8
491.058	6639.9
491.428	6683.06
491.798	6819.55
492.168	6900
492.538	6983.62
492.908	7030.62
493.278	7166.21
493.648	7140.22
494.017	7248.92
494.387	7327.34
494.757	7415.02
495.126	7478.52
495.496	7492.75
495.866	7606.65
496.235	7739.3
496.605	7767.32
496.974	7775.69
497.344	7916.92
497.713	7869.92
498.082	7975.68
498.452	8050.03
498.821	8124.83
499.19	8174.54
499.559	8286.18
499.928	8281.89
500.298	8282.79
500.667	8429.45
501.036	8393.3
501.405	8562.33
501.774	8567.53
502.143	8573.18
502.512	8657.92
502.88	8759.84
503.249	8830.8
503.618	8868.31
503.987	8873.74
504.356	8960.51
504.724	9029.89
505.093	9063.56
505.462	9150.79
505.83	9165.71
506.199	9286.15
506.567	9432.14
506.936	9418.81
507.304	9530.44
507.672	9554.62
508.041	9631.91
508.409	9700.15
508.777	9736.54
509.145	9950.54
509.514	9856.08
509.882	9975.4
510.25	10019.02
510.618	10131.78
510.986	10199.12
511.354	10261.72
511.722	10330.19
512.09	10531.55
512.458	10489.06
512.826	10596.4
513.193	10689.28
513.561	10735.83
513.929	10826.9
514.297	10812.89
514.664	10970.63
515.032	11062.15
515.4	11137.4
515.767	11218.98
516.135	11315.03
516.502	11244.52
516.869	11470.96
517.237	11544.85
517.604	11568.35
517.972	11683.38
518.339	11792.3
518.706	11847.67
519.073	11874.33
519.44	11949.81
519.808	12179.86
520.175	12127.66
520.542	12347.54
520.909	12519.29
521.276	12433.42
521.643	12558.61
522.009	12675.22
522.376	12830.92
522.743	12915.44
523.11	12966.96
523.477	13141.65
523.843	13290.12
524.21	13362.43
524.577	13409.66
524.943	13488.08
525.31	13705.02
525.676	13698.24
526.043	13901.4
526.409	13883.1
526.776	14118.34
527.142	14145.24
527.508	14221.17
527.874	14452.8
528.241	14443.53
528.607	14565.79
528.973	14746.58
529.339	14715.62
529.705	14890.3
530.071	14951.77
530.437	15091.65
530.803	15105.21
531.169	15232.66
531.535	15205.55
531.901	15289.39
532.267	15351.76
532.632	15478.76
532.998	15641.47
533.364	15712.43
533.73	15620.9
534.095	15943.15
534.461	15893.66
534.826	16031.29
535.192	16119.87
535.557	16163.94
535.923	16124.62
536.288	16278.74
536.653	16320.55
537.019	16285.52
537.384	16455.01
537.749	16546.3
538.114	16592.85
538.479	16582.46
538.845	16807.31
539.21	16799.63
539.575	16870.36
539.94	16930.7
540.305	17068.55
540.67	17088.43
541.034	17072.39
541.399	17092.28
541.764	17167.98
542.129	17350.57
542.494	17278.94
542.858	17445.26
543.223	17468.31
543.587	17576.78
543.952	17557.12
544.316	17568.42
544.681	17605.48
545.045	17772.03
545.41	17841.18
545.774	17871.69
546.138	17948.3
546.503	17984
546.867	18098.13
547.231	18233.26
547.595	18252.92
547.959	18353.71
548.324	18312.58
548.688	18428.06
549.052	18484.1
549.416	18712.8
549.779	18718.45
550.143	18732.23
550.507	18994.6
550.871	19040.02
551.235	18978.1
551.599	19194.82
551.962	19239.34
552.326	19248.83
552.689	19410.63
553.053	19398.88
553.417	19499.22
553.78	19697.41
554.143	19737.18
554.507	19915.71
554.87	19999.32
555.234	20260.78
555.597	20066.21
555.96	20214.68
556.323	20347.56
556.686	20418.06
557.05	20698.28
557.413	20787.32
557.776	20879.52
558.139	21028.44
558.502	21119.52
558.865	21224.82
559.228	21437.93
559.59	21616
559.953	21723.57
560.316	21920.62
560.679	21938.02
561.041	22087.85
561.404	22260.05
561.767	22563.55
562.129	22549.53
562.492	22813.93
562.854	22784.78
563.217	22887.15
563.579	23104.77
563.941	23302.51
564.304	23393.13
564.666	23634.25
565.028	23718.54
565.39	23819.33
565.753	24076.05
566.115	24178.42
566.477	24333.67
566.839	24394.68
567.201	24685.75
567.563	24789.02
567.925	25071.5
568.287	25229.01
568.648	25316.02
569.01	25574.31
569.372	25745.61
569.734	25887.98
570.095	25982.66
570.457	26318.47
570.819	26428.3
571.18	26419.49
571.542	26675.08
571.903	26834.62
572.265	27074.61
572.626	27279.81
572.987	27277.09
573.349	27454.94
573.71	27658.55
574.071	27880.47
574.432	27941.26
574.794	28247.69
575.155	28224.41
575.516	28299.44
575.877	28614.91
576.238	28684.74
576.599	28963.15
576.96	29071.85
577.32	29163.82
577.681	29131.51
578.042	29542.34
578.403	29629.57
578.763	29760.19
579.124	29790.47
579.485	29965.16
579.845	30219.62
580.206	30170.58
580.566	30302.32
580.927	30302.78
581.287	30467.07
581.648	30453.73
582.008	30785.48
582.368	30754.29
582.728	30786.61
583.089	30938.24
583.449	30921.29
583.809	31026.15
584.169	31260.72
584.529	31274.28
584.889	31443.54
585.249	31185.01
585.609	31358.79
585.969	31593.14
586.329	31516.08
586.688	31566.92
587.048	31612.12
587.408	31649.86
587.768	31623.65
588.127	31614.83
588.487	31730.54
588.846	31985.9
589.206	31788.84
589.565	31841.27
589.925	32002.62
590.284	32007.36
590.643	32077.87
591.003	32109.28
591.362	32297.07
591.721	32161.71
592.08	32232.44
592.44	32396.28
592.799	32455.26
593.158	32291.2
593.517	32441.48
593.876	32485.32
594.235	32316.06
594.593	32459.33
594.952	32460.91
595.311	32359.22
595.67	32321.93
596.029	32654.81
596.387	32695.71
596.746	32801.02
597.104	32558.08
597.463	32634.47
597.822	32785.88
598.18	32533.45
598.538	32653.68
598.897	32816.61
599.255	32656.16
599.613	33085.3
599.972	32917.17
600.33	32952.42
600.688	32851.18
601.046	32871.3
601.404	33196.71
601.762	32998.07
602.12	33264.05
602.478	33166.2
602.836	33125.3
603.194	32946.55
603.552	33152.87
603.91	33052.99
604.268	33161.68
604.625	32990.62
604.983	33331.85
605.341	33108.8
605.698	33341.11
606.056	33444.16
606.413	33342.47
606.771	33452.98
607.128	33511.96
607.485	33326.88
607.843	33355.13
608.2	33585.63
608.557	33598.96
608.914	33473.99
609.272	33717.6
609.629	33686.19
609.986	33921.21
610.343	33770.03
610.7	33801.67
611.057	33780.43
611.414	33806.19
611.771	33817.26
612.127	34058.16
612.484	34036.01
612.841	34113.75
613.198	33901.33
613.554	33972.51
613.911	34273.07
614.267	34188.78
614.624	34183.58
614.98	34197.82
615.337	34400.97
615.693	34282.11
616.05	34313.07
616.406	34619.05
616.762	34452.27
617.118	34300.86
617.475	34492.95
617.831	34484.59
618.187	34569.33
618.543	34638.71
618.899	34785.14
619.255	34788.53
619.611	34738.59
619.967	34861.07
620.323	34999.38
620.678	34746.5
621.034	34682.32
621.39	34839.83
621.746	34721.87
622.101	35105.36
622.457	34824.24
622.812	34971.81
623.168	34797.8
623.523	34901.53
623.879	35012.26
624.234	34758.03
624.589	34884.58
624.945	34965.25
625.3	34966.16
625.655	34880.51
626.01	34959.38
626.365	34936.1
626.72	34926.38
627.075	34797.57
627.43	34897.01
627.785	34710.34
628.14	34699.27
628.495	34835.31
628.85	34703.34
629.205	34533.17
629.559	34958.7
629.914	34803.45
630.269	34727.75
630.623	34625.37
630.978	34537.92
631.332	34838.7
631.687	34905.37
632.041	34646.17
632.396	34865.59
632.75	34538.6
633.104	34559.61
633.459	34478.03
633.813	34345.16
634.167	34508.54
634.521	34450.24
634.875	34521.87
635.229	34330.02
635.583	34175.67
635.937	34263.58
636.291	34276.68
636.645	34170.92
636.999	34109.46
637.352	34301.32
637.706	34106.74
638.06	34284.37
638.413	34137.03
638.767	34025.39
639.121	34078.27
639.474	34010.02
639.828	33939.97
640.181	33945.39
640.534	33836.02
640.888	33817.03
641.241	33582.46
641.594	33741.33
641.947	33815.9
642.301	33776.36
642.654	33738.62
643.007	33666.3
643.36	33671.05
643.713	33500.66
644.066	33752.18
644.419	33518.74
644.771	33349.93
645.124	33070.84
645.477	32968.02
645.83	32822.03
646.182	32626.11
646.535	32570.74
646.888	32632.66
647.24	32401.7
647.593	32646.22
647.945	32652.09
648.298	32475.37
648.65	32342.05
649.002	32415.26
649.355	32493.68
649.707	32336.85
650.059	32545.43
650.411	32898.87
650.763	32845.99
651.115	33314.22
651.467	33083.49
651.819	33174.57
652.171	33049.37
652.523	33035.13
652.875	33045.53
653.227	32878.3
653.578	33142.93
653.93	33198.07
654.282	32968.47
654.633	32999.65
654.985	33000.33
655.337	32983.84
655.688	32999.2
656.039	33136.15
656.391	32747.46
656.742	32954.91
657.094	32914.01
657.445	33083.49
657.796	32780.9
658.147	32984.97
658.498	32945.65
658.849	32997.85
659.2	32904.06
659.551	32899.77
659.902	32761.92
660.253	32824.29
660.604	32904.52
660.955	32696.61
661.306	32947.9
661.656	32847.12
662.007	32790.17
662.358	32848.25
662.708	32842.14
663.059	32762.82
663.409	32664.75
663.76	32825.42
664.11	32868.13
664.461	32843.27
664.811	32732.32
665.161	32693.45
665.511	32865.42
665.862	32900.22
666.212	32874.01
666.562	32880.34
666.912	32923.27
667.262	32675.82
667.612	32828.36
667.962	32780.68
668.312	32720.57
668.662	32885.08
669.011	32702.04
669.361	32635.82
669.711	32716.72
670.06	32664.97
670.41	32567.58
670.76	32595.37
671.109	32703.62
671.459	32599.67
671.808	32595.15
672.157	32541.36
672.507	32434.25
672.856	32341.37
673.205	32401.25
673.554	32539.78
673.904	32326.9
674.253	32431.99
674.602	32418.88
674.951	32019.12
675.3	31803.3
675.649	32301.14
675.998	32350.18
676.346	32281.26
676.695	32403.06
677.044	32077.87
677.393	32231.09
677.741	32315.38
678.09	32106.57
678.438	32161.03
678.787	32135.27
679.135	32094.82
679.484	31945.9
679.832	31966.01
680.181	31825.9
680.529	31850.98
680.877	31843.53
681.225	31832.91
681.573	31971.89
681.922	31672.23
682.27	31596.53
682.618	31598.11
682.966	31450.32
683.314	31550.43
683.661	31362.86
684.009	31170.32
684.357	31153.6
684.705	31166.71
685.053	31252.36
685.4	31136.65
685.748	31027.05
686.095	30923.78
686.443	30979.6
686.79	30747.96
687.138	30927.39
687.485	30786.15
687.832	30785.02
688.18	30746.61
688.527	30574.86
688.874	30570.11
689.221	30388.42
689.568	30306.84
689.915	30196.11
690.262	30192.95
690.609	30192.95
690.956	30022.56
691.303	30019.62
691.65	29799.06
691.997	29887.87
692.344	29616.24
692.69	29561.78
693.037	29573.98
693.383	29492.85
693.73	29495.11
694.077	29454.21
694.423	29281.56
694.769	29103.71
695.116	29176.48
695.462	28989.36
695.808	28842.02
696.155	28958.41
696.501	28634.35
696.847	28716.15
697.193	28469.6
697.539	28616.27
697.885	28343.28
698.231	28179.44
698.577	28143.29
698.923	28186.9
699.269	27987.13
699.614	27835.95
699.96	27811.77
700.306	27779.45
700.651	27706.46
700.997	27597.31
701.342	27569.97
701.688	27559.8
702.033	27363.87
702.379	27408.39
702.724	27152.35
703.069	27263.08
703.415	26846.6
703.76	26990.1
704.105	26805.69
704.45	26799.82
704.795	26660.16
705.14	26638.69
705.485	26600.73
705.83	26423.1
706.175	26353.73
706.52	26327.29
706.865	26292.26
707.209	26234.64
707.554	26069.22
707.899	26156.22
708.243	25937.92
708.588	25868.32
708.932	25785.16
709.277	25799.17
709.621	25784.7
709.966	25488.21
710.31	25638.72
710.654	25367.77
710.998	25480.76
711.342	25403.47
711.687	25438.27
712.031	25207.09
712.375	25106.08
712.719	25268.56
713.063	25193.08
713.407	25227.88
713.75	25088.22
714.094	25080.77
714.438	24829.7
714.782	24990.6
715.125	24866.99
715.469	24961.45
715.812	24720.32
716.156	24530.95
716.499	24658.18
716.843	24609.37
717.186	24553.32
717.53	24529.37
717.873	24533.44
718.216	24535.92
718.559	24419.77
718.902	24306.78
719.246	24296.61
719.589	24208.7
719.932	24049.83
720.275	24188.36
720.617	24163.73
720.96	24275.59
721.303	24148.81
721.646	24074.47
721.989	24048.03
722.331	24123.5
722.674	24055.71
723.016	24087.57
723.359	24028.59
723.701	24028.82
724.044	23998.76
724.386	23766.23
724.729	23984.52
725.071	23878.99
725.413	23921.93
725.755	23940.23
726.097	23834.47
726.439	23630.18
726.782	23847.58
727.124	23909.27
727.465	23627.47
727.807	23677.64
728.149	23627.47
728.491	23706.57
728.833	23710.18
729.175	23601.26
729.516	23695.72
729.858	23574.37
730.199	23540.24
730.541	23617.98
730.882	23574.37
731.224	23603.97
731.565	23562.39
731.906	23469.28
732.248	23530.07
732.589	23366.91
732.93	23377.54
733.271	23422.51
733.612	23448.04
733.953	23420.92
734.294	23454.6
734.635	23443.07
734.976	23441.94
735.317	23371.89
735.658	23370.3
735.999	23389.96
736.339	23450.98
736.68	23479
737.021	23412.56
737.361	23259.12
737.702	23406.69
738.042	23394.48
738.383	23375.5
738.723	23481.26
739.063	23431.09
739.404	23501.83
739.744	23368.04
740.084	23260.02
740.424	23370.08
740.764	23324.88
741.104	23537.08
741.444	23238.56
741.784	23273.81
742.124	23317.65
742.464	23242.85
742.804	23390.42
743.143	23190.65
743.483	23360.13
743.823	23108.39
744.162	23209.86
744.502	23235.39
744.841	23204.88
745.181	23274.71
745.52	23121.95
745.86	23292.11
746.199	23215.05
746.538	23137.32
746.877	23268.16
747.216	23263.19
747.556	23309.74
747.895	23363.52
748.234	23220.7
748.573	23265.67
748.911	23202.85
749.25	23170.31
749.589	23053.93
749.928	23123.98
750.267	23181.61
750.605	23112.46
750.944	23097.32
751.283	23087.15
751.621	23114.04
751.96	23044.21
752.298	23044.89
752.636	23066.13
752.975	22988.62
753.313	22895.97
753.651	23128.28
753.989	22933.93
754.327	22893.71
754.666	22827.04
755.004	22865.01
755.342	22875.18
755.679	22929.86
756.017	22788.62
756.355	22841.96
756.693	22630.89
757.031	22778.23
757.368	22660.27
757.706	22697.1
758.044	22600.61
758.381	22584.11
758.719	22500.95
759.056	22537.78
759.394	22443.32
759.731	22320.84
760.068	22376.21
760.405	22257.34
760.743	22243.55
761.08	22265.25
761.417	22194.06
761.754	22066.16
762.091	22036.1
762.428	21980.96
762.765	21873.62
763.102	21933.96
763.438	21757.01
763.775	21739.61
764.112	21697.13
764.449	21803.11
764.785	21616.9
765.122	21467.08
765.458	21471.82
765.795	21406.51
766.131	21414.87
766.467	21303.24
766.804	21197.25
767.14	21126.75
767.476	21101.89
767.812	20954.55
768.148	21056.92
768.485	20901.67
768.821	20900.09
769.157	20768.34
769.492	20722.46
769.828	20686.08
770.164	20516.82
770.5	20528.57
770.836	20456.93
771.171	20232.31
771.507	20397.05
771.842	20241.12
772.178	20182.14
772.513	20254.68
772.849	20091.52
773.184	19937.63
773.519	20012.65
773.855	19862.37
774.19	19807.23
774.525	19665.54
774.86	19718.42
775.195	19588.93
775.53	19573.79
775.865	19538.31
776.2	19355.95
776.535	19323.4
776.87	19312.11
777.205	19136.74
777.539	19124.54
777.874	19179
778.209	18895.62
778.543	18896.3
778.878	18769.97
779.212	18776.07
779.547	18754.61
779.881	18743.31
780.215	18681.84
780.55	18660.6
780.884	18429.87
781.218	18430.55
781.552	18520.26
781.886	18345.12
782.22	18254.05
782.554	18222.19
782.888	18149.88
783.222	17996.43
783.556	17872.14
783.889	17845.25
784.223	17621.75
784.557	17763.45
784.89	17721.86
785.224	17619.49
785.557	17552.15
785.891	17448.43
786.224	17420.86
786.558	17491.59
786.891	17273.29
787.224	17254.98
787.557	17171.14
787.891	17093.18
788.224	17171.6
788.557	17120.75
788.89	16923.47
789.223	16998.04
789.556	16846.63
789.888	16746.3
790.221	16777.26
790.554	16628.11
790.887	16607.09
791.219	16568.45
791.552	16515.57
791.884	16511.73
792.217	16421.56
792.549	16426.98
792.882	16199.87
793.214	16150.38
793.546	16286.65
793.879	16127.33
794.211	16054.34
794.543	16069.48
794.875	16013.43
795.207	15972.98
795.539	15938.18
795.871	15927.79
796.203	15829.26
796.535	15836.72
796.867	15656.16
797.198	15626.1
797.53	15568.93
797.862	15461.36
798.193	15527.12
798.525	15425.88
798.856	15435.82
799.188	15231.08
799.519	15241.48
799.85	15114.93
800.182	15169.16
800.513	15183.17
800.844	15031.54
801.175	15024.76
801.506	15021.6
801.837	14982.28
802.168	15018.66
802.499	14790.87
802.83	14727.82
803.161	14759
803.491	14733.47
803.822	14640.14
804.153	14655.28
804.483	14521.27
804.814	14561.5
805.145	14514.27
805.475	14483.08
805.805	14423.19
806.136	14392.46
806.466	14336.19
806.796	14290.54
807.126	14276.53
807.457	14250.77
807.787	14320.37
808.117	14180.94
808.447	14127.61
808.777	14137.1
809.107	14071.34
809.436	14059.81
809.766	13950.89
810.096	13857.11
810.426	13891.23
810.755	13914.96
811.085	13878.8
811.414	13851.91
811.744	13812.59
812.073	13792.02
812.403	13707.51
812.732	13668.41
813.061	13567.4
813.39	13475.87
813.719	13517.68
814.049	13610.56
814.378	13471.81
814.707	13427.74
815.036	13312.04
815.365	13325.37
815.693	13188.88
816.022	13224.13
816.351	13095.77
816.68	13106.84
817.008	13138.93
817.337	13022.33
817.665	13112.72
817.994	13099.39
818.322	13099.61
818.651	12998.37
818.979	12912.27
819.307	12983.46
819.636	12963.8
819.964	12892.61
820.292	12834.76
820.62	12971.93
820.948	12806.51
821.276	12873.86
821.604	12763.8
821.932	12968.09
822.259	12928.09
822.587	12871.37
822.915	12770.81
823.243	12815.1
823.57	12889.9
823.898	12781.2
824.225	12823.24
824.553	12831.37
824.88	12836.12
825.207	12724.26
825.535	12810.36
825.862	12840.64
826.189	12850.13
826.516	12842.44
826.843	12887.87
827.17	12833.63
827.497	12854.2
827.824	12750.7
828.151	12858.04
828.478	12827.76
828.805	12861.2
829.131	12787.53
829.458	12782.33
829.785	12729
830.111	12784.37
830.438	12693.3
830.764	12740.75
831.09	12782.33
831.417	12735.78
831.743	12732.84
832.069	12729.68
832.395	12682.9
832.722	12722.45
833.048	12662.56
833.374	12694.88
833.7	12573.07
834.026	12609.46
834.351	12648.33
834.677	12611.49
835.003	12673.18
835.329	12649.46
835.654	12551.6
835.98	12521.32
836.306	12514.32
836.631	12488.33
836.956	12520.87
837.282	12562.68
837.607	12518.84
837.932	12467.77
838.258	12434.55
838.583	12389.12
838.908	12336.92
839.233	12347.77
839.558	12364.72
839.883	12310.93
840.208	12271.39
840.533	12295.34
840.858	12293.53
841.182	12247.88
841.507	12321.33
841.832	12191.61
842.156	12162.69
842.481	12214.89
842.805	12142.58
843.13	12057.38
843.454	12075.46
843.778	12032.97
844.103	12002.69
844.427	11933.99
844.751	11933.32
845.075	11962.24
845.399	11923.37
845.723	11855.8
846.047	11867.33
846.371	11753.66
846.695	11724.28
847.019	11655.81
847.343	11542.59
847.666	11520.67
847.99	11487.23
848.313	11411.52
848.637	11453.33
848.96	11357.96
849.284	11350.28
849.607	11206.1
849.931	11211.98
850.254	11145.77
850.577	11159.55
850.9	11078.65
851.223	11023.74
851.546	11039.55
851.869	10969.73
852.192	11033.9
852.515	10882.95
852.838	10746
853.161	10816.28
853.483	10797.53
853.806	10755.27
854.129	10738.09
854.451	10667.13
854.774	10593.24
855.096	10589.4
855.419	10570.87
855.741	10533.8
856.063	10476.86
856.385	10443.64
856.708	10428.95
857.03	10383.75
857.352	10348.27
857.674	10374.26
857.996	10257.65
858.318	10260.37
858.64	10241.16
858.961	10193.93
859.283	10227.6
859.605	10142.18
859.926	10141.95
860.248	10089.75
860.57	10084.55
860.891	10142.18
861.212	10017.21
861.534	9995.29
861.855	9995.29
862.176	9951.67
862.498	9949.41
862.819	9929.3
863.14	9924.56
863.461	9922.07
863.782	9927.72
864.103	9911.9
864.424	9872.13
864.745	9819.25
865.065	9846.37
865.386	9747.16
865.707	9861.96
866.027	9775.41
866.348	9733.15
866.668	9715.75
866.989	9721.62
867.309	9699.02
867.63	9674.39
867.95	9612.47
868.27	9540.16
868.59	9616.99
868.91	9595.52
869.23	9572.47
869.55	9501.29
869.87	9629.42
870.19	9580.16
870.51	9495.41
870.83	9546.49
871.15	9447.73
871.469	9433.95
871.789	9567.5
872.109	9495.19
872.428	9388.75
872.748	9423.55
873.067	9392.14
873.386	9399.37
873.706	9390.11
874.025	9393.95
874.344	9320.5
874.663	9351.24
874.982	9313.72
875.301	9289.32
875.62	9312.14
875.939	9248.64
876.258	9265.82
876.577	9231.69
876.896	9243.9
877.214	9182.88
877.533	9177
877.852	9228.3
878.17	9191.92
878.489	9179.72
878.807	9112.15
879.125	9163.9
879.444	9109.21
879.762	9025.82
880.08	9080.28
880.398	9085.93
880.716	9057.69
881.034	9010.68
881.352	8997.35
881.67	8960.06
881.988	8948.08
882.306	8932.94
882.624	8968.87
882.941	8866.5
883.259	8880.52
883.577	8844.36
883.894	8873.51
884.212	8823.79
884.529	8817.69
884.846	8730.69
885.164	8789.22
885.481	8720.97
885.798	8737.69
886.115	8677.58
886.432	8746.28
886.75	8697.92
887.067	8645.04
887.383	8621.31
887.7	8616.79
888.017	8604.36
888.334	8616.12
888.651	8552.39
888.967	8495.21
889.284	8462.22
889.6	8469.9
889.917	8406.18
890.233	8427.65
890.55	8430.58
890.866	8363.69
891.182	8358.27
891.498	8323.69
891.815	8311.49
892.131	8295.45
892.447	8173.64
892.763	8207.76
893.079	8269.91
893.395	8141.55
893.71	8236.46
894.026	8153.75
894.342	8139.07
894.657	8086.19
894.973	8096.81
895.289	8031.05
895.604	8063.59
895.92	7962.8
896.235	7965.96
896.55	7905.4
896.865	7915.57
897.181	7873.76
897.496	7894.33
897.811	7829.24
898.126	7832.63
898.441	7808.23
898.756	7733.2
899.071	7703.6
899.386	7752.86
899.7	7737.72
900.015	7624.73
900.33	7580.21
900.644	7565.07
900.959	7595.58
901.273	7523.04
901.588	7516.71
901.902	7474.45
902.216	7445.07
902.531	7410.27
902.845	7420.89
903.159	7364.62
903.473	7370.5
903.787	7304.29
904.101	7256.6
904.415	7264.06
904.729	7237.62
905.042	7215.02
905.356	7192.65
905.67	7185.87
905.984	7096.38
906.297	7174.57
906.611	7103.39
906.924	7082.37
907.237	7057.29
907.551	7028.36
907.864	6997.85
908.177	6990.62
908.491	6932.54
908.804	6908.59
909.117	6940.45
909.43	6907.91
909.743	6863.17
910.056	6817.29
910.368	6756.28
910.681	6667.24
910.994	6723.28
911.307	6676.51
911.619	6610.52
911.932	6656.84
912.244	6646.45
912.557	6615.94
912.869	6569.39
913.181	6565.1
913.494	6519.22
913.806	6469.28
914.118	6419.34
914.43	6385.21
914.742	6406
915.054	6343.86
915.366	6367.59
915.678	6352.45
915.99	6269.96
916.302	6210.08
916.613	6241.71
916.925	6181.15
917.236	6182.51
917.548	6175.28
917.859	6157.87
918.171	6135.95
918.482	6113.81
918.794	6042.17
919.105	6065.45
919.416	6083.3
919.727	6030.65
920.038	6026.8
920.349	5977.54
920.66	5910.42
920.971	5896.86
921.282	5902.29
921.593	5882.18
921.903	5774.16
922.214	5822.97
922.525	5796.08
922.835	5773.93
923.146	5699.36
923.456	5768.28
923.767	5699.81
924.077	5653.48
924.387	5624.1
924.697	5618
925.008	5570.77
925.318	5569.42
925.628	5534.61
925.938	5556.76
926.248	5479.25
926.558	5456.65
926.867	5448.06
927.177	5454.62
927.487	5399.48
927.796	5364.9
928.106	5323.77
928.416	5368.07
928.725	5321.96
929.034	5247.84
929.344	5297.11
929.653	5282.19
929.962	5173.72
930.271	5198.13
930.581	5169.43
930.89	5124.46
931.199	5094.85
931.508	5116.55
931.817	5069.54
932.125	5044.23
932.434	5053.5
932.743	5032.48
933.051	5055.3
933.36	5002.88
933.669	4943.67
933.977	4919.72
934.286	4900.28
934.594	4892.82
934.902	4873.16
935.21	4871.35
935.519	4842.2
935.827	4839.49
936.135	4841.75
936.443	4796.55
936.751	4765.82
937.059	4792.49
937.367	4713.62
937.674	4718.82
937.982	4670.68
938.29	4692.15
938.597	4645.82
938.905	4626.62
939.213	4597.46
939.52	4584.13
939.827	4579.84
940.135	4488.77
940.442	4555.88
940.749	4519.05
941.056	4519.5
941.363	4477.69
941.67	4435.43
941.977	4448.09
942.284	4434.53
942.591	4394.53
942.898	4366.96
943.205	4352.27
943.511	4347.75
943.818	4289.9
944.125	4277.02
944.431	4274.53
944.738	4272.5
945.044	4266.63
945.35	4214.2
945.657	4219.62
945.963	4183.46
946.269	4176.23
946.575	4140.98
946.881	4129.23
947.187	4107.53
947.493	4046.52
947.799	4094.65
948.105	4067.08
948.41	4026.41
948.716	4040.87
949.022	4004.94
949.327	3978.27
949.633	3994.54
949.938	3978.95
950.244	3932.17
950.549	3938.05
950.854	3910.48
951.16	3912.51
951.465	3861.21
951.77	3859.63
952.075	3837.71
952.38	3855.11
952.685	3849.23
952.99	3817.6
953.294	3821.67
953.599	3776.47
953.904	3735.79
954.209	3707.77
954.513	3737.83
954.818	3724.27
955.122	3700.76
955.426	3696.92
955.731	3687.21
956.035	3650.14
956.339	3619.86
956.643	3609.92
956.948	3573.54
957.252	3593.42
957.556	3552.52
957.86	3539.86
958.163	3562.69
958.467	3486.08
958.771	3553.42
959.075	3501.45
959.378	3467.32
959.682	3469.36
959.985	3456.48
960.289	3439.3
960.592	3390.94
960.896	3423.48
961.199	3421
961.502	3376.7
961.805	3361.34
962.108	3342.36
962.411	3310.04
962.714	3284.28
963.017	3342.36
963.32	3307.78
963.623	3289.48
963.926	3257.39
964.228	3226.43
964.531	3255.13
964.833	3213.77
965.136	3199.31
965.438	3208.35
965.741	3207.22
966.043	3138.07
966.345	3165.41
966.648	3157.05
966.95	3178.07
967.252	3122.7
967.554	3132.42
967.856	3081.57
968.158	3059.43
968.46	3059.43
968.761	3100.78
969.063	3033.66
969.365	3006.09
969.666	3001.8
969.968	3000.44
970.269	2985.75
970.571	2961.12
970.872	2992.31
971.174	2923.61
971.475	2992.08
971.776	2929.94
972.077	2941.01
972.378	2918.41
972.679	2908.02
972.98	2835.02
973.281	2842.26
973.582	2815.82
973.883	2827.11
974.183	2849.71
974.484	2827.11
974.785	2789.38
975.085	2789.15
975.386	2782.37
975.686	2796.16
975.986	2735.14
976.287	2750.05
976.587	2684.29
976.887	2691.75
977.187	2711.19
977.487	2678.64
977.787	2701.92
978.087	2654.92
978.387	2647.46
978.687	2614.69
978.987	2638.42
979.286	2611.98
979.586	2667.57
979.885	2560.91
980.185	2605.43
980.484	2579.89
980.784	2547.35
981.083	2562.49
981.382	2523.85
981.682	2534.92
981.981	2499.67
982.28	2527.24
982.579	2537.86
982.878	2496.73
983.177	2470.06
983.475	2474.36
983.774	2492.43
984.073	2469.16
984.372	2470.97
984.67	2460.57
984.969	2411.08
985.267	2416.05
985.566	2434.36
985.864	2356.62
986.162	2406.56
986.461	2376.96
986.759	2336.28
987.057	2323.85
987.355	2327.47
987.653	2352.33
987.951	2327.92
988.249	2329.95
988.547	2289.95
988.844	2318.65
989.142	2286.56
989.44	2284.76
989.737	2231.88
990.035	2250.41
990.332	2241.82
990.63	2226.23
990.927	2232.78
991.224	2216.96
991.521	2197.07
991.819	2156.85
992.116	2123.63
992.413	2154.59
992.71	2141.71
993.006	2156.17
993.303	2161.14
993.6	2165.21
993.897	2139.68
994.193	2118.43
994.49	2070.75
994.787	2067.36
995.083	2049.96
995.379	2056.06
995.676	2068.49
995.972	2037.98
996.268	2044.99
996.565	2003.86
996.861	2020.13
997.157	2036.18
997.453	1998.89
997.749	1991.66
998.044	1996.4
998.34	2012.45
998.636	1959.34
998.932	1950.53
999.227	1963.41
999.523	1923.86
999.818	1920.92
1000.114	1888.61
1000.409	1887.93
1000.704	1892.9
1001	1880.93
1001.295	1833.92
1001.59	1883.41
1001.885	1831.89
1002.18	1825.11
1002.475	1854.03
1002.77	1812.9
1003.065	1811.32
1003.359	1794.83
1003.654	1785.33
1003.949	1799.57
1004.243	1788.27
1004.538	1762.06
1004.832	1786.46
1005.127	1783.98
1005.421	1748.73
1005.715	1727.48
1006.009	1731.1
1006.304	1708.05
1006.598	1717.09
1006.892	1699.91
1007.186	1708.27
1007.48	1689.29
1007.773	1670.99
1008.067	1674.38
1008.361	1659.69
1008.655	1636.19
1008.948	1642.74
1009.242	1624.21
1009.535	1621.27
1009.829	1624.66
1010.122	1637.77
1010.415	1585.79
1010.708	1557.09
1011.001	1571.1
1011.295	1560.93
1011.588	1574.27
1011.881	1535.4
1012.173	1515.51
1012.466	1536.53
1012.759	1537.88
1013.052	1518.45
1013.344	1546.92
1013.637	1508.73
1013.93	1485.23
1014.222	1459.69
1014.514	1467.38
1014.807	1460.37
1015.099	1421.28
1015.391	1433.93
1015.683	1430.99
1015.976	1421.73
1016.268	1410.88
1016.56	1384.22
1016.851	1414.72
1017.143	1398
1017.435	1362.75
1017.727	1410.88
1018.018	1391.45
1018.31	1368.4
1018.602	1355.52
1018.893	1321.17
1019.185	1328.85
1019.476	1312.13
1019.767	1331.79
1020.058	1333.37
1020.35	1289.08
1020.641	1290.66
1020.932	1280.94
1021.223	1256.76
1021.514	1282.07
1021.804	1278.91
1022.095	1238.68
1022.386	1242.3
1022.677	1249.98
1022.967	1216.31
1023.258	1219.02
1023.548	1219.47
1023.839	1208.17
1024.129	1223.99
1024.419	1162.98
1024.709	1175.18
1025	1167.95
1025.29	1176.99
1025.58	1176.08
1025.87	1175.41
1026.16	1148.06
1026.449	1146.93
1026.739	1123.43
1027.029	1146.93
1027.319	1146.93
1027.608	1111
1027.898	1116.65
1028.187	1078.01
1028.477	1081.85
1028.766	1081.4
1029.055	1081.85
1029.344	1074.39
1029.634	1060.38
1029.923	1078.01
1030.212	1017.67
1030.501	1047.5
1030.79	1045.69
1031.078	1035.3
1031.367	1039.82
1031.656	1056.54
1031.945	1023.09
1032.233	1007.05
1032.522	1009.99
1032.81	1006.15
1033.099	984.23
1033.387	1003.43
1033.675	986.94
1033.963	983.1
1034.251	974.28
1034.54	952.81
1034.828	954.62
1035.116	951.68
1035.403	927.05
1035.691	936.09
1035.979	936.54
1036.267	943.77
1036.554	925.24
1036.842	904
1037.129	924.79
1037.417	907.84
1037.704	884.79
1037.992	880.73
1038.279	868.52
1038.566	874.62
1038.853	874.62
1039.14	874.62
