Data from tablewood_dark_bookshelf_FLMS001491_00037.txt Node
Date: Wed Feb 08 14:14:26 GMT 2017
User: dcchb
Spectrometer: FLMS00149
Trigger mode: 0
Integration Time (sec): 2.000000E-2
Scans to average: 10
Electric dark correction enabled: true
Nonlinearity correction enabled: false
Boxcar width: 0
XAxis mode: Wavelengths
Number of Pixels in Spectrum: 2048
>>>>>Begin Spectral Data<<<<<
341.393	-7.22
341.776	-7.22
342.16	-7.22
342.543	-56.03
342.927	-74.33
343.31	-77.27
343.693	-51.96
344.077	-63.94
344.46	-56.03
344.843	-49.7
345.226	-46.54
345.61	-19.65
345.993	-14
346.376	-4.96
346.759	9.51
347.142	38.66
347.525	31.2
347.908	55.38
348.291	71.88
348.674	66.91
349.057	110.52
349.44	130.18
349.823	135.38
350.206	159.78
350.588	182.16
350.971	204.08
351.354	228.03
351.737	230.52
352.119	248.82
352.502	255.6
352.884	290.85
353.267	283.17
353.65	287.92
354.032	296.05
354.414	284.07
354.797	311.19
355.179	317.29
355.562	313.68
355.944	322.94
356.326	305.99
356.709	311.42
357.091	347.8
357.473	322.49
357.855	321.14
358.238	335.37
358.62	331.08
359.002	331.53
359.384	335.15
359.766	346.9
360.148	341.02
360.53	336.95
360.912	325.66
361.294	324.07
361.676	347.35
362.057	356.16
362.439	320.46
362.821	324.3
363.203	324.98
363.584	344.19
363.966	325.88
364.348	322.04
364.729	320.68
365.111	330.63
365.493	315.71
365.874	338.08
366.256	312.32
366.637	305.09
367.019	321.59
367.4	316.62
367.781	309.61
368.163	316.16
368.544	308.03
368.925	329.27
369.306	319.78
369.688	303.28
370.069	322.49
370.45	309.61
370.831	315.71
371.212	316.62
371.593	319.33
371.974	335.82
372.355	313.23
372.736	329.05
373.117	327.92
373.498	307.8
373.879	341.93
374.26	324.98
374.641	335.82
375.021	313.68
375.402	318.65
375.783	341.7
376.163	334.69
376.544	335.6
376.925	347.8
377.305	342.6
377.686	349.61
378.066	336.28
378.447	339.67
378.827	341.25
379.208	329.5
379.588	328.82
379.968	350.29
380.349	327.69
380.729	342.15
381.109	351.19
381.489	343.96
381.87	355.94
382.25	341.25
382.63	329.95
383.01	381.7
383.39	348.48
383.77	343.73
384.15	363.17
384.53	356.16
384.91	394.13
385.29	368.82
385.67	367.91
386.049	373.11
386.429	372.43
386.809	370.63
387.189	386.44
387.568	383.05
387.948	376.28
388.328	370.85
388.707	372.21
389.087	385.99
389.466	389.83
389.846	393.45
390.225	381.47
390.605	380.34
390.984	386.67
391.363	412.88
391.743	425.09
392.122	379.21
392.501	416.95
392.881	406.56
393.26	399.55
393.639	392.77
394.018	399.33
394.397	419.44
394.776	416.5
395.155	432.77
395.534	414.47
395.913	426.22
396.292	422.15
396.671	427.12
397.05	427.8
397.429	430.74
397.808	426.44
398.186	432.77
398.565	431.42
398.944	455.37
399.323	418.76
399.701	435.26
400.08	438.19
400.458	446.1
400.837	450.85
401.215	456.73
401.594	425.54
401.972	439.32
402.351	463.96
402.729	473.45
403.107	459.66
403.486	461.7
403.864	478.42
404.242	461.92
404.62	458.31
404.999	480.68
405.377	480.45
405.755	470.74
406.133	472.77
406.511	481.13
406.889	482.71
407.267	491.98
407.645	491.07
408.023	490.4
408.401	494.24
408.779	515.71
409.156	489.49
409.534	515.93
409.912	501.24
410.29	508.02
410.667	525.88
411.045	529.04
411.422	534.92
411.8	532.66
412.178	551.19
412.555	571.52
412.933	574.46
413.31	548.93
413.687	542.6
414.065	552.32
414.442	583.05
414.819	568.13
415.197	569.04
415.574	593.9
415.951	565.2
416.328	582.37
416.705	594.57
417.082	592.99
417.46	594.12
417.837	577.85
418.214	599.55
418.591	602.26
418.967	639.77
419.344	611.98
419.721	651.3
420.098	614.91
420.475	623.95
420.852	625.76
421.228	611.52
421.605	636.16
421.982	646.1
422.358	660.11
422.735	658.08
423.111	657.62
423.488	646.55
423.864	661.01
424.241	695.59
424.617	688.36
424.994	680.22
425.37	670.73
425.746	686.78
426.123	677.28
426.499	694.23
426.875	689.94
427.251	692.65
427.627	712.76
428.003	720
428.379	738.75
428.756	742.59
429.132	730.84
429.507	732.65
429.883	739.2
430.259	780.78
430.635	743.95
431.011	767.45
431.387	771.97
431.763	797.51
432.138	804.06
432.514	822.37
432.89	804.96
433.265	835.7
433.641	810.61
434.016	827.11
434.392	863.27
434.767	858.52
435.143	865.3
435.518	858.07
435.894	832.31
436.269	851.52
436.644	872.53
437.02	901.46
437.395	887
437.77	927.45
438.145	932.42
438.52	931.52
438.895	922.7
439.271	925.64
439.646	940.1
440.021	947.33
440.395	940.78
440.77	938.75
441.145	943.72
441.52	941.68
441.895	962.93
442.27	944.4
442.645	984.17
443.019	995.02
443.394	990.27
443.769	1002.93
444.143	969.25
444.518	1002.93
444.892	1025.3
445.267	1014.9
445.641	998.41
446.016	1003.38
446.39	1024.62
446.764	1013.77
447.139	1014.22
447.513	1058.29
447.887	1042.47
448.262	1019.65
448.636	1068.01
449.01	1052.87
449.384	1067.33
449.758	1089.03
450.132	1087.9
450.506	1102.81
450.88	1100.32
451.254	1092.64
451.628	1101
452.002	1134.9
452.376	1148.23
452.75	1105.75
453.123	1144.84
453.497	1151.85
453.871	1161.79
454.244	1187.33
454.618	1205.86
454.992	1193.43
455.365	1217.84
455.739	1263.71
456.112	1258.74
456.486	1261.68
456.859	1285.4
457.232	1271.17
457.606	1275.01
457.979	1270.04
458.352	1342.8
458.725	1339.64
459.099	1349.36
459.472	1384.84
459.845	1366.08
460.218	1377.61
460.591	1404.95
460.964	1397.94
461.337	1414.89
461.71	1435.68
462.083	1443.37
462.456	1465.06
462.829	1476.13
463.201	1488.56
463.574	1523.59
463.947	1510.71
464.32	1549.35
464.692	1563.14
465.065	1526.98
465.438	1576.92
465.81	1579.18
466.183	1593.42
466.555	1646.07
466.928	1664.83
467.3	1647.88
467.672	1681.1
468.045	1710.7
468.417	1674.09
468.789	1732.4
469.161	1756.35
469.534	1785.28
469.906	1811.72
470.278	1813.3
470.65	1846.52
471.022	1860.3
471.394	1902.11
471.766	1901.43
472.138	1920.87
472.51	1982.79
472.882	1990.02
473.253	1992.5
473.625	2019.62
473.997	2072.73
474.369	2115.89
474.74	2100.07
475.112	2153.18
475.484	2170.8
475.855	2181.2
476.227	2225.04
476.598	2254.19
476.97	2277.02
477.341	2324.7
477.713	2376.67
478.084	2385.49
478.455	2456.67
478.827	2434.3
479.198	2530.57
479.569	2494.41
479.94	2567.18
480.311	2608.08
480.682	2671.58
481.053	2720.62
481.424	2717.23
481.795	2746.16
482.166	2768.98
482.537	2819.15
482.908	2898.69
483.279	2948.86
483.65	2959.48
484.021	3006.04
484.391	3054.62
484.762	3089.2
485.133	3046.04
485.503	3128.97
485.874	3168.97
486.244	3215.52
486.615	3273.37
486.985	3334.62
487.356	3368.74
487.726	3378
488.097	3445.12
488.467	3450.32
488.837	3526.93
489.207	3553.37
489.578	3628.39
489.948	3639.47
490.318	3708.17
490.688	3678.11
491.058	3767.15
491.428	3770.54
491.798	3847.14
492.168	3867.94
492.538	3910.65
492.908	3984.77
493.278	4010.76
493.648	4008.95
494.017	4099.79
494.387	4125.78
494.757	4138.66
495.126	4196.06
495.496	4193.12
495.866	4212.78
496.235	4233.12
496.605	4324.42
496.974	4291.88
497.344	4367.36
497.713	4371.65
498.082	4384.31
498.452	4476.73
498.821	4489.61
499.19	4493
499.559	4575.94
499.928	4549.73
500.298	4592.66
500.667	4664.07
501.036	4648.03
501.405	4721.92
501.774	4715.82
502.143	4747.46
502.512	4740.68
502.88	4810.06
503.249	4795.14
503.618	4841.24
503.987	4853.45
504.356	4888.25
504.724	4932.31
505.093	4932.54
505.462	4963.73
505.83	4982.03
506.199	5044.4
506.567	5116.04
506.936	5154.91
507.304	5225.19
507.672	5170.95
508.041	5282.81
508.409	5281.68
508.777	5279.65
509.145	5282.59
509.514	5360.55
509.882	5367.56
510.25	5479.42
510.618	5470.15
510.986	5465.18
511.354	5556.93
511.722	5584.05
512.09	5597.83
512.458	5629.47
512.826	5656.36
513.193	5701.79
513.561	5722.12
513.929	5780.88
514.297	5831.73
514.664	5858.17
515.032	5879.63
515.4	5961.21
515.767	6001.66
516.135	5999.63
516.502	6011.38
516.869	6084.37
517.237	6125.05
517.604	6144.03
517.972	6183.35
518.339	6280.53
518.706	6268.78
519.073	6339.06
519.44	6310.81
519.808	6449.34
520.175	6428.32
520.542	6548.09
520.909	6511.26
521.276	6563.68
521.643	6688.88
522.009	6669.22
522.376	6719.84
522.743	6787.41
523.11	6845.03
523.477	6873.96
523.843	6947.63
524.21	7035.76
524.577	7065.82
524.943	7160.28
525.31	7136.55
525.676	7218.36
526.043	7280.5
526.409	7323.89
526.776	7430.55
527.142	7391.91
527.508	7442.76
527.874	7489.53
528.241	7536.99
528.607	7637.1
528.973	7646.14
529.339	7681.17
529.705	7769.3
530.071	7810.88
530.437	7809.98
530.803	7911.44
531.169	7986.02
531.535	7939.01
531.901	7959.13
532.267	8023.98
532.632	8077.54
532.998	8099.69
533.364	8135.62
533.73	8195.05
534.095	8274.82
534.461	8268.27
534.826	8342.85
535.192	8347.37
535.557	8444.31
535.923	8440.02
536.288	8447.02
536.653	8503.97
537.019	8483.41
537.384	8541.94
537.749	8615.83
538.114	8586.91
538.479	8706.45
538.845	8708.49
539.21	8675.49
539.575	8693.12
539.94	8786.68
540.305	8871.87
540.67	8872.1
541.034	8976.73
541.399	8890.85
541.764	8968.59
542.129	9009.49
542.494	9001.36
542.858	9041.81
543.223	9039.32
543.587	9145.54
543.952	9091.98
544.316	9138.76
544.681	9196.38
545.045	9218.53
545.41	9322.93
545.774	9335.81
546.138	9359.99
546.503	9339.66
546.867	9398.41
547.231	9502.82
547.595	9521.12
547.959	9467.56
548.324	9583.49
548.688	9525.87
549.052	9653.09
549.416	9573.77
549.779	9671.62
550.143	9625.52
550.507	9728.57
550.871	9825.07
551.235	9877.04
551.599	9946.19
551.962	9976.47
552.326	9937.61
552.689	10101.44
553.053	9990.03
553.417	10048.56
553.78	10175.11
554.143	10132.4
554.507	10200.2
554.87	10197.71
555.234	10330.36
555.597	10289.91
555.96	10308.22
556.323	10418.72
556.686	10434.99
557.05	10533.07
557.413	10606.74
557.776	10520.42
558.139	10706.85
558.502	10708.43
558.865	10747.3
559.228	10799.73
559.59	10803.8
559.953	10944.59
560.316	11011.48
560.679	10963.34
561.041	11058.93
561.404	11150.46
561.767	11177.35
562.129	11218.93
562.492	11284.69
562.854	11338.7
563.217	11378.47
563.579	11428.87
563.941	11539.15
564.304	11596.09
564.666	11629.76
565.028	11653.04
565.39	11769.87
565.753	11805.58
566.115	11859.14
566.477	11930.77
566.839	11999.47
567.201	12039.92
567.563	12133.71
567.925	12231.56
568.287	12186.36
568.648	12218.68
569.01	12352.46
569.372	12437.65
569.734	12410.08
570.095	12557.2
570.457	12582.06
570.819	12588.84
571.18	12600.13
571.542	12743.86
571.903	12752.22
572.265	12828.6
572.626	12841.26
572.987	12985.21
573.349	12980.92
573.71	13138.88
574.071	13139.33
574.432	13229.72
574.794	13317.4
575.155	13357.63
575.516	13253.22
575.877	13375.93
576.238	13422.71
576.599	13482.37
576.96	13466.78
577.32	13551.52
577.681	13654.8
578.042	13688.92
578.403	13637.17
578.763	13723.95
579.124	13779.31
579.485	13896.37
579.845	13870.38
580.206	13913.77
580.566	13949.48
580.927	13955.35
581.287	14027.44
581.648	14008.69
582.008	14131.39
582.368	14082.81
582.728	14215.46
583.089	14157.16
583.449	14199.64
583.809	14243.26
584.169	14297.72
584.529	14232.63
584.889	14368.22
585.249	14331.61
585.609	14312.86
585.969	14438.05
586.329	14437.6
586.688	14492.97
587.048	14463.59
587.408	14565.51
587.768	14514.21
588.127	14622
588.487	14626.97
588.846	14725.73
589.206	14562.8
589.565	14667.88
589.925	14715.56
590.284	14691.15
590.643	14765.28
591.003	14759.63
591.362	14870.13
591.721	14860.64
592.08	14949.9
592.44	14919.17
592.799	14906.29
593.158	14844.14
593.517	14961.43
593.876	14987.64
594.235	15017.02
594.593	15034.65
594.952	15092.05
595.311	14990.58
595.67	15108.54
596.029	15188.77
596.387	15241.42
596.746	15254.08
597.104	15228.77
597.463	15365.49
597.822	15341.08
598.18	15284.36
598.538	15276
598.897	15384.92
599.255	15246.39
599.613	15527.06
599.972	15406.39
600.33	15427.41
600.688	15436.67
601.046	15460.17
601.404	15626.72
601.762	15499.49
602.12	15633.05
602.478	15643.67
602.836	15689.32
603.194	15548.08
603.552	15671.92
603.91	15572.71
604.268	15714.63
604.625	15687.96
604.983	15773.16
605.341	15685.93
605.698	15832.82
606.056	15819.03
606.413	15803.21
606.771	15872.37
607.128	15870.11
607.485	15882.08
607.843	15849.99
608.2	15962.08
608.557	16120.04
608.914	16042.3
609.272	16100.61
609.629	16152.13
609.986	16162.3
610.343	16091.34
610.7	16224.45
611.057	16222.64
611.414	16174.05
611.771	16274.16
612.127	16258.57
612.484	16370.21
612.841	16372.46
613.198	16358.45
613.554	16365.69
613.911	16470.09
614.267	16470.99
614.624	16365.69
614.98	16426.93
615.337	16609.75
615.693	16542.4
616.05	16503.53
616.406	16581.27
616.762	16571.33
617.118	16580.82
617.475	16647.03
617.831	16691.1
618.187	16615.62
618.543	16671.89
618.899	16741.72
619.255	16721.61
619.611	16786.69
619.967	16753.02
620.323	16861.72
620.678	16754.38
621.034	16713.92
621.39	16760.93
621.746	16656.98
622.101	16849.97
622.457	16808.39
622.812	16851.1
623.168	16763.19
623.523	16801.15
623.879	16936.52
624.234	16847.25
624.589	16854.03
624.945	16986.46
625.3	16870.08
625.655	16827.37
626.01	16825.11
626.365	16947.14
626.72	16855.84
627.075	16837.99
627.43	16769.52
627.785	16952.56
628.14	16913.24
628.495	17012.45
628.85	16842.96
629.205	16849.51
629.559	16908.95
629.914	16888.38
630.269	16840.93
630.623	16820.36
630.978	16782.62
631.332	16820.14
631.687	16927.25
632.041	16869.85
632.396	16807.03
632.75	16864.2
633.104	16779.69
633.459	16677.77
633.813	16830.98
634.167	16823.53
634.521	16799.35
634.875	16793.7
635.229	16703.98
635.583	16574.72
635.937	16574.49
636.291	16606.58
636.645	16641.38
636.999	16562.97
637.352	16668.73
637.706	16539.24
638.06	16657.43
638.413	16605.45
638.767	16507.83
639.121	16604.55
639.474	16480.94
639.828	16500.15
640.181	16486.13
640.534	16404.55
640.888	16351.67
641.241	16303.54
641.594	16497.66
641.947	16402.97
642.301	16355.06
642.654	16381.05
643.007	16353.93
643.36	16367.27
643.713	16318.91
644.066	16385.57
644.419	16279.36
644.771	16148.29
645.124	16025.36
645.477	15982.19
645.83	15793.72
646.182	15824
646.535	15776.32
646.888	15809.99
647.24	15825.13
647.593	15927.96
647.945	15851.57
648.298	15856.55
648.65	15841.86
649.002	15691.58
649.355	15802.31
649.707	15745.59
650.059	15809.99
650.411	15960.05
650.763	16038.46
651.115	16236.65
651.467	16167.27
651.819	16028.29
652.171	16061.06
652.523	16071.91
652.875	16007.05
653.227	15989.65
653.578	16120.72
653.93	16077.33
654.282	15936.32
654.633	16016.54
654.985	16058.35
655.337	16047.05
655.688	15952.82
656.039	16099.48
656.391	15935.87
656.742	15941.06
657.094	15997.56
657.445	16059.48
657.796	16032.36
658.147	15868.75
658.498	15954.62
658.849	15967.73
659.2	16021.29
659.551	15911.91
659.902	15981.51
660.253	15975.41
660.604	15913.49
660.955	15951.01
661.306	15990.33
661.656	15926.38
662.007	15988.52
662.358	15938.58
662.708	15926.15
663.059	15874.62
663.409	15764.8
663.76	15922.08
664.11	15891.35
664.461	15970.89
664.811	15975.19
665.161	16028.07
665.511	15916.21
665.862	15947.39
666.212	16023.77
666.562	15965.02
666.912	15944.91
667.262	15908.75
667.612	15937.22
667.962	15890.67
668.312	15890.22
668.662	16022.64
669.011	15865.59
669.361	15946.26
669.711	15907.62
670.06	15958.46
670.41	15908.3
670.76	15858.81
671.109	15972.02
671.459	15867.85
671.808	15871.01
672.157	15909.43
672.507	15839.15
672.856	15823.78
673.205	15827.62
673.554	15795.76
673.904	15815.19
674.253	15933.38
674.602	15812.93
674.951	15616.78
675.3	15551.24
675.649	15856.09
675.998	15822.65
676.346	15793.72
676.695	15886.6
677.044	15737.68
677.393	15783.1
677.741	15826.49
678.09	15744.01
678.438	15749.88
678.787	15800.5
679.135	15800.28
679.484	15650.45
679.832	15813.84
680.181	15653.84
680.529	15803.89
680.877	15661.3
681.225	15608.87
681.573	15777.9
681.922	15687.96
682.27	15583.11
682.618	15615.65
682.966	15562.54
683.314	15588.3
683.661	15560.73
684.009	15525.03
684.357	15529.55
684.705	15437.57
685.053	15377.24
685.4	15369.33
685.748	15408.65
686.095	15288.65
686.443	15277.8
686.79	15316.67
687.138	15262.66
687.485	15259.27
687.832	15203
688.18	15308.99
688.527	15173.4
688.874	15152.61
689.221	15202.78
689.568	15041.65
689.915	15096.34
690.262	15049.79
690.609	15038.71
690.956	14951.03
691.303	14993.07
691.65	14843.69
691.997	14933.63
692.344	14862.45
692.69	14790.81
693.037	14819.96
693.383	14721.21
693.73	14747.42
694.077	14692.06
694.423	14767.54
694.769	14619.74
695.116	14516.92
695.462	14579.97
695.808	14467.43
696.155	14549.91
696.501	14507.66
696.847	14375.46
697.193	14379.75
697.539	14430.82
697.885	14296.59
698.231	14330.48
698.577	14319.64
698.923	14243.71
699.269	14203.93
699.614	14143.37
699.96	14072.64
700.306	14068.57
700.651	14041.68
700.997	14014.56
701.342	13955.58
701.688	13895.92
702.033	13841.91
702.379	13901.12
702.724	13902.93
703.069	13886.88
703.415	13790.16
703.76	13805.07
704.105	13707
704.45	13725.75
704.795	13595.14
705.14	13631.97
705.485	13591.07
705.83	13538.42
706.175	13457.51
706.52	13489.6
706.865	13522.14
707.209	13433.56
707.554	13460.45
707.899	13468.59
708.243	13415.93
708.588	13406.67
708.932	13193.11
709.277	13303.17
709.621	13296.61
709.966	13248.93
710.31	13267.91
710.654	13202.83
710.998	13101.14
711.342	13128.71
711.687	13128.03
712.031	12993.12
712.375	13054.59
712.719	13084.64
713.063	13035.83
713.407	13079.44
713.75	13019.11
714.094	12953.8
714.438	13001.93
714.782	12909.28
715.125	12897.3
715.469	12937.53
715.812	12870.41
716.156	12777.76
716.499	12810.52
716.843	12806.01
717.186	12730.07
717.53	12878.77
717.873	12760.13
718.216	12793.35
718.559	12737.08
718.902	12604.65
719.246	12701.6
719.589	12638.1
719.932	12668.38
720.275	12686.01
720.617	12582.28
720.96	12618.21
721.303	12571.66
721.646	12617.54
721.989	12524.88
722.331	12573.92
722.674	12504.77
723.016	12475.17
723.359	12540.02
723.701	12539.35
724.044	12401.72
724.386	12426.35
724.729	12486.01
725.071	12433.36
725.413	12478.78
725.755	12354.72
726.097	12407.82
726.439	12305.45
726.782	12378.67
727.124	12364.66
727.465	12300.48
727.807	12302.06
728.149	12283.53
728.491	12235.4
728.833	12375.06
729.175	12294.15
729.516	12260.93
729.858	12135.97
730.199	12326.47
730.541	12245.34
730.882	12222.74
731.224	12310.2
731.565	12165.12
731.906	12175.97
732.248	12181.61
732.589	12196.98
732.93	12210.54
733.271	12151.11
733.612	12169.64
733.953	12161.95
734.294	12125.12
734.635	12102.29
734.976	12051.9
735.317	12128.51
735.658	12039.02
735.999	12021.17
736.339	12042.18
736.68	12124.89
737.021	12067.04
737.361	12011.22
737.702	12102.75
738.042	12081.96
738.383	12080.37
738.723	12111.11
739.063	11982.07
739.404	12018.23
739.744	12009.19
740.084	12050.77
740.424	12038.12
740.764	12006.48
741.104	12016.87
741.444	11973.94
741.784	11834.28
742.124	11980.94
742.464	11953.15
742.804	11939.59
743.143	11872.02
743.483	11875.18
743.823	11853.94
744.162	11889.19
744.502	11863.66
744.841	11787.73
745.181	11887.84
745.52	11841.74
745.86	11868.85
746.199	11886.26
746.538	11893.26
746.877	11911.57
747.216	11828.4
747.556	11869.31
747.895	11801.51
748.234	11766.71
748.573	11787.95
748.911	11780.72
749.25	11769.42
749.589	11703.21
749.928	11729.65
750.267	11785.69
750.605	11675.41
750.944	11676.09
751.283	11675.19
751.621	11706.6
751.96	11661.18
752.298	11653.49
752.636	11592.7
752.975	11714.06
753.313	11519.71
753.651	11681.06
753.989	11517.23
754.327	11478.13
754.666	11499.15
755.004	11502.31
755.342	11507.06
755.679	11493.05
756.017	11444.46
756.355	11427.28
756.693	11391.13
757.031	11406.72
757.368	11383.44
757.706	11295.76
758.044	11253.96
758.381	11333.95
758.719	11216.44
759.056	11260.06
759.394	11312.03
759.731	11120.4
760.068	11184.58
760.405	11197.69
760.743	11056.67
761.08	11151.36
761.417	11060.06
761.754	11124.47
762.091	11051.93
762.428	10969.9
762.765	10953.62
763.102	10981.87
763.438	10879.05
763.775	10869.78
764.112	10859.39
764.449	10782.1
764.785	10797.24
765.122	10737.13
765.458	10714.53
765.795	10650.13
766.131	10693.52
766.467	10618.94
766.804	10603.58
767.14	10531.71
767.476	10533.75
767.812	10399.51
768.148	10450.13
768.485	10405.16
768.821	10403.36
769.157	10323.58
769.492	10282.46
769.828	10359.52
770.164	10207.88
770.5	10188.45
770.836	10222.34
771.171	10152.97
771.507	10142.35
771.842	10162.01
772.178	10076.59
772.513	10020.09
772.849	9950.03
773.184	9971.28
773.519	9928.79
773.855	9858.74
774.19	9912.75
774.525	9767.67
774.86	9816.71
775.195	9766.99
775.53	9760.66
775.865	9686.09
776.2	9566.77
776.535	9565.19
776.87	9600.67
777.205	9519.99
777.539	9529.93
777.874	9529.03
778.209	9422.59
778.543	9391.86
778.878	9379.88
779.212	9361.58
779.547	9311.63
779.881	9337.17
780.215	9229.83
780.55	9230.28
780.884	9215.82
781.218	9182.82
781.552	9150.51
781.886	9084.07
782.22	9123.16
782.554	9061.02
782.888	8982.83
783.222	8919.33
783.556	8880.01
783.889	8815.15
784.223	8800.91
784.557	8732.89
784.89	8814.92
785.224	8758.65
785.557	8695.38
785.891	8668.71
786.224	8682.95
786.558	8662.16
786.891	8577.87
787.224	8512.33
787.557	8537.64
787.891	8486.8
788.224	8476.63
788.557	8456.06
788.89	8431.43
789.223	8379.91
789.556	8360.25
789.888	8310.53
790.221	8333.13
790.554	8263.53
790.887	8287.71
791.219	8170.42
791.552	8156.86
791.884	8144.43
792.217	8091.55
792.549	8143.53
792.882	8066.47
793.214	8030.09
793.546	7985.79
793.879	8012.46
794.211	7891.11
794.543	7956.42
794.875	7891.78
795.207	7921.61
795.539	7886.13
795.871	7888.17
796.203	7827.6
796.535	7776.76
796.867	7763.65
797.198	7789.64
797.53	7751.22
797.862	7694.5
798.193	7684.78
798.525	7610.44
798.856	7574.73
799.188	7567.5
799.519	7549.65
799.85	7437.56
800.182	7542.41
800.513	7495.18
800.844	7404.79
801.175	7470.55
801.506	7406.37
801.837	7362.31
802.168	7379.93
802.499	7333.61
802.83	7255.87
803.161	7328.86
803.491	7365.92
803.822	7274.17
804.153	7228.3
804.483	7184.68
804.814	7173.16
805.145	7116.89
805.475	7134.52
805.805	7105.36
806.136	7157.11
806.466	7107.17
806.796	7028.53
807.126	6959.38
807.457	7036.21
807.787	7046.16
808.117	6926.39
808.447	6913.96
808.777	6986.05
809.107	6933.84
809.436	6935.42
809.766	6841.19
810.096	6878.03
810.426	6857.91
810.755	6800.29
811.085	6846.39
811.414	6822.43
811.744	6760.29
812.073	6737.92
812.403	6739.72
812.732	6691.14
813.061	6705.15
813.39	6641.87
813.719	6685.49
814.049	6692.95
814.378	6628.09
814.707	6595.32
815.036	6653.17
815.365	6591.71
815.693	6524.14
816.022	6552.84
816.351	6540.86
816.68	6462.67
817.008	6520.52
817.337	6380.86
817.665	6474.42
817.994	6430.13
818.322	6440.75
818.651	6398.49
818.979	6402.56
819.307	6381.99
819.636	6384.25
819.964	6352.16
820.292	6346.51
820.62	6402.56
820.948	6296.35
821.276	6318.72
821.604	6278.72
821.932	6335.21
822.259	6353.52
822.587	6352.39
822.915	6370.47
823.243	6342.22
823.57	6264.71
823.898	6317.36
824.225	6313.52
824.553	6339.96
824.88	6268.55
825.207	6333.18
825.535	6346.97
825.862	6370.69
826.189	6290.24
826.516	6336.34
826.843	6240.3
827.17	6277.82
827.497	6356.01
827.824	6278.27
828.151	6275.1
828.478	6258.38
828.805	6305.61
829.131	6243.24
829.458	6244.14
829.785	6254.09
830.111	6236.01
830.438	6294.31
830.764	6268.1
831.09	6268.78
831.417	6238.04
831.743	6237.14
832.069	6256.8
832.395	6203.69
832.722	6261.54
833.048	6174.99
833.374	6226.07
833.7	6221.32
834.026	6240.75
834.351	6245.73
834.677	6187.42
835.003	6220.64
835.329	6227.42
835.654	6198.04
835.98	6150.81
836.306	6178.38
836.631	6128.67
836.956	6161.43
837.282	6181.32
837.607	6146.52
837.932	6069.69
838.258	6167.08
838.583	6168.89
838.908	6112.4
839.233	6061.78
839.558	6099.97
839.883	6099.97
840.208	6088.22
840.533	6050.48
840.858	6017.26
841.182	5982.68
841.507	5989.91
841.832	5977.48
842.156	5960.54
842.481	5944.26
842.805	5942
843.13	5955.56
843.454	5965.51
843.778	5906.75
844.103	5855.68
844.427	5865.62
844.751	5876.02
845.075	5860.88
845.399	5906.3
845.723	5827.66
846.047	5793.76
846.371	5749.24
846.695	5792.4
847.019	5722.8
847.343	5713.31
847.666	5654.1
847.99	5696.81
848.313	5672.63
848.637	5627.66
848.96	5648
849.284	5589.25
849.607	5550.83
849.931	5521.68
850.254	5531.39
850.577	5506.08
850.9	5468.12
851.223	5490.27
851.546	5448.68
851.869	5400.78
852.192	5472.86
852.515	5422.92
852.838	5384.51
853.161	5356.26
853.483	5355.81
853.806	5318.52
854.129	5326.65
854.451	5301.12
854.774	5263.83
855.096	5247.33
855.419	5236.26
855.741	5234.23
856.063	5163.95
856.385	5161.46
856.708	5184.28
857.03	5161.46
857.352	5131.4
857.674	5151.74
857.996	5137.05
858.318	5092.08
858.64	5122.82
858.961	5108.81
859.283	5043.05
859.605	5013.44
859.926	5110.61
860.248	5045.53
860.57	4961.69
860.891	5071.29
861.212	4976.15
861.534	4974.57
861.855	4968.25
862.176	4976.61
862.498	4981.13
862.819	4999.66
863.14	4962.14
863.461	4955.36
863.782	4984.29
864.103	4932.31
864.424	4882.6
864.745	4949.71
865.065	4886.44
865.386	4906.33
865.707	4870.62
866.027	4878.53
866.348	4844.18
866.668	4855.25
866.989	4878.76
867.309	4785.88
867.63	4816.61
867.95	4807.8
868.27	4776.39
868.59	4826.55
868.91	4813.67
869.23	4807.8
869.55	4775.93
869.87	4747.91
870.19	4761.7
870.51	4748.59
870.83	4743.17
871.15	4780.68
871.469	4773.9
871.789	4755.14
872.109	4746.1
872.428	4713.56
872.748	4734.13
873.067	4748.82
873.386	4666.56
873.706	4712.88
874.025	4703.62
874.344	4707.91
874.663	4713.56
874.982	4656.39
875.301	4679.89
875.62	4631.53
875.939	4669.95
876.258	4623.17
876.577	4645.54
876.896	4618.65
877.214	4580.46
877.533	4662.94
877.852	4617.75
878.17	4615.26
878.489	4625.66
878.807	4608.71
879.125	4597.86
879.444	4570.74
879.762	4524.19
880.08	4567.8
880.398	4545.66
880.716	4592.21
881.034	4551.98
881.352	4540.91
881.67	4555.37
881.988	4529.61
882.306	4477.86
882.624	4531.42
882.941	4511.76
883.259	4451.87
883.577	4472.44
883.894	4438.32
884.212	4472.21
884.529	4483.06
884.846	4433.57
885.164	4475.15
885.481	4458.2
885.798	4440.35
886.115	4399.45
886.432	4431.99
886.75	4393.34
887.067	4418.88
887.383	4415.72
887.7	4356.51
888.017	4388.37
888.334	4347.92
888.651	4369.62
888.967	4381.37
889.284	4299.11
889.6	4278.55
889.917	4311.77
890.233	4268.38
890.55	4271.99
890.866	4257.98
891.182	4274.03
891.498	4278.32
891.815	4245.78
892.131	4225.44
892.447	4194.48
892.763	4188.15
893.079	4183.41
893.395	4164.65
893.71	4168.27
894.026	4158.32
894.342	4133.92
894.657	4134.14
894.973	4137.76
895.289	4123.97
895.604	4106.35
895.92	4097.53
896.235	4088.27
896.55	4093.47
896.865	4065.67
897.181	4036.29
897.496	4071.32
897.811	4052.56
898.126	4081.71
898.441	4015.5
898.756	3997.88
899.071	3994.49
899.386	3967.82
899.7	3986.35
900.015	3935.96
900.33	3911.1
900.644	3944.54
900.959	3938.44
901.273	3899.8
901.588	3875.62
901.902	3852.57
902.216	3865.45
902.531	3869.29
902.845	3903.41
903.159	3849.63
903.473	3797.88
903.787	3808.73
904.101	3800.37
904.415	3806.24
904.729	3762.4
905.042	3736.41
905.356	3744.55
905.67	3780.48
905.984	3742.51
906.297	3733.25
906.611	3694.83
906.924	3665
907.237	3679.92
907.551	3683.99
907.864	3632.91
908.177	3652.57
908.491	3631.56
908.804	3608.28
909.117	3590.65
909.43	3580.26
909.743	3566.02
910.056	3546.81
910.368	3547.27
910.681	3566.47
910.994	3553.14
911.307	3572.35
911.619	3548.85
911.932	3511.33
912.244	3467.04
912.557	3466.36
912.869	3441.73
913.181	3451.9
913.494	3453.93
913.806	3456.65
914.118	3422.52
914.43	3381.85
914.742	3422.97
915.054	3395.63
915.366	3390.89
915.678	3333.26
915.99	3350.66
916.302	3303.88
916.613	3310.66
916.925	3319.47
917.236	3309.53
917.548	3303.66
917.859	3289.65
918.171	3241.96
918.482	3273.37
918.794	3251.91
919.105	3234.51
919.416	3194.05
919.727	3203.77
920.038	3196.31
920.349	3189.08
920.66	3140.5
920.971	3197.44
921.282	3150.21
921.593	3133.49
921.903	3126.71
922.214	3134.62
922.525	3087.84
922.835	3087.84
923.146	3095.98
923.456	3050.56
923.767	3085.36
924.077	3078.8
924.387	3035.87
924.697	3040.16
925.008	3014.17
925.318	2993.16
925.628	2978.47
925.938	3002.87
926.248	2998.35
926.558	2958.13
926.867	2943.67
927.177	2935.3
927.487	2985.02
927.796	2965.36
928.106	2874.29
928.416	2917.9
928.725	2902.08
929.034	2855.98
929.344	2877.45
929.653	2864.35
929.962	2846.94
930.271	2795.87
930.581	2826.15
930.89	2804.69
931.199	2794.97
931.508	2782.54
931.817	2785.7
932.125	2738.02
932.434	2790
932.743	2745.48
933.051	2737.12
933.36	2704.35
933.669	2701.64
933.977	2739.83
934.286	2691.02
934.594	2718.81
934.902	2683.11
935.21	2670.23
935.519	2643.33
935.827	2625.48
936.135	2684.24
936.443	2632.26
936.751	2620.74
937.059	2637.23
937.367	2603.79
937.674	2637.23
937.982	2590
938.29	2593.39
938.597	2571.02
938.905	2549.78
939.213	2568.53
939.52	2514.98
939.827	2539.38
940.135	2557.69
940.442	2527.18
940.749	2539.38
941.056	2519.27
941.363	2472.04
941.67	2506.61
941.977	2496.45
942.284	2483.79
942.591	2485.37
942.898	2462.1
943.205	2427.52
943.511	2427.07
943.818	2408.31
944.125	2421.87
944.431	2426.17
944.738	2436.11
945.044	2418.26
945.35	2389.1
945.657	2336.45
945.963	2390.23
946.269	2353.62
946.575	2332.38
946.881	2340.07
947.187	2335.09
947.493	2326.05
947.799	2321.54
948.105	2300.29
948.41	2295.55
948.716	2286.51
949.022	2270.46
949.327	2285.38
949.633	2272.72
949.938	2259.39
950.244	2279.05
950.549	2259.62
950.854	2242.67
951.16	2230.24
951.465	2225.49
951.77	2204.02
952.075	2184.59
952.38	2206.96
952.685	2206.28
952.99	2187.98
953.294	2194.53
953.599	2138.49
953.904	2170.13
954.209	2122.22
954.513	2150.24
954.818	2122.22
955.122	2123.35
955.426	2141.88
955.731	2101.88
956.035	2112.05
956.339	2101.2
956.643	2104.82
956.948	2106.4
957.252	2085.61
957.556	2100.07
957.86	2026.85
958.163	2041.99
958.467	2050.13
958.771	2039.96
959.075	2050.36
959.378	2002.45
959.682	2003.58
959.985	1993.63
960.289	2031.37
960.592	1982.33
960.896	1993.86
961.199	1996.57
961.502	1929.68
961.805	1959.74
962.108	1940.75
962.411	1974.43
962.714	1926.07
963.017	1937.36
963.32	1946.63
963.623	1916.35
963.926	1943.47
964.228	1942.56
964.531	1905.27
964.833	1909.12
965.136	1895.11
965.438	1865.95
965.741	1866.18
966.043	1856.69
966.345	1849.01
966.648	1830.47
966.95	1855.56
967.252	1826.18
967.554	1850.81
967.856	1833.86
968.158	1851.72
968.46	1807.42
968.761	1807.42
969.063	1797.26
969.365	1783.47
969.666	1750.02
969.968	1781.66
970.269	1748.67
970.571	1769.46
970.872	1748.89
971.174	1744.15
971.475	1771.49
971.776	1762.45
972.077	1725.84
972.378	1737.6
972.679	1720.42
972.98	1714.32
973.281	1723.13
973.582	1671.83
973.883	1693.53
974.183	1677.48
974.484	1686.98
974.785	1689.46
975.085	1669.35
975.386	1695.34
975.686	1665.51
975.986	1621.89
976.287	1660.76
976.587	1635.23
976.887	1653.53
977.187	1636.36
977.487	1595
977.787	1612.4
978.087	1627.09
978.387	1605.62
978.687	1599.52
978.987	1593.87
979.286	1614.21
979.586	1592.29
979.885	1571.72
980.185	1596.36
980.484	1557.71
980.784	1595.23
981.083	1532.18
981.382	1573.08
981.682	1544.61
981.981	1534.89
982.28	1538.28
982.579	1513.42
982.878	1542.12
983.177	1529.69
983.475	1517.49
983.774	1525.62
984.073	1477.26
984.372	1468.68
984.67	1482.46
984.969	1489.24
985.267	1496.02
985.566	1483.82
985.864	1465.51
986.162	1488.11
986.461	1471.39
986.759	1444.04
987.057	1399.75
987.355	1439.75
987.653	1458.73
987.951	1409.47
988.249	1438.39
988.547	1415.34
988.844	1408.11
989.142	1431.61
989.44	1381.9
989.737	1416.7
990.035	1386.87
990.332	1366.31
990.63	1362.46
990.927	1379.64
991.224	1350.49
991.521	1346.42
991.819	1376.25
992.116	1337.15
992.413	1337.38
992.71	1317.04
993.006	1355.46
993.303	1345.52
993.6	1321.56
993.897	1351.62
994.193	1341
994.49	1310.26
994.787	1312.75
995.083	1319.08
995.379	1294.67
995.676	1333.09
995.972	1294.22
996.268	1273.88
996.565	1284.73
996.861	1282.69
997.157	1301.45
997.453	1279.3
997.749	1271.17
998.044	1270.49
998.34	1242.92
998.636	1248.79
998.932	1206.99
999.227	1255.8
999.523	1217.16
999.818	1227.78
1000.114	1193.43
1000.409	1222.58
1000.704	1208.8
1001	1197.5
1001.295	1191.62
1001.59	1173.77
1001.885	1168.8
1002.18	1187.1
1002.475	1169.02
1002.77	1170.38
1003.065	1186.2
1003.359	1185.07
1003.654	1148.68
1003.949	1159.98
1004.243	1138.52
1004.538	1124.05
1004.832	1112.3
1005.127	1129.02
1005.421	1121.79
1005.715	1132.19
1006.009	1128.8
1006.304	1111.62
1006.598	1081.79
1006.892	1089.48
1007.186	1115.24
1007.48	1098.52
1007.773	1082.47
1008.067	1087.44
1008.361	1072.08
1008.655	1075.92
1008.948	1082.02
1009.242	1061.23
1009.535	1077.27
1009.829	1020.1
1010.122	1035.69
1010.415	1038.86
1010.708	1012.19
1011.001	1043.15
1011.295	1018.74
1011.588	1030.72
1011.881	1019.87
1012.173	1020.33
1012.466	1013.77
1012.759	995.69
1013.052	995.24
1013.344	999.08
1013.637	971.97
1013.93	996.37
1014.222	971.74
1014.514	964.51
1014.807	950.95
1015.099	957.73
1015.391	965.19
1015.683	967.45
1015.976	945.75
1016.268	940.78
1016.56	908.92
1016.851	922.7
1017.143	958.18
1017.435	936.94
1017.727	914.34
1018.018	923.15
1018.31	921.12
1018.602	889.48
1018.893	904.4
1019.185	896.26
1019.476	893.1
1019.767	875.92
1020.058	869.14
1020.35	901.69
1020.641	883.15
1020.932	875.47
1021.223	867.34
1021.514	865.3
1021.804	820.33
1022.095	836.6
1022.386	850.61
1022.677	864.4
1022.967	833.44
1023.258	842.25
1023.548	846.55
1023.839	836.83
1024.129	818.52
1024.419	813.55
1024.709	799.77
1025	838.18
1025.29	809.03
1025.58	810.61
1025.87	774.91
1026.16	781.24
1026.449	813.33
1026.739	788.02
1027.029	765.87
1027.319	766.77
1027.608	771.29
1027.898	757.96
1028.187	750.95
1028.477	768.58
1028.766	742.14
1029.055	769.26
1029.344	774.46
1029.634	724.06
1029.923	755.25
1030.212	733.55
1030.501	721.8
1030.79	711.18
1031.078	712.54
1031.367	723.16
1031.656	711.63
1031.945	697.62
1032.233	704.85
1032.522	678.87
1032.81	705.76
1033.099	694.01
1033.387	698.07
1033.675	687.68
1033.963	669.15
1034.251	681.13
1034.54	690.39
1034.828	663.27
1035.116	689.04
1035.403	685.65
1035.691	674.12
1035.979	642.48
1036.267	657.85
1036.554	658.53
1036.842	670.05
1037.129	626.44
1037.417	635.03
1037.704	661.92
1037.992	638.87
1038.279	649.26
1038.566	631.86
1038.853	631.86
1039.14	631.86
