Data from tablewood_brown_FLMS001491_027.txt Node
Date: Tue Feb 07 11:10:14 GMT 2017
User: dcchb
Spectrometer: FLMS00149
Trigger mode: 0
Integration Time (sec): 2.000000E-2
Scans to average: 10
Electric dark correction enabled: true
Nonlinearity correction enabled: false
Boxcar width: 0
XAxis mode: Wavelengths
Number of Pixels in Spectrum: 2048
>>>>>Begin Spectral Data<<<<<
341.393	-17.67
341.776	-17.67
342.16	-17.67
342.543	-53.83
342.927	-66.03
343.31	-70.55
343.693	-79.14
344.077	-63.32
344.46	-63.77
344.843	-49.31
345.226	-47.05
345.61	-50.21
345.993	-12.7
346.376	-7.95
346.759	-0.27
347.142	20.52
347.525	48.32
347.908	68.88
348.291	85.83
348.674	99.62
349.057	121.08
349.44	118.15
349.823	140.07
350.206	164.47
350.588	199.27
350.971	208.77
351.354	228.43
351.737	254.19
352.119	231.36
352.502	257.58
352.884	268.43
353.267	286.5
353.65	301.42
354.032	295.54
354.414	297.35
354.797	319.27
355.179	313.85
355.562	319.72
355.944	336.45
356.326	335.77
356.709	335.54
357.091	334.64
357.473	353.62
357.855	347.75
358.238	315.66
358.62	336.22
359.002	334.19
359.384	353.39
359.766	348.65
360.148	347.29
360.53	337.58
360.912	331.93
361.294	351.81
361.676	326.28
362.057	314.53
362.439	326.28
362.821	347.07
363.203	324.24
363.584	335.09
363.966	338.71
364.348	340.74
364.729	332.38
365.111	334.86
365.493	319.95
365.874	315.2
366.256	317.24
366.637	313.62
367.019	319.27
367.4	328.08
367.781	320.63
368.163	324.69
368.544	315.88
368.925	318.59
369.306	318.14
369.688	328.54
370.069	329.89
370.45	324.69
370.831	315.66
371.212	289.67
371.593	320.18
371.974	320.63
372.355	335.54
372.736	306.62
373.117	318.14
373.498	337.8
373.879	321.76
374.26	305.49
374.641	324.92
375.021	332.15
375.402	325.82
375.783	329.44
376.163	329.21
376.544	338.03
376.925	321.76
377.305	320.18
377.686	321.08
378.066	333.06
378.447	347.52
378.827	333.28
379.208	347.75
379.588	336.67
379.968	335.77
380.349	343
380.729	328.76
381.109	341.64
381.489	344.13
381.87	360.63
382.25	357.24
382.63	366.5
383.01	367.18
383.39	363.34
383.77	371.02
384.15	384.13
384.53	373.06
384.91	366.95
385.29	368.31
385.67	359.72
386.049	373.51
386.429	371.47
386.809	374.41
387.189	384.13
387.568	383.45
387.948	385.94
388.328	396.56
388.707	390.23
389.087	413.28
389.466	391.36
389.846	383.45
390.225	383.9
390.605	386.61
390.984	391.59
391.363	406.05
391.743	386.16
392.122	415.31
392.501	402.88
392.881	426.39
393.26	408.53
393.639	441.08
394.018	454.41
394.397	439.95
394.776	430.23
395.155	427.74
395.534	428.65
395.913	423.22
396.292	443.11
396.671	438.59
397.05	439.27
397.429	450.79
397.808	444.01
398.186	455.09
398.565	467.29
398.944	453.51
399.323	473.62
399.701	458.7
400.08	474.97
400.458	471.58
400.837	477.23
401.215	488.08
401.594	482.66
401.972	494.63
402.351	480.85
402.729	479.72
403.107	477.23
403.486	514.29
403.864	474.52
404.242	487.85
404.62	503
404.999	502.09
405.377	525.37
405.755	531.47
406.133	544.58
406.511	526.95
406.889	542.54
407.267	527.85
407.645	548.64
408.023	549.1
408.401	538.93
408.779	537.57
409.156	567.63
409.534	574.41
409.912	587.29
410.29	593.16
410.667	586.16
411.045	585.48
411.422	572.37
411.8	606.04
412.178	586.38
412.555	608.53
412.933	622.31
413.31	612.82
413.687	613.27
414.065	607.85
414.442	614.63
414.819	634.29
415.197	640.17
415.574	636.78
415.951	634.52
416.328	646.49
416.705	644.69
417.082	651.92
417.46	663.89
417.837	684.01
418.214	689.21
418.591	686.27
418.967	683.33
419.344	696.89
419.721	722.2
420.098	705.48
420.475	676.55
420.852	686.49
421.228	739.83
421.605	728.3
421.982	705.7
422.358	715.87
422.735	720.84
423.111	732.37
423.488	730.56
423.864	743.44
424.241	729.2
424.617	762.42
424.994	757.68
425.37	769.43
425.746	793.84
426.123	755.19
426.499	783.44
426.875	796.55
427.251	793.84
427.627	792.25
428.003	806.04
428.379	808.52
428.756	818.92
429.132	846.04
429.507	855.98
429.883	869.77
430.259	860.73
430.635	878.13
431.011	889.2
431.387	886.71
431.763	875.19
432.138	910.22
432.514	907.96
432.89	919.03
433.265	950.22
433.641	929.2
434.016	951.12
434.392	954.73
434.767	994.73
435.143	955.86
435.518	989.99
435.894	1007.61
436.269	1015.07
436.644	1019.37
437.02	1015.98
437.395	1049.65
437.77	1035.86
438.145	1066.37
438.52	1078.57
438.895	1080.61
439.271	1091.91
439.646	1123.32
440.021	1116.09
440.395	1108.86
440.77	1100.95
441.145	1144.33
441.52	1135.07
441.895	1115.86
442.27	1160.15
442.645	1144.79
443.019	1160.61
443.394	1170.32
443.769	1191.79
444.143	1208.29
444.518	1192.69
444.892	1185.46
445.267	1235.41
445.641	1214.61
446.016	1223.65
446.39	1243.09
446.764	1246.03
447.139	1238.34
447.513	1252.13
447.887	1260.04
448.262	1272.01
448.636	1282.86
449.01	1257.1
449.384	1273.82
449.758	1312.92
450.132	1326.02
450.506	1336.87
450.88	1328.06
451.254	1347.27
451.628	1353.82
452.002	1348.62
452.376	1381.39
452.75	1357.44
453.123	1380.26
453.497	1394.27
453.871	1432.46
454.244	1433.82
454.618	1452.12
454.992	1477.21
455.365	1472.69
455.739	1509.52
456.112	1523.08
456.486	1527.83
456.859	1533.93
457.232	1539.58
457.606	1533.48
457.979	1581.16
458.352	1607.37
458.725	1619.58
459.099	1620.03
459.472	1669.52
459.845	1680.14
460.218	1694.15
460.591	1689.63
460.964	1707.94
461.337	1736.41
461.71	1792.68
462.083	1808.72
462.456	1809.4
462.829	1827.25
463.201	1822.73
463.574	1878.78
463.947	1870.19
464.32	1914.71
464.692	1948.38
465.065	1978.66
465.438	1976.63
465.81	2011.88
466.183	2031.77
466.555	2079.45
466.928	2110.41
467.3	2094.82
467.672	2128.04
468.045	2177.53
468.417	2178.88
468.789	2197.64
469.161	2226.57
469.534	2273.57
469.906	2367.8
470.278	2360.12
470.65	2375.26
471.022	2439.89
471.394	2471.76
471.766	2522.6
472.138	2565.77
472.51	2608.02
472.882	2623.62
473.253	2666.1
473.625	2742.94
473.997	2797.4
474.369	2799.21
474.74	2847.57
475.112	2940.45
475.484	2989.94
475.855	3050.95
476.227	3064.06
476.598	3173.66
476.97	3219.76
477.341	3308.57
477.713	3339.76
478.084	3412.98
478.455	3440.09
478.827	3474.67
479.198	3611.84
479.569	3646.42
479.94	3768.9
480.311	3785.39
480.682	3866.75
481.053	3963.92
481.424	4045.5
481.795	4145.61
482.166	4143.35
482.537	4177.7
482.908	4350.8
483.279	4428.09
483.65	4476.68
484.021	4580.63
484.391	4634.19
484.762	4687.52
485.133	4753.05
485.503	4855.42
485.874	4906.72
486.244	4984.01
486.615	5087.73
486.985	5144.46
487.356	5254.06
487.726	5291.8
488.097	5434.39
488.467	5435.29
488.837	5521.39
489.207	5679.58
489.578	5691.33
489.948	5749.41
490.318	5818.56
490.688	5856.75
491.058	5945.56
491.428	6047.71
491.798	6127.48
492.168	6193.92
492.538	6257.87
492.908	6342.16
493.278	6422.16
493.648	6409.51
494.017	6477.98
494.387	6616.73
494.757	6645.66
495.126	6738.31
495.496	6770.18
495.866	6871.42
496.235	6926.56
496.605	6998.19
496.974	7022.6
497.344	7072.54
497.713	7096.95
498.082	7181.01
498.452	7257.39
498.821	7308.24
499.19	7315.47
499.559	7453.77
499.928	7458.74
500.298	7533.54
500.667	7557.27
501.036	7587.55
501.405	7635.46
501.774	7672.3
502.143	7788
502.512	7731.96
502.88	7935.34
503.249	7903.48
503.618	7967.43
503.987	8003.14
504.356	8136.01
504.724	8156.81
505.093	8216.92
505.462	8223.47
505.83	8298.72
506.199	8417.14
506.567	8501.43
506.936	8473.63
507.304	8600.64
507.672	8643.57
508.041	8686.73
508.409	8842.89
508.777	8869.78
509.145	8909.55
509.514	8947.74
509.882	9054.41
510.25	9043.56
510.618	9185.48
510.986	9148.19
511.354	9315.64
511.722	9366.94
512.09	9447.39
512.458	9462.08
512.826	9574.4
513.193	9613.72
513.561	9744.11
513.929	9794.95
514.297	9902.07
514.664	9964.44
515.032	10038.11
515.4	10147.49
515.767	10207.37
516.135	10281.5
516.502	10195.85
516.869	10429.29
517.237	10430.87
517.604	10485.56
517.972	10590.19
518.339	10690.07
518.706	10706.12
519.073	10885.32
519.44	10890.52
519.808	10977.07
520.175	11033.34
520.542	11164.86
520.909	11330.73
521.276	11337.51
521.643	11458.19
522.009	11572.99
522.376	11577.05
522.743	11734.56
523.11	11850.95
523.477	11972.98
523.843	11928.46
524.21	12129.13
524.577	12199.86
524.943	12384.26
525.31	12376.81
525.676	12503.13
526.043	12571.83
526.409	12684.6
526.776	12842.56
527.142	12915.32
527.508	12956.68
527.874	13000.07
528.241	13082.78
528.607	13160.29
528.973	13387.4
529.339	13375.88
529.705	13486.61
530.071	13592.37
530.437	13632.14
530.803	13845.7
531.169	13857.22
531.535	13859.93
531.901	13958.01
532.267	13929.76
532.632	14183.09
532.998	14192.8
533.364	14216.98
533.73	14290.2
534.095	14423.53
534.461	14403.19
534.826	14555.06
535.192	14543.3
535.557	14691.1
535.923	14679.12
536.288	14727.93
536.653	14875.72
537.019	14842.05
537.384	14901.03
537.749	14973.12
538.114	15101.71
538.479	15031.43
538.845	15133.8
539.21	15042.27
539.575	15302.15
539.94	15247.24
540.305	15368.37
540.67	15366.33
541.034	15440.23
541.399	15548.7
541.764	15660.56
542.129	15699.21
542.494	15750.05
542.858	15792.08
543.223	15871.63
543.587	15903.72
543.952	15857.85
544.316	15981.23
544.681	15932.42
545.045	16029.59
545.41	16156.82
545.774	16137.61
546.138	16173.77
546.503	16331.05
546.867	16312.98
547.231	16534.89
547.595	16504.38
547.959	16514.33
548.324	16555.23
548.688	16615.11
549.052	16698.28
549.416	16838.38
549.779	16950.47
550.143	16956.35
550.507	17024.82
550.871	17093.29
551.235	17106.17
551.599	17212.16
551.962	17391.36
552.326	17442.89
552.689	17618.25
553.053	17548.42
553.417	17554.07
553.78	17889.2
554.143	17854.4
554.507	18018.69
554.87	18109.31
555.234	18281.06
555.597	18274.05
555.96	18331.45
556.323	18483.54
556.686	18487.61
557.05	18745.23
557.413	18869.74
557.776	18901.16
558.139	19095.5
558.502	19107.03
558.865	19244.2
559.228	19411.65
559.59	19540.46
559.953	19661.14
560.316	19913.11
560.679	20049.37
561.041	20077.85
561.404	20222.25
561.767	20409.14
562.129	20442.36
562.492	20641.22
562.854	20749.24
563.217	20886.64
563.579	20994.66
563.941	21218.16
564.304	21356.68
564.666	21485.27
565.028	21541.76
565.39	21685.94
565.753	21974.52
566.115	22058.13
566.477	22170.67
566.839	22290.44
567.201	22451.12
567.563	22536.31
567.925	22805.91
568.287	22800.04
568.648	22997.77
569.01	23236.41
569.372	23398.21
569.734	23321.38
570.095	23760.91
570.457	23936.96
570.819	23986.9
571.18	24130.4
571.542	24331.52
571.903	24465.98
572.265	24548.46
572.626	24713.21
572.987	24900.55
573.349	24959.08
573.71	25152.97
574.071	25344.6
574.432	25640.19
574.794	25757.02
575.155	25761.31
575.516	25769.22
575.877	26107.97
576.238	26279.94
576.599	26262.32
576.96	26427.96
577.32	26561.75
577.681	26645.13
578.042	26814.85
578.403	26964.22
578.763	26941.85
579.124	27067.49
579.485	27223.2
579.845	27361.05
580.206	27391.33
580.566	27480.14
580.927	27564.66
581.287	27759.45
581.648	27699.12
582.008	28000.8
582.368	27965.78
582.728	28119.22
583.089	28093.68
583.449	28017.98
583.809	28183.85
584.169	28249.38
584.529	28229.27
584.889	28444.86
585.249	28417.97
585.609	28424.52
585.969	28603.05
586.329	28677.85
586.688	28596.95
587.048	28691.63
587.408	28640.11
587.768	28829.71
588.127	28739.31
588.487	28759.2
588.846	28970.72
589.206	28886.2
589.565	28985.18
589.925	29088.46
590.284	29010.95
590.643	29041.23
591.003	29169.13
591.362	29161
591.721	29204.61
592.08	29237.83
592.44	29322.8
592.799	29290.26
593.158	29322.58
593.517	29426.08
593.876	29271.5
594.235	29323.48
594.593	29354.89
594.952	29540.88
595.311	29402.35
595.67	29356.02
596.029	29600.76
596.387	29532.06
596.746	29677.37
597.104	29569.8
597.463	29544.04
597.822	29911.26
598.18	29685.5
598.538	29684.6
598.897	29815.9
599.255	29497.94
599.613	30116.45
599.972	29904.26
600.33	29861.77
600.688	29745.39
601.046	29909.91
601.404	29990.36
601.762	29928.89
602.12	29944.03
602.478	30144.48
602.836	30165.94
603.194	29982.67
603.552	30165.72
603.91	30017.93
604.268	30177.7
604.625	30123.01
604.983	30224.02
605.341	30084.36
605.698	30274.19
606.056	30348.54
606.413	30279.39
606.771	30358.48
607.128	30364.36
607.485	30133.18
607.843	30344.7
608.2	30524.8
608.557	30565.48
608.914	30411.59
609.272	30684.57
609.629	30638.25
609.986	30718.02
610.343	30663.11
610.7	30786.72
611.057	30683.67
611.414	30708.3
611.771	30751.92
612.127	30838.69
612.484	30889.31
612.841	30969.99
613.198	30902.87
613.554	30809.32
613.911	30986.04
614.267	31062.42
614.624	30931.35
614.98	30985.36
615.337	31249.53
615.693	31228.29
616.05	31129.08
616.406	31349.87
616.762	31157.1
617.118	31292.47
617.475	31346.48
617.831	31454.5
618.187	31475.51
618.543	31390.09
618.899	31678.22
619.255	31562.07
619.611	31415.63
619.967	31616.75
620.323	31652.68
620.678	31529.3
621.034	31529.07
621.39	31370.43
621.746	31394.16
622.101	31886.58
622.457	31644.78
622.812	31647.26
623.168	31916.41
623.523	31628.05
623.879	31798.9
624.234	31596.41
624.589	31657.2
624.945	31673.02
625.3	31708.73
625.655	31679.12
626.01	31733.81
626.365	31799.57
626.72	31678.22
627.075	31655.85
627.43	31774.72
627.785	31621.73
628.14	31728.61
628.495	31583.08
628.85	31519.13
629.205	31585.79
629.559	31722.97
629.914	31529.52
630.269	31541.73
630.623	31444.55
630.978	31513.25
631.332	31541.73
631.687	31483.2
632.041	31374.5
632.396	31513.93
632.75	31345.35
633.104	31381.96
633.459	31186.26
633.813	31314.61
634.167	31242.07
634.521	31215.41
634.875	31386.03
635.229	31308.96
635.583	31035.98
635.937	31046.82
636.291	31064
636.645	31070.78
636.999	30946.04
637.352	31097.22
637.706	30925.7
638.06	30881.18
638.413	30842.99
638.767	30781.52
639.121	30842.99
639.474	30687.29
639.828	30684.8
640.181	30737
640.534	30615.65
640.888	30641.64
641.241	30512.15
641.594	30617.01
641.947	30671.92
642.301	30514.18
642.654	30588.98
643.007	30546.5
643.36	30491.36
643.713	30430.12
644.066	30614.29
644.419	30380.18
644.771	30292.49
645.124	29945.16
645.477	29811.6
645.83	29786.07
646.182	29600.76
646.535	29511.95
646.888	29558.28
647.24	29386.08
647.593	29516.02
647.945	29461.56
648.298	29348.56
648.65	29304.72
649.002	29313.76
649.355	29420.65
649.707	29449.13
650.059	29508.11
650.411	29914.2
650.763	29881.43
651.115	30159.84
651.467	30051.82
651.819	30043.46
652.171	29956.68
652.523	30095.66
652.875	29932.05
653.227	29810.25
653.578	30046.4
653.93	30022.22
654.282	29856.35
654.633	29897.02
654.985	29871.71
655.337	29912.84
655.688	29911.04
656.039	30025.83
656.391	29663.13
656.742	29816.57
657.094	29639.18
657.445	29880.08
657.796	29707.2
658.147	29794.43
658.498	29744.94
658.849	29830.13
659.2	29703.81
659.551	29711.04
659.902	29814.99
660.253	29706.3
660.604	29734.54
660.955	29626.3
661.306	29700.42
661.656	29600.31
662.007	29655.22
662.358	29711.49
662.708	29580.65
663.059	29572.51
663.409	29539.07
663.76	29754.66
664.11	29723.24
664.461	29791.26
664.811	29672.62
665.161	29663.36
665.511	29569.35
665.862	29617.03
666.212	29751.94
666.562	29661.1
666.912	29610.25
667.262	29704.94
667.612	29673.98
667.962	29745.39
668.312	29628.11
668.662	29661.32
669.011	29462.69
669.361	29445.51
669.711	29471.73
670.06	29321.45
670.41	29473.31
670.76	29354.67
671.109	29516.24
671.459	29392.18
671.808	29463.36
672.157	29506.98
672.507	29298.4
672.856	29384.27
673.205	29306.31
673.554	29414.33
673.904	29229.47
674.253	29387.66
674.602	29159.87
674.951	28784.29
675.3	28786.32
675.649	29061.79
675.998	29053.66
676.346	29008.01
676.695	29142.02
677.044	28847.11
677.393	29066.09
677.741	29117.16
678.09	28982.02
678.438	28915.36
678.787	28874.23
679.135	29020.89
679.484	28736.6
679.832	28854.11
680.181	28666.1
680.529	28744.51
680.877	28613.89
681.225	28690.5
681.573	28854.57
681.922	28583.16
682.27	28539.32
682.618	28494.12
682.966	28361.02
683.314	28503.61
683.661	28394.69
684.009	28289.61
684.357	28200.57
684.705	28174.58
685.053	28231.76
685.4	28009.62
685.748	27924.42
686.095	27942.05
686.443	27875.16
686.79	27727.59
687.138	27712.9
687.485	27820.02
687.832	27616.86
688.18	27742.28
688.527	27461.16
688.874	27524.66
689.221	27420.48
689.568	27337.09
689.915	27327.37
690.262	27288.51
690.609	27126.7
690.956	27015.29
691.303	27072.69
691.65	26922.19
691.997	26987.5
692.344	26724.23
692.69	26750.89
693.037	26742.98
693.383	26489.88
693.73	26625.7
694.077	26496.66
694.423	26267.52
694.769	26394.29
695.116	26176.9
695.462	26143.45
695.808	26024.13
696.155	26084.7
696.501	25964.92
696.847	25855.55
697.193	25642
697.539	25869.33
697.885	25553.64
698.231	25329.69
698.577	25340.08
698.923	25432.74
699.269	25307.09
699.614	25133.99
699.96	25208.33
700.306	25049.69
700.651	25021.22
700.997	24865.97
701.342	24908.23
701.688	24707.56
702.033	24651.51
702.379	24612.64
702.724	24625.98
703.069	24546.43
703.415	24312.99
703.76	24306.66
704.105	24269.6
704.45	24162.49
704.795	23887.92
705.14	23954.81
705.485	24000.23
705.83	23948.71
706.175	23846.11
706.52	23755.94
706.865	23678.43
707.209	23556.4
707.554	23519.11
707.899	23658.77
708.243	23519.57
708.588	23426.91
708.932	23329.97
709.277	23214.26
709.621	23299.46
709.966	23079.12
710.31	23110.08
710.654	22922.52
710.998	22995.51
711.342	22996.19
711.687	22956.87
712.031	22818.34
712.375	22769.3
712.719	22744.9
713.063	22847.27
713.407	22761.17
713.75	22562.3
714.094	22751.22
714.438	22504.68
714.782	22478.46
715.125	22478.01
715.469	22557.78
715.812	22367.96
716.156	22260.16
716.499	22259.49
716.843	22287.96
717.186	22084.35
717.53	22130.45
717.873	22221.52
718.216	22155.31
718.559	22109.21
718.902	22021.53
719.246	22043.67
719.589	21915.31
719.932	21859.72
720.275	21890.91
720.617	21889.55
720.96	21967.74
721.303	21894.07
721.646	21998.7
721.989	21645.72
722.331	21768.65
722.674	21702.21
723.016	21826.5
723.359	21685.94
723.701	21644.59
724.044	21531.14
724.386	21476
724.729	21607.53
725.071	21436
725.413	21530.69
725.755	21499.51
726.097	21378.83
726.439	21426.51
726.782	21451.6
727.124	21460.18
727.465	21357.14
727.807	21371.6
728.149	21259.51
728.491	21254.09
728.833	21364.37
729.175	21229.91
729.516	21313.07
729.858	21213.19
730.199	21373.86
730.541	21241.43
730.882	21153.75
731.224	21316.69
731.565	21134.54
731.906	21177.48
732.248	21207.99
732.589	21148.55
732.93	21147.88
733.271	21123.92
733.612	21100.19
733.953	21127.76
734.294	21050.7
734.635	21071.95
734.976	21210.02
735.317	21056.58
735.658	20989.24
735.999	21143.36
736.339	21071.95
736.68	21074.88
737.021	20982.68
737.361	20963.25
737.702	21117.37
738.042	20973.64
738.383	21053.64
738.723	21094.32
739.063	21005.28
739.404	21093.87
739.744	21016.58
740.084	21050.25
740.424	21009.8
740.764	20949.46
741.104	21001.44
741.444	20894.55
741.784	20897.49
742.124	20928.45
742.464	20868.11
742.804	20824.72
743.143	20963.93
743.483	20896.36
743.823	20758.28
744.162	20820.88
744.502	20858.39
744.841	20824.04
745.181	20973.87
745.52	20787.21
745.86	20823.36
746.199	20721.67
746.538	20817.04
746.877	20879.41
747.216	20834.21
747.556	20652.75
747.895	20867.66
748.234	20635.57
748.573	20728.9
748.911	20658.85
749.25	20674.67
749.589	20577.72
749.928	20579.53
750.267	20753.31
750.605	20572.3
750.944	20706.53
751.283	20580.21
751.621	20617.04
751.96	20554.9
752.298	20401.46
752.636	20509.02
752.975	20510.83
753.313	20338.18
753.651	20454.56
753.989	20431.06
754.327	20392.64
754.666	20219.99
755.004	20276.71
755.342	20250.72
755.679	20229.71
756.017	20178.64
756.355	20242.59
756.693	20150.16
757.031	20177.73
757.368	20084.63
757.706	20084.4
758.044	19928.02
758.381	20015.25
758.719	19897.29
759.056	19939.77
759.394	19923.28
759.731	19782.26
760.068	19731.42
760.405	19695.48
760.743	19641.02
761.08	19609.16
761.417	19551.31
761.754	19460.91
762.091	19557.86
762.428	19419.33
762.765	19283.97
763.102	19404.42
763.438	19264.99
763.775	19245.55
764.112	19182.73
764.449	19219.79
764.785	19112
765.122	19028.84
765.458	18905.9
765.795	18987.71
766.131	18913.36
766.467	18756.53
766.804	18757.66
767.14	18723.76
767.476	18640.37
767.812	18516.08
768.148	18525.8
768.485	18476.08
768.821	18377.33
769.157	18418.23
769.492	18358.57
769.828	18306.82
770.164	18127.62
770.5	18113.61
770.836	18109.99
771.171	17928.07
771.507	17906.61
771.842	17798.36
772.178	17797.23
772.513	17752.49
772.849	17723.11
773.184	17535.32
773.519	17549.55
773.855	17499.38
774.19	17377.58
774.525	17408.54
774.86	17364.02
775.195	17317.69
775.53	17324.7
775.865	17193.86
776.2	17087.42
776.535	16978.49
776.87	16810.36
777.205	16898.95
777.539	16812.17
777.874	16893.07
778.209	16678.16
778.543	16703.02
778.878	16484.95
779.212	16531.27
779.547	16449.92
779.881	16449.69
780.215	16379.41
780.55	16419.19
780.884	16184.84
781.218	16189.36
781.552	16259.87
781.886	16094.9
782.22	16007.9
782.554	15917.96
782.888	15767
783.222	15750.28
783.556	15688.36
783.889	15660.11
784.223	15621.47
784.557	15588.7
784.89	15606.33
785.224	15437.29
785.557	15434.81
785.891	15370.63
786.224	15348.25
786.558	15361.36
786.891	15174.25
787.224	15123.18
787.557	15110.97
787.891	15097.87
788.224	15044.53
788.557	14982.39
788.89	15009.96
789.223	14985.78
789.556	14855.84
789.888	14842.73
790.221	14763.19
790.554	14662.17
790.887	14578.11
791.219	14576.52
791.552	14492.68
791.884	14494.27
792.217	14358
792.549	14252.46
792.882	14313.48
793.214	14209.98
793.546	14277.55
793.879	14169.3
794.211	14048.63
794.543	14141.96
794.875	14122.52
795.207	14133.82
795.539	13977.44
795.871	13921.17
796.203	13912.13
796.535	13833.27
796.867	13826.03
797.198	13713.5
797.53	13799.59
797.862	13690.67
798.193	13644.12
798.525	13556.66
798.856	13551.69
799.188	13396.44
799.519	13382.88
799.85	13322.77
800.182	13236.22
800.513	13261.76
800.844	13154.19
801.175	13210.01
801.506	13233.51
801.837	13141.76
802.168	13125.71
802.499	13019.05
802.83	13013.85
803.161	13018.15
803.491	12972.95
803.822	12970.92
804.153	12913.29
804.483	12815.21
804.814	12752.84
805.145	12771.37
805.475	12724.37
805.805	12752.84
806.136	12753.75
806.466	12680.75
806.796	12684.14
807.126	12607.31
807.457	12557.59
807.787	12493.64
808.117	12428.56
808.447	12439.86
808.777	12464.94
809.107	12315.34
809.436	12290.48
809.766	12345.17
810.096	12281.67
810.426	12194.89
810.755	12240.54
811.085	12138.4
811.414	12100.88
811.744	12042.58
812.073	12036.48
812.403	12028.57
812.732	11902.02
813.061	11959.42
813.39	11902.92
813.719	11871.51
814.049	11935.46
814.378	11809.82
814.707	11787.44
815.036	11798.29
815.365	11722.81
815.693	11627.45
816.022	11637.84
816.351	11582.7
816.68	11556.04
817.008	11615.02
817.337	11457.06
817.665	11464.74
817.994	11548.81
818.322	11495.25
818.651	11396.72
818.979	11370.05
819.307	11364.86
819.636	11373.22
819.964	11321.24
820.292	11343.16
820.62	11286.89
820.948	11325.08
821.276	11241.7
821.604	11301.36
821.932	11352.43
822.259	11395.14
822.587	11297.51
822.915	11259.77
823.243	11226.33
823.57	11218.65
823.898	11236.72
824.225	11255.93
824.553	11210.06
824.88	11152.21
825.207	11226.56
825.535	11245.54
825.862	11224.3
826.189	11289.38
826.516	11188.59
826.843	11251.19
827.17	11268.36
827.497	11248.02
827.824	11257.97
828.151	11269.94
828.478	11277.18
828.805	11243.5
829.131	11238.31
829.458	11186.33
829.785	11100.91
830.111	11141.36
830.438	11174.58
830.764	11175.93
831.09	11246.22
831.417	11155.6
831.743	11187.46
832.069	11158.08
832.395	11152.21
832.722	11168.7
833.048	11177.74
833.374	11099.78
833.7	11045.54
834.026	11145.65
834.351	11064.3
834.677	11095.03
835.003	11094.36
835.329	11109.04
835.654	11080.12
835.98	11013.45
836.306	11024.3
836.631	10997.63
836.956	10983.85
837.282	10995.6
837.607	10955.15
837.932	10930.29
838.258	10853.91
838.583	10912.67
838.908	10799.9
839.233	10883.29
839.558	10789.5
839.883	10827.47
840.208	10750.18
840.533	10746.79
840.858	10721.26
841.182	10759
841.507	10689.17
841.832	10657.98
842.156	10667.47
842.481	10655.95
842.805	10681.71
843.13	10646.46
843.454	10536.4
843.778	10546.8
844.103	10561.71
844.427	10509.74
844.751	10508.16
845.075	10486.24
845.399	10468.16
845.723	10349.97
846.047	10376.41
846.371	10265.45
846.695	10367.37
847.019	10209.86
847.343	10195.62
847.666	10112.91
847.99	10119.92
848.313	10083.08
848.637	9942.52
848.96	9929.19
849.284	9909.08
849.607	9945.23
849.931	9881.51
850.254	9791.11
850.577	9743.66
850.9	9707.05
851.223	9665.47
851.546	9670.66
851.869	9658.69
852.192	9652.59
852.515	9579.82
852.838	9504.34
853.161	9544.11
853.483	9453.49
853.806	9429.54
854.129	9402.87
854.451	9422.31
854.774	9284.23
855.096	9239.49
855.419	9278.81
855.741	9263.89
856.063	9187.06
856.385	9153.16
856.708	9096.22
857.03	9123.11
857.352	9130.57
857.674	9099.83
857.996	9032.04
858.318	8938.48
858.64	8964.47
858.961	8941.64
859.283	8917.01
859.605	8903.68
859.926	8881.31
860.248	8912.27
860.57	8833.85
860.891	8904.36
861.212	8765.15
861.534	8772.16
861.855	8767.41
862.176	8760.18
862.498	8734.87
862.819	8790.23
863.14	8682.67
863.461	8655.55
863.782	8618.94
864.103	8680.63
864.424	8600.41
864.745	8633.4
865.065	8594.76
865.386	8556.12
865.707	8614.19
866.027	8573.74
866.348	8447.42
866.668	8580.75
866.989	8514.76
867.309	8451.94
867.63	8473.18
867.95	8447.19
868.27	8414.43
868.59	8480.41
868.91	8448.1
869.23	8436.35
869.55	8398.15
869.87	8434.76
870.19	8384.6
870.51	8356.57
870.83	8388.44
871.15	8276.12
871.469	8306.63
871.789	8344.15
872.109	8292.62
872.428	8223.92
872.748	8262.11
873.067	8244.94
873.386	8228.67
873.706	8270.47
874.025	8231.83
874.344	8166.07
874.663	8231.61
874.982	8161.78
875.301	8149.8
875.62	8110.03
875.939	8088.33
876.258	8152.29
876.577	8110.03
876.896	8054.21
877.214	8073.19
877.533	8088.78
877.852	8126.52
878.17	8041.78
878.489	7985.96
878.807	8046.75
879.125	8028.45
879.444	7990.26
879.762	8031.16
880.08	7963.36
880.398	7917.72
880.716	7906.42
881.034	7931.05
881.352	7875.23
881.67	7878.17
881.988	7860.99
882.306	7886.3
882.624	7867.77
882.941	7811.05
883.259	7798.85
883.577	7773.31
883.894	7732.86
884.212	7745.29
884.529	7697.83
884.846	7702.35
885.164	7716.59
885.481	7627.55
885.798	7652.41
886.115	7594.56
886.432	7632.53
886.75	7565.63
887.067	7550.04
887.383	7518.18
887.7	7552.75
888.017	7510.04
888.334	7533.32
888.651	7441.8
888.967	7469.14
889.284	7479.76
889.6	7443.38
889.917	7389.82
890.233	7361.8
890.55	7360.22
890.866	7420.78
891.182	7314.79
891.498	7315.47
891.815	7282.7
892.131	7247
892.447	7224.4
892.763	7208.13
893.079	7188.47
893.395	7244.96
893.71	7190.73
894.026	7126.78
894.342	7090.84
894.657	7085.65
894.973	7025.99
895.289	7016.5
895.604	6997.06
895.92	6938.31
896.235	6933.79
896.55	6950.51
896.865	6922.04
897.181	6936.27
897.496	6948.02
897.811	6836.16
898.126	6863.05
898.441	6805.65
898.756	6814.47
899.071	6784.41
899.386	6800.46
899.7	6753.68
900.015	6720.46
900.33	6607.02
900.644	6633.23
900.959	6610.63
901.273	6618.99
901.588	6597.98
901.902	6549.84
902.216	6534.25
902.531	6560.69
902.845	6479.79
903.159	6447.7
903.473	6430.97
903.787	6386.68
904.101	6380.58
904.415	6379.68
904.729	6346.91
905.042	6266.91
905.356	6327.93
905.67	6255.61
905.984	6329.73
906.297	6203.41
906.611	6211.55
906.924	6183.98
907.237	6149.85
907.551	6186.24
907.864	6178.78
908.177	6149.17
908.491	6069.4
908.804	6049.74
909.117	6016.3
909.43	5999.12
909.743	5955.51
910.056	5894.72
910.368	5923.87
910.681	5928.39
910.994	5912.8
911.307	5869.86
911.619	5843.42
911.932	5810.2
912.244	5796.64
912.557	5781.95
912.869	5691.56
913.181	5775.85
913.494	5672.8
913.806	5705.8
914.118	5670.54
914.43	5629.19
914.742	5649.75
915.054	5617.21
915.366	5559.36
915.678	5525.01
915.99	5540.6
916.302	5469.87
916.613	5427.39
916.925	5459.7
917.236	5468.06
917.548	5423.09
917.859	5453.83
918.171	5399.82
918.482	5348.07
918.794	5344.9
919.105	5327.73
919.416	5282.98
919.727	5231.68
920.038	5249.99
920.349	5268.29
920.66	5231.23
920.971	5174.96
921.282	5140.84
921.593	5158.69
921.903	5127.96
922.214	5118.24
922.525	5072.82
922.835	5059.94
923.146	4997.34
923.456	5023.55
923.767	5051.12
924.077	4983.78
924.387	4991.24
924.697	4984.69
925.008	4935.87
925.318	4876.21
925.628	4922.31
925.938	4897.68
926.248	4850.45
926.558	4800.51
926.867	4747.86
927.177	4773.84
927.487	4743.79
927.796	4724.35
928.106	4685.48
928.416	4677.12
928.725	4659.27
929.034	4637.58
929.344	4650.68
929.653	4648.2
929.962	4567.3
930.271	4559.39
930.581	4528.43
930.89	4527.75
931.199	4538.37
931.508	4464.02
931.817	4540.4
932.125	4465.15
932.434	4443.68
932.743	4426.28
933.051	4408.88
933.36	4398.71
933.669	4345.83
933.977	4324.59
934.286	4333.18
934.594	4329.34
934.902	4268.55
935.21	4221.99
935.519	4262.9
935.827	4266.96
936.135	4238.26
936.443	4224.25
936.751	4157.81
937.059	4204.59
937.367	4122.34
937.674	4152.84
937.982	4126.63
938.29	4076.46
938.597	4076.69
938.905	4043.69
939.213	4063.13
939.52	4040.76
939.827	4024.48
940.135	3991.49
940.442	3987.65
940.749	3967.08
941.056	3966.41
941.363	3928.22
941.67	3899.52
941.977	3868.33
942.284	3866.52
942.591	3840.08
942.898	3825.39
943.205	3845.96
943.511	3812.06
943.818	3822.46
944.125	3763.25
944.431	3731.38
944.738	3726.64
945.044	3730.71
945.35	3685.06
945.657	3697.26
945.963	3718.05
946.269	3676.02
946.575	3686.41
946.881	3643.93
947.187	3617.72
947.493	3584.04
947.799	3570.71
948.105	3614.1
948.41	3571.16
948.716	3555.12
949.022	3563.93
949.327	3545.4
949.633	3539.75
949.938	3500.2
950.244	3504.95
950.549	3419.3
950.854	3467.44
951.16	3443.26
951.465	3413.65
951.77	3384.73
952.075	3437.38
952.38	3353.99
952.685	3375.24
952.99	3342.24
953.294	3300.21
953.599	3297.05
953.904	3275.8
954.209	3290.04
954.513	3269.02
954.818	3281.68
955.122	3249.36
955.426	3206.88
955.731	3192.64
956.035	3213.43
956.339	3238.74
956.643	3215.24
956.948	3163.04
957.252	3163.04
957.556	3156.71
957.86	3122.36
958.163	3147.67
958.467	3139.31
958.771	3074.68
959.075	3121.23
959.378	3083.72
959.682	3105.19
959.985	3032.19
960.289	2987
960.592	3005.53
960.896	3019.31
961.199	3005.08
961.502	2960.33
961.805	2951.29
962.108	2921.69
962.411	2934.57
962.714	2934.34
963.017	2904.06
963.32	2939.54
963.623	2889.15
963.926	2850.28
964.228	2857.51
964.531	2835.59
964.833	2835.59
965.136	2797.4
965.438	2831.3
965.741	2807.34
966.043	2814.8
966.345	2786.1
966.648	2770.05
966.95	2789.04
967.252	2749.04
967.554	2749.04
967.856	2750.17
968.158	2698.64
968.46	2706.55
968.761	2675.82
969.063	2691.41
969.365	2686.67
969.666	2651.64
969.968	2641.7
970.269	2664.75
970.571	2603.28
970.872	2630.62
971.174	2602.15
971.475	2607.57
971.776	2605.09
972.077	2572.32
972.378	2583.17
972.679	2559.21
972.98	2558.08
973.281	2534.35
973.582	2523.73
973.883	2492.55
974.183	2516.28
974.484	2477.18
974.785	2501.36
975.085	2454.13
975.386	2453.45
975.686	2452.77
975.986	2414.81
976.287	2411.42
976.587	2385.43
976.887	2415.94
977.187	2419.78
977.487	2405.09
977.787	2383.85
978.087	2368.03
978.387	2336.85
978.687	2350.63
978.987	2340.24
979.286	2354.02
979.586	2293.91
979.885	2294.59
980.185	2276.28
980.484	2307.24
980.784	2251.65
981.083	2269.73
981.382	2253.23
981.682	2276.28
981.981	2242.84
982.28	2241.48
982.579	2242.16
982.878	2221.82
983.177	2214.59
983.475	2191.76
983.774	2183.63
984.073	2189.05
984.372	2167.13
984.67	2184.98
984.969	2157.64
985.267	2125.33
985.566	2128.04
985.864	2116.51
986.162	2123.07
986.461	2133.69
986.759	2079.45
987.057	2070.19
987.355	2085.33
987.653	2046.23
987.951	2057.53
988.249	2038.1
988.547	2000.58
988.844	2044.2
989.142	2002.84
989.44	1992.45
989.737	1988.83
990.035	1996.06
990.332	1977.08
990.63	1956.29
990.927	1965.33
991.224	1960.58
991.521	1912.9
991.819	1943.18
992.116	1922.17
992.413	1913.58
992.71	1888.27
993.006	1898.44
993.303	1912.68
993.6	1879.68
993.897	1869.74
994.193	1906.57
994.49	1870.64
994.787	1840.59
995.083	1849.4
995.379	1811.66
995.676	1809.18
995.972	1816.41
996.268	1782.74
996.565	1779.35
996.861	1788.39
997.157	1797.42
997.453	1745.9
997.749	1762.85
998.044	1720.14
998.34	1745.45
998.636	1745.45
998.932	1764.66
999.227	1725.34
999.523	1705.9
999.818	1719.69
1000.114	1716.97
1000.409	1667.94
1000.704	1690.99
1001	1689.4
1001.295	1657.09
1001.59	1676.52
1001.885	1639.46
1002.18	1624.55
1002.475	1627.94
1002.77	1623.87
1003.065	1616.19
1003.359	1579.13
1003.654	1612.34
1003.949	1594.04
1004.243	1586.13
1004.538	1581.38
1004.832	1545.23
1005.127	1557.2
1005.421	1541.39
1005.715	1558.56
1006.009	1540.93
1006.304	1553.14
1006.598	1492.57
1006.892	1528.51
1007.186	1499.35
1007.48	1502.29
1007.773	1484.21
1008.067	1475.63
1008.361	1458.22
1008.655	1458.9
1008.948	1480.37
1009.242	1449.64
1009.535	1431.11
1009.829	1422.75
1010.122	1426.13
1010.415	1426.36
1010.708	1400.37
1011.001	1402.18
1011.295	1404.21
1011.588	1391.56
1011.881	1389.07
1012.173	1388.17
1012.466	1378.9
1012.759	1359.47
1013.052	1361.73
1013.344	1327.61
1013.637	1348.62
1013.93	1306.36
1014.222	1331.9
1014.514	1330.77
1014.807	1291
1015.099	1277.66
1015.391	1290.09
1015.683	1279.02
1015.976	1304.1
1016.268	1272.01
1016.56	1246.48
1016.851	1235.41
1017.143	1255.29
1017.435	1236.54
1017.727	1243.77
1018.018	1221.39
1018.31	1196.76
1018.602	1197.44
1018.893	1207.16
1019.185	1220.94
1019.476	1183.88
1019.767	1216.42
1020.058	1154.73
1020.35	1137.33
1020.641	1154.05
1020.932	1161.73
1021.223	1141.17
1021.514	1100.49
1021.804	1136.65
1022.095	1139.14
1022.386	1127.39
1022.677	1093.71
1022.967	1105.01
1023.258	1090.55
1023.548	1077.44
1023.839	1072.02
1024.129	1099.36
1024.419	1073.38
1024.709	1032.7
1025	1039.25
1025.29	1063.66
1025.58	1052.36
1025.87	1057.1
1026.16	1046.03
1026.449	1041.51
1026.739	1014.62
1027.029	1017.33
1027.319	1019.37
1027.608	1011.23
1027.898	1016.2
1028.187	991.8
1028.477	991.34
1028.766	980.95
1029.055	960.84
1029.344	985.92
1029.634	956.09
1029.923	956.77
1030.212	953.15
1030.501	961.51
1030.79	954.06
1031.078	931.91
1031.367	951.35
1031.656	905.02
1031.945	914.96
1032.233	899.14
1032.522	898.92
1032.81	908.41
1033.099	917
1033.387	888.75
1033.675	890.78
1033.963	848.07
1034.251	890.56
1034.54	865.47
1034.828	863.66
1035.116	851.46
1035.403	873.38
1035.691	844.23
1035.979	827.96
1036.267	831.12
1036.554	846.26
1036.842	831.12
1037.129	819.82
1037.417	828.86
1037.704	814.63
1037.992	822.76
1038.279	810.56
1038.566	791.58
1038.853	791.58
1039.14	791.58
