Data from tablewood_dark_bookshelf_FLMS001491_00024.txt Node
Date: Wed Feb 08 14:14:05 GMT 2017
User: dcchb
Spectrometer: FLMS00149
Trigger mode: 0
Integration Time (sec): 2.000000E-2
Scans to average: 10
Electric dark correction enabled: true
Nonlinearity correction enabled: false
Boxcar width: 0
XAxis mode: Wavelengths
Number of Pixels in Spectrum: 2048
>>>>>Begin Spectral Data<<<<<
341.393	-9.39
341.776	-9.39
342.16	-9.39
342.543	-47.81
342.927	-58.2
343.31	-65.21
343.693	-69.73
344.077	-53.69
344.46	-58.2
344.843	-49.62
345.226	-54.81
345.61	-39.9
345.993	-6.23
346.376	14.79
346.759	8.69
347.142	33.77
347.525	27.89
347.908	52.3
348.291	71.74
348.674	95.01
349.057	93.2
349.44	121.23
349.823	147.67
350.206	162.13
350.588	179.08
350.971	184.5
351.354	224.27
351.737	236.48
352.119	249.81
352.502	259.98
352.884	257.49
353.267	266.53
353.65	284.16
354.032	281
354.414	282.58
354.797	304.72
355.179	306.31
355.562	336.14
355.944	314.21
356.326	322.12
356.709	316.02
357.091	304.5
357.473	323.03
357.855	330.71
358.238	333.88
358.62	331.16
359.002	325.06
359.384	357.83
359.766	365.51
360.148	333.2
360.53	349.69
360.912	327.77
361.294	318.51
361.676	335.01
362.057	338.85
362.439	332.75
362.821	323.93
363.203	324.38
363.584	326.42
363.966	310.37
364.348	314.21
364.729	324.16
365.111	322.58
365.493	332.97
365.874	308.34
366.256	331.16
366.637	314.67
367.019	300.2
367.4	324.84
367.781	306.08
368.163	304.72
368.544	315.57
368.925	318.28
369.306	322.58
369.688	304.5
370.069	313.54
370.45	305.85
370.831	300.43
371.212	323.48
371.593	325.06
371.974	314.21
372.355	322.35
372.736	317.6
373.117	304.72
373.498	316.93
373.879	319.86
374.26	315.12
374.641	314.67
375.021	318.96
375.402	325.51
375.783	316.93
376.163	328.68
376.544	335.91
376.925	332.52
377.305	342.24
377.686	322.58
378.066	327.1
378.447	343.82
378.827	309.7
379.208	325.06
379.588	314.21
379.968	310.37
380.349	333.88
380.729	345.63
381.109	347.89
381.489	341.33
381.87	330.94
382.25	322.8
382.63	321.9
383.01	351.73
383.39	348.56
383.77	373.42
384.15	355.34
384.53	346.53
384.91	358.51
385.29	359.19
385.67	354.44
386.049	367.32
386.429	368.9
386.809	382.24
387.189	363.71
387.568	349.69
387.948	365.51
388.328	377.72
388.707	377.72
389.087	362.35
389.466	381.56
389.846	385.4
390.225	361.9
390.605	372.74
390.984	398.73
391.363	392.4
391.743	368
392.122	382.91
392.501	400.09
392.881	406.19
393.26	394.66
393.639	395.79
394.018	393.99
394.397	398.96
394.776	390.82
395.155	413.87
395.534	402.35
395.913	409.81
396.292	396.92
396.671	395.57
397.05	413.2
397.429	423.59
397.808	410.26
398.186	412.74
398.565	420.88
398.944	420.2
399.323	408
399.701	423.36
400.08	400.31
400.458	411.39
400.837	434.89
401.215	421.1
401.594	438.05
401.972	421.1
402.351	436.7
402.729	440.54
403.107	442.57
403.486	434.44
403.864	444.61
404.242	454.78
404.62	422.46
404.999	460.2
405.377	455
405.755	460.65
406.133	444.15
406.511	470.59
406.889	477.37
407.267	447.09
407.645	478.5
408.023	454.55
408.401	493.65
408.779	471.72
409.156	483.48
409.534	467.88
409.912	482.8
410.29	486.64
410.667	509.24
411.045	490.26
411.422	489.35
411.8	520.76
412.178	510.82
412.555	518.96
412.933	521.89
413.31	516.02
413.687	530.48
414.065	507.43
414.442	536.81
414.819	549.46
415.197	545.62
415.574	552.63
415.951	568.9
416.328	562.57
416.705	566.41
417.082	570.48
417.46	562.8
417.837	545.17
418.214	572.06
418.591	569.12
418.967	544.49
419.344	585.62
419.721	589.01
420.098	564.38
420.475	572.97
420.852	595.11
421.228	596.02
421.605	608.22
421.982	604.6
422.358	597.15
422.735	609.8
423.111	614.77
423.488	600.54
423.864	626.52
424.241	619.74
424.617	646.18
424.994	638.05
425.37	643.47
425.746	643.02
426.123	668.1
426.499	668.33
426.875	692.51
427.251	667.43
427.627	671.72
428.003	687.54
428.379	692.51
428.756	664.94
429.132	694.09
429.507	700.65
429.883	707.42
430.259	735.45
430.635	705.39
431.011	711.72
431.387	757.82
431.763	740.19
432.138	766.18
432.514	746.75
432.89	761.66
433.265	785.84
433.641	779.06
434.016	753.98
434.392	788.1
434.767	829
435.143	798.95
435.518	767.76
435.894	797.14
436.269	829.91
436.644	807.54
437.02	817.7
437.395	838.72
437.77	844.82
438.145	863.8
438.52	858.61
438.895	847.76
439.271	883.47
439.646	888.44
440.021	878.27
440.395	877.59
440.77	873.52
441.145	902.9
441.52	906.97
441.895	887.08
442.27	916.23
442.645	909.45
443.019	897.02
443.394	916.01
443.769	934.76
444.143	952.62
444.518	964.82
444.892	948.32
445.267	943.58
445.641	967.98
446.016	947.19
446.39	971.37
446.764	946.51
447.139	1001.43
447.513	981.54
447.887	975.89
448.262	993.29
448.636	1006.17
449.01	995.78
449.384	1001.43
449.758	1004.82
450.132	1015.67
450.506	1030.35
450.88	1010.47
451.254	1014.76
451.628	1038.94
452.002	1036.91
452.376	1058.6
452.75	1060.86
453.123	1062.67
453.497	1109.22
453.871	1068.55
454.244	1112.61
454.618	1105.38
454.992	1131.59
455.365	1132.27
455.739	1173.63
456.112	1180.18
456.486	1182.44
456.859	1171.82
457.232	1190.12
457.606	1196.45
457.979	1207.3
458.352	1215.89
458.725	1248.43
459.099	1271.7
459.472	1270.12
459.845	1281.87
460.218	1334.53
460.591	1304.47
460.964	1290.69
461.337	1346.05
461.71	1348.31
462.083	1360.52
462.456	1367.52
462.829	1376.11
463.201	1406.84
463.574	1371.14
463.947	1406.62
464.32	1432.15
464.692	1431.02
465.065	1466.73
465.438	1483.9
465.81	1500.17
466.183	1503.56
466.555	1539.04
466.928	1546.27
467.3	1523.45
467.672	1582.88
468.045	1639.38
468.417	1618.14
468.789	1642.09
469.161	1662.2
469.534	1690.22
469.906	1696.33
470.278	1716.44
470.65	1729.09
471.022	1720.51
471.394	1800.05
471.766	1760.5
472.138	1822.2
472.51	1850.45
472.882	1862.42
473.253	1874.85
473.625	1916.21
473.997	1979.26
474.369	1952.36
474.74	1984.23
475.112	2013.61
475.484	2059.71
475.855	2076.43
476.227	2116.65
476.598	2116.88
476.97	2178.12
477.341	2163.88
477.713	2226.71
478.084	2228.29
478.455	2302.41
478.827	2301.51
479.198	2346.48
479.569	2391
479.94	2449.53
480.311	2467.83
480.682	2503.31
481.053	2512.35
481.424	2590.09
481.795	2619.47
482.166	2637.09
482.537	2662.4
482.908	2732
483.279	2718.67
483.65	2776.75
484.021	2840.25
484.391	2875.5
484.762	2882.51
485.133	2904.88
485.503	2955.73
485.874	3013.35
486.244	3059.45
486.615	3130.19
486.985	3136.06
487.356	3169.51
487.726	3226.68
488.097	3252.67
488.467	3282.5
488.837	3309.16
489.207	3361.37
489.578	3375.6
489.948	3454.47
490.318	3468.48
490.688	3478.43
491.058	3517.75
491.428	3591.64
491.798	3601.81
492.168	3695.59
492.538	3696.72
492.908	3732.88
493.278	3798.42
493.648	3797.29
494.017	3839.77
494.387	3840
494.757	3890.62
495.126	3936.94
495.496	3958.19
495.866	3976.72
496.235	4011.29
496.605	4016.72
496.974	4093.78
497.344	4119.09
497.713	4132.87
498.082	4181.01
498.452	4248.12
498.821	4266.88
499.19	4217.39
499.559	4287.22
499.928	4349.82
500.298	4343.26
500.667	4390.27
501.036	4407.21
501.405	4465.74
501.774	4470.72
502.143	4496.03
502.512	4512.07
502.88	4510.04
503.249	4558.17
503.618	4583.26
503.987	4612.18
504.356	4639.75
504.724	4711.61
505.093	4689.69
505.462	4742.8
505.83	4772.85
506.199	4746.64
506.567	4877.03
506.936	4846.75
507.304	4921.33
507.672	4926.75
508.041	5003.58
508.409	5002.68
508.777	5052.17
509.145	5064.37
509.514	5076.58
509.882	5071.6
510.25	5126.07
510.618	5103.47
510.986	5202.67
511.354	5285.16
511.722	5248.55
512.09	5359.51
512.458	5291.94
512.826	5380.3
513.193	5410.35
513.561	5394.76
513.929	5487.64
514.297	5532.61
514.664	5541.2
515.032	5598.37
515.4	5640.4
515.767	5656
516.135	5718.82
516.502	5691.7
516.869	5782.32
517.237	5808.08
517.604	5832.04
517.972	5868.87
518.339	5970.34
518.706	5912.94
519.073	6003.1
519.44	5974.63
519.808	6084.46
520.175	6120.62
520.542	6175.3
520.909	6203.1
521.276	6237.9
521.643	6293.49
522.009	6302.98
522.376	6347.73
522.743	6425.69
523.11	6450.1
523.477	6500.94
523.843	6538.23
524.21	6596.76
524.577	6702.07
524.943	6646.93
525.31	6721.5
525.676	6786.59
526.043	6799.24
526.409	6898.9
526.776	6985.68
527.142	7062.06
527.508	7023.42
527.874	7114.26
528.241	7136.63
528.607	7144.77
528.973	7180.25
529.339	7206.92
529.705	7341.6
530.071	7349.06
530.437	7395.16
530.803	7420.24
531.169	7461.82
531.535	7470.64
531.901	7482.39
532.267	7539.11
532.632	7592.22
532.998	7625.44
533.364	7747.69
533.73	7732.32
534.095	7763.96
534.461	7844.19
534.826	7875.37
535.192	7899.78
535.557	7972.09
535.923	7944.97
536.288	7984.07
536.653	8034.92
537.019	8002.15
537.384	8038.98
537.749	8134.35
538.114	8112.2
538.479	8165.99
538.845	8175.25
539.21	8198.98
539.575	8205.53
539.94	8270.84
540.305	8328.02
540.67	8280.56
541.034	8330.5
541.399	8414.57
541.764	8421.12
542.129	8461.12
542.494	8429.03
542.858	8544.28
543.223	8494.56
543.587	8582.92
543.952	8568.01
544.316	8622.02
544.681	8646.65
545.045	8630.61
545.41	8786.53
545.774	8783.6
546.138	8774.33
546.503	8848.68
546.867	8807.32
547.231	8875.35
547.595	8898.62
547.959	8936.59
548.324	8952.41
548.688	8942.69
549.052	9037.15
549.416	9058.17
549.779	9088.22
550.143	9095
550.507	9165.06
550.871	9173.87
551.235	9140.65
551.599	9285.05
551.962	9318.5
552.326	9328.67
552.689	9371.6
553.053	9347.42
553.417	9386.52
553.78	9590.36
554.143	9494.09
554.507	9558.04
554.87	9573.41
555.234	9624.03
555.597	9601.43
555.96	9744.48
556.323	9733.85
556.686	9735.21
557.05	9860.4
557.413	9902.21
557.776	9965.94
558.139	9924.81
558.502	9994.64
558.865	10058.82
559.228	10086.16
559.59	10127.06
559.953	10193.28
560.316	10268.3
560.679	10240.96
561.041	10351.01
561.404	10454.51
561.767	10440.5
562.129	10499.94
562.492	10498.58
562.854	10563.66
563.217	10555.08
563.579	10671.46
563.941	10644.11
564.304	10683.66
564.666	10923.65
565.028	10909.42
565.39	10931.11
565.753	10986.7
566.115	11010.2
566.477	11040.49
566.839	11167.49
567.201	11255.4
567.563	11230.99
567.925	11274.6
568.287	11300.59
568.648	11328.61
569.01	11402.74
569.372	11541.49
569.734	11382.17
570.095	11609.06
570.457	11680.92
570.819	11722.05
571.18	11713.69
571.542	11801.14
571.903	11878.66
572.265	11880.69
572.626	11989.39
572.987	11967.69
573.349	12048.37
573.71	12067.35
574.071	12084.3
574.432	12248.82
574.794	12322.94
575.155	12382.37
575.516	12237.74
575.877	12389.38
576.238	12426.44
576.599	12481.58
576.96	12430.28
577.32	12500.56
577.681	12514.8
578.042	12607.45
578.403	12618.3
578.763	12631.18
579.124	12731.74
579.485	12809.25
579.845	12859.65
580.206	12839.31
580.566	12841.57
580.927	12896.03
581.287	12941.68
581.648	12890.83
582.008	13065.97
582.368	13002.92
582.728	13030.49
583.089	13076.14
583.449	13100.55
583.809	13089.92
584.169	13157.04
584.529	13129.47
584.889	13303.93
585.249	13189.36
585.609	13174.67
585.969	13445.62
586.329	13225.29
586.688	13310.71
587.048	13385.06
587.408	13315.23
587.768	13417.37
588.127	13343.02
588.487	13413.76
588.846	13540.31
589.206	13437.71
589.565	13500.76
589.925	13577.14
590.284	13500.08
590.643	13622.79
591.003	13681.77
591.362	13700.53
591.721	13758.16
592.08	13682.9
592.44	13755.67
592.799	13754.99
593.158	13704.37
593.517	13763.8
593.876	13791.6
594.235	13858.04
594.593	13777.36
594.952	13851.49
595.311	13853.29
595.67	13827.98
596.029	13899.39
596.387	13934.65
596.746	14021.43
597.104	14021.65
597.463	13999.05
597.822	14112.95
598.18	14073.4
598.538	14026.4
598.897	14110.24
599.255	14001.76
599.613	14253.51
599.972	14193.4
600.33	14258.71
600.688	14147.52
601.046	14155.43
601.404	14345.03
601.762	14208.09
602.12	14257.35
602.478	14362.21
602.836	14356.11
603.194	14368.76
603.552	14355.43
603.91	14301.64
604.268	14490.57
604.625	14359.5
604.983	14439.27
605.341	14416.22
605.698	14467.29
606.056	14506.16
606.413	14530.11
606.771	14537.57
607.128	14636.78
607.485	14517.01
607.843	14518.14
608.2	14641.3
608.557	14703.22
608.914	14618.47
609.272	14772.59
609.629	14724.23
609.986	14846.04
610.343	14810.1
610.7	14949.54
611.057	14777.34
611.414	14813.27
611.771	14902.53
612.127	14926.03
612.484	14969.65
612.841	15008.29
613.198	14926.49
613.554	15017.33
613.911	15088.97
614.267	15056.43
614.624	14984.34
614.98	15015.75
615.337	15165.35
615.693	15192.92
616.05	15104.33
616.406	15211.45
616.762	15225.91
617.118	15232.92
617.475	15162.86
617.831	15268.17
618.187	15234.95
618.543	15194.95
618.899	15354.72
619.255	15308.17
619.611	15309.53
619.967	15359.7
620.323	15410.77
620.678	15321.28
621.034	15333.48
621.39	15296.65
621.746	15346.36
622.101	15509.97
622.457	15397.21
622.812	15403.99
623.168	15381.39
623.523	15418.68
623.879	15537.32
624.234	15436.08
624.589	15354.27
624.945	15404.21
625.3	15481.5
625.655	15547.49
626.01	15439.47
626.365	15537.32
626.72	15415.06
627.075	15502.52
627.43	15481.05
627.785	15486.7
628.14	15528.28
628.495	15601.04
628.85	15456.87
629.205	15459.35
629.559	15530.31
629.914	15427.72
630.269	15474.72
630.623	15400.15
630.978	15407.83
631.332	15439.01
631.687	15485.79
632.041	15453.25
632.396	15459.35
632.75	15359.47
633.104	15383.88
633.459	15269.53
633.813	15375.97
634.167	15281.73
634.521	15270.66
634.875	15303.88
635.229	15251
635.583	15217.55
635.937	15289.19
636.291	15186.37
636.645	15223.2
636.999	15174.16
637.352	15169.64
637.706	15128.06
638.06	15183.88
638.413	15119.25
638.767	15138.68
639.121	15124.67
639.474	15091
639.828	15124.9
640.181	15036.09
640.534	15169.19
640.888	15072.02
641.241	14964.68
641.594	15025.47
641.947	15071.79
642.301	14995.64
642.654	14996.99
643.007	14971
643.36	14980.72
643.713	14953.6
644.066	15110.21
644.419	14945.47
644.771	14842.87
645.124	14644.69
645.477	14718.13
645.83	14586.16
646.182	14546.38
646.535	14505.25
646.888	14511.36
647.24	14499.38
647.593	14564.01
647.945	14557.91
648.298	14474.75
648.65	14422.77
649.002	14373.51
649.355	14530.34
649.707	14453.28
650.059	14492.6
650.411	14642.88
650.763	14670
651.115	14892.36
651.467	14761.74
651.819	14691.69
652.171	14635.65
652.523	14666.83
652.875	14747.28
653.227	14637.45
653.578	14732.37
653.93	14698.24
654.282	14622.99
654.633	14652.59
654.985	14704.35
655.337	14686.72
655.688	14659.6
656.039	14678.36
656.391	14591.13
656.742	14612.14
657.094	14702.54
657.445	14680.16
657.796	14636.32
658.147	14612.14
658.498	14652.59
658.849	14602.88
659.2	14639.26
659.551	14532.15
659.902	14645.14
660.253	14740.95
660.604	14652.37
660.955	14638.81
661.306	14719.71
661.656	14587.96
662.007	14553.39
662.358	14568.53
662.708	14624.12
663.059	14594.07
663.409	14529.66
663.76	14662.09
664.11	14684.68
664.461	14582.31
664.811	14611.92
665.161	14531.69
665.511	14614.63
665.862	14564.24
666.212	14649.21
666.562	14663.67
666.912	14573.28
667.262	14532.82
667.612	14542.77
667.962	14664.12
668.312	14591.35
668.662	14694.85
669.011	14646.49
669.361	14653.05
669.711	14527.17
670.06	14606.04
670.41	14555.2
670.76	14547.51
671.109	14571.92
671.459	14498.7
671.808	14500.73
672.157	14601.52
672.507	14454.86
672.856	14545.93
673.205	14520.17
673.554	14648.53
673.904	14524.46
674.253	14590.68
674.602	14536.21
674.951	14359.27
675.3	14285.15
675.649	14525.37
675.998	14469.1
676.346	14483.56
676.695	14594.07
677.044	14438.82
677.393	14481.07
677.741	14460.06
678.09	14432.49
678.438	14432.71
678.787	14459.15
679.135	14484.69
679.484	14301.87
679.832	14352.94
680.181	14341.87
680.529	14430
680.877	14356.78
681.225	14267.97
681.573	14329.44
681.922	14354.98
682.27	14251.25
682.618	14236.79
682.966	14222.55
683.314	14247.41
683.661	14110.01
684.009	14188.65
684.357	14112.72
684.705	14080.63
685.053	14129.22
685.4	14082.67
685.748	13996.57
686.095	13987.08
686.443	13990.24
686.79	13961.99
687.138	13920.41
687.485	13994.76
687.832	13908.43
688.18	13891.03
688.527	13846.74
688.874	13921.31
689.221	13808.32
689.568	13840.19
689.915	13800.87
690.262	13740.75
690.609	13721.77
690.956	13702.56
691.303	13722.9
691.65	13551.83
691.997	13652.17
692.344	13597.48
692.69	13557.93
693.037	13572.4
693.383	13427.54
693.73	13425.96
694.077	13412.4
694.423	13444.04
694.769	13325.62
695.116	13374.21
695.462	13336.92
695.808	13263.03
696.155	13274.55
696.501	13223.93
696.847	13245.85
697.193	13023.71
697.539	13156.59
697.885	13152.97
698.231	13039.76
698.577	13003.82
698.923	13003.37
699.269	12967.89
699.614	12972.64
699.96	12816.26
700.306	12883.6
700.651	12812.19
700.997	12682.25
701.342	12762.25
701.688	12688.13
702.033	12635.02
702.379	12728.35
702.724	12594.8
703.069	12669.6
703.415	12544.63
703.76	12559.99
704.105	12461.69
704.45	12533.55
704.795	12434.12
705.14	12397.51
705.485	12430.28
705.83	12415.82
706.175	12373.11
706.52	12281.36
706.865	12273.22
707.209	12195.03
707.554	12239.33
707.899	12247.69
708.243	12171.53
708.588	12158.65
708.932	12124.3
709.277	12081.36
709.621	12160.01
709.966	12027.35
710.31	12038.88
710.654	11988.26
710.998	12024.87
711.342	11906.23
711.687	11896.28
712.031	11891.99
712.375	11884.76
712.719	11904.42
713.063	11907.81
713.407	11931.76
713.75	11828.04
714.094	11880.69
714.438	11804.76
714.782	11735.84
715.125	11730.86
715.469	11825.55
715.812	11757.08
716.156	11670.53
716.499	11678.44
716.843	11693.58
717.186	11606.12
717.53	11614.03
717.873	11694.71
718.216	11578.55
718.559	11628.49
718.902	11512.34
719.246	11598.21
719.589	11499.91
719.932	11487.48
720.275	11492.23
720.617	11461.94
720.96	11484.54
721.303	11484.99
721.646	11476.86
721.989	11395.96
722.331	11450.19
722.674	11433.24
723.016	11475.05
723.359	11369.29
723.701	11385.79
724.044	11381.72
724.386	11327.48
724.729	11290.88
725.071	11351.89
725.413	11313.02
725.755	11277.99
726.097	11259.92
726.439	11120.48
726.782	11172.01
727.124	11335.17
727.465	11210.65
727.807	11259.69
728.149	11203.87
728.491	11165.68
728.833	11189.41
729.175	11139.69
729.516	11197.09
729.858	11090.43
730.199	11182.86
730.541	11167.71
730.882	11170.43
731.224	11144.21
731.565	11096.53
731.906	11109.19
732.248	11124.33
732.589	11070.09
732.93	11071.9
733.271	11001.62
733.612	11016.08
733.953	11025.8
734.294	11029.64
734.635	11011.11
734.976	11012.01
735.317	11007.27
735.658	10983.54
735.999	11015.63
736.339	10953.26
736.68	10996.87
737.021	10969.98
737.361	10985.12
737.702	10983.09
738.042	10935.86
738.383	10988.28
738.723	11001.62
739.063	10885.46
739.404	10984.44
739.744	10953.94
740.084	10913.94
740.424	10890.89
740.764	10903.99
741.104	10958.23
741.444	10896.08
741.784	10898.8
742.124	10909.64
742.464	10870.55
742.804	10873.26
743.143	10788.97
743.483	10841.4
743.823	10780.15
744.162	10815.86
744.502	10877.55
744.841	10851.56
745.181	10838.46
745.52	10824.9
745.86	10816.09
746.199	10770.44
746.538	10745.35
746.877	10803.66
747.216	10825.8
747.556	10730.66
747.895	10796.65
748.234	10746.26
748.573	10685.47
748.911	10727.27
749.25	10737.67
749.589	10633.72
749.928	10735.41
750.267	10714.17
750.605	10673.72
750.944	10666.71
751.283	10656.99
751.621	10701.51
751.96	10673.72
752.298	10613.61
752.636	10642.53
752.975	10550.1
753.313	10557.34
753.651	10582.19
753.989	10556.66
754.327	10532.93
754.666	10446.6
755.004	10499.48
755.342	10446.6
755.679	10487.51
756.017	10442.76
756.355	10433.04
756.693	10382.65
757.031	10386.04
757.368	10372.26
757.706	10369.09
758.044	10354.4
758.381	10318.47
758.719	10360.28
759.056	10293.84
759.394	10315.53
759.731	10125.03
760.068	10193.96
760.405	10130.23
760.743	10135.65
761.08	10151.02
761.417	10084.13
761.754	10039.16
762.091	10037.35
762.428	10112.6
762.765	10060.4
763.102	10033.96
763.438	9855.43
763.775	9904.02
764.112	9896.79
764.449	9826.96
764.785	9882.1
765.122	9818.15
765.458	9753.51
765.795	9805.49
766.131	9732.95
766.467	9718.26
766.804	9619.05
767.14	9581.09
767.476	9584.48
767.812	9536.12
768.148	9630.81
768.485	9469.68
768.821	9471.49
769.157	9445.05
769.492	9463.58
769.828	9474.2
770.164	9363.92
770.5	9316.24
770.836	9292.51
771.171	9238.73
771.507	9230.36
771.842	9212.51
772.178	9172.97
772.513	9115.34
772.849	9088
773.184	9068.56
773.519	9071.27
773.855	8996.47
774.19	8975
774.525	8894.33
774.86	8888.45
775.195	8865.18
775.53	8875.8
775.865	8818.85
776.2	8749.7
776.535	8730.26
776.87	8658.63
777.205	8742.92
777.539	8643.26
777.874	8702.24
778.209	8557.61
778.543	8582.47
778.878	8569.37
779.212	8551.29
779.547	8485.98
779.881	8512.19
780.215	8418.63
780.55	8470.38
780.884	8383.83
781.218	8323.72
781.552	8330.28
781.886	8295.7
782.22	8275.14
782.554	8245.31
782.888	8148.13
783.222	8154.46
783.556	8112.65
783.889	8171.64
784.223	8057.51
784.557	8001.7
784.89	7993.34
785.224	7977.52
785.557	7986.33
785.891	7921.02
786.224	7947.46
786.558	7873.79
786.891	7792.21
787.224	7744.75
787.557	7801.7
787.891	7800.35
788.224	7744.53
788.557	7794.7
788.89	7755.38
789.223	7720.12
789.556	7652.55
789.888	7626.57
790.221	7574.36
790.554	7524.87
790.887	7522.39
791.219	7494.14
791.552	7435.61
791.884	7446.46
792.217	7405.78
792.549	7375.27
792.882	7352.22
793.214	7316.52
793.546	7348.83
793.879	7338.21
794.211	7210.76
794.543	7313.13
794.875	7273.81
795.207	7244.65
795.539	7194.71
795.871	7199.23
796.203	7162.62
796.535	7100.03
796.867	7070.42
797.198	7111.78
797.53	7049.63
797.862	6990.42
798.193	6976.86
798.525	6960.14
798.856	7000.37
799.188	6920.14
799.519	6884.66
799.85	6872.46
800.182	6865.68
800.513	6863.42
800.844	6802.86
801.175	6815.74
801.506	6838.79
801.837	6734.39
802.168	6743.65
802.499	6738.9
802.83	6669.3
803.161	6740.26
803.491	6692.58
803.822	6646.93
804.153	6629.08
804.483	6561.96
804.814	6494.62
805.145	6560.83
805.475	6520.38
805.805	6469.99
806.136	6460.95
806.466	6448.52
806.796	6451
807.126	6432.92
807.457	6393.83
807.787	6429.76
808.117	6406.71
808.447	6378.91
808.777	6390.21
809.107	6329.65
809.436	6301.63
809.766	6319.03
810.096	6317.67
810.426	6238.8
810.755	6258.69
811.085	6216.21
811.414	6227.73
811.744	6197.9
812.073	6183.44
812.403	6242.19
812.732	6176.21
813.061	6129.43
813.39	6145.93
813.719	6082.65
814.049	6127.4
814.378	6099.83
814.707	6035.65
815.036	6036.55
815.365	6029.77
815.693	5949.77
816.022	6018.25
816.351	6007.4
816.68	5937.57
817.008	5926.5
817.337	5940.06
817.665	5861.19
817.994	5946.84
818.322	5928.3
818.651	5849.66
818.979	5865.48
819.307	5863.67
819.636	5825.03
819.964	5793.39
820.292	5796.78
820.62	5752.26
820.948	5798.82
821.276	5755.2
821.604	5775.77
821.932	5764.92
822.259	5812.83
822.587	5796.1
822.915	5783
823.243	5819.83
823.57	5857.35
823.898	5818.25
824.225	5823.67
824.553	5748.2
824.88	5750.46
825.207	5793.84
825.535	5754.07
825.862	5789.55
826.189	5757.69
826.516	5779.83
826.843	5809.44
827.17	5801.3
827.497	5763.11
827.824	5795.65
828.151	5752.26
828.478	5761.76
828.805	5750.46
829.131	5792.94
829.458	5726.73
829.785	5739.16
830.111	5743.22
830.438	5722.21
830.764	5732.15
831.09	5727.41
831.417	5740.29
831.743	5761.98
832.069	5739.16
832.395	5707.97
832.722	5691.7
833.048	5700.06
833.374	5721.08
833.7	5675.88
834.026	5621.65
834.351	5675.66
834.677	5660.52
835.003	5711.81
835.329	5619.61
835.654	5637.01
835.98	5666.39
836.306	5741.42
836.631	5669.33
836.956	5627.97
837.282	5588.65
837.607	5608.54
837.932	5572.61
838.258	5604.92
838.583	5603.12
838.908	5578.26
839.233	5573.29
839.558	5548.2
839.883	5522.89
840.208	5585.26
840.533	5535.32
840.858	5538.03
841.182	5506.62
841.507	5441.09
841.832	5476.11
842.156	5456
842.481	5472.05
842.805	5465.72
843.13	5427.07
843.454	5419.84
843.778	5403.57
844.103	5423.69
844.427	5401.09
844.751	5345.27
845.075	5410.35
845.399	5421.43
845.723	5354.08
846.047	5365.16
846.371	5333.29
846.695	5289.68
847.019	5239.96
847.343	5224.14
847.666	5245.84
847.99	5211.94
848.313	5173.3
848.637	5151.38
848.96	5124.48
849.284	5157.93
849.607	5136.46
849.931	5091.04
850.254	5028.67
850.577	5002.68
850.9	5001.32
851.223	4964.71
851.546	4990.02
851.869	4986.63
852.192	4976.01
852.515	4934.66
852.838	4928.1
853.161	4891.72
853.483	4917.03
853.806	4821.89
854.129	4904.83
854.451	4872.97
854.774	4799.97
855.096	4860.99
855.419	4802.01
855.741	4791.84
856.063	4766.75
856.385	4764.72
856.708	4752.06
857.03	4752.97
857.352	4777.83
857.674	4682.46
857.996	4722.01
858.318	4700.31
858.64	4631.39
858.961	4640.65
859.283	4644.5
859.605	4624.84
859.926	4616.7
860.248	4589.58
860.57	4602.46
860.891	4597.04
861.212	4555.91
861.534	4524.95
861.855	4544.39
862.176	4560.88
862.498	4573.54
862.819	4540.54
863.14	4508.68
863.461	4529.47
863.782	4538.28
864.103	4488.79
864.424	4535.12
864.745	4447.89
865.065	4468.46
865.386	4450.38
865.707	4473.65
866.027	4501.68
866.348	4474.33
866.668	4450.38
866.989	4409.02
867.309	4430.94
867.63	4455.35
867.95	4459.87
868.27	4379.87
868.59	4411.06
868.91	4448.57
869.23	4378.29
869.55	4387.1
869.87	4371.28
870.19	4388.91
870.51	4380.32
870.83	4381.45
871.15	4321.79
871.469	4374.9
871.789	4353.43
872.109	4321.34
872.428	4297.16
872.748	4302.36
873.067	4306.2
873.386	4337.61
873.706	4314.79
874.025	4303.26
874.344	4307.78
874.663	4286.99
874.982	4287.22
875.301	4277.5
875.62	4283.38
875.939	4239.99
876.258	4274.56
876.577	4280.21
876.896	4243.15
877.214	4232.08
877.533	4241.34
877.852	4251.51
878.17	4212.64
878.489	4249.48
878.807	4224.62
879.125	4257.61
879.444	4249.03
879.762	4225.07
880.08	4222.13
880.398	4176.49
880.716	4221.23
881.034	4200.44
881.352	4172.64
881.67	4147.56
881.988	4166.09
882.306	4157.73
882.624	4114.79
882.941	4083.38
883.259	4137.17
883.577	4105.75
883.894	4138.3
884.212	4071.86
884.529	4080.44
884.846	4076.15
885.164	4049.71
885.481	4051.52
885.798	4091.06
886.115	4003.38
886.432	4020.78
886.75	4035.7
887.067	4048.58
887.383	3985.3
887.7	3986.66
888.017	4040.67
888.334	3986.21
888.651	3990.5
888.967	3966.1
889.284	3933.1
889.6	3957.28
889.917	3935.36
890.233	3907.57
890.55	3935.36
890.866	3933.33
891.182	3926.55
891.498	3908.7
891.815	3874.57
892.131	3881.13
892.447	3874.35
892.763	3878.41
893.079	3835.25
893.395	3860.34
893.71	3864.63
894.026	3817.4
894.342	3798.64
894.657	3790.96
894.973	3818.98
895.289	3796.61
895.604	3760.23
895.92	3767.23
896.235	3747.57
896.55	3758.87
896.865	3720.23
897.181	3743.05
897.496	3751.64
897.811	3716.84
898.126	3703.05
898.441	3681.36
898.756	3650.17
899.071	3661.7
899.386	3723.84
899.7	3626.9
900.015	3611.98
900.33	3564.75
900.644	3588.93
900.959	3588.48
901.273	3572.21
901.588	3559.33
901.902	3582.15
902.216	3560.01
902.531	3564.3
902.845	3538.76
903.159	3504.41
903.473	3501.93
903.787	3511.87
904.101	3466.22
904.415	3449.05
904.729	3421.7
905.042	3430.29
905.356	3419.44
905.67	3423.06
905.984	3423.06
906.297	3427.81
906.611	3390.07
906.924	3390.74
907.237	3374.47
907.551	3411.99
907.864	3352.78
908.177	3318.2
908.491	3341.25
908.804	3307.13
909.117	3334.25
909.43	3274.14
909.743	3250.63
910.056	3291.76
910.368	3266.45
910.681	3255.38
910.994	3262.16
911.307	3233.46
911.619	3231.43
911.932	3209.28
912.244	3184.42
912.557	3195.95
912.869	3181.94
913.181	3153.24
913.494	3177.87
913.806	3146.46
914.118	3112.33
914.43	3107.59
914.742	3114.14
915.054	3089.51
915.366	3071.88
915.678	3093.8
915.99	3065.1
916.302	3024.88
916.613	3025.56
916.925	3045.89
917.236	3023.75
917.548	2963.86
917.859	3058.32
918.171	2968.16
918.482	2940.59
918.794	2960.47
919.105	2966.57
919.416	2922.73
919.727	2943.52
920.038	2903.07
920.349	2892.68
920.66	2897.88
920.971	2928.16
921.282	2898.78
921.593	2848.16
921.903	2857.65
922.214	2840.25
922.525	2845.22
922.835	2863.3
923.146	2844.77
923.456	2781.04
923.767	2826.92
924.077	2797.99
924.387	2811.55
924.697	2751.44
925.008	2776.52
925.318	2780.82
925.628	2740.59
925.938	2733.81
926.248	2723.42
926.558	2679.58
926.867	2678.67
927.177	2702.17
927.487	2647.26
927.796	2670.09
928.106	2687.26
928.416	2641.84
928.725	2655.4
929.034	2655.62
929.344	2642.06
929.653	2653.36
929.962	2601.61
930.271	2634.61
930.581	2584.66
930.89	2567.94
931.199	2553.48
931.508	2567.26
931.817	2562.97
932.125	2537.89
932.434	2570.43
932.743	2500.6
933.051	2513.93
933.36	2498.11
933.669	2501.28
933.977	2463.76
934.286	2497.43
934.594	2432.58
934.902	2465.12
935.21	2432.13
935.519	2469.86
935.827	2452.46
936.135	2426.02
936.443	2424.22
936.751	2424.22
937.059	2419.7
937.367	2408.62
937.674	2400.71
937.982	2398.91
938.29	2364.1
938.597	2355.29
938.905	2351
939.213	2350.77
939.52	2358.91
939.827	2314.61
940.135	2337.66
940.442	2306.7
940.749	2304.22
941.056	2313.94
941.363	2261.28
941.67	2278.46
941.977	2278.68
942.284	2269.19
942.591	2257.67
942.898	2203.66
943.205	2270.32
943.511	2231.68
943.818	2201.17
944.125	2215.41
944.431	2234.62
944.738	2229.19
945.044	2198.69
945.35	2186.03
945.657	2199.82
945.963	2150.32
946.269	2175.41
946.575	2166.6
946.881	2128.4
947.187	2127.73
947.493	2136.09
947.799	2134.05
948.105	2117.33
948.41	2094.96
948.716	2130.21
949.022	2088.41
949.327	2068.29
949.633	2059.71
949.938	2033.27
950.244	2072.13
950.549	2045.92
950.854	2057.22
951.16	2061.74
951.465	2027.62
951.77	1991.01
952.075	2028.75
952.38	2009.09
952.685	2022.64
952.99	1976.32
953.294	1969.54
953.599	1986.71
953.904	1967.73
954.209	1976.32
954.513	1982.19
954.818	1950.78
955.122	1955.75
955.426	1969.54
955.731	1930.44
956.035	1932.7
956.339	1919.6
956.643	1922.76
956.948	1901.29
957.252	1904
957.556	1890.67
957.86	1873.5
958.163	1887.73
958.467	1872.82
958.771	1866.26
959.075	1864.91
959.378	1862.2
959.682	1846.38
959.985	1832.14
960.289	1842.54
960.592	1792.14
960.896	1816.55
961.199	1796.21
961.502	1809.09
961.805	1810.45
962.108	1804.8
962.411	1798.47
962.714	1758.24
963.017	1738.13
963.32	1783.55
963.623	1756.66
963.926	1773.84
964.228	1777.23
964.531	1762.54
964.833	1747.85
965.136	1733.61
965.438	1720.73
965.741	1740.84
966.043	1726.38
966.345	1680.51
966.648	1671.69
966.95	1647.74
967.252	1704.91
967.554	1694.29
967.856	1682.54
968.158	1651.81
968.46	1661.75
968.761	1651.58
969.063	1673.5
969.365	1661.75
969.666	1683.9
969.968	1615.88
970.269	1631.47
970.571	1624.46
970.872	1648.42
971.174	1585.59
971.475	1583.11
971.776	1614.75
972.077	1574.97
972.378	1580.85
972.679	1604.58
972.98	1603.22
973.281	1586.05
973.582	1588.76
973.883	1542.66
974.183	1557.12
974.484	1543.11
974.785	1538.36
975.085	1539.95
975.386	1524.35
975.686	1514.18
975.986	1545.37
976.287	1553.28
976.587	1507.63
976.887	1497.01
977.187	1511.25
977.487	1491.59
977.787	1490.46
978.087	1479.61
978.387	1492.26
978.687	1475.54
978.987	1440.96
979.286	1462.89
979.586	1462.43
979.885	1441.19
980.185	1475.31
980.484	1440.96
980.784	1418.82
981.083	1415.65
981.382	1422.66
981.682	1402.55
981.981	1402.32
982.28	1420.4
982.579	1449.55
982.878	1427.41
983.177	1421.3
983.475	1400.74
983.774	1365.94
984.073	1356.67
984.372	1376.11
984.67	1381.76
984.969	1389.67
985.267	1351.48
985.566	1367.52
985.864	1380.85
986.162	1366.39
986.461	1320.52
986.759	1318.71
987.057	1358.48
987.355	1346.28
987.653	1344.7
987.951	1347.18
988.249	1334.75
988.547	1316
988.844	1306.28
989.142	1330.69
989.44	1298.82
989.737	1287.75
990.035	1300.86
990.332	1283.23
990.63	1287.75
990.927	1268.09
991.224	1277.81
991.521	1287.3
991.819	1264.02
992.116	1246.39
992.413	1217.47
992.71	1236.68
993.006	1228.09
993.303	1212.04
993.6	1225.15
993.897	1223.12
994.193	1215.21
994.49	1252.95
994.787	1222.44
995.083	1208.88
995.379	1188.54
995.676	1216.79
995.972	1184.7
996.268	1183.34
996.565	1193.74
996.861	1162.78
997.157	1170.24
997.453	1176.79
997.749	1167.53
998.044	1145.38
998.34	1170.69
998.636	1139.73
998.932	1145.15
999.227	1141.09
999.523	1124.36
999.818	1111.48
1000.114	1122.1
1000.409	1158.49
1000.704	1118.71
1001	1121.65
1001.295	1106.74
1001.59	1114.19
1001.885	1082.78
1002.18	1103.57
1002.475	1090.47
1002.77	1090.01
1003.065	1087.98
1003.359	1056.57
1003.654	1064.93
1003.949	1066.51
1004.243	1049.34
1004.538	1072.61
1004.832	1041.2
1005.127	1038.04
1005.421	1033.97
1005.715	1081.88
1006.009	1027.42
1006.304	1032.61
1006.598	1016.57
1006.892	1026.74
1007.186	1032.39
1007.48	1032.39
1007.773	997.81
1008.067	1007.98
1008.361	987.64
1008.655	973.18
1008.948	980.64
1009.242	986.74
1009.535	983.35
1009.829	963.24
1010.122	995.1
1010.415	950.36
1010.708	974.54
1011.001	953.75
1011.295	942.45
1011.588	969.56
1011.881	902.9
1012.173	938.83
1012.466	971.6
1012.759	926.63
1013.052	904.71
1013.344	913.3
1013.637	933.63
1013.93	913.07
1014.222	932.96
1014.514	890.02
1014.807	885.05
1015.099	886.63
1015.391	901.54
1015.683	927.53
1015.976	893.86
1016.268	868.1
1016.56	859.96
1016.851	872.84
1017.143	870.58
1017.435	873.07
1017.727	862.68
1018.018	853.86
1018.31	873.97
1018.602	847.08
1018.893	853.18
1019.185	861.32
1019.476	833.75
1019.767	866.52
1020.058	826.07
1020.35	815.22
1020.641	810.7
1020.932	822.45
1021.223	802.34
1021.514	787.2
1021.804	802.56
1022.095	795.11
1022.386	798.72
1022.677	778.84
1022.967	785.39
1023.258	788.1
1023.548	800.76
1023.839	793.75
1024.129	765.05
1024.419	756.24
1024.709	759.4
1025	737.93
1025.29	742.45
1025.58	746.29
1025.87	755.56
1026.16	743.81
1026.449	729.12
1026.739	734.54
1027.029	736.12
1027.319	733.64
1027.608	719.85
1027.898	735.9
1028.187	746.75
1028.477	734.09
1028.766	699.06
1029.055	719.4
1029.344	702.68
1029.634	705.39
1029.923	692.74
1030.212	709.01
1030.501	696.13
1030.79	679.18
1031.078	672.62
1031.367	702.91
1031.656	691.38
1031.945	662.23
1032.233	673.08
1032.522	679.4
1032.81	668.1
1033.099	652.96
1033.387	662.68
1033.675	689.8
1033.963	652.96
1034.251	644.38
1034.54	643.25
1034.828	640.76
1035.116	623.13
1035.403	650.7
1035.691	639.4
1035.979	606.64
1036.267	622.91
1036.554	635.56
1036.842	618.61
1037.129	632.85
1037.417	613.64
1037.704	641.89
1037.992	616.58
1038.279	619.29
1038.566	620.2
1038.853	620.2
1039.14	620.2
