Data from tablewood_dark_bookshelf_FLMS001491_00091.txt Node
Date: Wed Feb 08 14:16:01 GMT 2017
User: dcchb
Spectrometer: FLMS00149
Trigger mode: 0
Integration Time (sec): 2.000000E-2
Scans to average: 10
Electric dark correction enabled: true
Nonlinearity correction enabled: false
Boxcar width: 0
XAxis mode: Wavelengths
Number of Pixels in Spectrum: 2048
>>>>>Begin Spectral Data<<<<<
341.393	0.78
341.776	0.78
342.16	0.78
342.543	-57.07
342.927	-47.13
343.31	-64.53
343.693	-68.15
344.077	-69.96
344.46	-59.11
344.843	-59.79
345.226	-39.45
345.61	-20.92
345.993	-10.97
346.376	-3.97
346.759	6.2
347.142	26.31
347.525	26.54
347.908	65.41
348.291	83.94
348.674	81.68
349.057	106.76
349.44	151.73
349.823	136.37
350.206	170.49
350.588	197.16
350.971	188.12
351.354	217.95
351.737	225.63
352.119	231.73
352.502	275.12
352.884	271.73
353.267	270.15
353.65	297.27
354.032	284.61
354.414	293.88
354.797	334.33
355.179	331.84
355.562	321.22
355.944	312.18
356.326	328.68
356.709	315.8
357.091	335.91
357.473	320.77
357.855	330.49
358.238	333.2
358.62	347.66
359.002	325.74
359.384	313.54
359.766	338.62
360.148	318.73
360.53	334.33
360.912	332.07
361.294	322.35
361.676	320.09
362.057	353.08
362.439	336.14
362.821	351.05
363.203	335.46
363.584	327.1
363.966	338.85
364.348	296.59
364.729	339.98
365.111	322.35
365.493	327.55
365.874	315.34
366.256	328.45
366.637	325.51
367.019	310.83
367.4	324.84
367.781	319.41
368.163	309.7
368.544	310.37
368.925	327.32
369.306	330.26
369.688	314.21
370.069	312.18
370.45	314.44
370.831	305.4
371.212	324.38
371.593	315.57
371.974	310.15
372.355	310.6
372.736	334.55
373.117	320.77
373.498	324.38
373.879	330.71
374.26	319.86
374.641	323.93
375.021	335.23
375.402	338.17
375.783	344.95
376.163	338.4
376.544	360.09
376.925	342.24
377.305	337.49
377.686	359.19
378.066	320.77
378.447	317.15
378.827	332.75
379.208	323.93
379.588	338.17
379.968	345.63
380.349	367.77
380.729	367.77
381.109	360.32
381.489	347.43
381.87	326.19
382.25	356.47
382.63	350.37
383.01	347.21
383.39	371.16
383.77	380.88
384.15	369.58
384.53	366.19
384.91	365.51
385.29	375.68
385.67	379.3
386.049	365.74
386.429	370.48
386.809	382.01
387.189	366.87
387.568	364.84
387.948	391.73
388.328	377.72
388.707	396.92
389.087	404.83
389.466	354.21
389.846	384.27
390.225	387.89
390.605	385.85
390.984	393.53
391.363	388.56
391.743	403.03
392.122	404.83
392.501	417.49
392.881	393.31
393.26	424.04
393.639	427.43
394.018	417.26
394.397	434.21
394.776	423.82
395.155	441.67
395.534	433.31
395.913	411.61
396.292	422.46
396.671	439.86
397.05	412.74
397.429	431.73
397.808	436.25
398.186	452.97
398.565	440.99
398.944	424.95
399.323	446.41
399.701	435.57
400.08	442.12
400.458	439.41
400.837	450.71
401.215	432.86
401.594	482.57
401.972	452.52
402.351	459.75
402.729	456.36
403.107	481.44
403.486	479.63
403.864	471.5
404.242	457.49
404.62	488
404.999	495.23
405.377	491.16
405.755	488.9
406.133	499.97
406.511	487.32
406.889	504.27
407.267	518.05
407.645	483.02
408.023	525.28
408.401	515.34
408.779	499.75
409.156	545.85
409.534	543.14
409.912	553.53
410.29	519.86
410.667	561.67
411.045	522.12
411.422	556.47
411.8	550.59
412.178	571.61
412.555	559.18
412.933	539.52
413.31	567.99
413.687	572.97
414.065	557.82
414.442	587.88
414.819	579.74
415.197	598.05
415.574	595.79
415.951	592.85
416.328	591.95
416.705	590.37
417.082	630.14
417.46	632.17
417.837	618.61
418.214	626.98
418.591	615
418.967	645.51
419.344	622.23
419.721	620.2
420.098	643.47
420.475	649.35
420.852	656.35
421.228	635.34
421.605	657.26
421.982	654.77
422.358	669.69
422.735	676.24
423.111	664.94
423.488	675.79
423.864	684.15
424.241	679.86
424.617	708.1
424.994	700.65
425.37	691.38
425.746	715.56
426.123	680.53
426.499	715.11
426.875	702
427.251	743.81
427.627	746.97
428.003	756.46
428.379	751.04
428.756	764.37
429.132	775.22
429.507	778.84
429.883	790.81
430.259	808.89
430.635	807.31
431.011	803.69
431.387	826.97
431.763	841.43
432.138	844.6
432.514	858.38
432.89	816.57
433.265	862.22
433.641	851.38
434.016	894.31
434.392	878.49
434.767	902.45
435.143	903.58
435.518	902.22
435.894	902.45
436.269	897.93
436.644	951.03
437.02	913.3
437.395	950.36
437.77	963.01
438.145	967.53
438.52	948.55
438.895	973.18
439.271	977.47
439.646	1014.31
440.021	1002.33
440.395	979.28
440.77	1014.54
441.145	1004.37
441.52	1029.68
441.895	1020.41
442.27	1018.38
442.645	1031.48
443.019	1038.26
443.394	1052.5
443.769	1040.3
444.143	1050.01
444.518	1093.18
444.892	1085.72
445.267	1072.16
445.641	1086.62
446.016	1096.34
446.39	1123.69
446.764	1105.61
447.139	1125.72
447.513	1104.7
447.887	1119.39
448.262	1131.14
448.636	1126.4
449.01	1166.85
449.384	1190.8
449.758	1178.6
450.132	1132.27
450.506	1175.21
450.88	1183.34
451.254	1193.97
451.628	1216.11
452.002	1212.95
452.376	1232.61
452.75	1251.14
453.123	1254.53
453.497	1275.55
453.871	1273.51
454.244	1288.88
454.618	1292.27
454.992	1326.62
455.365	1349.67
455.739	1337.92
456.112	1314.19
456.486	1359.16
456.859	1412.49
457.232	1406.16
457.606	1412.94
457.979	1421.3
458.352	1428.54
458.725	1458.37
459.099	1468.76
459.472	1508.53
459.845	1490.91
460.218	1485.48
460.591	1512.6
460.964	1513.05
461.337	1572.03
461.71	1593.28
462.083	1623.33
462.456	1591.92
462.829	1626.72
463.201	1655.42
463.574	1627.4
463.947	1663.33
464.32	1728.64
464.692	1705.36
465.065	1735.19
465.438	1786.49
465.81	1784.46
466.183	1800.5
466.555	1821.29
466.928	1813.16
467.3	1825.14
467.672	1857.68
468.045	1913.27
468.417	1899.71
468.789	1899.71
469.161	1950.33
469.534	1968.18
469.906	1995.3
470.278	2030.78
470.65	2085.92
471.022	2085.47
471.394	2130.21
471.766	2102.42
472.138	2169.53
472.51	2198.01
472.882	2225.35
473.253	2225.13
473.625	2285.69
473.997	2308.74
474.369	2333.82
474.74	2391
475.112	2419.24
475.484	2383.99
475.855	2459.02
476.227	2513.71
476.598	2532.91
476.97	2565.46
477.341	2628.73
477.713	2641.61
478.084	2672.8
478.455	2748.05
478.827	2761.83
479.198	2826.92
479.569	2843.41
479.94	2910.98
480.311	2927.48
480.682	2983.52
481.053	3079.34
481.424	3111.88
481.795	3101.49
482.166	3187.59
482.537	3195.72
482.908	3263.29
483.279	3320.92
483.65	3387.13
484.021	3430.74
484.391	3467.13
484.762	3474.13
485.133	3532.89
485.503	3549.61
485.874	3632.32
486.244	3696.5
486.615	3741.47
486.985	3745.54
487.356	3811.07
487.726	3873.44
488.097	3931.29
488.467	3978.53
488.837	4042.03
489.207	4077.51
489.578	4114.34
489.948	4171.29
490.318	4224.39
490.688	4196.82
491.058	4351.62
491.428	4385.97
491.798	4395.69
492.168	4501.45
492.538	4537.15
492.908	4538.96
493.278	4606.08
493.648	4613.54
494.017	4697.38
494.387	4724.49
494.757	4785.74
495.126	4781.22
495.496	4817.83
495.866	4897.15
496.235	4905.73
496.605	4968.33
496.974	4955
497.344	5065.05
497.713	5089.46
498.082	5075.67
498.452	5179.62
498.821	5173.52
499.19	5221.66
499.559	5245.38
499.928	5304.37
500.298	5347.98
500.667	5376.91
501.036	5350.47
501.405	5437.92
501.774	5464.81
502.143	5472.27
502.512	5549.33
502.88	5562.44
503.249	5654.41
503.618	5595.66
503.987	5686.5
504.356	5737.58
504.724	5771.25
505.093	5781.19
505.462	5832.49
505.83	5874.29
506.199	5898.25
506.567	5961.75
506.936	5934.41
507.304	6097.57
507.672	6093.27
508.041	6022.31
508.409	6140.73
508.777	6196.09
509.145	6268.86
509.514	6295.53
509.882	6271.35
510.25	6299.37
510.618	6346.37
510.986	6398.12
511.354	6486.71
511.722	6508.63
512.09	6553.37
512.458	6533.71
512.826	6602.19
513.193	6683.54
513.561	6724.44
513.929	6783.2
514.297	6864.55
514.664	6862.29
515.032	6837.43
515.4	7002.85
515.767	6997.88
516.135	7046.02
516.502	6978.22
516.869	7127.37
517.237	7215.05
517.604	7184.32
517.972	7277.42
518.339	7271.09
518.706	7379.57
519.073	7390.86
519.44	7484.42
519.808	7493.24
520.175	7502.5
520.542	7593.57
520.909	7717.41
521.276	7706.11
521.643	7772.55
522.009	7841.02
522.376	7917.4
522.743	7909.04
523.11	8045.99
523.477	8089.38
523.843	8148.13
524.21	8232.42
524.577	8294.8
524.943	8338.18
525.31	8328.92
525.676	8487.56
526.043	8527.33
526.409	8516.49
526.776	8693.2
527.142	8701.34
527.508	8747.89
527.874	8791.05
528.241	8884.39
528.607	8918.06
528.973	8999.64
529.339	9012.52
529.705	9033.99
530.071	9166.64
530.437	9195.56
530.803	9218.39
531.169	9275.11
531.535	9346.52
531.901	9355.33
532.267	9456.35
532.632	9441.88
532.998	9491.6
533.364	9529.11
533.73	9567.08
534.095	9711.71
534.461	9732.27
534.826	9693.86
535.192	9827.64
535.557	9877.81
535.923	9924.58
536.288	9923.45
536.653	9983.79
537.019	9936.79
537.384	10009.1
537.749	10046.16
538.114	10087.29
538.479	10079.83
538.845	10207.29
539.21	10197.8
539.575	10252.48
539.94	10230.79
540.305	10261.98
540.67	10411.58
541.034	10424.46
541.399	10421.97
541.764	10468.07
542.129	10509.2
542.494	10515.75
542.858	10510.33
543.223	10716.43
543.587	10736.99
543.952	10655.41
544.316	10715.75
544.681	10695.64
545.045	10784.9
545.41	10900.38
545.774	10967.95
546.138	10957.1
546.503	11012.92
546.867	10943.31
547.231	11019.24
547.595	11076.87
547.959	11113.93
548.324	11105.34
548.688	11169.07
549.052	11197.77
549.416	11243.65
549.779	11311.89
550.143	11332
550.507	11408.84
550.871	11429.63
551.235	11421.95
551.599	11554.37
551.962	11605.22
552.326	11622.17
552.689	11627.14
553.053	11688.61
553.417	11648.83
553.78	11858.54
554.143	11837.98
554.507	11823.97
554.87	11863.06
555.234	12078.65
555.597	11976.06
555.96	12037.97
556.323	12136.5
556.686	12121.36
557.05	12276.61
557.413	12306.67
557.776	12324.75
558.139	12382.15
558.502	12483.16
558.865	12445.65
559.228	12509.6
559.59	12621.69
559.953	12695.13
560.316	12714.79
560.679	12821.91
561.041	12919.31
561.404	12965.18
561.767	13005.86
562.129	13002.47
562.492	13114.56
562.854	13187.55
563.217	13099.19
563.579	13265.96
563.941	13413.98
564.304	13380.09
564.666	13512.29
565.028	13512.06
565.39	13576.47
565.753	13757.48
566.115	13766.29
566.477	13828.66
566.839	13837.25
567.201	14006.06
567.563	14040.18
567.925	14095.1
568.287	14063.91
568.648	14122.67
569.01	14246.5
569.372	14408.76
569.734	14400.62
570.095	14469.77
570.457	14512.94
570.819	14554.74
571.18	14627.06
571.542	14652.37
571.903	14731.91
572.265	14826.6
572.626	14881.97
572.987	14938.46
573.349	15036.77
573.71	15212.13
574.071	15231.56
574.432	15197.44
574.794	15288.51
575.155	15365.8
575.516	15288.28
575.877	15478.34
576.238	15530.54
576.599	15569.63
576.96	15694.6
577.32	15661.16
577.681	15680.14
578.042	15698.22
578.403	15746.35
578.763	15819.34
579.124	15856.86
579.485	15919.91
579.845	16077.87
580.206	16073.12
580.566	16066.12
580.927	16101.82
581.287	16260.01
581.648	16169.84
582.008	16227.69
582.368	16307.24
582.728	16392.44
583.089	16296.62
583.449	16432.21
583.809	16507.24
584.169	16460.91
584.529	16501.13
584.889	16521.47
585.249	16518.08
585.609	16576.16
585.969	16650.51
586.329	16673.78
586.688	16701.13
587.048	16746.33
587.408	16701.13
587.768	16700.22
588.127	16759.66
588.487	16769.15
588.846	16992.65
589.206	16812.99
589.565	16951.74
589.925	17006.43
590.284	16986.09
590.643	17007.34
591.003	17129.82
591.362	17176.37
591.721	17196.03
592.08	17135.69
592.44	17349.93
592.799	17269.93
593.158	17346.31
593.517	17270.15
593.876	17381.11
594.235	17390.6
594.593	17325.97
594.952	17431.96
595.311	17379.75
595.67	17568.45
596.029	17561.9
596.387	17614.78
596.746	17618.62
597.104	17591.5
597.463	17535.91
597.822	17737.26
598.18	17653.87
598.538	17661.1
598.897	17781.33
599.255	17706.3
599.613	17922.11
599.972	17814.77
600.33	17954.43
600.688	17870.14
601.046	17977.48
601.404	17952.4
601.762	17975.22
602.12	18087.31
602.478	18152.62
602.836	18073.52
603.194	18076.46
603.552	18108.32
603.91	18087.08
604.268	18174.99
604.625	18094.09
604.983	18187.87
605.341	18181.54
605.698	18360.07
606.056	18263.12
606.413	18304.25
606.771	18500.18
607.128	18412.72
607.485	18332.95
607.843	18396.9
608.2	18661.76
608.557	18540.18
608.914	18488.2
609.272	18720.28
609.629	18756.89
609.986	18715.99
610.343	18634.64
610.7	18765.48
611.057	18788.76
611.414	18759.38
611.771	18817.68
612.127	18852.03
612.484	18939.94
612.841	18932.93
613.198	18874.4
613.554	18960.73
613.911	19074.63
614.267	18981.52
614.624	19040.5
614.98	19036.43
615.337	19158.69
615.693	19052.03
616.05	19083.44
616.406	19270.78
616.762	19128.18
617.118	19099.48
617.475	19125.7
617.831	19286.82
618.187	19255.86
618.543	19242.98
618.899	19465.35
619.255	19305.81
619.611	19335.86
619.967	19452.69
620.323	19414.5
620.678	19387.61
621.034	19366.6
621.39	19388.52
621.746	19404.56
622.101	19574.27
622.457	19502.18
622.812	19480.04
623.168	19525.01
623.523	19473.71
623.879	19582.86
624.234	19434.16
624.589	19540.6
624.945	19440.72
625.3	19585.12
625.655	19575.63
626.01	19538.57
626.365	19536.08
626.72	19558
627.075	19541.05
627.43	19549.19
627.785	19525.46
628.14	19505.8
628.495	19552.35
628.85	19565.46
629.205	19506.7
629.559	19666.25
629.914	19476.87
630.269	19520.26
630.623	19534.5
630.978	19489.76
631.332	19462.64
631.687	19592.58
632.041	19441.85
632.396	19413.83
632.75	19325.47
633.104	19456.31
633.459	19378.35
633.813	19384.22
634.167	19365.69
634.521	19341.06
634.875	19488.63
635.229	19356.43
635.583	19243.89
635.937	19313.94
636.291	19320.72
636.645	19279.37
636.999	19279.14
637.352	19235.75
637.706	19128.64
638.06	19174.28
638.413	19171.8
638.767	19106.72
639.121	19250.89
639.474	18991.01
639.828	19059.03
640.181	18983.55
640.534	19167.96
640.888	19050.9
641.241	18943.1
641.594	18911.69
641.947	19024.01
642.301	18957.57
642.654	18976.32
643.007	18967.51
643.36	18947.85
643.713	18964.8
644.066	19021.07
644.419	18842.77
644.771	18844.35
645.124	18651.81
645.477	18628.54
645.83	18476.45
646.182	18412.5
646.535	18353.74
646.888	18369.11
647.24	18185.38
647.593	18308.54
647.945	18258.83
648.298	18201.88
648.65	18209.34
649.002	18149.45
649.355	18301.99
649.707	18214.08
650.059	18365.27
650.411	18520.74
650.763	18603
651.115	18751.47
651.467	18659.72
651.819	18563.9
652.171	18673.28
652.523	18529.56
652.875	18583.57
653.227	18474.19
653.578	18617.91
653.93	18572.94
654.282	18458.82
654.633	18485.71
654.985	18461.76
655.337	18470.12
655.688	18587.18
656.039	18516.9
656.391	18404.81
656.742	18383.8
657.094	18557.58
657.445	18482.1
657.796	18459.05
658.147	18433.06
658.498	18488.43
658.849	18524.13
659.2	18495.21
659.551	18445.04
659.902	18480.97
660.253	18417.69
660.604	18442.33
660.955	18352.38
661.306	18596.9
661.656	18445.04
662.007	18499.05
662.358	18426.96
662.708	18435.32
663.059	18512.15
663.409	18298.6
663.76	18457.47
664.11	18468.99
664.461	18527.97
664.811	18475.09
665.161	18554.64
665.511	18433.74
665.862	18416.56
666.212	18485.04
666.562	18447.98
666.912	18495.21
667.262	18454.3
667.612	18421.54
667.962	18373.18
668.312	18345.83
668.662	18527.75
669.011	18511.93
669.361	18417.69
669.711	18432.38
670.06	18384.7
670.41	18417.47
670.76	18373.4
671.109	18471.48
671.459	18425.38
671.808	18343.8
672.157	18499.27
672.507	18318.71
672.856	18361.42
673.205	18409.78
673.554	18523.23
673.904	18269.9
674.253	18468.09
674.602	18297.02
674.951	18192.16
675.3	18115.1
675.649	18275.78
675.998	18259.05
676.346	18311.03
676.695	18352.16
677.044	18155.1
677.393	18324.59
677.741	18271.93
678.09	18250.24
678.438	18213.18
678.787	18254.53
679.135	18153.07
679.484	18110.13
679.832	18286.85
680.181	18046.63
680.529	18270.8
680.877	18149.68
681.225	18164.82
681.573	18228.55
681.922	18069.68
682.27	18027.42
682.618	18059.74
682.966	17926.86
683.314	18028.55
683.661	17989.23
684.009	17754.89
684.357	17858.16
684.705	17918.72
685.053	17934.99
685.4	17769.8
685.748	17743.14
686.095	17745.85
686.443	17666.75
686.79	17693.64
687.138	17624.04
687.485	17702.91
687.832	17580.43
688.18	17594.89
688.527	17565.06
688.874	17546.53
689.221	17538.39
689.568	17496.14
689.915	17360.09
690.262	17496.36
690.609	17357.38
690.956	17317.84
691.303	17318.06
691.65	17199.42
691.997	17230.83
692.344	17064.06
692.69	17131.63
693.037	17198.97
693.383	16951.29
693.73	17139.76
694.077	16956.49
694.423	16938.18
694.769	16857.28
695.116	16876.49
695.462	16912.87
695.808	16894.8
696.155	16753.56
696.501	16701.13
696.847	16725.53
697.193	16563.05
697.539	16672.43
697.885	16508.59
698.231	16470.63
698.577	16538.65
698.923	16507.46
699.269	16368.26
699.614	16263.4
699.96	16261.37
700.306	16334.13
700.651	16218.2
700.997	16109.73
701.342	16184.98
701.688	16213.68
702.033	16072.9
702.379	16089.62
702.724	15965.33
703.069	16001.94
703.415	15816.63
703.76	15882.17
704.105	15897.76
704.45	15750.42
704.795	15804.2
705.14	15646.02
705.485	15678.33
705.83	15642.85
706.175	15718.56
706.52	15661.83
706.865	15617.99
707.209	15535.96
707.554	15537.54
707.899	15437.66
708.243	15422.52
708.588	15467.04
708.932	15342.52
709.277	15293.71
709.621	15312.46
709.966	15118.35
710.31	15235.18
710.654	15052.81
710.998	15152.69
711.342	15153.15
711.687	15168.29
712.031	15044.45
712.375	14939.14
712.719	15079.02
713.063	14995.18
713.407	15053.26
713.75	15007.39
714.094	14957.22
714.438	14901.4
714.782	14919.48
715.125	14842.65
715.469	14922.19
715.812	14881.52
716.156	14831.8
716.499	14735.76
716.843	14823.66
717.186	14699.37
717.53	14760.84
717.873	14787.28
718.216	14671.58
718.559	14712.03
718.902	14629.54
719.246	14664.35
719.589	14509.77
719.932	14551.35
720.275	14575.31
720.617	14463.45
720.96	14472.26
721.303	14476.78
721.646	14483.33
721.989	14407.4
722.331	14479.49
722.674	14459.61
723.016	14487.4
723.359	14406.05
723.701	14411.47
724.044	14375.09
724.386	14367.63
724.729	14339.61
725.071	14221.42
725.413	14242.21
725.755	14362.89
726.097	14275.88
726.439	14186.84
726.782	14236.11
727.124	14345.26
727.465	14194.08
727.807	14277.24
728.149	14070.46
728.491	14161.08
728.833	14184.58
729.175	14166.96
729.516	14142.78
729.858	14112.27
730.199	14145.49
730.541	14047.19
730.882	13999.05
731.224	14157.24
731.565	13988.21
731.906	14054.42
732.248	14074.31
732.589	13951.82
732.93	13943.01
733.271	14051.48
733.612	14010.35
733.953	13987.3
734.294	14010.35
734.635	13989.56
734.976	13925.16
735.317	13947.75
735.658	13906.17
735.999	13905.27
736.339	13837.48
736.68	13912.73
737.021	13934.87
737.361	13771.04
737.702	13949.34
738.042	13806.52
738.383	13784.82
738.723	13768.78
739.063	13758.16
739.404	13806.97
739.744	13777.14
740.084	13799.28
740.424	13757.7
740.764	13729.23
741.104	13867.98
741.444	13797.25
741.784	13690.13
742.124	13697.37
742.464	13736.46
742.804	13658.27
743.143	13754.54
743.483	13652.62
743.823	13623.7
744.162	13665.05
744.502	13720.19
744.841	13676.58
745.181	13626.41
745.52	13575.34
745.86	13619.85
746.199	13577.37
746.538	13443.36
746.877	13641.77
747.216	13602.68
747.556	13609.23
747.895	13558.16
748.234	13554.09
748.573	13512.96
748.911	13468.45
749.25	13505.96
749.589	13420.54
749.928	13401.55
750.267	13545.73
750.605	13471.61
750.944	13429.58
751.283	13399.29
751.621	13470.93
751.96	13392.52
752.298	13373.31
752.636	13450.82
752.975	13289.92
753.313	13261.9
753.651	13381.22
753.989	13293.31
754.327	13267.77
754.666	13185.74
755.004	13167.21
755.342	13155.01
755.679	13237.49
756.017	13136.02
756.355	13242.01
756.693	13120.88
757.031	13152.07
757.368	13026.65
757.706	13090.83
758.044	13004.05
758.381	12934
758.719	12892.42
759.056	12945.97
759.394	12893.32
759.731	12880.89
760.068	12828.91
760.405	12896.93
760.743	12804.06
761.08	12769.48
761.417	12652.2
761.754	12665.08
762.091	12503.05
762.428	12533.55
762.765	12486.32
763.102	12580.79
763.438	12444.07
763.775	12458.3
764.112	12486.1
764.449	12433.44
764.785	12301.92
765.122	12279.32
765.458	12225.09
765.795	12251.98
766.131	12139.89
766.467	12074.58
766.804	12059.44
767.14	11989.61
767.476	12120.46
767.812	11964.53
768.148	12038.2
768.485	11992.78
768.821	11859.45
769.157	11897.87
769.492	11768.6
769.828	11734.25
770.164	11676.4
770.5	11673.46
770.836	11640.02
771.171	11568.61
771.507	11524.54
771.842	11511.89
772.178	11426.69
772.513	11476.63
772.849	11370.65
773.184	11336.98
773.519	11315.73
773.855	11218.33
774.19	11164.1
774.525	11140.82
774.86	11160.71
775.195	11178.11
775.53	11093.82
775.865	11063.54
776.2	10961.84
776.535	10924.78
776.87	10906.48
777.205	10917.33
777.539	10833.26
777.874	10838.46
778.209	10772.02
778.543	10777.44
778.878	10705.13
779.212	10673.04
779.547	10511.46
779.881	10604.11
780.215	10492.25
780.55	10515.75
780.884	10446.38
781.218	10345.59
781.552	10459.26
781.886	10446.38
782.22	10327.74
782.554	10313.05
782.888	10159.83
783.222	10111.02
783.556	10143.79
783.889	10132.26
784.223	10068.31
784.557	10022.21
784.89	9971.59
785.224	10071.47
785.557	9852.27
785.891	9838.71
786.224	9868.31
786.558	9857.01
786.891	9727.98
787.224	9714.87
787.557	9689.34
787.891	9670.58
788.224	9654.53
788.557	9638.04
788.89	9664.48
789.223	9640.07
789.556	9547.64
789.888	9492.96
790.221	9507.65
790.554	9425.61
790.887	9436.01
791.219	9427.2
791.552	9398.04
791.884	9349.01
792.217	9258.84
792.549	9257.71
792.882	9132.51
793.214	9082.35
793.546	9167.54
793.879	9051.39
794.211	9057.49
794.543	9121.44
794.875	8996.92
795.207	9001.9
795.539	8996.25
795.871	8982.24
796.203	8947.43
796.535	8810.71
796.867	8829.25
797.198	8757.61
797.53	8832.41
797.862	8729.36
798.193	8751.06
798.525	8678.29
798.856	8720.32
799.188	8642.36
799.519	8562.81
799.85	8548.8
800.182	8499.76
800.513	8489.59
800.844	8400.56
801.175	8493.66
801.506	8486.66
801.837	8422.02
802.168	8378.41
802.499	8328.92
802.83	8269.71
803.161	8314.68
803.491	8273.55
803.822	8256.83
804.153	8175.48
804.483	8138.64
804.814	8095.25
805.145	8186.1
805.475	8153.33
805.805	8047.34
806.136	8108.36
806.466	8103.61
806.796	8078.3
807.126	8000.11
807.457	7968.93
807.787	8025.65
808.117	7904.52
808.447	7914.24
808.777	7920.57
809.107	7871.3
809.436	7848.48
809.766	7913.56
810.096	7789.72
810.426	7787.46
810.755	7827.01
811.085	7780.01
811.414	7814.58
811.744	7736.62
812.073	7733.45
812.403	7689.16
812.732	7622.72
813.061	7594.48
813.39	7598.09
813.719	7610.29
814.049	7662.95
814.378	7493.91
814.707	7530.75
815.036	7510.18
815.365	7438.77
815.693	7339.11
816.022	7374.59
816.351	7408.94
816.68	7341.6
817.008	7398.55
817.337	7333.01
817.665	7373.92
817.994	7333.92
818.322	7252.56
818.651	7260.02
818.979	7302.96
819.307	7232.9
819.636	7252.11
819.964	7238.33
820.292	7247.14
820.62	7200.14
820.948	7175.73
821.276	7189.29
821.604	7135.05
821.932	7175.5
822.259	7164.66
822.587	7125.34
822.915	7154.26
823.243	7199.46
823.57	7157.42
823.898	7126.47
824.225	7149.74
824.553	7152.45
824.88	7142.74
825.207	7184.09
825.535	7184.54
825.862	7195.84
826.189	7126.47
826.516	7139.12
826.843	7191.1
827.17	7128.95
827.497	7182.06
827.824	7085.11
828.151	7126.01
828.478	7109.97
828.805	7159.23
829.131	7097.09
829.458	7045.11
829.785	7041.95
830.111	7095.05
830.438	7073.81
830.764	7109.52
831.09	7150.87
831.417	7033.13
831.743	7035.85
832.069	7094.6
832.395	7031.78
832.722	7065.22
833.048	7028.39
833.374	7061.38
833.7	7016.19
834.026	7025.22
834.351	7032.91
834.677	6981.16
835.003	7016.19
835.329	7032
835.654	6983.19
835.98	6947.26
836.306	7016.86
836.631	6942.06
836.956	7003.08
837.282	7008.5
837.607	6939.8
837.932	6938.9
838.258	6880.14
838.583	6889.41
838.908	6861.84
839.233	6851.67
839.558	6903.87
839.883	6845.57
840.208	6797.43
840.533	6834.95
840.858	6839.47
841.182	6853.7
841.507	6772.8
841.832	6723.76
842.156	6788.62
842.481	6771.9
842.805	6729.64
843.13	6723.31
843.454	6686.7
843.778	6693.71
844.103	6677.21
844.427	6667.72
844.751	6650.32
845.075	6627.72
845.399	6618.68
845.723	6583.65
846.047	6612.13
846.371	6516.99
846.695	6551.79
847.019	6445.58
847.343	6456.88
847.666	6452.13
847.99	6411.46
848.313	6412.36
848.637	6385.24
848.96	6344.79
849.284	6300.05
849.607	6267.5
849.931	6289.65
850.254	6202.2
850.577	6173.27
850.9	6184.12
851.223	6209.65
851.546	6161.74
851.869	6118.81
852.192	6120.84
852.515	6065.7
852.838	6045.36
853.161	6065.25
853.483	6051.47
853.806	6013.27
854.129	6000.17
854.451	5951.58
854.774	5918.81
855.096	5951.81
855.419	5903.45
855.741	5891.92
856.063	5883.56
856.385	5842.43
856.708	5807.63
857.03	5767.18
857.352	5836.1
857.674	5813.05
857.996	5779.61
858.318	5757.46
858.64	5771.47
858.961	5717.69
859.283	5752.94
859.605	5667.97
859.926	5699.61
860.248	5698.93
860.57	5695.99
860.891	5666.39
861.212	5647.41
861.534	5574.64
861.855	5623.91
862.176	5591.82
862.498	5602.89
862.819	5611.93
863.14	5578.71
863.461	5528.54
863.782	5517.47
864.103	5544.59
864.424	5590.46
864.745	5553.85
865.065	5546.85
865.386	5524.47
865.707	5449.9
866.027	5529.9
866.348	5477.47
866.668	5491.93
866.989	5437.24
867.309	5531.93
867.63	5455.77
867.95	5456.9
868.27	5418.26
868.59	5427.98
868.91	5391.14
869.23	5388.88
869.55	5363.8
869.87	5442.44
870.19	5393.86
870.51	5360.18
870.83	5407.87
871.15	5304.59
871.469	5331.94
871.789	5333.52
872.109	5353.18
872.428	5310.24
872.748	5316.12
873.067	5302.33
873.386	5270.47
873.706	5324.25
874.025	5288.1
874.344	5293.29
874.663	5311.6
874.982	5258.49
875.301	5266.63
875.62	5230.47
875.939	5245.84
876.258	5233.41
876.577	5251.49
876.896	5237.7
877.214	5213.52
877.533	5241.09
877.852	5178.49
878.17	5233.18
878.489	5177.14
878.807	5170.81
879.125	5184.37
879.444	5198.15
879.762	5150.92
880.08	5186.18
880.398	5115.9
880.716	5147.08
881.034	5152.28
881.352	5146.4
881.67	5091.94
881.988	5117.48
882.306	5093.3
882.624	5032.06
882.941	5059.85
883.259	5058.27
883.577	5027.99
883.894	5042.23
884.212	5025.96
884.529	5041.77
884.846	5028.67
885.164	5045.62
885.481	4985.96
885.798	4975.34
886.115	4988.44
886.432	4991.83
886.75	4964.49
887.067	4953.19
887.383	4951.38
887.7	4949.35
888.017	4920.65
888.334	4945.73
888.651	4942.79
888.967	4909.8
889.284	4881.1
889.6	4826.41
889.917	4795.68
890.233	4835.9
890.55	4794.55
890.866	4776.47
891.182	4814.21
891.498	4793.87
891.815	4802.23
892.131	4786.19
892.447	4753.19
892.763	4695.12
893.079	4685.85
893.395	4719.97
893.71	4676.13
894.026	4697.83
894.342	4679.52
894.657	4659.19
894.973	4652.63
895.289	4604.05
895.604	4628.45
895.92	4597.04
896.235	4622.8
896.55	4607.66
896.865	4571.05
897.181	4539.19
897.496	4546.65
897.811	4531.28
898.126	4503.48
898.441	4548.45
898.756	4473.2
899.071	4473.65
899.386	4476.82
899.7	4442.47
900.015	4407.67
900.33	4432.75
900.644	4378.29
900.959	4401.57
901.273	4389.81
901.588	4364.5
901.902	4334.45
902.216	4313.66
902.531	4319.99
902.845	4348.46
903.159	4256.03
903.473	4282.47
903.787	4281.79
904.101	4233.66
904.415	4223.26
904.729	4249.03
905.042	4195.24
905.356	4216.49
905.67	4185.07
905.984	4169.48
906.297	4116.37
906.611	4154.11
906.924	4150.05
907.237	4143.04
907.551	4164.96
907.864	4110.95
908.177	4118.86
908.491	4081.12
908.804	4092.87
909.117	4029.15
909.43	4001.12
909.743	4004.97
910.056	4015.59
910.368	3980.56
910.681	3933.78
910.994	3906.66
911.307	3929.49
911.619	3932.88
911.932	3943.05
912.244	3882.48
912.557	3918.41
912.869	3872.99
913.181	3843.39
913.494	3886.32
913.806	3825.08
914.118	3840
914.43	3798.42
914.742	3795.48
915.054	3789.15
915.366	3756.16
915.678	3728.81
915.99	3752.09
916.302	3742.37
916.613	3715.93
916.925	3661.47
917.236	3718.19
917.548	3631.42
917.859	3688.59
918.171	3652.88
918.482	3620.34
918.794	3616.05
919.105	3630.74
919.416	3611.76
919.727	3607.69
920.038	3585.77
920.349	3572.43
920.66	3545.32
920.971	3549.16
921.282	3544.64
921.593	3536.5
921.903	3504.41
922.214	3492.21
922.525	3444.75
922.835	3471.19
923.146	3409.05
923.456	3448.82
923.767	3407.24
924.077	3448.82
924.387	3384.87
924.697	3383.06
925.008	3379.22
925.318	3301.48
925.628	3366.11
925.938	3304.42
926.248	3302.16
926.558	3280.24
926.867	3270.75
927.177	3280.92
927.487	3278.66
927.796	3254.25
928.106	3246.79
928.416	3228.26
928.725	3214.03
929.034	3223.97
929.344	3206.34
929.653	3198.43
929.962	3168.83
930.271	3139.9
930.581	3141.03
930.89	3138.55
931.199	3139.68
931.508	3125.67
931.817	3129.96
932.125	3139.23
932.434	3116.18
932.743	3045.67
933.051	3084.09
933.36	3055.84
933.669	3036.18
933.977	3040.92
934.286	3005.44
934.594	3000.02
934.902	2975.16
935.21	2937.2
935.519	2996.18
935.827	2957.99
936.135	2969.29
936.443	2965.22
936.751	2908.95
937.059	2923.86
937.367	2938.33
937.674	2908.5
937.982	2920.02
938.29	2898.55
938.597	2892.23
938.905	2857.42
939.213	2833.47
939.52	2848.61
939.827	2827.6
940.135	2804.32
940.442	2805.45
940.749	2795.73
941.056	2783.98
941.363	2800.48
941.67	2734.72
941.977	2788.73
942.284	2731.55
942.591	2739.91
942.898	2740.37
943.205	2708.5
943.511	2708.5
943.818	2686.36
944.125	2717.54
944.431	2638.22
944.738	2638.9
945.044	2654.94
945.35	2619.24
945.657	2607.71
945.963	2682.97
946.269	2648.39
946.575	2640.48
946.881	2626.24
947.187	2559.35
947.493	2577.43
947.799	2571.33
948.105	2546.02
948.41	2559.13
948.716	2573.36
949.022	2552.57
949.327	2542.18
949.633	2541.05
949.938	2498.11
950.244	2515.51
950.549	2457.66
950.854	2518.9
951.16	2459.02
951.465	2482.29
951.77	2480.71
952.075	2477.32
952.38	2442.07
952.685	2432.58
952.99	2423.76
953.294	2385.35
953.599	2409.75
953.904	2404.1
954.209	2404.78
954.513	2390.32
954.818	2384.89
955.122	2362.3
955.426	2365.91
955.731	2360.04
956.035	2340.15
956.339	2317.1
956.643	2319.81
956.948	2320.94
957.252	2320.72
957.556	2317.33
957.86	2242.3
958.163	2281.39
958.467	2302.64
958.771	2244.33
959.075	2236.42
959.378	2252.02
959.682	2255.18
959.985	2215.41
960.289	2200.04
960.592	2210.44
960.896	2191.23
961.199	2204.33
961.502	2203.66
961.805	2184
962.108	2156.88
962.411	2173.15
962.714	2132.02
963.017	2153.71
963.32	2175.86
963.623	2153.49
963.926	2104.9
964.228	2122.3
964.531	2108.07
964.833	2101.74
965.136	2057.67
965.438	2096.09
965.741	2105.13
966.043	2069.2
966.345	2047.05
966.648	2049.99
966.95	2057.9
967.252	2042.98
967.554	2014.28
967.856	2039.59
968.158	2022.19
968.46	2001.85
968.761	2001.85
969.063	1995.3
969.365	1968.86
969.666	1986.94
969.968	1977
970.269	1949.2
970.571	1983.32
970.872	1941.06
971.174	1922.08
971.475	1930.9
971.776	1954.4
972.077	1926.15
972.378	1889.54
972.679	1931.57
972.98	1910.78
973.281	1901.52
973.582	1882.99
973.883	1839.15
974.183	1882.99
974.484	1842.08
974.785	1863.1
975.085	1846.15
975.386	1847.96
975.686	1831.24
975.986	1819.26
976.287	1845.47
976.587	1788.3
976.887	1838.92
977.187	1812.48
977.487	1787.4
977.787	1769.54
978.087	1762.31
978.387	1787.85
978.687	1761.86
978.987	1759.83
979.286	1760.28
979.586	1756.44
979.885	1744.01
980.185	1725.48
980.484	1739.04
980.784	1722.54
981.083	1723.67
981.382	1706.27
981.682	1723.22
981.981	1739.71
982.28	1666.27
982.579	1664.46
982.878	1732.26
983.177	1701.3
983.475	1676.21
983.774	1677.34
984.073	1687.74
984.372	1661.3
984.67	1655.65
984.969	1648.87
985.267	1644.8
985.566	1612.49
985.864	1626.72
986.162	1611.81
986.461	1600.51
986.759	1591.02
987.057	1579.94
987.355	1577.23
987.653	1588.31
987.951	1552.37
988.249	1563.67
988.547	1561.41
988.844	1541.08
989.142	1528.65
989.44	1542.43
989.737	1524.8
990.035	1525.93
990.332	1542.43
990.63	1517.35
990.927	1537.69
991.224	1522.32
991.521	1506.5
991.819	1506.27
992.116	1497.23
992.413	1481.64
992.71	1464.47
993.006	1464.69
993.303	1471.25
993.6	1456.56
993.897	1462.89
994.193	1473.51
994.49	1437.35
994.787	1450
995.083	1442.09
995.379	1413.4
995.676	1419.5
995.972	1413.4
996.268	1454.52
996.565	1400.74
996.861	1406.62
997.157	1394.64
997.453	1382.66
997.749	1389.67
998.044	1355.09
998.34	1374.75
998.636	1366.16
998.932	1341.53
999.227	1348.54
999.523	1352.83
999.818	1355.54
1000.114	1330.46
1000.409	1326.62
1000.704	1308.09
1001	1308.31
1001.295	1311.93
1001.59	1285.71
1001.885	1327.52
1002.18	1295.66
1002.475	1280.74
1002.77	1299.95
1003.065	1306.05
1003.359	1250.69
1003.654	1281.2
1003.949	1254.76
1004.243	1277.58
1004.538	1234.19
1004.832	1223.34
1005.127	1228.54
1005.421	1225.38
1005.715	1191.48
1006.009	1217.02
1006.304	1219.95
1006.598	1200.07
1006.892	1187.86
1007.186	1200.52
1007.48	1193.29
1007.773	1184.02
1008.067	1182.67
1008.361	1172.72
1008.655	1152.16
1008.948	1139.05
1009.242	1164.36
1009.535	1133.63
1009.829	1136.57
1010.122	1129.33
1010.415	1121.65
1010.708	1117.13
1011.001	1126.4
1011.295	1096.79
1011.588	1080.07
1011.881	1113.97
1012.173	1099.05
1012.466	1107.64
1012.759	1097.02
1013.052	1088.88
1013.344	1078.71
1013.637	1115.55
1013.93	1071.26
1014.222	1090.92
1014.514	1049.79
1014.807	1061.09
1015.099	1049.79
1015.391	1045.72
1015.683	1015.89
1015.976	1029.68
1016.268	1025.38
1016.56	1013.63
1016.851	1019.51
1017.143	994.87
1017.435	1014.08
1017.727	995.33
1018.018	1003.46
1018.31	993.75
1018.602	981.32
1018.893	991.26
1019.185	958.49
1019.476	967.53
1019.767	1004.82
1020.058	961.88
1020.35	955.55
1020.641	940.19
1020.932	957.14
1021.223	953.07
1021.514	914.43
1021.804	943.35
1022.095	935.67
1022.386	904.26
1022.677	918.49
1022.967	937.02
1023.258	873.52
1023.548	867.65
1023.839	915.78
1024.129	879.85
1024.419	891.37
1024.709	870.58
1025	870.58
1025.29	866.97
1025.58	876.01
1025.87	851.83
1026.16	856.12
1026.449	853.64
1026.739	849.12
1027.029	852.51
1027.319	851.38
1027.608	855.9
1027.898	837.59
1028.187	811.15
1028.477	812.51
1028.766	822.45
1029.055	809.12
1029.344	791.49
1029.634	791.04
1029.923	787.2
1030.212	778.84
1030.501	794.65
1030.79	796.69
1031.078	777.48
1031.367	751.49
1031.656	790.59
1031.945	772.51
1032.233	775.9
1032.522	758.5
1032.81	760.08
1033.099	757.14
1033.387	739.51
1033.675	755.33
1033.963	749.01
1034.251	737.25
1034.54	735.45
1034.828	721.44
1035.116	729.8
1035.403	742
1035.691	715.33
1035.979	739.74
1036.267	730.7
1036.554	713.75
1036.842	700.19
1037.129	712.4
1037.417	694.32
1037.704	683.7
1037.992	680.98
1038.279	695.22
1038.566	699.74
1038.853	699.74
1039.14	699.74
