Data from tablewood_brown_FLMS001491_088.txt Node
Date: Tue Feb 07 11:11:08 GMT 2017
User: dcchb
Spectrometer: FLMS00149
Trigger mode: 0
Integration Time (sec): 2.000000E-2
Scans to average: 10
Electric dark correction enabled: true
Nonlinearity correction enabled: false
Boxcar width: 0
XAxis mode: Wavelengths
Number of Pixels in Spectrum: 2048
>>>>>Begin Spectral Data<<<<<
341.393	-7.51
341.776	-7.51
342.16	-7.51
342.543	-56.33
342.927	-63.33
343.31	-56.1
343.693	-63.56
344.077	-68.98
344.46	-68.08
344.843	-67.63
345.226	-48.42
345.61	-16.55
345.993	-27.63
346.376	15.99
346.759	-7.29
347.142	21.86
347.525	65.03
347.908	51.69
348.291	72.94
348.674	85.14
349.057	111.58
349.44	139.15
349.823	150
350.206	145.02
350.588	195.42
350.971	215.53
351.354	216.66
351.737	252.82
352.119	256.21
352.502	287.62
352.884	290.78
353.267	281.07
353.65	294.85
354.032	292.82
354.414	330.1
354.797	312.48
355.179	336.88
355.562	325.58
355.944	353.15
356.326	356.77
356.709	337.11
357.091	356.77
357.473	350.44
357.855	349.09
358.238	331.46
358.62	338.01
359.002	346.38
359.384	363.32
359.766	362.19
360.148	363.32
360.53	361.52
360.912	356.54
361.294	350.67
361.676	333.04
362.057	322.19
362.439	341.86
362.821	328.3
363.203	346.15
363.584	362.65
363.966	320.39
364.348	333.95
364.729	352.02
365.111	344.12
365.493	313.16
365.874	321.29
366.256	327.39
366.637	325.36
367.019	324.23
367.4	351.57
367.781	331.91
368.163	319.26
368.544	318.81
368.925	308.64
369.306	343.21
369.688	308.64
370.069	330.33
370.45	317.22
370.831	335.08
371.212	322.42
371.593	328.97
371.974	311.35
372.355	330.56
372.736	326.71
373.117	339.6
373.498	330.1
373.879	318.13
374.26	332.14
374.641	329.43
375.021	362.87
375.402	348.18
375.783	344.57
376.163	359.03
376.544	338.01
376.925	329.65
377.305	361.74
377.686	347.96
378.066	346.38
378.447	349.76
378.827	369.88
379.208	349.09
379.588	341.86
379.968	349.31
380.349	333.72
380.729	343.44
381.109	359.26
381.489	374.4
381.87	351.57
382.25	359.26
382.63	373.04
383.01	380.27
383.39	367.39
383.77	374.4
384.15	364.45
384.53	359.03
384.91	382.08
385.29	378.69
385.67	390.44
386.049	388.63
386.429	389.54
386.809	385.7
387.189	392.93
387.568	407.16
387.948	389.31
388.328	392.02
388.707	396.32
389.087	392.93
389.466	420.27
389.846	410.33
390.225	421.18
390.605	399.93
390.984	417.11
391.363	403.32
391.743	430.67
392.122	416.66
392.501	418.01
392.881	455.3
393.26	423.89
393.639	445.81
394.018	429.08
394.397	459.37
394.776	471.8
395.155	452.14
395.534	475.64
395.913	456.43
396.292	454.17
396.671	468.18
397.05	465.02
397.429	473.15
397.808	459.37
398.186	499.37
398.565	467.95
398.944	499.82
399.323	487.16
399.701	492.81
400.08	491.23
400.458	504.34
400.837	507.73
401.215	500.04
401.594	490.33
401.972	506.82
402.351	509.31
402.729	521.74
403.107	495.52
403.486	517.9
403.864	518.35
404.242	541.4
404.62	532.58
404.999	532.13
405.377	549.99
405.755	530.1
406.133	578.23
406.511	549.08
406.889	566.03
407.267	560.61
407.645	576.65
408.023	562.19
408.401	562.64
408.779	594.73
409.156	601.06
409.534	593.15
409.912	621.85
410.29	605.58
410.667	593.15
411.045	632.92
411.422	605.58
411.8	620.04
412.178	642.86
412.555	638.8
412.933	659.14
413.31	633.83
413.687	656.65
414.065	645.12
414.442	659.81
414.819	689.64
415.197	697.1
415.574	683.77
415.951	702.75
416.328	690.32
416.705	703.43
417.082	715.4
417.46	728.51
417.837	713.37
418.214	719.92
418.591	728.51
418.967	724.44
419.344	716.99
419.721	747.95
420.098	754.5
420.475	758.79
420.852	763.09
421.228	770.77
421.605	759.25
421.982	798.34
422.358	771.45
422.735	773.93
423.111	795.85
423.488	824.33
423.864	801.73
424.241	828.4
424.617	812.58
424.994	796.53
425.37	794.5
425.746	798.34
426.123	842.86
426.499	843.76
426.875	832.01
427.251	885.57
427.627	880.6
428.003	875.85
428.379	892.8
428.756	893.71
429.132	923.54
429.507	906.13
429.883	946.36
430.259	921.05
430.635	933.03
431.011	947.94
431.387	966.02
431.763	999.69
432.138	999.47
432.514	1006.47
432.89	1007.37
433.265	1022.06
433.641	1026.36
434.016	1052.8
434.392	1032.91
434.767	1076.98
435.143	1100.71
435.518	1108.39
435.894	1094.38
436.269	1111.78
436.644	1125.34
437.02	1135.73
437.395	1159.91
437.77	1154.94
438.145	1171.21
438.52	1174.38
438.895	1182.06
439.271	1181.61
439.646	1216.41
440.021	1222.28
440.395	1198.1
440.77	1228.16
441.145	1239.68
441.52	1273.58
441.895	1252.79
442.27	1265.22
442.645	1275.39
443.019	1304.32
443.394	1276.29
443.769	1287.14
444.143	1299.12
444.518	1317.2
444.892	1331.66
445.267	1351.55
445.641	1355.61
446.016	1346.57
446.39	1357.87
446.764	1374.37
447.139	1365.78
447.513	1379.79
447.887	1388.83
448.262	1406.01
448.636	1393.58
449.01	1423.18
449.384	1436.52
449.758	1449.4
450.132	1478.1
450.506	1463.18
450.88	1486.46
451.254	1482.84
451.628	1498.89
452.002	1506.34
452.376	1498.89
452.75	1516.97
453.123	1546.34
453.497	1562.84
453.871	1584.99
454.244	1638.32
454.618	1616.17
454.992	1668.37
455.365	1643.97
455.739	1675.15
456.112	1683.97
456.486	1718.32
456.859	1742.5
457.232	1753.57
457.606	1727.58
457.979	1776.85
458.352	1848.26
458.725	1826.79
459.099	1808.26
459.472	1855.04
459.845	1851.65
460.218	1899.1
460.591	1898.42
460.964	1947.91
461.337	1979.78
461.71	1980.68
462.083	2026.78
462.456	2022.26
462.829	2044.64
463.201	2078.76
463.574	2096.39
463.947	2154.24
464.32	2155.59
464.692	2183.16
465.065	2176.61
465.438	2257.51
465.81	2241.47
466.183	2278.75
466.555	2332.76
466.928	2335.93
467.3	2370.73
467.672	2379.54
468.045	2433.78
468.417	2459.54
468.789	2498.41
469.161	2533.21
469.534	2576.37
469.906	2624.06
470.278	2655.47
470.65	2702.7
471.022	2747.22
471.394	2805.75
471.766	2825.63
472.138	2855.24
472.51	2955.8
472.882	2943.14
473.253	3011.16
473.625	3102.46
473.997	3139.75
474.369	3147.43
474.74	3218.16
475.112	3265.39
475.484	3335.68
475.855	3402.11
476.227	3465.39
476.598	3588.32
476.97	3608.89
477.341	3645.95
477.713	3748.32
478.084	3761.65
478.455	3908.32
478.827	3929.56
479.198	4024.92
479.569	4074.19
479.94	4197.35
480.311	4198.25
480.682	4305.37
481.053	4409.77
481.424	4519.15
481.795	4576.32
482.166	4683.66
482.537	4712.81
482.908	4835.07
483.279	4887.5
483.65	5014.27
484.021	5099.47
484.391	5181.95
484.762	5228.28
485.133	5313.48
485.503	5365
485.874	5442.96
486.244	5538.78
486.615	5660.59
486.985	5670.75
487.356	5848.15
487.726	5887.25
488.097	6039.78
488.467	6075.04
488.837	6146.9
489.207	6217.63
489.578	6394.8
489.948	6414.01
490.318	6528.59
490.688	6513.9
491.058	6652.65
491.428	6715.7
491.798	6811.97
492.168	6904.17
492.538	7019.19
492.908	7045.86
493.278	7204.05
493.648	7170.38
494.017	7283.37
494.387	7357.72
494.757	7406.3
495.126	7568.56
495.496	7550.25
495.866	7589.57
496.235	7748.67
496.605	7776.01
496.974	7810.13
497.344	7857.59
497.713	7994.99
498.082	8027.76
498.452	8143.01
498.821	8147.3
499.19	8176
499.559	8265.49
499.928	8333.06
500.298	8426.16
500.667	8440.17
501.036	8509.78
501.405	8548.65
501.774	8628.64
502.143	8671.13
502.512	8738.24
502.88	8767.17
503.249	8799.71
503.618	8939.37
503.987	8990.67
504.356	9077.9
504.724	9088.29
505.093	9121.96
505.462	9234.95
505.83	9303.43
506.199	9302.52
506.567	9483.31
506.936	9478.56
507.304	9616.41
507.672	9637.66
508.041	9692.34
508.409	9797.88
508.777	9870.19
509.145	9930.08
509.514	9976.18
509.882	10085.1
510.25	10139.34
510.618	10190.64
510.986	10290.97
511.354	10384.98
511.722	10455.26
512.09	10554.92
512.458	10548.14
512.826	10634.92
513.193	10760.56
513.561	10827.46
513.929	10888.7
514.297	11022.7
514.664	11052.08
515.032	11138.41
515.4	11244.62
515.767	11299.31
516.135	11375.01
516.502	11382.47
516.869	11567.32
517.237	11650.26
517.604	11649.58
517.972	11786.07
518.339	11892.06
518.706	11974.09
519.073	11972.74
519.44	12110.59
519.808	12289.11
520.175	12266.29
520.542	12429.45
520.909	12525.94
521.276	12592.61
521.643	12677.58
522.009	12823.34
522.376	12984.91
522.743	13000.28
523.11	13119.82
523.477	13230.78
523.843	13287.73
524.21	13539.7
524.577	13673.71
524.943	13685.91
525.31	13774.95
525.676	13995.51
526.043	14022.63
526.409	14105.79
526.776	14245.9
527.142	14305.56
527.508	14358.66
527.874	14504.87
528.241	14643.4
528.607	14640.69
528.973	14808.59
529.339	14786.9
529.705	14950.51
530.071	15199.09
530.437	15234.35
530.803	15291.74
531.169	15354.12
531.535	15348.24
531.901	15456.26
532.267	15552.53
532.632	15710.26
532.998	15670.04
533.364	15854.67
533.73	15837.72
534.095	15999.52
534.461	16076.81
534.826	16123.36
535.192	16251.27
535.557	16366.29
535.923	16324.03
536.288	16453.07
536.653	16435.67
537.019	16569.45
537.384	16566.51
537.749	16682.22
538.114	16721.31
538.479	16717.7
538.845	16827.98
539.21	16957.69
539.575	17034.52
539.94	17068.42
540.305	17127.63
540.67	17167.85
541.034	17170.11
541.399	17328.08
541.764	17292.14
542.129	17389.77
542.494	17480.39
542.858	17415.08
543.223	17555.19
543.587	17699.14
543.952	17726.03
544.316	17792.24
544.681	17785.01
545.045	17778.46
545.41	17922.64
545.774	18107.72
546.138	18046.02
546.503	18124.89
546.867	18210.31
547.231	18336.18
547.595	18389.52
547.959	18412.57
548.324	18468.61
548.688	18478.55
549.052	18632.67
549.416	18726.91
549.779	18733.01
550.143	18726.68
550.507	19023.62
550.871	19042.15
551.235	18977.98
551.599	19201.7
551.962	19325.09
552.326	19375.93
552.689	19541.58
553.053	19498.64
553.417	19578.41
553.78	19917.61
554.143	19852.08
554.507	20016.37
554.87	19979.08
555.234	20288.22
555.597	20231.5
555.96	20445.73
556.323	20485.73
556.686	20523.25
557.05	20771.37
557.413	20762.11
557.776	20927.75
558.139	21056.56
558.502	21218.14
558.865	21278.93
559.228	21594.86
559.59	21616.1
559.953	21755.3
560.316	22021.74
560.679	21987.61
561.041	22221.73
561.404	22322.07
561.767	22607.26
562.129	22576.98
562.492	22828.27
562.854	22891.09
563.217	22970.19
563.579	23107.58
563.941	23381.7
564.304	23506.22
564.666	23694.01
565.028	23768.13
565.39	24051.97
565.753	24114.11
566.115	24320.21
566.477	24553.42
566.839	24539.86
567.201	24785.73
567.563	24872.74
567.925	25154.08
568.287	25270.92
568.648	25255.32
569.01	25577.58
569.372	25810.11
569.734	25836.55
570.095	26067.05
570.457	26244.68
570.819	26390.66
571.18	26585.91
571.542	26702.97
571.903	26801.27
572.265	27100.25
572.626	27215.73
572.987	27310.41
573.349	27544.3
573.71	27765.77
574.071	27850.28
574.432	28170.28
574.794	28296.6
575.155	28382.93
575.516	28366.43
575.877	28703.82
576.238	28782.69
576.599	28922.35
576.96	28948.79
577.32	29101.55
577.681	29341.54
578.042	29454.99
578.403	29483.69
578.763	29676.45
579.124	29784.02
579.485	30120.28
579.845	30165.7
580.206	30167.74
580.566	30294.51
580.927	30231.24
581.287	30403.89
581.648	30440.73
582.008	30664.22
582.368	30587.61
582.728	30766.82
583.089	30791.22
583.449	30861.5
583.809	31064.89
584.169	31033.48
584.529	31026.02
584.889	31333.81
585.249	31236.41
585.609	31379.23
585.969	31482.51
586.329	31438.44
586.688	31518.66
587.048	31536.29
587.408	31526.12
587.768	31575.84
588.127	31697.64
588.487	31575.84
588.846	31855.38
589.206	31712.78
589.565	31719.56
589.925	31939.89
590.284	31786.9
590.643	31983.06
591.003	32112.55
591.362	32129.27
591.721	32115.48
592.08	32171.3
592.44	32253.56
592.799	32277.51
593.158	32138.31
593.517	32218.53
593.876	32285.2
594.235	32203.84
594.593	32258.3
594.952	32478.19
595.311	32310.96
595.67	32498.75
596.029	32618.29
596.387	32622.36
596.746	32636.15
597.104	32515.02
597.463	32550.95
597.822	32619.2
598.18	32571.29
598.538	32481.35
598.897	32757.5
599.255	32421.92
599.613	33072.07
599.972	32796.37
600.33	32864.62
600.688	32841.79
601.046	32949.59
601.404	32935.35
601.762	32985.74
602.12	33114.55
602.478	33155.68
602.836	33075.68
603.194	32953.65
603.552	33079.3
603.91	32967.21
604.268	33140.77
604.625	32983.48
604.983	33115.23
605.341	33035.91
605.698	33246.75
606.056	33277.49
606.413	33206.75
606.771	33425.51
607.128	33453.3
607.485	33270.48
607.843	33407.88
608.2	33526.07
608.557	33722.22
608.914	33630.25
609.272	33604.71
609.629	33581.21
609.986	33843.12
610.343	33607.42
610.7	33817.81
611.057	33872.95
611.414	33793.86
611.771	33783.91
612.127	33834.53
612.484	33964.25
612.841	34033.62
613.198	33921.76
613.554	34052.16
613.911	34057.35
614.267	34136.9
614.624	34090.12
614.98	34199.27
615.337	34233.17
615.693	34211.02
616.05	34228.65
616.406	34530.79
616.762	34267.52
617.118	34325.82
617.475	34424.8
617.831	34507.06
618.187	34399.49
618.543	34559.26
618.899	34639.03
619.255	34654.63
619.611	34533.72
619.967	34806.71
620.323	34849.65
620.678	34581.41
621.034	34608.3
621.39	34655.53
621.746	34521.3
622.101	34999.25
622.457	34626.83
622.812	34769.2
623.168	34747.96
623.523	34807.84
623.879	35089.64
624.234	34668.18
624.589	34913.38
624.945	34885.35
625.3	34918.12
625.655	34841.06
626.01	34829.31
626.365	34850.33
626.72	34956.31
627.075	34876.54
627.43	34822.3
627.785	34667.96
628.14	34798.35
628.495	34859.37
628.85	34828.86
629.205	34719.26
629.559	34916.99
629.914	34761.06
630.269	34731.01
630.623	34623.44
630.978	34527.4
631.332	34836.77
631.687	34844.68
632.041	34569.66
632.396	34669.54
632.75	34494.4
633.104	34468.64
633.459	34473.61
633.813	34394.07
634.167	34416.67
634.521	34352.49
634.875	34392.49
635.229	34337.12
635.583	34213.28
635.937	34357.46
636.291	34294.63
636.645	34201.08
636.999	34230.46
637.352	34134.41
637.706	34025.26
638.06	34116.56
638.413	33999.73
638.767	33974.64
639.121	34137.35
639.474	33771.48
639.828	33766.51
640.181	33773.07
640.534	33706.63
640.888	33791.82
641.241	33517.03
641.594	33613.07
641.947	33792.95
642.301	33568.78
642.654	33635.44
643.007	33634.31
643.36	33637.03
643.713	33524.26
644.066	33643.35
644.419	33507.76
644.771	33406.97
645.124	33089.92
645.477	32944.16
645.83	32807.67
646.182	32662.14
646.535	32488.13
646.888	32526.09
647.24	32289.26
647.593	32609.48
647.945	32402.71
648.298	32251.07
648.65	32223.73
649.002	32216.27
649.355	32424.85
649.707	32346.44
650.059	32429.6
650.411	32789.36
650.763	32846.99
651.115	33225.28
651.467	32964.05
651.819	33171.05
652.171	33019.64
652.523	33036.59
652.875	33013.99
653.227	32701.91
653.578	33121.33
653.93	33053.31
654.282	32882.24
654.633	32912.52
654.985	32898.51
655.337	33042.92
655.688	32870.49
656.039	33107.1
656.391	32795.69
656.742	32868.46
657.094	32802.02
657.445	32830.04
657.796	32858.29
658.147	32915.46
658.498	32915.46
658.849	32921.79
659.2	32724.73
659.551	32753.88
659.902	32913.88
660.253	32841.34
660.604	32836.82
660.955	32688.8
661.306	32869.36
661.656	32769.25
662.007	32733.55
662.358	32771.51
662.708	32643.38
663.059	32690.84
663.409	32505.3
663.76	32769.93
664.11	32740.33
664.461	32790.27
664.811	32804.96
665.161	32690.16
665.511	32674.56
665.862	32615.13
666.212	32948.68
666.562	32788.01
666.912	32736.26
667.262	32691.29
667.612	32651.51
667.962	32702.81
668.312	32671.4
668.662	32707.33
669.011	32656.26
669.361	32644.28
669.711	32586.66
670.06	32606.32
670.41	32638.41
670.76	32460.33
671.109	32559.09
671.459	32456.94
671.808	32435.93
672.157	32487.45
672.507	32329.71
672.856	32425.31
673.205	32439.77
673.554	32503.5
673.904	32325.42
674.253	32497.17
674.602	32268.93
674.951	31949.61
675.3	31732.44
675.649	32254.46
675.998	32174.46
676.346	32289.04
676.695	32280.68
677.044	32063.73
677.393	32095.82
677.741	32061.25
678.09	32057.86
678.438	31910.29
678.787	31936.96
679.135	32057.18
679.484	31720.24
679.832	31825.32
680.181	31686.12
680.529	31819.9
680.877	31774.25
681.225	31685.66
681.573	31860.8
681.922	31497.87
682.27	31341.49
682.618	31367.93
682.966	31352.34
683.314	31393.47
683.661	31410.42
684.009	31264.88
684.357	31248.84
684.705	31115.06
685.053	31134.27
685.4	31023.53
685.748	31075.28
686.095	30925.91
686.443	30787.38
686.79	30762.75
687.138	30793.03
687.485	30796.87
687.832	30613.83
688.18	30612.25
688.527	30353.95
688.874	30422.19
689.221	30387.62
689.568	30216.78
689.915	30320.73
690.262	30138.59
690.609	30126.61
690.956	30062.43
691.303	29918.7
691.65	29809.56
691.997	29727.07
692.344	29664.02
692.69	29630.8
693.037	29630.58
693.383	29337.48
693.73	29412.05
694.077	29162.34
694.423	29286.18
694.769	29135.9
695.116	29027.43
695.462	28939.52
695.808	28880.99
696.155	28920.31
696.501	28633.77
696.847	28656.37
697.193	28422.92
697.539	28484.84
697.885	28265.87
698.231	28155.81
698.577	28201.91
698.923	28023.39
699.269	27985.42
699.614	27983.84
699.96	27811.87
700.306	27801.92
700.651	27660.01
700.997	27542.04
701.342	27484.42
701.688	27444.19
702.033	27242.39
702.379	27306.34
702.724	27225.67
703.069	27191.54
703.415	26820.03
703.76	26941.16
704.105	26963.08
704.45	26838.56
704.795	26655.29
705.14	26567.15
705.485	26445.8
705.83	26458.91
706.175	26460.72
706.52	26309.08
706.865	26305.69
707.209	26169.42
707.554	26085.13
707.899	26166.94
708.243	25997.23
708.588	25951.8
708.932	25786.61
709.277	25781.19
709.621	25762.88
709.966	25652.15
710.31	25650.57
710.654	25543.9
710.998	25517.46
711.342	25435.88
711.687	25355.89
712.031	25370.12
712.375	25272.27
712.719	25208.77
713.063	25219.62
713.407	25210.35
713.75	25032.28
714.094	25081.54
714.438	24928.1
714.782	24994.77
715.125	24827.99
715.469	24837.26
715.812	24810.14
716.156	24752.74
716.499	24676.58
716.843	24813.3
717.186	24568.79
717.53	24721.78
717.873	24656.02
718.216	24508
718.559	24538.96
718.902	24362.24
719.246	24429.58
719.589	24374.44
719.932	24320.66
720.275	24265.29
720.617	24264.62
720.96	24226.2
721.303	24180.78
721.646	24141.91
721.989	24011.74
722.331	23991.18
722.674	24128.12
723.016	24120.89
723.359	24044.28
723.701	24051.51
724.044	23943.49
724.386	23860.56
724.729	23983.49
725.071	23878.64
725.413	23822.59
725.755	23976.49
726.097	23769.94
726.439	23700.56
726.782	23872.99
727.124	23797.74
727.465	23752.09
727.807	23635.71
728.149	23663.5
728.491	23732.2
728.833	23728.59
729.175	23570.62
729.516	23631.19
729.858	23525.43
730.199	23593.67
730.541	23645.65
730.882	23555.26
731.224	23598.65
731.565	23507.8
731.906	23428.25
732.248	23547.12
732.589	23383.96
732.93	23443.85
733.271	23382.61
733.612	23441.81
733.953	23503.96
734.294	23406.79
734.635	23399.78
734.976	23507.57
735.317	23373.34
735.658	23399.1
735.999	23404.53
736.339	23402.94
736.68	23433.23
737.021	23310.29
737.361	23335.15
737.702	23495.37
738.042	23413.57
738.383	23376.05
738.723	23383.28
739.063	23336.28
739.404	23371.98
739.744	23353.45
740.084	23212.89
740.424	23322.95
740.764	23274.36
741.104	23298.31
741.444	23183.06
741.784	23131.76
742.124	23255.38
742.464	23253.12
742.804	23167.24
743.143	23227.13
743.483	23269.39
743.823	23054.48
744.162	23114.14
744.502	23165.21
744.841	23079.56
745.181	23175.15
745.52	23016.06
745.86	23140.35
746.199	23004.99
746.538	23189.39
746.877	23093.12
747.216	23080.92
747.556	23035.27
747.895	23111.43
748.234	23041.6
748.573	23136.06
748.911	23120.92
749.25	23090.18
749.589	22935.84
749.928	22984.2
750.267	23002.5
750.605	22992.11
750.944	22926.35
751.283	22917.98
751.621	22977.42
751.96	22878.66
752.298	22932.45
752.636	22916.4
752.975	22673.7
753.313	22591.67
753.651	22792.79
753.989	22559.12
754.327	22674.38
754.666	22541.72
755.004	22524.55
755.342	22615.17
755.679	22670.99
756.017	22388.51
756.355	22457.66
756.693	22400.94
757.031	22529.97
757.368	22428.05
757.706	22412.91
758.044	22320.03
758.381	22353.71
758.719	22234.84
759.056	22289.3
759.394	22085.46
759.731	22015.18
760.068	22010.66
760.405	21901.97
760.743	21942.87
761.08	21872.14
761.417	21761.41
761.754	21715.53
762.091	21858.13
762.428	21683.67
762.765	21532.94
763.102	21560.05
763.438	21419.95
763.775	21430.57
764.112	21362.77
764.449	21414.52
764.785	21330.68
765.122	21132.27
765.458	21158.03
765.795	21048.2
766.131	21011.82
766.467	21018.15
766.804	20872.84
767.14	20852.73
767.476	20850.24
767.812	20803.01
768.148	20871.71
768.485	20654.09
768.821	20535.45
769.157	20549.91
769.492	20467.65
769.828	20386.75
770.164	20220.43
770.5	20235.12
770.836	20149.24
771.171	19978.85
771.507	20042.13
771.842	19896.37
772.178	19895.47
772.513	19888.69
772.849	19811.63
773.184	19744.06
773.519	19691.4
773.855	19624.96
774.19	19459.32
774.525	19483.72
774.86	19394.46
775.195	19383.16
775.53	19261.81
775.865	19162.83
776.2	19090.51
776.535	18992.89
776.87	18970.52
777.205	18825.66
777.539	18782.27
777.874	18763.07
778.209	18725.1
778.543	18628.38
778.878	18473.58
779.212	18476.07
779.547	18422.74
779.881	18475.62
780.215	18340.48
780.55	18284.21
780.884	18200.82
781.218	18199.24
781.552	18162.18
781.886	17970.77
782.22	17947.04
782.554	17817.1
782.888	17653.72
783.222	17676.54
783.556	17569.43
783.889	17529.43
784.223	17499.82
784.557	17420.95
784.89	17443.1
785.224	17363.1
785.557	17210.11
785.891	17231.81
786.224	17192.49
786.558	17133.05
786.891	17030
787.224	16964.7
787.557	16898.93
787.891	16911.82
788.224	16867.3
788.557	16864.81
788.89	16627.75
789.223	16686.51
789.556	16667.98
789.888	16554.31
790.221	16522.67
790.554	16345.5
790.887	16393.64
791.219	16269.8
791.552	16282
791.884	16239.74
792.217	16192.51
792.549	16044.95
792.882	15961.78
793.214	15938.73
793.546	16030.03
793.879	15842.01
794.211	15731.73
794.543	15867.1
794.875	15706.2
795.207	15782.35
795.539	15682.47
795.871	15624.17
796.203	15530.61
796.535	15451.29
796.867	15448.35
797.198	15331.74
797.53	15342.59
797.862	15233.22
798.193	15327.22
798.525	15122.94
798.856	15159.09
799.188	14938.08
799.519	15009.72
799.85	14879.78
800.182	14842.94
800.513	14899.66
800.844	14840.68
801.175	14834.36
801.506	14820.8
801.837	14669.16
802.168	14720.23
802.499	14618.77
802.83	14554.82
803.161	14533.12
803.491	14455.16
803.822	14519.11
804.153	14452.9
804.483	14315.95
804.814	14335.61
805.145	14253.58
805.475	14282.05
805.805	14165.45
806.136	14140.14
806.466	14241.38
806.796	14139.46
807.126	13988.28
807.457	13988.95
807.787	14013.81
808.117	13818.56
808.447	13834.61
808.777	13993.47
809.107	13770.2
809.436	13768.85
809.766	13783.08
810.096	13742.86
810.426	13671.9
810.755	13660.15
811.085	13665.57
811.414	13670.32
811.744	13522.3
812.073	13466.71
812.403	13416.99
812.732	13341.06
813.061	13361.63
813.39	13271.46
813.719	13241.63
814.049	13253.61
814.378	13296.77
814.707	13248.18
815.036	13217.68
815.365	13146.04
815.693	13015.42
816.022	13025.59
816.351	13011.58
816.68	12934.07
817.008	12950.79
817.337	12851.36
817.665	12839.15
817.994	12868.31
818.322	12823.56
818.651	12765.48
818.979	12742.21
819.307	12744.92
819.636	12665.15
819.964	12604.36
820.292	12627.18
820.62	12652.27
820.948	12559.61
821.276	12675.32
821.604	12628.76
821.932	12671.93
822.259	12634.87
822.587	12670.57
822.915	12561.42
823.243	12618.37
823.57	12562.1
823.898	12500.41
824.225	12550.35
824.553	12606.39
824.88	12580.4
825.207	12641.65
825.535	12493.4
825.862	12553.74
826.189	12511.25
826.516	12622.44
826.843	12710.12
827.17	12620.18
827.497	12662.44
827.824	12617.69
828.151	12546.05
828.478	12625.83
828.805	12614.75
829.131	12481.65
829.458	12545.83
829.785	12427.41
830.111	12544.92
830.438	12557.13
830.764	12577.24
831.09	12543.79
831.417	12488.43
831.743	12576.34
832.069	12497.24
832.395	12510.35
832.722	12541.99
833.048	12482.78
833.374	12521.87
833.7	12392.16
834.026	12442.55
834.351	12514.42
834.677	12384.93
835.003	12468.09
835.329	12458.37
835.654	12394.19
835.98	12290.92
836.306	12280.07
836.631	12376.57
836.956	12339.73
837.282	12335.44
837.607	12257.7
837.932	12192.84
838.258	12214.54
838.583	12243.24
838.908	12110.36
839.233	12209.79
839.558	12122.34
839.883	12050.25
840.208	12137.03
840.533	12095.67
840.858	12060.42
841.182	12054.32
841.507	11982.23
841.832	11978.84
842.156	11947.88
842.481	11955.79
842.805	11907.65
843.13	11902.91
843.454	11857.03
843.778	11837.37
844.103	11785.85
844.427	11789.24
844.751	11717.6
845.075	11711.73
845.399	11596.25
845.723	11635.34
846.047	11577.72
846.371	11539.3
846.695	11502.69
847.019	11383.6
847.343	11381.79
847.666	11322.58
847.99	11207.11
848.313	11262.47
848.637	11192.87
848.96	11164.62
849.284	11164.17
849.607	11088.24
849.931	11087.34
850.254	11003.27
850.577	10953.55
850.9	10909.26
851.223	10876.49
851.546	10802.37
851.869	10695.71
852.192	10784.74
852.515	10735.03
852.838	10601.7
853.161	10580.68
853.483	10583.62
853.806	10584.75
854.129	10524.19
854.451	10491.65
854.774	10443.28
855.096	10430.63
855.419	10391.99
855.741	10378.43
856.063	10272.22
856.385	10317.64
856.708	10232.67
857.03	10256.4
857.352	10210.3
857.674	10175.04
857.996	10182.73
858.318	10116.97
858.64	10076.74
858.961	10028.38
859.283	10021.37
859.605	9961.72
859.926	9983.86
860.248	9987.25
860.57	9879.91
860.891	9890.53
861.212	9846.46
861.534	9829.97
861.855	9842.4
862.176	9797.2
862.498	9866.12
862.819	9837.2
863.14	9739.57
863.461	9718.33
863.782	9732.79
864.103	9687.37
864.424	9624.78
864.745	9669.97
865.065	9627.71
865.386	9639.24
865.707	9582.29
866.027	9584.55
866.348	9587.26
866.668	9605.34
866.989	9496.42
867.309	9458.45
867.63	9459.13
867.95	9457.1
868.27	9422.75
868.59	9462.97
868.91	9418.68
869.23	9444.21
869.55	9408.51
869.87	9383.88
870.19	9406.02
870.51	9392.69
870.83	9374.16
871.15	9318.34
871.469	9341.17
871.789	9353.37
872.109	9358.34
872.428	9273.37
872.748	9300.04
873.067	9232.92
873.386	9281.96
873.706	9267.04
874.025	9126.03
874.344	9207.84
874.663	9150.66
874.982	9147.73
875.301	9159.93
875.62	9141.62
875.939	9120.61
876.258	9076.54
876.577	9104.11
876.896	9028.41
877.214	9020.05
877.533	9038.35
877.852	9047.62
878.17	8969.65
878.489	9015.75
878.807	8942.99
879.125	8954.06
879.444	8946.15
879.762	8909.54
880.08	8906.15
880.398	8854.85
880.716	8885.59
881.034	8820.28
881.352	8867.51
881.67	8841.97
881.988	8830.45
882.306	8808.3
882.624	8814.63
882.941	8740.5
883.259	8744.35
883.577	8721.97
883.894	8722.88
884.212	8740.05
884.529	8680.62
884.846	8648.08
885.164	8647.63
885.481	8658.7
885.798	8651.24
886.115	8597.46
886.432	8548.42
886.75	8496.44
887.067	8498.25
887.383	8482.43
887.7	8492.83
888.017	8412.83
888.334	8420.51
888.651	8368.31
888.967	8413.96
889.284	8407.86
889.6	8381.87
889.917	8263.23
890.233	8324.02
890.55	8300.29
890.866	8290.35
891.182	8215.55
891.498	8161.76
891.815	8142.78
892.131	8150.46
892.447	8120.18
892.763	8112.27
893.079	8061.65
893.395	8056.68
893.71	8038.38
894.026	8021.2
894.342	7994.31
894.657	7899.4
894.973	7938.27
895.289	7856.01
895.604	7871.6
895.92	7814.65
896.235	7859.62
896.55	7822.11
896.865	7751.83
897.181	7744.6
897.496	7779.4
897.811	7644.04
898.126	7650.82
898.441	7653.75
898.756	7680.42
899.071	7594.32
899.386	7611.95
899.7	7518.16
900.015	7572.85
900.33	7465.74
900.644	7461.67
900.959	7396.59
901.273	7391.39
901.588	7337.83
901.902	7369.92
902.216	7336.7
902.531	7296.25
902.845	7241.56
903.159	7262.13
903.473	7195.46
903.787	7200.66
904.101	7142.13
904.415	7119.98
904.729	7103.71
905.042	7064.39
905.356	7081.34
905.67	7016.93
905.984	7069.59
906.297	7001.57
906.611	6951.17
906.924	6929.7
907.237	6894.9
907.551	6879.76
907.864	6873.89
908.177	6837.96
908.491	6825.53
908.804	6817.39
909.117	6766.32
909.43	6684.51
909.743	6679.54
910.056	6662.82
910.368	6639.32
910.681	6626.44
910.994	6571.75
911.307	6551.18
911.619	6512.54
911.932	6563.39
912.244	6486.78
912.557	6515.93
912.869	6422.6
913.181	6471.86
913.494	6445.65
913.806	6362.04
914.118	6334.69
914.43	6287.69
914.742	6324.07
915.054	6268.71
915.366	6246.56
915.678	6217.63
915.99	6152.78
916.302	6102.83
916.613	6167.92
916.925	6143.06
917.236	6076.62
917.548	6053.34
917.859	6113.91
918.171	6014.25
918.482	5979.45
918.794	5905.1
919.105	5954.82
919.416	5913.23
919.727	5873.46
920.038	5862.84
920.349	5868.04
920.66	5787.81
920.971	5864.87
921.282	5808.83
921.593	5769.74
921.903	5754.37
922.214	5704.65
922.525	5710.75
922.835	5657.87
923.146	5645.9
923.456	5591.66
923.767	5612.23
924.077	5610.19
924.387	5508.73
924.697	5514.15
925.008	5466.01
925.318	5420.59
925.628	5458.78
925.938	5473.02
926.248	5404.77
926.558	5402.74
926.867	5366.81
927.177	5366.13
927.487	5281.39
927.796	5268.73
928.106	5248.17
928.416	5264.44
928.725	5260.14
929.034	5215.4
929.344	5180.6
929.653	5237.09
929.962	5132.92
930.271	5129.53
930.581	5078.23
930.89	5070.09
931.199	5055.86
931.508	5025.8
931.817	5018.12
932.125	5015.86
932.434	5002.98
932.743	4936.54
933.051	4942.19
933.36	4917.33
933.669	4846.37
933.977	4870.55
934.286	4802.3
934.594	4849.53
934.902	4773.6
935.21	4780.61
935.519	4788.52
935.827	4748.97
936.135	4721.85
936.443	4695.87
936.751	4664.45
937.059	4659.26
937.367	4578.13
937.674	4617.68
937.982	4614.96
938.29	4562.99
938.597	4592.82
938.905	4518.02
939.213	4528.86
939.52	4538.81
939.827	4483.44
940.135	4461.97
940.442	4410
940.749	4449.77
941.056	4438.02
941.363	4380.85
941.67	4330.9
941.977	4348.76
942.284	4295.42
942.591	4304.69
942.898	4303.56
943.205	4291.81
943.511	4271.92
943.818	4271.24
944.125	4245.03
944.431	4237.35
944.738	4222.66
945.044	4210.68
945.35	4161.19
945.657	4156.44
945.963	4128.87
946.269	4115.77
946.575	4133.85
946.881	4071.25
947.187	4072.6
947.493	4000.06
947.799	3983.57
948.105	3995.09
948.41	3965.49
948.716	3969.78
949.022	3932.5
949.327	3958.26
949.633	3942.89
949.938	3904.02
950.244	3902.44
950.549	3868.09
950.854	3841.42
951.16	3849.56
951.465	3793.52
951.77	3817.7
952.075	3795.32
952.38	3775.44
952.685	3791.03
952.99	3710.81
953.294	3731.37
953.599	3708.55
953.904	3691.37
954.209	3717.81
954.513	3663.12
954.818	3621.77
955.122	3603.24
955.426	3591.04
955.731	3592.84
956.035	3551.49
956.339	3518.27
956.643	3508.55
956.948	3514.65
957.252	3492.51
957.556	3487.08
957.86	3497.25
958.163	3448.44
958.467	3437.37
958.771	3464.26
959.075	3446.63
959.378	3397.82
959.682	3445.28
959.985	3386.3
960.289	3407.99
960.592	3359.86
960.896	3369.8
961.199	3313.08
961.502	3338.61
961.805	3276.92
962.108	3302.68
962.411	3321.44
962.714	3267.88
963.017	3286.18
963.32	3228.11
963.623	3246.64
963.926	3218.84
964.228	3173.87
964.531	3184.27
964.833	3215.9
965.136	3193.53
965.438	3161.44
965.741	3120.31
966.043	3115.12
966.345	3077.38
966.648	3074.89
966.95	3082.57
967.252	3062.01
967.554	3053.65
967.856	3067.89
968.158	2999.64
968.46	3004.84
968.761	2996.02
969.063	2970.71
969.365	2974.78
969.666	2966.42
969.968	2970.94
970.269	2913.77
970.571	2930.04
970.872	2915.12
971.174	2899.3
971.475	2872.86
971.776	2868.34
972.077	2865.63
972.378	2869.25
972.679	2852.07
972.98	2848.68
973.281	2829.02
973.582	2800.77
973.883	2776.37
974.183	2787.21
974.484	2765.29
974.785	2729.36
975.085	2748.8
975.386	2727.56
975.686	2687.78
975.986	2720.1
976.287	2725.07
976.587	2692.08
976.887	2679.65
977.187	2659.99
977.487	2631.06
977.787	2669.7
978.087	2637.84
978.387	2599.88
978.687	2608.01
978.987	2611.85
979.286	2576.15
979.586	2550.16
979.885	2556.71
980.185	2509.48
980.484	2521.46
980.784	2505.41
981.083	2506.77
981.382	2504.74
981.682	2516.49
981.981	2486.43
982.28	2492.53
982.579	2472.42
982.878	2483.27
983.177	2475.13
983.475	2429.94
983.774	2419.77
984.073	2429.71
984.372	2376.83
984.67	2404.4
984.969	2347
985.267	2358.07
985.566	2348.58
985.864	2331.86
986.162	2332.09
986.461	2305.87
986.759	2303.39
987.057	2321.46
987.355	2314.68
987.653	2291.41
987.951	2269.71
988.249	2268.58
988.547	2241.24
988.844	2249.38
989.142	2256.38
989.44	2229.04
989.737	2191.75
990.035	2235.36
990.332	2199.43
990.63	2186.78
990.927	2194.46
991.224	2187
991.521	2159.89
991.819	2154.24
992.116	2132.99
992.413	2116.27
992.71	2134.8
993.006	2114.92
993.303	2110.62
993.6	2080.11
993.897	2080.57
994.193	2076.95
994.49	2035.82
994.787	2059.55
995.083	2041.02
995.379	1991.3
995.676	2031.98
995.972	2007.12
996.268	1997.41
996.565	1979.33
996.861	1972.55
997.157	1958.76
997.453	1963.96
997.749	1955.82
998.044	1934.13
998.34	1934.36
998.636	1950.85
998.932	1912.89
999.227	1889.61
999.523	1909.05
999.818	1864.53
1000.114	1876.05
1000.409	1860.23
1000.704	1827.01
1001	1879.67
1001.295	1843.28
1001.59	1841.48
1001.885	1833.79
1002.18	1808.71
1002.475	1776.62
1002.77	1819.78
1003.065	1803.06
1003.359	1818.88
1003.654	1766.45
1003.949	1749.95
1004.243	1744.53
1004.538	1722.61
1004.832	1722.61
1005.127	1738.65
1005.421	1754.47
1005.715	1701.14
1006.009	1702.72
1006.304	1668.15
1006.598	1684.87
1006.892	1673.12
1007.186	1659.56
1007.48	1648.71
1007.773	1645.32
1008.067	1640.58
1008.361	1606
1008.655	1630.41
1008.948	1610.97
1009.242	1614.36
1009.535	1569.85
1009.829	1583.86
1010.122	1567.36
1010.415	1559
1010.708	1551.32
1011.001	1546.12
1011.295	1524.65
1011.588	1536.63
1011.881	1516.06
1012.173	1511.99
1012.466	1522.39
1012.759	1490.98
1013.052	1486.91
1013.344	1482.62
1013.637	1470.19
1013.93	1440.81
1014.222	1472.22
1014.514	1438.55
1014.807	1430.19
1015.099	1404.2
1015.391	1432.9
1015.683	1414.37
1015.976	1420.92
1016.268	1392.45
1016.56	1386.12
1016.851	1378.44
1017.143	1374.37
1017.435	1351.77
1017.727	1342.28
1018.018	1334.82
1018.31	1339.34
1018.602	1322.39
1018.893	1339.8
1019.185	1295.05
1019.476	1299.12
1019.767	1327.37
1020.058	1292.56
1020.35	1274.49
1020.641	1278.55
1020.932	1265.45
1021.223	1257.99
1021.514	1262.51
1021.804	1237.65
1022.095	1237.43
1022.386	1222.51
1022.677	1196.07
1022.967	1211.44
1023.258	1214.83
1023.548	1192.68
1023.839	1177.31
1024.129	1213.47
1024.419	1168.95
1024.709	1169.86
1025	1158.78
1025.29	1157.43
1025.58	1118.56
1025.87	1146.35
1026.16	1143.19
1026.449	1123.3
1026.739	1091.67
1027.029	1082.85
1027.319	1099.58
1027.608	1099.8
1027.898	1090.76
1028.187	1081.27
1028.477	1060.48
1028.766	1103.87
1029.055	1063.42
1029.344	1046.02
1029.634	1063.87
1029.923	1036.07
1030.212	1024.78
1030.501	1010.54
1030.79	1025.23
1031.078	1025.68
1031.367	1020.48
1031.656	993.14
1031.945	1000.82
1032.233	988.17
1032.522	1001.27
1032.81	989.07
1033.099	978.9
1033.387	987.71
1033.675	952.91
1033.963	946.81
1034.251	952.91
1034.54	947.94
1034.828	935.96
1035.116	930.09
1035.403	925.34
1035.691	930.54
1035.979	929.41
1036.267	928.05
1036.554	897.55
1036.842	894.38
1037.129	910.65
1037.417	912.01
1037.704	864.55
1037.992	907.94
1038.279	867.72
1038.566	891.45
1038.853	891.45
1039.14	891.45
