Data from tablewood_dark_bookshelf_FLMS001491_00025.txt Node
Date: Wed Feb 08 14:14:05 GMT 2017
User: dcchb
Spectrometer: FLMS00149
Trigger mode: 0
Integration Time (sec): 2.000000E-2
Scans to average: 10
Electric dark correction enabled: true
Nonlinearity correction enabled: false
Boxcar width: 0
XAxis mode: Wavelengths
Number of Pixels in Spectrum: 2048
>>>>>Begin Spectral Data<<<<<
341.393	-4.83
341.776	-4.83
342.16	-4.83
342.543	-52.29
342.927	-57.71
343.31	-69.24
343.693	-80.53
344.077	-45.28
344.46	-69.24
344.843	-62.23
345.226	-48.9
345.61	-33.53
345.993	-16.81
346.376	-2.8
346.759	-7.09
347.142	16.41
347.525	56.18
347.908	82.4
348.291	74.94
348.674	86.69
349.057	119.01
349.44	118.78
349.823	149.52
350.206	163.07
350.588	205.79
350.971	207.59
351.354	213.92
351.737	228.84
352.119	254.82
352.502	255.73
352.884	246.91
353.267	282.39
353.65	311.55
354.032	288.95
354.414	303.18
354.797	320.13
355.179	326.23
355.562	309.06
355.944	300.47
356.326	318.32
356.709	337.53
357.091	322.17
357.473	322.39
357.855	334.14
358.238	351.77
358.62	312.68
359.002	346.12
359.384	336.63
359.766	308.61
360.148	318.32
360.53	331.21
360.912	319
361.294	335.5
361.676	321.04
362.057	310.42
362.439	341.83
362.821	317.42
363.203	340.47
363.584	333.01
363.966	336.86
364.348	303.18
364.729	309.51
365.111	314.26
365.493	330.98
365.874	315.16
366.256	306.35
366.637	299.12
367.019	320.81
367.4	312.22
367.781	321.26
368.163	331.43
368.544	304.99
368.925	310.19
369.306	323.3
369.688	313.81
370.069	320.36
370.45	333.69
370.831	312.9
371.212	310.64
371.593	324.43
371.974	307.7
372.355	305.67
372.736	333.01
373.117	321.04
373.498	335.05
373.879	312.68
374.26	325.33
374.641	305.44
375.021	319
375.402	345.67
375.783	307.03
376.163	349.96
376.544	332.56
376.925	334.6
377.305	318.55
377.686	321.04
378.066	333.92
378.447	323.52
378.827	328.72
379.208	341.38
379.588	318.55
379.968	321.26
380.349	330.3
380.729	321.04
381.109	326.91
381.489	354.71
381.87	341.38
382.25	354.03
382.63	348.38
383.01	350.64
383.39	350.87
383.77	347.25
384.15	354.71
384.53	352.45
384.91	354.48
385.29	363.52
385.67	362.39
386.049	359.68
386.429	370.98
386.809	351.77
387.189	359.45
387.568	352
387.948	361.71
388.328	356.52
388.707	364.2
389.087	374.59
389.466	384.09
389.846	383.41
390.225	389.28
390.605	389.28
390.984	375.27
391.363	392.67
391.743	368.95
392.122	384.09
392.501	396.51
392.881	375.5
393.26	376.63
393.639	397.19
394.018	398.77
394.397	404.42
394.776	392.22
395.155	399.45
395.534	382.28
395.913	401.03
396.292	395.16
396.671	392.67
397.05	423.63
397.429	403.07
397.808	405.1
398.186	419.79
398.565	418.44
398.944	387.7
399.323	411.43
399.701	413.46
400.08	415.95
400.458	426.57
400.837	434.71
401.215	426.12
401.594	444.65
401.972	413.92
402.351	436.51
402.729	426.12
403.107	457.08
403.486	420.24
403.864	445.33
404.242	468.6
404.62	448.27
404.999	445.78
405.377	464.76
405.755	457.3
406.133	454.14
406.511	468.15
406.889	461.6
407.267	457.3
407.645	472.22
408.023	467.93
408.401	468.15
408.779	465.89
409.156	465.67
409.534	474.48
409.912	491.88
410.29	488.26
410.667	500.02
411.045	502.27
411.422	496.17
411.8	528.49
412.178	492.56
412.555	503.4
412.933	496.85
413.31	514.03
413.687	542.27
414.065	518.09
414.442	526.46
414.819	529.62
415.197	544.53
415.574	553.8
415.951	543.86
416.328	560.58
416.705	563.74
417.082	537.98
417.46	540.24
417.837	566.91
418.214	582.5
418.591	573.69
418.967	574.82
419.344	566.91
419.721	593.8
420.098	596.74
420.475	591.54
420.852	585.89
421.228	578.66
421.605	619.11
421.982	594.93
422.358	610.75
422.735	629.5
423.111	622.5
423.488	625.89
423.864	619.56
424.241	635.38
424.617	627.7
424.994	627.92
425.37	636.96
425.746	651.42
426.123	635.6
426.499	663.4
426.875	671.31
427.251	650.29
427.627	660.69
428.003	655.72
428.379	672.44
428.756	687.81
429.132	671.54
429.507	689.39
429.883	698.88
430.259	721.48
430.635	697.07
431.011	721.93
431.387	744.08
431.763	760.57
432.138	735.04
432.514	747.92
432.89	759.44
433.265	782.27
433.641	789.5
434.016	775.49
434.392	782.49
434.767	793.57
435.143	797.41
435.518	818.42
435.894	810.52
436.269	837.86
436.644	829.95
437.02	848.03
437.395	825.88
437.77	849.61
438.145	872.21
438.52	884.86
438.895	841.7
439.271	869.72
439.646	893.68
440.021	890.29
440.395	878.76
440.77	870.85
441.145	877.63
441.52	908.82
441.895	894.13
442.27	919.21
442.645	924.18
443.019	949.72
443.394	915.15
443.769	922.83
444.143	912.89
444.518	945.43
444.892	913.79
445.267	953.34
445.641	937.74
446.016	959.89
446.39	983.84
446.764	949.49
447.139	965.31
447.513	964.41
447.887	987.91
448.262	974.8
448.636	971.42
449.01	1000.57
449.384	1007.12
449.758	1001.92
450.132	1002.37
450.506	1031.07
450.88	1036.05
451.254	1048.7
451.628	1037.85
452.002	1051.86
452.376	1072.43
452.75	1069.94
453.123	1091.64
453.497	1095.48
453.871	1086.21
454.244	1093.45
454.618	1105.87
454.992	1147.68
455.365	1132.31
455.739	1154.46
456.112	1168.02
456.486	1174.35
456.859	1197.17
457.232	1182.48
457.606	1227
457.979	1217.51
458.352	1239.88
458.725	1240.79
459.099	1282.59
459.472	1283.5
459.845	1257.06
460.218	1294.12
460.591	1314.68
460.964	1288.24
461.337	1310.39
461.71	1333.44
462.083	1388.13
462.456	1384.06
462.829	1351.07
463.201	1393.55
463.574	1388.13
463.947	1418.64
464.32	1431.97
464.692	1455.47
465.065	1445.75
465.438	1497.95
465.81	1511.74
466.183	1491.63
466.555	1554.9
466.928	1555.13
467.3	1543.15
467.672	1572.76
468.045	1602.81
468.417	1617.5
468.789	1611.85
469.161	1656.14
469.534	1653.88
469.906	1693.43
470.278	1700.89
470.65	1739.76
471.022	1725.29
471.394	1760.09
471.766	1809.36
472.138	1803.26
472.51	1849.13
472.882	1843.26
473.253	1886.65
473.625	1896.14
473.997	1901.79
474.369	1963.71
474.74	1980.65
475.112	1998.73
475.484	2052.52
475.855	2031.5
476.227	2077.6
476.598	2125.51
476.97	2143.14
477.341	2179.52
477.713	2232.62
478.084	2245.28
478.455	2277.6
478.827	2280.31
479.198	2343.81
479.569	2361.21
479.94	2439.4
480.311	2425.61
480.682	2471.04
481.053	2533.41
481.424	2555.33
481.795	2593.52
482.166	2638.04
482.537	2684.14
482.908	2687.08
483.279	2713.97
483.65	2782.67
484.021	2838.71
484.391	2836.45
484.762	2897.47
485.133	2868.31
485.503	2939.05
485.874	3019.72
486.244	3032.38
486.615	3094.75
486.985	3080.96
487.356	3181.07
487.726	3186.05
488.097	3302.2
488.467	3234.41
488.837	3322.09
489.207	3337
489.578	3387.17
489.948	3412.93
490.318	3445.25
490.688	3497.9
491.058	3546.26
491.428	3584.23
491.798	3656.99
492.168	3682.98
492.538	3728.4
492.908	3748.74
493.278	3764.79
493.648	3801.17
494.017	3832.13
494.387	3876.2
494.757	3885.91
495.126	3946.93
495.496	3971.56
495.866	3980.6
496.235	3998.91
496.605	4055.18
496.974	4077.32
497.344	4060.15
497.713	4154.61
498.082	4141.05
498.452	4241.16
498.821	4271.67
499.19	4273.02
499.559	4247.94
499.928	4357.54
500.298	4336.52
500.667	4399.57
501.036	4385.56
501.405	4438.89
501.774	4441.61
502.143	4510.53
502.512	4508.72
502.88	4557.08
503.249	4545.11
503.618	4562.28
503.987	4621.26
504.356	4667.14
504.724	4692
505.093	4673.46
505.462	4696.29
505.83	4718.21
506.199	4810.41
506.567	4879.33
506.936	4838.88
507.304	4930.18
507.672	4953.68
508.041	4875.04
508.409	4957.98
508.777	5011.76
509.145	5037.75
509.514	5055.6
509.882	5114.58
510.25	5118.88
510.618	5140.12
510.986	5168.59
511.354	5263.51
511.722	5304.63
512.09	5323.84
512.458	5335.59
512.826	5391.64
513.193	5432.99
513.561	5476.83
513.929	5447.23
514.297	5519.09
514.664	5596.83
515.032	5597.28
515.4	5678.64
515.767	5638.64
516.135	5681.8
516.502	5728.13
516.869	5790.95
517.237	5798.86
517.604	5782.14
517.972	5833.89
518.339	5889.93
518.706	5945.3
519.073	6011.51
519.44	6022.13
519.808	6060.09
520.175	6091.51
520.542	6119.08
520.909	6213.99
521.276	6260.09
521.643	6278.62
522.009	6331.73
522.376	6369.92
522.743	6407.88
523.11	6435.68
523.477	6522.46
523.843	6563.81
524.21	6608.78
524.577	6657.82
524.943	6704.15
525.31	6740.75
525.676	6808.78
526.043	6902.56
526.409	6896.01
526.776	6967.19
527.142	7035.89
527.508	7063.68
527.874	7106.85
528.241	7133.96
528.607	7191.14
528.973	7188.88
529.339	7199.5
529.705	7318.82
530.071	7380.06
530.437	7391.13
530.803	7422.77
531.169	7415.99
531.535	7518.36
531.901	7533.95
532.267	7607.62
532.632	7639.04
532.998	7686.04
533.364	7753.61
533.73	7726.04
534.095	7789.31
534.461	7785.47
534.826	7874.96
535.192	7905.92
535.557	7954.73
535.923	7933.04
536.288	7961.97
536.653	8015.75
537.019	8000.61
537.384	7992.7
537.749	8138.01
538.114	8110.21
538.479	8138.23
538.845	8277.89
539.21	8143.43
539.575	8185.91
539.94	8221.85
540.305	8328.06
540.67	8283.77
541.034	8388.4
541.399	8385.91
541.764	8444.89
542.129	8452.12
542.494	8470.2
542.858	8477.43
543.223	8595.62
543.587	8572.35
543.952	8564.21
544.316	8634.04
544.681	8654.38
545.045	8776.18
545.41	8746.58
545.774	8770.76
546.138	8833.58
546.503	8800.36
546.867	8747.71
547.231	8889.63
547.595	8941.15
547.959	8953.13
548.324	8986.8
548.688	8974.14
549.052	9052.33
549.416	9052.56
549.779	9113.8
550.143	9086.46
550.507	9185.66
550.871	9168.71
551.235	9150.41
551.599	9277.19
551.962	9280.8
552.326	9343.17
552.689	9384.53
553.053	9334.13
553.417	9374.36
553.78	9479.89
554.143	9510.4
554.507	9551.98
554.87	9623.84
555.234	9626.55
555.597	9640.79
555.96	9664.75
556.323	9723.28
556.686	9756.72
557.05	9845.53
557.413	9896.6
557.776	9881.01
558.139	9937.28
558.502	10039.43
558.865	10042.59
559.228	10128.46
559.59	10151.51
559.953	10162.13
560.316	10352.64
560.679	10303.37
561.041	10324.39
561.404	10447.78
561.767	10486.19
562.129	10465.85
562.492	10543.59
562.854	10574.55
563.217	10530.03
563.579	10588.56
563.941	10710.14
564.304	10796.24
564.666	10866.52
565.028	10926.41
565.39	10950.14
565.753	11025.84
566.115	11056.57
566.477	11025.39
566.839	11125.05
567.201	11173.18
567.563	11278.04
567.925	11337.02
568.287	11327.3
568.648	11398.26
569.01	11450.69
569.372	11484.36
569.734	11507.41
570.095	11590.34
570.457	11627.86
570.819	11737.46
571.18	11730.45
571.542	11838.25
571.903	11807.29
572.265	11898.13
572.626	11944.23
572.987	12015.87
573.349	11998.24
573.71	12127.96
574.071	12128.18
574.432	12182.19
574.794	12279.82
575.155	12387.61
575.516	12323.88
575.877	12397.56
576.238	12403.43
576.599	12499.7
576.96	12414.5
577.32	12548.74
577.681	12529.76
578.042	12653.37
578.403	12643.2
578.763	12620.37
579.124	12707.6
579.485	12805.91
579.845	12839.8
580.206	12767.72
580.566	12804.55
580.927	12859.69
581.287	12928.39
581.648	12956.86
582.008	13006.58
582.368	13028.95
582.728	13087.25
583.089	13071.89
583.449	13144.88
583.809	13098.78
584.169	13206.12
584.529	13119.8
584.889	13331.99
585.249	13214.48
585.609	13195.5
585.969	13325.67
586.329	13299.23
586.688	13358.21
587.048	13324.99
587.408	13321.82
587.768	13349.62
588.127	13331.77
588.487	13395.95
588.846	13497.64
589.206	13482.05
589.565	13426.68
589.925	13488.15
590.284	13473.91
590.643	13620.35
591.003	13598.2
591.362	13637.97
591.721	13670.52
592.08	13717.29
592.44	13650.63
592.799	13757.97
593.158	13702.61
593.517	13687.69
593.876	13771.08
594.235	13723.85
594.593	13768.37
594.952	13845.88
595.311	13787.35
595.67	13881.81
596.029	13928.81
596.387	13920.68
596.746	14012.65
597.104	13916.39
597.463	14018.3
597.822	14068.02
598.18	14002.94
598.538	13999.55
598.897	14017.63
599.255	13947.8
599.613	14276.83
599.972	14131.97
600.33	14229.82
600.688	14149.6
601.046	14218.3
601.404	14285.42
601.762	14189.15
602.12	14391.63
602.478	14338.52
602.836	14451.51
603.194	14317.28
603.552	14485.64
603.91	14392.31
604.268	14522.7
604.625	14412.19
604.983	14470.04
605.341	14343.27
605.698	14473.21
606.056	14534.22
606.413	14558.63
606.771	14571.28
607.128	14627.55
607.485	14566.31
607.843	14622.13
608.2	14621.23
608.557	14655.8
608.914	14677.72
609.272	14706.2
609.629	14835.68
609.986	14805.85
610.343	14696.48
610.7	14831.62
611.057	14888.56
611.414	14851.5
611.771	14880.2
612.127	14976.24
612.484	14955
612.841	15051.95
613.198	14927.21
613.554	14964.72
613.911	15112.06
614.267	15158.84
614.624	15051.04
614.98	15083.81
615.337	15103.47
615.693	15127.65
616.05	15172.17
616.406	15189.35
616.762	15154.09
617.118	15251.72
617.475	15196.58
617.831	15293.07
618.187	15266.86
618.543	15230.02
618.899	15258.5
619.255	15305.5
619.611	15331.04
619.967	15380.08
620.323	15350.25
620.678	15345.27
621.034	15391.15
621.39	15369
621.746	15365.16
622.101	15458.94
622.457	15317.7
622.812	15449
623.168	15513.18
623.523	15486.51
623.879	15544.37
624.234	15416.69
624.589	15443.13
624.945	15501.65
625.3	15497.59
625.655	15490.58
626.01	15480.64
626.365	15479.51
626.72	15478.38
627.075	15524.48
627.43	15515.89
627.785	15429.79
628.14	15489.45
628.495	15483.8
628.85	15477.02
629.205	15369.45
629.559	15454.2
629.914	15379.62
630.269	15466.18
630.623	15385.27
630.978	15342.11
631.332	15430.92
631.687	15498.04
632.041	15383.47
632.396	15397.7
632.75	15315.22
633.104	15385.5
633.459	15269.34
633.813	15301.66
634.167	15250.36
634.521	15323.13
634.875	15355.67
635.229	15276.35
635.583	15246.97
635.937	15224.37
636.291	15259.4
636.645	15268.21
636.999	15197.26
637.352	15213.53
637.706	15200.87
638.06	15220.98
638.413	15172.85
638.767	15037.49
639.121	15183.47
639.474	14966.75
639.828	15185.05
640.181	15158.84
640.534	15156.13
640.888	15020.99
641.241	15063.7
641.594	14976.02
641.947	15063.25
642.301	15043.36
642.654	15098.28
643.007	14936.92
643.36	15006.53
643.713	14945.06
644.066	15006.98
644.419	14995
644.771	14716.14
645.124	14694.22
645.477	14642.92
645.83	14605.63
646.182	14517.73
646.535	14525.64
646.888	14557.05
647.24	14477.5
647.593	14566.76
647.945	14470.04
648.298	14431.4
648.65	14372.64
649.002	14333.1
649.355	14447.9
649.707	14465.98
650.059	14419.65
650.411	14653.09
650.763	14653.99
651.115	14832.07
651.467	14807.89
651.819	14768.11
652.171	14692.86
652.523	14678.85
652.875	14700.32
653.227	14661
653.578	14767.89
653.93	14640.89
654.282	14616.93
654.633	14644.95
654.985	14655.12
655.337	14769.02
655.688	14707.78
656.039	14773.09
656.391	14587.1
656.742	14593.66
657.094	14641.34
657.445	14662.58
657.796	14637.27
658.147	14576.93
658.498	14552.98
658.849	14653.54
659.2	14658.06
659.551	14681.56
659.902	14733.77
660.253	14672.52
660.604	14665.07
660.955	14573.54
661.306	14608.57
661.656	14637.72
662.007	14623.71
662.358	14602.24
662.708	14578.97
663.059	14586.65
663.409	14505.97
663.76	14588.68
664.11	14603.83
664.461	14605.63
664.811	14592.98
665.161	14620.32
665.511	14533.32
665.862	14529.25
666.212	14639.53
666.562	14568.8
666.912	14638.17
667.262	14578.06
667.612	14633.65
667.962	14598.63
668.312	14583.49
668.662	14636.37
669.011	14592.53
669.361	14624.62
669.711	14603.15
670.06	14553.88
670.41	14524.05
670.76	14522.7
671.109	14549.82
671.459	14506.65
671.808	14460.78
672.157	14564.05
672.507	14528.35
672.856	14469.14
673.205	14543.04
673.554	14491.96
673.904	14503.04
674.253	14628.23
674.602	14457.61
674.951	14334.23
675.3	14305.98
675.649	14426.65
675.998	14471.17
676.346	14472.08
676.695	14534.22
677.044	14446.77
677.393	14457.84
677.741	14459.65
678.09	14450.16
678.438	14471.17
678.787	14455.35
679.135	14499.42
679.484	14350.05
679.832	14432.98
680.181	14337.39
680.529	14376.03
680.877	14277.05
681.225	14220.11
681.573	14387.11
681.922	14300.1
682.27	14217.17
682.618	14224.63
682.966	14204.97
683.314	14280.67
683.661	14085.65
684.009	14129.71
684.357	14139.43
684.705	14077.51
685.053	14087.23
685.4	14074.35
685.748	13943.5
686.095	14001.81
686.443	13950.28
686.79	13938.31
687.138	13991.64
687.485	13957.06
687.832	13968.36
688.18	13920.91
688.527	13879.1
688.874	13848.59
689.221	13827.35
689.568	13769.72
689.915	13818.76
690.262	13752.77
690.609	13663.28
690.956	13709.39
691.303	13652.44
691.65	13582.83
691.997	13603.17
692.344	13547.81
692.69	13547.81
693.037	13606.56
693.383	13461.26
693.73	13410.86
694.077	13447.7
694.423	13383.97
694.769	13373.57
695.116	13370.19
695.462	13227.14
695.808	13280.92
696.155	13187.82
696.501	13176.74
696.847	13241.83
697.193	13124.32
697.539	13147.37
697.885	13133.36
698.231	13012.91
698.577	13095.84
698.923	13095.39
699.269	13023.53
699.614	12874.38
699.96	12812.23
700.306	12893.59
700.651	12785.57
700.997	12773.82
701.342	12710.32
701.688	12732.69
702.033	12765.91
702.379	12667.15
702.724	12746.7
703.069	12646.14
703.415	12541.73
703.76	12524.33
704.105	12539.7
704.45	12494.5
704.795	12461.51
705.14	12412.02
705.485	12463.09
705.83	12248.63
706.175	12307.61
706.52	12356.88
706.865	12221.97
707.209	12252.93
707.554	12227.84
707.899	12240.05
708.243	12187.17
708.588	12163.89
708.932	12140.16
709.277	12067.17
709.621	12013.16
709.966	12028.53
710.31	12070.78
710.654	12003.44
710.998	11992.37
711.342	11996.21
711.687	12004.12
712.031	11914.63
712.375	11954.18
712.719	11943.56
713.063	11846.38
713.407	11862.88
713.75	11853.84
714.094	11852.48
714.438	11797.8
714.782	11767.06
715.125	11760.51
715.469	11753.05
715.812	11743.79
716.156	11619.95
716.499	11651.81
716.843	11657.46
717.186	11590.57
717.53	11658.14
717.873	11676.67
718.216	11638.03
718.559	11562.78
718.902	11515.32
719.246	11527.75
719.589	11539.72
719.932	11508.09
720.275	11514.41
720.617	11417.24
720.96	11511.25
721.303	11422.89
721.646	11474.87
721.989	11372.95
722.331	11463.79
722.674	11443.68
723.016	11464.7
723.359	11401.2
723.701	11395.1
724.044	11333.63
724.386	11316.45
724.729	11416.79
725.071	11304.7
725.413	11321.2
725.755	11246.4
726.097	11257.7
726.439	11290.24
726.782	11288.88
727.124	11268.55
727.465	11214.31
727.807	11214.08
728.149	11173.18
728.491	11159.62
728.833	11183.35
729.175	11186.51
729.516	11125.72
729.858	11216.34
730.199	11216.57
730.541	11134.31
730.882	11146.29
731.224	11127.76
731.565	11068.32
731.906	11104.26
732.248	11080.08
732.589	11028.1
732.93	11023.35
733.271	11023.58
733.612	11012.28
733.953	11016.57
734.294	11029
734.635	10998.27
734.976	11052.96
735.317	11083.01
735.658	11025.39
735.999	10998.72
736.339	10972.06
736.68	10979.97
737.021	11030.81
737.361	10988.33
737.702	10993.98
738.042	10916.92
738.383	10913.3
738.723	10946.97
739.063	10921.89
739.404	10934.54
739.744	10880.08
740.084	10910.14
740.424	10877.6
740.764	10825.62
741.104	10917.82
741.444	10957.14
741.784	10835.56
742.124	10819.29
742.464	10864.71
742.804	10831.72
743.143	10858.61
743.483	10916.92
743.823	10784.26
744.162	10836.69
744.502	10836.01
744.841	10699.97
745.181	10826.52
745.52	10774.1
745.86	10890.7
746.199	10763.7
746.538	10785.39
746.877	10809.8
747.216	10740.65
747.556	10735.68
747.895	10792.63
748.234	10740.88
748.573	10720.31
748.911	10734.77
749.25	10779.97
749.589	10654.78
749.928	10689.8
750.267	10760.76
750.605	10666.98
750.944	10688.9
751.283	10729.8
751.621	10681.22
751.96	10587.89
752.298	10583.14
752.636	10560.54
752.975	10598.73
753.313	10555.8
753.651	10619.97
753.989	10554.44
754.327	10506.98
754.666	10488
755.004	10549.47
755.342	10511.5
755.679	10454.33
756.017	10418.85
756.355	10502.01
756.693	10456.14
757.031	10418.85
757.368	10369.81
757.706	10342.69
758.044	10376.37
758.381	10350.15
758.719	10329.14
759.056	10279.87
759.394	10253.66
759.731	10161.46
760.068	10189.7
760.405	10141.8
760.743	10099.54
761.08	10109.03
761.417	10057.73
761.754	10058.18
762.091	10069.93
762.428	10031.97
762.765	10006.21
763.102	9983.83
763.438	9924.85
763.775	9947
764.112	9864.74
764.449	9944.29
764.785	9813.89
765.122	9772.54
765.458	9832.2
765.795	9732.54
766.131	9657.74
766.467	9645.76
766.804	9646.67
767.14	9519.44
767.476	9593.34
767.812	9582.04
768.148	9590.85
768.485	9500.23
768.821	9451.19
769.157	9461.81
769.492	9434.24
769.828	9300.69
770.164	9297.52
770.5	9281.93
770.836	9381.14
771.171	9260.01
771.507	9216.4
771.842	9184.98
772.178	9124.2
772.513	9104.53
772.849	9150.18
773.184	9064.76
773.519	9051.65
773.855	8987.25
774.19	8972.11
774.525	8941.83
774.86	8908.38
775.195	8888.95
775.53	8880.81
775.865	8845.56
776.2	8787.48
776.535	8636.52
776.87	8808.05
777.205	8694.15
777.539	8643.3
777.874	8662.06
778.209	8612.8
778.543	8591.55
778.878	8509.75
779.212	8465.91
779.547	8514.95
779.881	8495.06
780.215	8439.69
780.55	8490.54
780.884	8365.12
781.218	8347.72
781.552	8336.19
781.886	8305.01
782.22	8259.59
782.554	8213.26
782.888	8096.65
783.222	8127.39
783.556	8138.46
783.889	8133.94
784.223	7935.75
784.557	8014.17
784.89	8041.06
785.224	7994.06
785.557	7954.73
785.891	7939.14
786.224	7886.94
786.558	7898.24
786.891	7818.47
787.224	7756.1
787.557	7796.09
787.891	7757.68
788.224	7769.2
788.557	7788.19
788.89	7762.87
789.223	7699.83
789.556	7632.48
789.888	7630.68
790.221	7641.07
790.554	7546.38
790.887	7648.08
791.219	7515.65
791.552	7494.18
791.884	7404.69
792.217	7458.7
792.549	7390.23
792.882	7344.35
793.214	7328.99
793.546	7340.06
793.879	7293.06
794.211	7201.31
794.543	7265.71
794.875	7218.03
795.207	7204.7
795.539	7224.36
795.871	7199.73
796.203	7132.84
796.535	7109.78
796.867	7055.1
797.198	7047.41
797.53	7033.63
797.862	7011.26
798.193	6983.69
798.525	6953.86
798.856	6983.69
799.188	6914.54
799.519	6892.62
799.85	6807.65
800.182	6885.61
800.513	6862.79
800.844	6802.22
801.175	6849.9
801.506	6826.85
801.837	6796.12
802.168	6711.83
802.499	6658.27
802.83	6683.13
803.161	6622.11
803.491	6700.08
803.822	6673.64
804.153	6608.33
804.483	6552.29
804.814	6547.54
805.145	6611.94
805.475	6518.84
805.805	6488.78
806.136	6500.76
806.466	6485.39
806.796	6437.71
807.126	6395.68
807.457	6392.29
807.787	6397.71
808.117	6357.94
808.447	6370.6
808.777	6369.47
809.107	6363.14
809.436	6268.23
809.766	6274.78
810.096	6222.35
810.426	6224.84
810.755	6314.78
811.085	6248.11
811.414	6228.45
811.744	6183.03
812.073	6176.25
812.403	6191.62
812.732	6126.53
813.061	6114.78
813.39	6133.77
813.719	6111.62
814.049	6102.58
814.378	6085.63
814.707	6034.33
815.036	6011.51
815.365	5977.61
815.693	6000.89
816.022	5960.44
816.351	5945.07
816.68	5957.27
817.008	5981.68
817.337	5912.08
817.665	5889.25
817.994	5912.08
818.322	5916.82
818.651	5861.23
818.979	5879.53
819.307	5863.04
819.636	5817.62
819.964	5818.75
820.292	5835.02
820.62	5835.92
820.948	5781.23
821.276	5759.99
821.604	5779.2
821.932	5773.55
822.259	5806.32
822.587	5817.84
822.915	5766.32
823.243	5838.18
823.57	5837.28
823.898	5812.64
824.225	5745.07
824.553	5763.15
824.88	5799.54
825.207	5746.43
825.535	5748.92
825.862	5758.63
826.189	5770.38
826.516	5805.19
826.843	5767.9
827.17	5752.98
827.497	5748.24
827.824	5760.67
828.151	5699.43
828.478	5750.5
828.805	5761.57
829.131	5788.01
829.458	5705.53
829.785	5701.46
830.111	5710.73
830.438	5741.23
830.764	5720.67
831.09	5743.95
831.417	5719.31
831.743	5778.07
832.069	5683.61
832.395	5683.61
832.722	5716.83
833.048	5733.55
833.374	5709.37
833.7	5695.13
834.026	5648.58
834.351	5753.89
834.677	5650.61
835.003	5646.55
835.329	5645.42
835.654	5668.24
835.98	5650.16
836.306	5645.19
836.631	5675.25
836.956	5629.82
837.282	5637.51
837.607	5703.49
837.932	5624.63
838.258	5568.58
838.583	5594.34
838.908	5586.89
839.233	5597.06
839.558	5580.56
839.883	5552.76
840.208	5541.46
840.533	5556.61
840.858	5515.93
841.182	5499.66
841.507	5513.89
841.832	5505.76
842.156	5489.94
842.481	5462.14
842.805	5443.16
843.13	5408.36
843.454	5419.43
843.778	5369.72
844.103	5406.1
844.427	5374.92
844.751	5390.51
845.075	5335.37
845.399	5357.06
845.723	5324.97
846.047	5318.19
846.371	5300.79
846.695	5330.85
847.019	5282.04
847.343	5216.28
847.666	5239.33
847.99	5226.9
848.313	5122.04
848.637	5154.58
848.96	5159.1
849.284	5117.52
849.607	5080.46
849.931	5066
850.254	5076.39
850.577	5029.39
850.9	5012.21
851.223	4993.91
851.546	4984.64
851.869	4942.84
852.192	4969.73
852.515	4931.76
852.838	4908.03
853.161	4884.08
853.483	4920.01
853.806	4861.93
854.129	4792.78
854.451	4870.52
854.774	4846.79
855.096	4797.3
855.419	4801.14
855.741	4780.35
856.063	4792.33
856.385	4782.84
856.708	4739
857.03	4682.5
857.352	4755.72
857.674	4713.24
857.996	4722.73
858.318	4652.9
858.64	4674.82
858.961	4674.14
859.283	4652.45
859.605	4643.18
859.926	4644.54
860.248	4633.92
860.57	4616.97
860.891	4616.97
861.212	4605.22
861.534	4560.7
861.855	4563.86
862.176	4564.09
862.498	4601.83
862.819	4550.53
863.14	4524.77
863.461	4510.08
863.782	4513.24
864.103	4512.56
864.424	4542.39
864.745	4464.66
865.065	4508.5
865.386	4463.07
865.707	4454.71
866.027	4461.72
866.348	4423.98
866.668	4460.59
866.989	4423.3
867.309	4438.89
867.63	4382.4
867.95	4412.68
868.27	4418.33
868.59	4445.9
868.91	4403.42
869.23	4443.87
869.55	4388.73
869.87	4415.62
870.19	4341.72
870.51	4339.46
870.83	4334.72
871.15	4334.04
871.469	4338.78
871.789	4371.33
872.109	4327.26
872.428	4286.36
872.748	4377.88
873.067	4340.59
873.386	4362.29
873.706	4278.45
874.025	4315.51
874.344	4282.06
874.663	4296.07
874.982	4290.42
875.301	4289.97
875.62	4255.62
875.939	4308.5
876.258	4255.62
876.577	4268.73
876.896	4241.84
877.214	4224.21
877.533	4287.49
877.852	4236.87
878.17	4244.1
878.489	4234.83
878.807	4207.04
879.125	4193.03
879.444	4212.01
879.762	4188.28
880.08	4182.4
880.398	4154.16
880.716	4190.31
881.034	4197.32
881.352	4175.62
881.67	4160.48
881.988	4161.16
882.306	4167.94
882.624	4119.13
882.941	4141.5
883.259	4079.58
883.577	4120.71
883.894	4093.37
884.212	4124.1
884.529	4054.5
884.846	4081.84
885.164	4070.54
885.481	4020.6
885.798	4033.48
886.115	4056.08
886.432	4054.5
886.75	3967.27
887.067	4002.07
887.383	3999.13
887.7	3973.14
888.017	3982.86
888.334	3942.41
888.651	4009.08
888.967	3973.82
889.284	3958.46
889.6	3946.48
889.917	3935.18
890.233	3923.43
890.55	3903.54
890.866	3923.43
891.182	3936.53
891.498	3916.2
891.815	3901.28
892.131	3907.16
892.447	3875.29
892.763	3834.62
893.079	3829.19
893.395	3823.77
893.71	3825.8
894.026	3859.25
894.342	3779.7
894.657	3784.45
894.973	3776.54
895.289	3780.61
895.604	3790.1
895.92	3758.23
896.235	3739.03
896.55	3722.3
896.865	3728.18
897.181	3732.25
897.496	3711.23
897.811	3731.12
898.126	3687.73
898.441	3681.85
898.756	3647.05
899.071	3681.85
899.386	3640.95
899.7	3627.39
900.015	3596.66
900.33	3592.82
900.644	3574.06
900.959	3606.6
901.273	3593.04
901.588	3597.56
901.902	3560.73
902.216	3540.84
902.531	3528.41
902.845	3537.9
903.159	3468.07
903.473	3493.83
903.787	3472.82
904.101	3478.02
904.415	3439.82
904.729	3446.15
905.042	3442.99
905.356	3441.86
905.67	3439.15
905.984	3406.15
906.297	3407.74
906.611	3391.92
906.924	3387.85
907.237	3391.92
907.551	3334.29
907.864	3333.84
908.177	3350.79
908.491	3370.45
908.804	3314.63
909.117	3309.66
909.43	3282.77
909.743	3224.24
910.056	3267.85
910.368	3247.74
910.681	3254.74
910.994	3232.15
911.307	3246.38
911.619	3191.47
911.932	3205.71
912.244	3204.35
912.557	3198.93
912.869	3189.44
913.181	3149.66
913.494	3161.41
913.806	3153.73
914.118	3130.91
914.43	3080.06
914.742	3096.78
915.054	3092.94
915.366	3111.47
915.678	3125.71
915.99	3093.85
916.302	3038.71
916.613	3042.77
916.925	3051.13
917.236	3020.4
917.548	2969.33
917.859	3012.94
918.171	2978.14
918.482	2960.52
918.794	2993.73
919.105	2957.35
919.416	2954.87
919.727	2951.48
920.038	2900.86
920.349	2902.66
920.66	2877.81
920.971	2915.09
921.282	2885.49
921.593	2904.47
921.903	2856.56
922.214	2861.31
922.525	2857.92
922.835	2849.33
923.146	2817.24
923.456	2808.88
923.767	2803.91
924.077	2817.02
924.387	2820.18
924.697	2749.22
925.008	2782.67
925.318	2725.27
925.628	2739.73
925.938	2727.75
926.248	2719.84
926.558	2698.15
926.867	2711.03
927.177	2686.4
927.487	2667.19
927.796	2635.33
928.106	2663.12
928.416	2651.37
928.725	2656.12
929.034	2643.46
929.344	2672.16
929.653	2590.81
929.962	2620.41
930.271	2600.52
930.581	2564.37
930.89	2587.87
931.199	2543.35
931.508	2556.46
931.817	2586.74
932.125	2555.1
932.434	2549.23
932.743	2526.4
933.051	2536.12
933.36	2490.47
933.669	2475.56
933.977	2486.86
934.286	2454.99
934.594	2458.16
934.902	2466.74
935.21	2473.75
935.519	2447.53
935.827	2465.84
936.135	2428.1
936.443	2413.86
936.751	2399.63
937.059	2381.77
937.367	2383.13
937.674	2399.17
937.982	2426.07
938.29	2370.02
938.597	2374.99
938.905	2338.61
939.213	2332.28
939.52	2349.23
939.827	2336.35
940.135	2349.46
940.442	2295.9
940.749	2288.44
941.056	2306.3
941.363	2307.2
941.67	2250.25
941.977	2298.16
942.284	2247.54
942.591	2241.89
942.898	2270.82
943.205	2247.54
943.511	2228.56
943.818	2228.11
944.125	2266.3
944.431	2194.89
944.738	2213.87
945.044	2190.37
945.35	2177.94
945.657	2172.06
945.963	2145.4
946.269	2160.99
946.575	2177.26
946.881	2147.88
947.187	2156.47
947.493	2119.41
947.799	2081.67
948.105	2131.16
948.41	2095.68
948.716	2099.97
949.022	2076.47
949.327	2069.01
949.633	2057.26
949.938	2048.9
950.244	2069.47
950.549	2084.38
950.854	2050.93
951.16	2052.74
951.465	2006.19
951.77	2060.2
952.075	2057.71
952.38	2009.81
952.685	2036.02
952.99	2019.75
953.294	1994.89
953.599	1963.25
953.904	1952.63
954.209	1958.96
954.513	1956.02
954.818	1948.56
955.122	1913.09
955.426	1911.28
955.731	1950.37
956.035	1905.63
956.339	1918.06
956.643	1925.51
956.948	1877.61
957.252	1874.89
957.556	1876.48
957.86	1888.91
958.163	1882.58
958.467	1862.47
958.771	1870.37
959.075	1848.23
959.378	1837.61
959.682	1877.61
959.985	1841.9
960.289	1827.44
960.592	1815.01
960.896	1825.4
961.199	1816.59
961.502	1815.23
961.805	1772.52
962.108	1784.5
962.411	1815.69
962.714	1765.74
963.017	1776.37
963.32	1766.87
963.623	1768.23
963.926	1726.42
964.228	1725.07
964.531	1750.6
964.833	1739.76
965.136	1733.43
965.438	1756.93
965.741	1740.66
966.043	1690.94
966.345	1723.94
966.648	1715.35
966.95	1693.88
967.252	1671.74
967.554	1697.5
967.856	1665.18
968.158	1670.83
968.46	1660.66
968.761	1624.51
969.063	1629.02
969.365	1646.65
969.666	1619.08
969.968	1628.57
970.269	1623.83
970.571	1635.58
970.872	1626.99
971.174	1591.96
971.475	1598.97
971.776	1599.42
972.077	1629.02
972.378	1600.55
972.679	1589.7
972.98	1568.46
973.281	1555.35
973.582	1573.21
973.883	1574.11
974.183	1561.46
974.484	1525.75
974.785	1545.41
975.085	1521.68
975.386	1534.56
975.686	1534.79
975.986	1533.21
976.287	1522.36
976.587	1485.3
976.887	1508.12
977.187	1529.37
977.487	1474.68
977.787	1494.57
978.087	1490.27
978.387	1478.07
978.687	1503.38
978.987	1477.84
979.286	1502.7
979.586	1470.39
979.885	1425.64
980.185	1476.03
980.484	1425.87
980.784	1431.29
981.083	1434.23
981.382	1429.93
981.682	1454.57
981.981	1443.49
982.28	1415.47
982.579	1406.43
982.878	1404.4
983.177	1409.14
983.475	1385.64
983.774	1395.58
984.073	1386.09
984.372	1367.79
984.67	1381.12
984.969	1401.01
985.267	1384.29
985.566	1335.93
985.864	1365.3
986.162	1342.48
986.461	1328.24
986.759	1326.66
987.057	1322.82
987.355	1332.31
987.653	1319.65
987.951	1322.14
988.249	1302.48
988.547	1316.49
988.844	1335.7
989.142	1320.11
989.44	1288.47
989.737	1292.31
990.035	1286.89
990.332	1270.39
990.63	1294.12
990.927	1269.94
991.224	1241.24
991.521	1274.68
991.819	1260.9
992.116	1266.1
992.413	1273.78
992.71	1236.94
993.006	1274.68
993.303	1247.34
993.6	1245.98
993.897	1212.31
994.193	1243.27
994.49	1235.14
994.787	1236.27
995.083	1179.77
995.379	1200.56
995.676	1218.19
995.972	1216.83
996.268	1153.11
996.565	1197.62
996.861	1180.68
997.157	1187.91
997.453	1139.77
997.749	1175.48
998.044	1171.18
998.34	1188.81
998.636	1148.59
998.932	1160.79
999.227	1159.43
999.523	1118.3
999.818	1114.46
1000.114	1118.76
1000.409	1123.28
1000.704	1118.76
1001	1136.38
1001.295	1109.72
1001.59	1100.9
1001.885	1109.49
1002.18	1092.09
1002.475	1082.6
1002.77	1102.49
1003.065	1092.77
1003.359	1061.81
1003.654	1088.47
1003.949	1036.05
1004.243	1034.92
1004.538	1062.26
1004.832	1060.68
1005.127	1036.27
1005.421	1051.41
1005.715	1031.98
1006.009	1022.94
1006.304	1064.75
1006.598	1036.95
1006.892	1011.64
1007.186	1003.28
1007.48	1017.52
1007.773	1005.31
1008.067	1014.58
1008.361	1011.87
1008.655	1023.84
1008.948	1009.61
1009.242	980.23
1009.535	955.37
1009.829	971.87
1010.122	941.59
1010.415	953.56
1010.708	976.61
1011.001	951.53
1011.295	935.03
1011.588	938.87
1011.881	930.74
1012.173	944.52
1012.466	954.01
1012.759	940.46
1013.052	920.79
1013.344	900
1013.637	898.65
1013.93	905.43
1014.222	912.66
1014.514	905.88
1014.807	902.94
1015.099	907.24
1015.391	888.25
1015.683	891.42
1015.976	882.15
1016.268	890.74
1016.56	875.37
1016.851	862.49
1017.143	863.17
1017.435	847.58
1017.727	852.55
1018.018	854.13
1018.31	870.17
1018.602	852.55
1018.893	847.35
1019.185	826.11
1019.476	836.05
1019.767	829.72
1020.058	805.32
1020.35	826.33
1020.641	813.68
1020.932	827.69
1021.223	820.23
1021.514	810.52
1021.804	815.49
1022.095	789.05
1022.386	789.5
1022.677	781.82
1022.967	785.43
1023.258	788.6
1023.548	788.82
1023.839	783.17
1024.129	796.5
1024.419	746.34
1024.709	755.83
1025	767.58
1025.29	760.35
1025.58	748.82
1025.87	754.7
1026.16	741.82
1026.449	728.71
1026.739	733
1027.029	743.85
1027.319	740.69
1027.608	728.94
1027.898	745.43
1028.187	701.59
1028.477	706.11
1028.766	706.79
1029.055	721.7
1029.344	700.24
1029.634	699.33
1029.923	691.42
1030.212	702.04
1030.501	682.38
1030.79	689.39
1031.078	692.78
1031.367	700.24
1031.656	684.87
1031.945	683.74
1032.233	681.48
1032.522	676.73
1032.81	662.04
1033.099	697.98
1033.387	652.1
1033.675	663.4
1033.963	646.9
1034.251	627.7
1034.54	654.36
1034.828	658.43
1035.116	646.68
1035.403	640.8
1035.691	652.33
1035.979	645.32
1036.267	643.29
1036.554	614.81
1036.842	617.3
1037.129	625.89
1037.417	636.28
1037.704	608.71
1037.992	599.45
1038.279	610.29
1038.566	631.31
1038.853	631.31
1039.14	631.31
