Data from tablewood_dark_bookshelf_FLMS001491_00061.txt Node
Date: Wed Feb 08 14:15:22 GMT 2017
User: dcchb
Spectrometer: FLMS00149
Trigger mode: 0
Integration Time (sec): 2.000000E-2
Scans to average: 10
Electric dark correction enabled: true
Nonlinearity correction enabled: false
Boxcar width: 0
XAxis mode: Wavelengths
Number of Pixels in Spectrum: 2048
>>>>>Begin Spectral Data<<<<<
341.393	-18.87
341.776	-18.87
342.16	-18.87
342.543	-62.26
342.927	-60.45
343.31	-82.82
343.693	-64.07
344.077	-64.97
344.46	-46.21
344.843	-50.73
345.226	-46.89
345.61	-43.73
345.993	-15.48
346.376	7.57
346.759	20.9
347.142	16.61
347.525	59.55
347.908	54.8
348.291	60.68
348.674	83.73
349.057	111.07
349.44	118.08
349.823	130.51
350.206	172.76
350.588	199.2
350.971	195.81
351.354	224.74
351.737	241.24
352.119	255.93
352.502	230.16
352.884	264.06
353.267	278.75
353.65	279.88
354.032	286.89
354.414	267.22
354.797	311.74
355.179	297.51
355.562	301.12
355.944	289.82
356.326	316.49
356.709	322.59
357.091	337.05
357.473	340.22
357.855	326.88
358.238	324.85
358.62	347.45
359.002	333.44
359.384	354.23
359.766	325.53
360.148	342.7
360.53	322.36
360.912	311.07
361.294	317.62
361.676	314.91
362.057	320.56
362.439	327.56
362.821	321.69
363.203	315.81
363.584	322.14
363.966	306.55
364.348	323.04
364.729	313.78
365.111	312.2
365.493	323.04
365.874	307.22
366.256	315.36
366.637	306.09
367.019	311.52
367.4	297.73
367.781	303.83
368.163	312.2
368.544	316.26
368.925	301.35
369.306	321.46
369.688	315.36
370.069	314.91
370.45	323.72
370.831	304.74
371.212	297.96
371.593	296.38
371.974	314.23
372.355	323.95
372.736	290.73
373.117	310.39
373.498	284.17
373.879	315.13
374.26	313.1
374.641	303.38
375.021	298.64
375.402	302.7
375.783	320.1
376.163	331.86
376.544	339.31
376.925	327.79
377.305	322.14
377.686	314.91
378.066	320.56
378.447	335.47
378.827	326.43
379.208	328.92
379.588	342.02
379.968	356.49
380.349	331.4
380.729	338.41
381.109	326.66
381.489	350.16
381.87	364.4
382.25	315.58
382.63	350.39
383.01	349.71
383.39	350.61
383.77	350.39
384.15	354.45
384.53	337.96
384.91	358.52
385.29	356.71
385.67	357.84
386.049	344.51
386.429	341.35
386.809	384.96
387.189	349.26
387.568	377.28
387.948	364.17
388.328	361.46
388.707	385.41
389.087	363.49
389.466	394.68
389.846	385.87
390.225	387.22
390.605	391.74
390.984	378.18
391.363	369.14
391.743	377.28
392.122	392.87
392.501	395.36
392.881	401.01
393.26	399.2
393.639	424.51
394.018	386.09
394.397	392.87
394.776	408.24
395.155	426.32
395.534	398.07
395.913	409.82
396.292	404.17
396.671	415.92
397.05	418.63
397.429	417.96
397.808	411.18
398.186	433.55
398.565	417.96
398.944	424.28
399.323	427.22
399.701	433.55
400.08	416.83
400.458	432.42
400.837	443.49
401.215	437.39
401.594	452.08
401.972	437.39
402.351	443.49
402.729	442.59
403.107	445.3
403.486	465.64
403.864	458.18
404.242	457.73
404.62	464.73
404.999	469.93
405.377	484.85
405.755	467.67
406.133	457.28
406.511	482.36
406.889	485.07
407.267	501.79
407.645	490.04
408.023	480.33
408.401	502.47
408.779	501.12
409.156	497.28
409.534	517.84
409.912	511.06
410.29	527.78
410.667	507.9
411.045	522.13
411.422	531.85
411.8	519.42
412.178	524.62
412.555	537.27
412.933	540.21
413.31	553.32
413.687	551.96
414.065	550.38
414.442	535.24
414.819	568.91
415.197	563.49
415.574	574.79
415.951	576.82
416.328	585.18
416.705	600.55
417.082	584.73
417.46	582.92
417.837	590.38
418.214	596.71
418.591	606.88
418.967	599.42
419.344	635.8
419.721	631.96
420.098	610.04
420.475	638.51
420.852	620.66
421.228	636.93
421.605	624.05
421.982	637.16
422.358	648.46
422.735	663.15
423.111	657.04
423.488	665.41
423.864	665.63
424.241	689.13
424.617	674.9
424.994	670.38
425.37	674.22
425.746	695.69
426.123	716.25
426.499	702.69
426.875	709.25
427.251	720.55
427.627	721.68
428.003	720.77
428.379	717.16
428.756	728.23
429.132	752.64
429.507	760.54
429.883	768.45
430.259	765.06
430.635	777.72
431.011	770.94
431.387	768
431.763	816.59
432.138	800.77
432.514	821.33
432.89	828.57
433.265	812.52
433.641	855.68
434.016	838.51
434.392	832.41
434.767	871.5
435.143	867.43
435.518	866.76
435.894	891.84
436.269	880.32
436.644	896.13
437.02	892.07
437.395	890.71
437.77	935.68
438.145	955.12
438.52	943.14
438.895	953.31
439.271	966.64
439.646	989.69
440.021	1005.28
440.395	990.37
440.77	978.62
441.145	978.84
441.52	993.99
441.895	1009.8
442.27	1006.64
442.645	989.47
443.019	1010.71
443.394	1022.91
443.769	1028.79
444.143	1033.76
444.518	1034.89
444.892	1057.71
445.267	1058.39
445.641	1065.4
446.016	1076.92
446.39	1093.19
446.764	1085.73
447.139	1058.16
447.513	1069.24
447.887	1089.35
448.262	1117.82
448.636	1102.68
449.01	1121.67
449.384	1117.15
449.758	1132.74
450.132	1142.23
450.506	1165.51
450.88	1174.77
451.254	1161.21
451.628	1172.51
452.002	1154.88
452.376	1198.27
452.75	1173.64
453.123	1207.76
453.497	1224.26
453.871	1249.57
454.244	1239.18
454.618	1254.32
454.992	1298.61
455.365	1303.81
455.739	1306.29
456.112	1337.03
456.486	1350.59
456.859	1363.24
457.232	1371.6
457.606	1371.6
457.979	1376.12
458.352	1390.58
458.725	1431.94
459.099	1456.35
459.472	1470.81
459.845	1473.29
460.218	1473.07
460.591	1459.96
460.964	1496.8
461.337	1539.96
461.71	1568.66
462.083	1549.45
462.456	1565.5
462.829	1567.3
463.201	1627.87
463.574	1591.48
463.947	1642.56
464.32	1662.89
464.692	1676.68
465.065	1690.46
465.438	1720.52
465.81	1739.95
466.183	1746.28
466.555	1771.82
466.928	1783.34
467.3	1768.43
467.672	1828.09
468.045	1843
468.417	1890.68
468.789	1854.08
469.161	1935.43
469.534	1939.5
469.906	2003.45
470.278	1988.54
470.65	2001.64
471.022	2040.29
471.394	2078.48
471.766	2084.35
472.138	2145.37
472.51	2184.24
472.882	2186.95
473.253	2190.34
473.625	2243.9
473.997	2273.05
474.369	2294.52
474.74	2316.21
475.112	2354.85
475.484	2379.71
475.855	2439.14
476.227	2441.63
476.598	2502.42
476.97	2541.74
477.341	2568.86
477.713	2609.76
478.084	2634.39
478.455	2703.54
478.827	2706.71
479.198	2779.93
479.569	2841.17
479.94	2875.07
480.311	2923.2
480.682	2936.98
481.053	3008.85
481.424	3100.82
481.795	3085.68
482.166	3154.61
482.537	3164.1
482.908	3202.74
483.279	3266.47
483.65	3312.79
484.021	3388.95
484.391	3396.63
484.762	3444.77
485.133	3460.81
485.503	3522.96
485.874	3605.67
486.244	3643.86
486.615	3684.99
486.985	3737.19
487.356	3794.36
487.726	3803.63
488.097	3903.97
488.467	3935.83
488.837	3988.71
489.207	4023.51
489.578	4062.83
489.948	4160.91
490.318	4179.21
490.688	4174.92
491.058	4208.36
491.428	4322.03
491.798	4398.19
492.168	4451.07
492.538	4455.14
492.908	4482.71
493.278	4537.85
493.648	4540.78
494.017	4632.76
494.387	4651.29
494.757	4710.72
495.126	4811.29
495.496	4788.69
495.866	4819.2
496.235	4891.74
496.605	4905.29
496.974	4947.1
497.344	4962.02
497.713	5033.2
498.082	5097.38
498.452	5105.74
498.821	5118.17
499.19	5176.02
499.559	5224.83
499.928	5270.03
500.298	5309.8
500.667	5345.74
501.036	5353.64
501.405	5389.35
501.774	5425.28
502.143	5470.7
502.512	5467.99
502.88	5514.09
503.249	5568.33
503.618	5615.78
503.987	5589.57
504.356	5687.65
504.724	5724.71
505.093	5740.98
505.462	5745.27
505.83	5789.34
506.199	5839.28
506.567	5893.29
506.936	5947.98
507.304	6018.49
507.672	6071.14
508.041	6056.9
508.409	6105.26
508.777	6124.92
509.145	6185.71
509.514	6175.77
509.882	6327.18
510.25	6250.34
510.618	6355.65
510.986	6387.06
511.354	6416.22
511.722	6539.15
512.09	6577.57
512.458	6555.42
512.826	6535.08
513.193	6659.82
513.561	6635.64
513.929	6703.21
514.297	6796.54
514.664	6849.88
515.032	6876.32
515.4	6942.53
515.767	6956.54
516.135	6996.09
516.502	6984.34
516.869	7167.38
517.237	7130.77
517.604	7157.89
517.972	7262.07
518.339	7241.96
518.706	7297.55
519.073	7322.18
519.44	7412.8
519.808	7460.71
520.175	7493.02
520.542	7632
520.909	7632
521.276	7739.12
521.643	7766.01
522.009	7840.36
522.376	7866.8
522.743	7902.28
523.11	8047.36
523.477	8092.56
523.843	8118.32
524.21	8139.11
524.577	8301.14
524.943	8312.44
525.31	8312.66
525.676	8458.2
526.043	8406.9
526.409	8506.1
526.776	8662.03
527.142	8577.97
527.508	8713.1
527.874	8775.02
528.241	8842.82
528.607	8870.84
528.973	8957.17
529.339	8997.62
529.705	9080.78
530.071	9166.88
530.437	9143.6
530.803	9248.46
531.169	9297.95
531.535	9251.17
531.901	9337.72
532.267	9426.31
532.632	9458.62
532.998	9568.45
533.364	9594.89
533.73	9583.82
534.095	9651.84
534.461	9753.08
534.826	9704.72
535.192	9724.83
535.557	9852.96
535.923	9867.88
536.288	9940.64
536.653	9958.72
537.019	9929.34
537.384	10051.6
537.749	10118.04
538.114	10087.08
538.479	10161.65
538.845	10170.69
539.21	10158.49
539.575	10267.41
539.94	10304.25
540.305	10303.12
540.67	10355.09
541.034	10426.28
541.399	10487.07
541.764	10490.68
542.129	10532.04
542.494	10566.16
542.858	10603.45
543.223	10560.51
543.587	10763.22
543.952	10621.3
544.316	10800.96
544.681	10745.14
545.045	10768.19
545.41	10825.82
545.774	10869.66
546.138	10931.8
546.503	11018.81
546.867	10964.57
547.231	11061.52
547.595	11071.91
547.959	11087.51
548.324	11071.91
548.688	11221.51
549.052	11259.48
549.416	11231.46
549.779	11296.54
550.143	11353.03
550.507	11352.13
550.871	11486.14
551.235	11430.32
551.599	11496.76
551.962	11599.13
552.326	11583.09
552.689	11739.92
553.053	11623.31
553.417	11701.5
553.78	11854.04
554.143	11695.17
554.507	11931.1
554.87	11957.76
555.234	12032.79
555.597	11992.79
555.96	12014.26
556.323	12094.71
556.686	12145.78
557.05	12282.5
557.413	12295.38
557.776	12313.46
558.139	12437.75
558.502	12499.67
558.865	12512.1
559.228	12576.96
559.59	12661.02
559.953	12629.39
560.316	12745.54
560.679	12739.21
561.041	12936.5
561.404	12896.05
561.767	13005.19
562.129	13006.78
562.492	13124.74
562.854	13094.68
563.217	13124.29
563.579	13191.86
563.941	13306.43
564.304	13383.72
564.666	13495.13
565.028	13435.01
565.39	13578.06
565.753	13625.97
566.115	13701.22
566.477	13690.6
566.839	13755.91
567.201	13891.27
567.563	13942.8
567.925	14013.08
568.287	14152.51
568.648	14100.53
569.01	14166.75
569.372	14340.53
569.734	14225.05
570.095	14468.66
570.457	14446.74
570.819	14539.84
571.18	14540.3
571.542	14617.36
571.903	14633.17
572.265	14767.63
572.626	14746.39
572.987	14883.56
573.349	15000.4
573.71	14923.34
574.071	15114.74
574.432	15130.11
574.794	15193.61
575.155	15220.73
575.516	15206.04
575.877	15251.24
576.238	15341.63
576.599	15406.26
576.96	15494.85
577.32	15435.19
577.681	15529.42
578.042	15608.29
578.403	15614.62
578.763	15615.3
579.124	15687.16
579.485	15782.97
579.845	15842.18
580.206	15830.66
580.566	15825.46
580.927	15914.27
581.287	15930.54
581.648	15974.16
582.008	16079.46
582.368	16030.43
582.728	16104.55
583.089	15968.73
583.449	16137.09
583.809	16194.26
584.169	16276.97
584.529	16181.38
584.889	16364.88
585.249	16385.67
585.609	16361.49
585.969	16353.58
586.329	16420.47
586.688	16358.1
587.048	16358.78
587.408	16393.58
587.768	16439.91
588.127	16507.48
588.487	16434.03
588.846	16608.72
589.206	16489.62
589.565	16550.19
589.925	16616.4
590.284	16608.04
590.643	16693.69
591.003	16619.34
591.362	16802.84
591.721	16737.07
592.08	16741.82
592.44	16878.77
592.799	16893.45
593.158	16832.89
593.517	16816.62
593.876	16931.19
594.235	16926.22
594.593	16878.54
594.952	17019.55
595.311	16930.06
595.67	16953.79
596.029	17102.04
596.387	17167.8
596.746	17123.05
597.104	17057.97
597.463	17110.62
597.822	17314.01
598.18	17170.28
598.538	17231.98
598.897	17321.47
599.255	17154.92
599.613	17537.28
599.972	17343.84
600.33	17474.91
600.688	17452.31
601.046	17356.27
601.404	17530.27
601.762	17509.94
602.12	17524.85
602.478	17592.87
602.836	17653.21
603.194	17466.55
603.552	17487.79
603.91	17548.35
604.268	17661.12
604.625	17693.89
604.983	17721
605.341	17702.02
605.698	17743.15
606.056	17845.29
606.413	17821.79
606.771	17955.12
607.128	17891.17
607.485	17818.18
607.843	17835.35
608.2	17954.44
608.557	18065.63
608.914	17883.71
609.272	18029.7
609.629	17966.42
609.986	18099.98
610.343	18071.28
610.7	18254.1
611.057	18201.67
611.414	18196.92
611.771	18144.72
612.127	18268.79
612.484	18265.4
612.841	18307.88
613.198	18253.87
613.554	18283.47
613.911	18394.66
614.267	18378.39
614.624	18379.74
614.98	18331.61
615.337	18584.48
615.693	18520.76
616.05	18400.99
616.406	18591.49
616.762	18591.26
617.118	18652.5
617.475	18548.55
617.831	18607.76
618.187	18670.81
618.543	18652.5
618.899	18781.99
619.255	18772.05
619.611	18700.19
619.967	18867.64
620.323	18850.92
620.678	18758.04
621.034	18718.26
621.39	18697.47
621.746	18695.21
622.101	18922.33
622.457	18721.43
622.812	18808.88
623.168	18834.87
623.523	18878.71
623.879	18976.56
624.234	18798.49
624.589	18823.57
624.945	18886.62
625.3	18871.48
625.655	18783.57
626.01	18956.68
626.365	18894.53
626.72	18829.67
627.075	18932.5
627.43	18812.95
627.785	18753.74
628.14	18901.08
628.495	18916.23
628.85	18865.83
629.205	18829.67
629.559	18813.63
629.914	18894.76
630.269	18873.29
630.623	18746.96
630.978	18813.4
631.332	18813.63
631.687	18859.73
632.041	18764.59
632.396	18795.1
632.75	18758.49
633.104	18748.32
633.459	18721.65
633.813	18712.39
634.167	18654.99
634.521	18616.12
634.875	18596.01
635.229	18760.52
635.583	18598.49
635.937	18564.37
636.291	18553.98
636.645	18513.98
636.999	18643.24
637.352	18639.17
637.706	18451.61
638.06	18500.64
638.413	18536.35
638.767	18519.85
639.121	18425.39
639.474	18318.5
639.828	18344.94
640.181	18468.33
640.534	18443.47
640.888	18311.95
641.241	18266.98
641.594	18359.4
641.947	18466.75
642.301	18305.39
642.654	18242.57
643.007	18302.68
643.36	18271.72
643.713	18143.82
644.066	18264.49
644.419	18272.63
644.771	18114.21
645.124	17991.28
645.477	17933.65
645.83	17808.68
646.182	17737.73
646.535	17682.36
646.888	17718.29
647.24	17596.03
647.593	17630.38
647.945	17565.75
648.298	17525.75
648.65	17500.22
649.002	17476.94
649.355	17590.61
649.707	17625.64
650.059	17662.47
650.411	17800.1
650.763	17866.76
651.115	18093.42
651.467	17968.23
651.819	17981.79
652.171	17952.18
652.523	17798.29
652.875	17939.75
653.227	17898.85
653.578	17914.22
653.93	17923.26
654.282	17791.74
654.633	17773.2
654.985	17824.96
655.337	17841
655.688	17836.25
656.039	17899.53
656.391	17804.84
656.742	17749.02
657.094	17794.22
657.445	17826.76
657.796	17755.8
658.147	17739.08
658.498	17723.71
658.849	17811.85
659.2	17755.13
659.551	17726.43
659.902	17803.26
660.253	17794.45
660.604	17751.06
660.955	17768.69
661.306	17769.82
661.656	17720.55
662.007	17659.31
662.358	17718.52
662.708	17686.2
663.059	17708.57
663.409	17651.85
663.76	17673.77
664.11	17711.74
664.461	17732.98
664.811	17691.4
665.161	17737.73
665.511	17684.62
665.862	17619.08
666.212	17730.72
666.562	17794
666.912	17702.47
667.262	17705.86
667.612	17724.84
667.962	17766.43
668.312	17652.3
668.662	17721.45
669.011	17713.32
669.361	17674.9
669.711	17614.11
670.06	17695.69
670.41	17644.85
670.76	17644.39
671.109	17709.25
671.459	17749.93
671.808	17608.24
672.157	17587.22
672.507	17537.28
672.856	17664.96
673.205	17565.3
673.554	17640.33
673.904	17547.9
674.253	17742.02
674.602	17617.95
674.951	17439.65
675.3	17340.22
675.649	17562.82
675.998	17607.11
676.346	17570.5
676.695	17636.03
677.044	17450.95
677.393	17592.19
677.741	17578.86
678.09	17507.68
678.438	17484.85
678.787	17463.16
679.135	17514.91
679.484	17352.43
679.832	17405.31
680.181	17363.05
680.529	17380.22
680.877	17413.21
681.225	17423.84
681.573	17485.3
681.922	17315.82
682.27	17240.11
682.618	17219.77
682.966	17202.82
683.314	17313.56
683.661	17229.72
684.009	17170.06
684.357	17105.65
684.705	17056.16
685.053	17101.58
685.4	17034.02
685.748	16958.99
686.095	16977.07
686.443	16887.8
686.79	16960.12
687.138	16914.92
687.485	16931.19
687.832	16824.53
688.18	16897.07
688.527	16795.83
688.874	16706.79
689.221	16788.15
689.568	16697.3
689.915	16634.93
690.262	16610.07
690.609	16565.1
690.956	16608.26
691.303	16572.33
691.65	16369.63
691.997	16477.42
692.344	16375.73
692.69	16367.37
693.037	16337.99
693.383	16229.29
693.73	16326.69
694.077	16210.53
694.423	16175.28
694.769	16141.38
695.116	16114.49
695.462	16152
695.808	16007.6
696.155	16046.47
696.501	15874.72
696.847	15901.62
697.193	15742.07
697.539	15929.19
697.885	15797.66
698.231	15716.54
698.577	15682.86
698.923	15743.65
699.269	15627.5
699.614	15537.56
699.96	15552.25
700.306	15474.96
700.651	15414.62
700.997	15381.86
701.342	15394.96
701.688	15377.79
702.033	15326.49
702.379	15363.32
702.724	15245.59
703.069	15282.2
703.415	15117
703.76	15102.77
704.105	15159.71
704.45	15153.84
704.795	15113.61
705.14	14959.95
705.485	14961.08
705.83	15007.4
706.175	14969.66
706.52	14925.6
706.865	14812.38
707.209	14825.26
707.554	14768.31
707.899	14783.68
708.243	14690.8
708.588	14730.57
708.932	14618.03
709.277	14529.67
709.621	14654.87
709.966	14485.61
710.31	14523.8
710.654	14415.1
710.998	14339.17
711.342	14426.4
711.687	14417.81
712.031	14375.1
712.375	14281.77
712.719	14310.25
713.063	14283.35
713.407	14355.89
713.75	14154.54
714.094	14313.18
714.438	14314.09
714.782	14196.58
715.125	14093.75
715.469	14185.28
715.812	13985.51
716.156	14031.16
716.499	14052.85
716.843	14012.63
717.186	13870.71
717.53	14016.02
717.873	13995.68
718.216	13903.7
718.559	13882.69
718.902	13829.58
719.246	13966.75
719.589	13776.7
719.932	13799.98
720.275	13777.38
720.617	13827.55
720.96	13770.15
721.303	13727.44
721.646	13752.07
721.989	13703.03
722.331	13738.96
722.674	13762.24
723.016	13794.55
723.359	13714.55
723.701	13688.57
724.044	13622.81
724.386	13535.12
724.729	13667.1
725.071	13667.32
725.413	13577.84
725.755	13541.45
726.097	13573.54
726.439	13526.76
726.782	13525.41
727.124	13526.31
727.465	13444.51
727.807	13448.8
728.149	13410.61
728.491	13491.74
728.833	13489.25
729.175	13350.27
729.516	13280.44
729.858	13302.14
730.199	13404.28
730.541	13377.61
730.882	13269.82
731.224	13333.55
731.565	13301.01
731.906	13271.63
732.248	13235.7
732.589	13252.42
732.93	13201.8
733.271	13254.91
733.612	13221.23
733.953	13193.44
734.294	13199.99
734.635	13202.7
734.976	13247.22
735.317	13125.87
735.658	13144.63
735.999	13110.5
736.339	13060.79
736.68	13136.72
737.021	13101.01
737.361	13070.5
737.702	13171.52
738.042	13093.1
738.383	13068.02
738.723	13097.4
739.063	13013.33
739.404	13142.37
739.744	13098.3
740.084	12949.6
740.424	13027.79
740.764	12985.76
741.104	13056.49
741.444	12933.78
741.784	12905.31
742.124	13044.29
742.464	12967.91
742.804	12976.04
743.143	12919.77
743.483	12937.4
743.823	12807.46
744.162	12893.56
744.502	12841.81
744.841	12846.55
745.181	12904.63
745.52	12897.63
745.86	12853.79
746.199	12820.11
746.538	12801.36
746.877	12879.1
747.216	12866.67
747.556	12834.58
747.895	12758.87
748.234	12736.05
748.573	12776.5
748.911	12694.92
749.25	12696.73
749.589	12608.6
749.928	12654.47
750.267	12637.75
750.605	12704.19
750.944	12700.12
751.283	12681.81
751.621	12650.18
751.96	12627.8
752.298	12669.84
752.636	12558.65
752.975	12530.63
753.313	12491.54
753.651	12587.8
753.989	12495.15
754.327	12459.9
754.666	12343.74
755.004	12472.33
755.342	12448.15
755.679	12361.82
756.017	12297.87
756.355	12383.29
756.693	12245.21
757.031	12292.45
757.368	12232.79
757.706	12277.98
758.044	12160.47
758.381	12215.84
758.719	12206.12
759.056	12162.73
759.394	12157.08
759.731	12037.08
760.068	12054.71
760.405	11933.81
760.743	11905.11
761.08	11884.32
761.417	11915.05
761.754	11880.48
762.091	11884.09
762.428	11833.25
762.765	11765.23
763.102	11808.16
763.438	11753.02
763.775	11645.23
764.112	11621.05
764.449	11696.98
764.785	11620.6
765.122	11558
765.458	11474.16
765.795	11498.79
766.131	11452.92
766.467	11446.59
766.804	11390.1
767.14	11253.15
767.476	11268.07
767.812	11266.26
768.148	11317.33
768.485	11138.35
768.821	11120.95
769.157	11138.58
769.492	11133.15
769.828	11083.66
770.164	10987.85
770.5	10899.71
770.836	10935.19
771.171	10864.23
771.507	10818.36
771.842	10711.24
772.178	10766.16
772.513	10745.37
772.849	10730.68
773.184	10606.61
773.519	10635.54
773.855	10672.83
774.19	10595.77
774.525	10494.3
774.86	10491.59
775.195	10416.11
775.53	10447.3
775.865	10428.77
776.2	10287.07
776.535	10259.96
776.87	10283.91
777.205	10262.67
777.539	10191.26
777.874	10198.49
778.209	10105.38
778.543	10190.35
778.878	9970.02
779.212	9999.62
779.547	9982.22
779.881	10029.45
780.215	9819.52
780.55	9927.54
780.884	9833.98
781.218	9848.89
781.552	9772.06
781.886	9734.77
782.22	9668.11
782.554	9607.77
782.888	9528.9
783.222	9575.91
783.556	9470.37
783.889	9454.1
784.223	9492.07
784.557	9370.71
784.89	9458.4
785.224	9433.54
785.557	9330.04
785.891	9365.29
786.224	9263.82
786.558	9213.88
786.891	9163.94
787.224	9177.5
787.557	9081.68
787.891	9064.73
788.224	9088.91
788.557	9081
788.89	9097.27
789.223	9120.1
789.556	8949.93
789.888	8901.8
790.221	8886.88
790.554	8854.12
790.887	8840.56
791.219	8830.84
791.552	8806.44
791.884	8732.31
792.217	8722.82
792.549	8669.49
792.882	8597.85
793.214	8599.66
793.546	8602.15
793.879	8536.39
794.211	8530.74
794.543	8483.96
794.875	8461.13
795.207	8463.85
795.539	8441.47
795.871	8328.26
796.203	8300.01
796.535	8392.21
796.867	8307.24
797.198	8274.47
797.53	8243.96
797.862	8198.32
798.193	8215.72
798.525	8169.39
798.856	8133.91
799.188	8119
799.519	8056.85
799.85	7965.55
800.182	8070.64
800.513	8018.21
800.844	7991.77
801.175	8020.24
801.506	8007.36
801.837	7932.33
802.168	7938.66
802.499	7836.74
802.83	7871.09
803.161	7792.45
803.491	7791.32
803.822	7764.43
804.153	7714.49
804.483	7672.45
804.814	7673.58
805.145	7640.59
805.475	7706.58
805.805	7605.34
806.136	7667.48
806.466	7617.09
806.796	7654.15
807.126	7541.84
807.457	7495.06
807.787	7480.82
808.117	7454.38
808.447	7451.89
808.777	7410.09
809.107	7498.45
809.436	7434.27
809.766	7325.8
810.096	7361.5
810.426	7330.77
810.755	7287.83
811.085	7323.31
811.414	7240.83
811.744	7208.06
812.073	7233.82
812.403	7246.25
812.732	7211.45
813.061	7197.21
813.39	7124.67
813.719	7146.59
814.049	7090.55
814.378	7163.77
814.707	7111.34
815.036	7110.21
815.365	7060.49
815.693	6945.69
816.022	6973.71
816.351	6984.11
816.68	6959.93
817.008	6966.94
817.337	6893.94
817.665	6869.99
817.994	6899.37
818.322	6872.93
818.651	6864.11
818.979	6794.28
819.307	6833.83
819.636	6869.08
819.964	6827.28
820.292	6777.79
820.62	6795.41
820.948	6783.44
821.276	6828.41
821.604	6756.32
821.932	6760.16
822.259	6752.25
822.587	6773.04
822.915	6764.91
823.243	6737.11
823.57	6764.68
823.898	6714.29
824.225	6726.72
824.553	6695.3
824.88	6721.29
825.207	6721.52
825.535	6718.35
825.862	6733.04
826.189	6743.66
826.516	6715.64
826.843	6807.17
827.17	6742.99
827.497	6789.54
827.824	6726.72
828.151	6789.54
828.478	6673.38
828.805	6767.62
829.131	6761.74
829.458	6668.19
829.785	6679.26
830.111	6711.57
830.438	6744.57
830.764	6767.17
831.09	6758.81
831.417	6653.05
831.743	6731.46
832.069	6711.57
832.395	6684.46
832.722	6717.68
833.048	6670.22
833.374	6676.1
833.7	6616.89
834.026	6647.17
834.351	6658.24
834.677	6614.85
835.003	6585.7
835.329	6634.97
835.654	6672.48
835.98	6594.06
836.306	6624.8
836.631	6671.35
836.956	6624.35
837.282	6630
837.607	6571.24
837.932	6558.81
838.258	6596.78
838.583	6544.8
838.908	6517
839.233	6510.9
839.558	6494.63
839.883	6492.82
840.208	6426.84
840.533	6425.93
840.858	6424.35
841.182	6422.99
841.507	6467.51
841.832	6402.88
842.156	6389.1
842.481	6374.41
842.805	6370.79
843.13	6343.68
843.454	6329.21
843.778	6307.97
844.103	6291.47
844.427	6323.79
844.751	6297.57
845.075	6264.81
845.399	6287.63
845.723	6219.38
846.047	6227.97
846.371	6115.66
846.695	6186.62
847.019	6140.74
847.343	6130.57
847.666	6069.56
847.99	6055.32
848.313	6072.5
848.637	5979.16
848.96	6005.6
849.284	5960.63
849.607	5924.03
849.931	5906.4
850.254	5845.61
850.577	5807.87
850.9	5812.84
851.223	5814.42
851.546	5801.99
851.869	5720.19
852.192	5764.03
852.515	5767.19
852.838	5672.73
853.161	5790.47
853.483	5729.45
853.806	5668.44
854.129	5653.75
854.451	5617.59
854.774	5604.94
855.096	5584.15
855.419	5569.46
855.741	5576.92
856.063	5546.18
856.385	5520.19
856.708	5558.38
857.03	5478.61
857.352	5475.45
857.674	5477.03
857.996	5447.2
858.318	5454.43
858.64	5455.79
858.961	5427.77
859.283	5417.6
859.605	5367.2
859.926	5358.62
860.248	5343.48
860.57	5326.75
860.891	5369.24
861.212	5296.92
861.534	5277.04
861.855	5272.52
862.176	5321.55
862.498	5312.74
862.819	5290.37
863.14	5304.83
863.461	5266.87
863.782	5209.92
864.103	5230.94
864.424	5228.9
864.745	5240.2
865.065	5175.34
865.386	5200.2
865.707	5174.21
866.027	5213.54
866.348	5175.34
866.668	5159.3
866.989	5150.26
867.309	5111.84
867.63	5156.36
867.95	5154.1
868.27	5101
868.59	5134.44
868.91	5105.97
869.23	5104.84
869.55	5071.17
869.87	5077.72
870.19	5108.23
870.51	5099.41
870.83	5081.11
871.15	5087.21
871.469	5059.41
871.789	5005.18
872.109	5051.28
872.428	4976.93
872.748	5011.96
873.067	5034.78
873.386	5025.97
873.706	4995.69
874.025	4923.37
874.344	4945.75
874.663	4950.27
874.982	4985.52
875.301	4995.24
875.62	4968.8
875.939	4948.01
876.258	4913.66
876.577	4969.02
876.896	4917.72
877.214	4907.33
877.533	4893.77
877.852	4900.55
878.17	4893.77
878.489	4932.19
878.807	4893.54
879.125	4871.62
879.444	4894.67
879.762	4844.28
880.08	4821.91
880.398	4833.21
880.716	4883.15
881.034	4851.74
881.352	4867.1
881.67	4778.07
881.988	4862.13
882.306	4788.46
882.624	4786.43
882.941	4783.26
883.259	4739.2
883.577	4739.65
883.894	4767.9
884.212	4737.16
884.529	4731.06
884.846	4740.78
885.164	4712.31
885.481	4719.54
885.798	4725.19
886.115	4655.36
886.432	4674.79
886.75	4674.34
887.067	4642.25
887.383	4652.19
887.7	4645.41
888.017	4613.33
888.334	4624.17
888.651	4565.19
888.967	4628.69
889.284	4578.07
889.6	4568.35
889.917	4541.24
890.233	4560.9
890.55	4550.73
890.866	4518.86
891.182	4509.6
891.498	4526.1
891.815	4486.77
892.131	4481.35
892.447	4468.02
892.763	4466.21
893.079	4480
893.395	4429.83
893.71	4447.68
894.026	4417.17
894.342	4430.28
894.657	4384.18
894.973	4370.17
895.289	4353.44
895.604	4360.9
895.92	4339.43
896.235	4363.84
896.55	4330.85
896.865	4280.9
897.181	4295.14
897.496	4325.42
897.811	4247.91
898.126	4248.36
898.441	4280.45
898.756	4243.17
899.071	4186.44
899.386	4224.86
899.7	4207.69
900.015	4187.12
900.33	4142.15
900.644	4142.38
900.959	4128.37
901.273	4128.37
901.588	4096.95
901.902	4064.64
902.216	4076.39
902.531	4050.4
902.845	4062.83
903.159	4042.04
903.473	4037.29
903.787	3960.91
904.101	3984.64
904.415	4052.44
904.729	3969.73
905.042	3972.21
905.356	3968.14
905.67	3985.77
905.984	3948.94
906.297	3986.9
906.611	3897.64
906.924	3903.06
907.237	3878.88
907.551	3904.87
907.864	3849.05
908.177	3839.79
908.491	3800.47
908.804	3823.29
909.117	3782.61
909.43	3769.05
909.743	3765.44
910.056	3764.99
910.368	3743.29
910.681	3754.36
910.994	3685.89
911.307	3702.84
911.619	3654.48
911.932	3691.09
912.244	3650.41
912.557	3654.48
912.869	3622.39
913.181	3637.76
913.494	3632.56
913.806	3612.45
914.118	3605.44
914.43	3606.35
914.742	3582.62
915.054	3556.86
915.366	3538.55
915.678	3565.67
915.99	3517.99
916.302	3512.11
916.613	3513.69
916.925	3496.52
917.236	3491.09
917.548	3436.63
917.859	3407.48
918.171	3410.42
918.482	3394.83
918.794	3414.49
919.105	3416.07
919.416	3387.14
919.727	3379.46
920.038	3327.94
920.349	3350.76
920.66	3313.92
920.971	3304.21
921.282	3336.52
921.593	3324.32
921.903	3282.06
922.214	3299.46
922.525	3209.75
922.835	3246.58
923.146	3263.08
923.456	3215.4
923.767	3215.62
924.077	3225.11
924.387	3206.58
924.697	3220.37
925.008	3185.34
925.318	3148.73
925.628	3144.66
925.938	3136.08
926.248	3126.81
926.558	3127.04
926.867	3097.88
927.177	3029.41
927.487	3061.73
927.796	3032.58
928.106	3017.21
928.416	3048.62
928.725	3017.43
929.034	3019.24
929.344	3015.85
929.653	2987.83
929.962	2957.55
930.271	2980.6
930.581	2948.51
930.89	2939.7
931.199	2902.86
931.508	2914.16
931.817	2907.16
932.125	2926.14
932.434	2915.06
932.743	2894.95
933.051	2873.03
933.36	2848.4
933.669	2823.77
933.977	2844.56
934.286	2835.52
934.594	2853.15
934.902	2821.28
935.21	2762.07
935.519	2824.67
935.827	2788.51
936.135	2745.58
936.443	2755.52
936.751	2729.76
937.059	2728.63
937.367	2725.47
937.674	2742.41
937.982	2701.51
938.29	2714.17
938.597	2719.59
938.905	2679.14
939.213	2648.18
939.52	2653.15
939.827	2669.65
940.135	2663.32
940.442	2611.34
940.749	2634.62
941.056	2608.18
941.363	2589.88
941.67	2610.89
941.977	2600.04
942.284	2573.15
942.591	2563.44
942.898	2565.7
943.205	2559.59
943.511	2556.43
943.818	2534.96
944.125	2535.87
944.431	2502.19
944.738	2488.18
945.044	2520.27
945.35	2467.62
945.657	2454.51
945.963	2429.43
946.269	2446.6
946.575	2451.57
946.881	2433.27
947.187	2412.93
947.493	2423.78
947.799	2410.9
948.105	2363.21
948.41	2371.8
948.716	2386.49
949.022	2361.63
949.327	2367.06
949.633	2360.73
949.938	2347.17
950.244	2315.31
950.549	2313.27
950.854	2302.2
951.16	2308.75
951.465	2297.23
951.77	2304.91
952.075	2279.15
952.38	2289.54
952.685	2271.69
952.99	2258.81
953.294	2262.43
953.599	2252.03
953.904	2229.88
954.209	2223.11
954.513	2210.9
954.818	2210.68
955.122	2181.75
955.426	2226.5
955.731	2219.94
956.035	2193.28
956.339	2177.23
956.643	2158.25
956.948	2151.24
957.252	2155.08
957.556	2137.23
957.86	2164.35
958.163	2132.26
958.467	2130.23
958.771	2113.28
959.075	2138.36
959.378	2086.16
959.682	2077.8
959.985	2077.35
960.289	2067.18
960.592	2068.31
960.896	2033.96
961.199	2052.49
961.502	2065.37
961.805	2009.33
962.108	2035.09
962.411	2030.57
962.714	2002.09
963.017	2009.1
963.32	2024.69
963.623	2002.32
963.926	1965.26
964.228	1951.93
964.531	1934.07
964.833	1954.19
965.136	1941.98
965.438	1961.64
965.741	1929.78
966.043	1913.96
966.345	1904.47
966.648	1917.35
966.95	1931.81
967.252	1886.17
967.554	1896.56
967.856	1908.54
968.158	1903.11
968.46	1878.71
968.761	1882.78
969.063	1859.95
969.365	1873.06
969.666	1835.77
969.968	1818.82
970.269	1857.92
970.571	1817.92
970.872	1831.93
971.174	1844.13
971.475	1815.88
971.776	1781.31
972.077	1804.81
972.378	1799.39
972.679	1776.79
972.98	1789.22
973.281	1759.39
973.582	1761.2
973.883	1778.82
974.183	1778.6
974.484	1746.28
974.785	1716.9
975.085	1735.43
975.386	1712.16
975.686	1716
975.986	1716.45
976.287	1706.28
976.587	1657.47
976.887	1711.03
977.187	1682.55
977.487	1690.46
977.787	1650.92
978.087	1650.01
978.387	1667.41
978.687	1647.53
978.987	1658.6
979.286	1676.91
979.586	1651.82
979.885	1645.04
980.185	1648.66
980.484	1608.66
980.784	1598.04
981.083	1602.78
981.382	1593.74
981.682	1612.05
981.981	1587.19
982.28	1588.32
982.579	1589.68
982.878	1579.73
983.177	1593.07
983.475	1566.17
983.774	1564.14
984.073	1536.8
984.372	1557.59
984.67	1563.46
984.969	1530.02
985.267	1569.11
985.566	1510.58
985.864	1525.95
986.162	1502.22
986.461	1515.1
986.759	1471.49
987.057	1477.36
987.355	1459.06
987.653	1465.16
987.951	1474.42
988.249	1457.25
988.547	1488.21
988.844	1470.36
989.142	1468.77
989.44	1451.6
989.737	1425.39
990.035	1447.76
990.332	1424.93
990.63	1437.59
990.927	1395.33
991.224	1384.71
991.521	1401.21
991.819	1402.34
992.116	1411.15
992.413	1392.17
992.71	1356.91
993.006	1403.47
993.303	1363.47
993.6	1360.53
993.897	1367.76
994.193	1346.97
994.49	1364.82
994.787	1348.33
995.083	1358.27
995.379	1328.89
995.676	1339.06
995.972	1341.55
996.268	1326.86
996.565	1318.72
996.861	1325.73
997.157	1299.06
997.453	1313.52
997.749	1305.39
998.044	1283.92
998.34	1277.14
998.636	1291.15
998.932	1268.33
999.227	1256.8
999.523	1266.52
999.818	1248.22
1000.114	1239.4
1000.409	1221.78
1000.704	1227.43
1001	1231.49
1001.295	1237.14
1001.59	1260.19
1001.885	1200.76
1002.18	1207.54
1002.475	1196.47
1002.77	1237.82
1003.065	1165.28
1003.359	1163.92
1003.654	1152.4
1003.949	1143.36
1004.243	1158.95
1004.538	1176.35
1004.832	1175
1005.127	1185.84
1005.421	1136.58
1005.715	1139.52
1006.009	1132.06
1006.304	1138.84
1006.598	1127.99
1006.892	1118.73
1007.186	1114.66
1007.48	1128.44
1007.773	1122.8
1008.067	1107.2
1008.361	1084.38
1008.655	1076.92
1008.948	1102
1009.242	1049.12
1009.535	1081.44
1009.829	1066.3
1010.122	1039.18
1010.415	1074.21
1010.708	1063.59
1011.001	1054.55
1011.295	1040.54
1011.588	1038.05
1011.881	1029.69
1012.173	1030.37
1012.466	1026.98
1012.759	1017.49
1013.052	997.83
1013.344	1019.07
1013.637	986.98
1013.93	1010.71
1014.222	1032.4
1014.514	989.24
1014.807	1002.8
1015.099	987.88
1015.391	984.27
1015.683	992.18
1015.976	952.86
1016.268	943.82
1016.56	966.87
1016.851	923.93
1017.143	936.59
1017.435	927.55
1017.727	932.29
1018.018	944.04
1018.31	929.35
1018.602	920.99
1018.893	952.18
1019.185	916.25
1019.476	926.19
1019.767	918.73
1020.058	910.15
1020.35	873.54
1020.641	870.82
1020.932	900.43
1021.223	884.84
1021.514	881.22
1021.804	857.49
1022.095	854.55
1022.386	870.37
1022.677	842.35
1022.967	853.42
1023.258	845.29
1023.548	838.51
1023.839	850.26
1024.129	834.22
1024.419	839.64
1024.709	810.49
1025	818.17
1025.29	812.3
1025.58	811.84
1025.87	809.36
1026.16	775.23
1026.449	813.42
1026.739	815.23
1027.029	805.52
1027.319	788.57
1027.608	788.34
1027.898	800.54
1028.187	774.78
1028.477	772.07
1028.766	794.22
1029.055	777.27
1029.344	785.86
1029.634	793.99
1029.923	753.77
1030.212	761.22
1030.501	740.66
1030.79	767.32
1031.078	738.62
1031.367	749.7
1031.656	749.7
1031.945	729.59
1032.233	700.43
1032.522	697.04
1032.81	721.68
1033.099	709.25
1033.387	713.31
1033.675	719.19
1033.963	696.82
1034.251	711.96
1034.54	707.21
1034.828	669.47
1035.116	663.6
1035.403	698.63
1035.691	680.55
1035.979	678.74
1036.267	669.47
1036.554	683.26
1036.842	679.42
1037.129	673.54
1037.417	659.08
1037.704	659.98
1037.992	664.95
1038.279	670.38
1038.566	659.08
1038.853	659.08
1039.14	659.08
