Data from tablewood_dark_bookshelf_FLMS001491_00010.txt Node
Date: Wed Feb 08 14:13:20 GMT 2017
User: dcchb
Spectrometer: FLMS00149
Trigger mode: 0
Integration Time (sec): 2.000000E-2
Scans to average: 10
Electric dark correction enabled: true
Nonlinearity correction enabled: false
Boxcar width: 0
XAxis mode: Wavelengths
Number of Pixels in Spectrum: 2048
>>>>>Begin Spectral Data<<<<<
341.393	-16.5
341.776	-16.5
342.16	-16.5
342.543	-69.15
342.927	-64.86
343.31	-65.08
343.693	-77.74
344.077	-56.27
344.46	-66.89
344.843	-70.96
345.226	-54.46
345.61	-22.15
345.993	-14.91
346.376	-8.81
346.759	10.85
347.142	32.32
347.525	39.1
347.908	61.47
348.291	87
348.674	97.4
349.057	109.15
349.44	133.33
349.823	131.97
350.206	161.13
350.588	171.97
350.971	199.99
351.354	208.81
351.737	218.53
352.119	244.97
352.502	260.33
352.884	254
353.267	281.57
353.65	295.13
354.032	286.09
354.414	296.49
354.797	304.62
355.179	311.86
355.562	301.69
355.944	319.99
356.326	314.57
356.709	322.25
357.091	319.54
357.473	317.96
357.855	334.68
358.238	341.91
358.62	340.33
359.002	319.31
359.384	332.42
359.766	336.49
360.148	344.4
360.53	325.64
360.912	358.86
361.294	342.36
361.676	344.85
362.057	361.57
362.439	336.71
362.821	343.04
363.203	324.96
363.584	334
363.966	315.25
364.348	336.26
364.729	322.7
365.111	343.27
365.493	331.74
365.874	322.48
366.256	323.38
366.637	324.74
367.019	316.15
367.4	321.8
367.781	331.29
368.163	326.55
368.544	323.83
368.925	331.29
369.306	324.74
369.688	331.52
370.069	345.53
370.45	321.8
370.831	324.74
371.212	315.47
371.593	315.92
371.974	317.73
372.355	343.27
372.736	348.92
373.117	327.22
373.498	334
373.879	329.03
374.26	327
374.641	319.99
375.021	355.02
375.402	321.8
375.783	338.75
376.163	333.78
376.544	343.49
376.925	324.74
377.305	345.75
377.686	356.15
378.066	337.62
378.447	331.97
378.827	349.14
379.208	320.9
379.588	350.05
379.968	333.1
380.349	357.73
380.729	349.14
381.109	365.64
381.489	366.54
381.87	367.22
382.25	379.65
382.63	353.21
383.01	381.01
383.39	382.14
383.77	362.25
384.15	389.37
384.53	385.98
384.91	398.63
385.29	375.58
385.67	382.14
386.049	392.31
386.429	398.86
386.809	391.18
387.189	387.11
387.568	387.79
387.948	390.05
388.328	415.13
388.707	403.38
389.087	408.12
389.466	397.28
389.846	409.25
390.225	414.45
390.605	434.34
390.984	430.95
391.363	441.34
391.743	438.63
392.122	428.46
392.501	429.14
392.881	419.2
393.26	424.17
393.639	412.87
394.018	440.89
394.397	440.21
394.776	449.48
395.155	467.78
395.534	438.63
395.913	430.05
396.292	444.06
396.671	463.72
397.05	457.62
397.429	448.35
397.808	456.71
398.186	465.07
398.565	490.38
398.944	476.37
399.323	471.85
399.701	450.38
400.08	491.51
400.458	462.59
400.837	499.87
401.215	504.85
401.594	500.55
401.972	484.51
402.351	511.62
402.729	496.03
403.107	506.2
403.486	517.73
403.864	526.31
404.242	526.09
404.62	515.01
404.999	515.47
405.377	516.14
405.755	487.44
406.133	537.16
406.511	553.43
406.889	538.29
407.267	561.57
407.645	562.25
408.023	563.38
408.401	569.25
408.779	589.59
409.156	603.6
409.534	581.91
409.912	574
410.29	601.11
410.667	586.2
411.045	592.98
411.422	600.21
411.8	632.98
412.178	657.61
412.555	635.92
412.933	628.68
413.31	651.73
413.687	639.53
414.065	650.83
414.442	662.58
414.819	673.65
415.197	669.13
415.574	683.82
415.951	671.85
416.328	668.68
416.705	694.22
417.082	702.13
417.46	715.46
417.837	711.85
418.214	713.43
418.591	708.46
418.967	729.25
419.344	735.35
419.721	740.32
420.098	743.26
420.475	724.5
420.852	750.71
421.228	760.88
421.605	752.52
421.982	754.33
422.358	778.74
422.735	803.59
423.111	762.24
423.488	795.23
423.864	828
424.241	805.4
424.617	823.03
424.994	829.36
425.37	819.87
425.746	847.21
426.123	834.33
426.499	851.05
426.875	855.8
427.251	877.04
427.627	879.3
428.003	884.27
428.379	913.87
428.756	894.44
429.132	887.66
429.507	921.11
429.883	936.02
430.259	953.65
430.635	937.15
431.011	944.16
431.387	988.22
431.763	995.45
432.138	1012.4
432.514	995
432.89	1028
433.265	1042.23
433.641	1056.24
434.016	1051.05
434.392	1067.09
434.767	1082.46
435.143	1052.18
435.518	1093.98
435.894	1069.58
436.269	1089.24
436.644	1105.73
437.02	1156.81
437.395	1139.18
437.77	1146.18
438.145	1137.6
438.52	1185.05
438.895	1158.61
439.271	1163.81
439.646	1199.74
440.021	1202.23
440.395	1232.06
440.77	1216.69
441.145	1218.5
441.52	1225.73
441.895	1259.4
442.27	1253.75
442.645	1274.54
443.019	1285.39
443.394	1296.46
443.769	1313.19
444.143	1277.48
444.518	1293.53
444.892	1295.33
445.267	1316.12
445.641	1316.35
446.016	1343.47
446.39	1344.82
446.764	1361.55
447.139	1376.46
447.513	1351.38
447.887	1377.82
448.262	1388.21
448.636	1399.74
449.01	1390.92
449.384	1407.42
449.758	1430.92
450.132	1427.08
450.506	1440.87
450.88	1469.34
451.254	1448.32
451.628	1468.66
452.002	1491.26
452.376	1496.68
452.75	1498.49
453.123	1549.56
453.497	1561.77
453.871	1548.21
454.244	1584.82
454.618	1588.43
454.992	1615.32
455.365	1626.62
455.739	1696
456.112	1662.78
456.486	1692.16
456.859	1722.89
457.232	1718.37
457.606	1714.98
457.979	1796.11
458.352	1768.54
458.725	1806.05
459.099	1818.26
459.472	1829.56
459.845	1873.62
460.218	1939.61
460.591	1929.44
460.964	1931.7
461.337	1937.58
461.71	1993.17
462.083	1979.16
462.456	2027.52
462.829	2021.19
463.201	2068.87
463.574	2079.27
463.947	2110.68
464.32	2116.1
464.692	2167.17
465.065	2151.58
465.438	2178.93
465.81	2208.98
466.183	2250.34
466.555	2290.56
466.928	2311.13
467.3	2281.97
467.672	2321.29
468.045	2429.99
468.417	2416.89
468.789	2412.59
469.161	2472.48
469.534	2500.05
469.906	2532.81
470.278	2552.7
470.65	2582.98
471.022	2626.82
471.394	2664.56
471.766	2693.04
472.138	2744.79
472.51	2799.25
472.882	2803.77
473.253	2839.47
473.625	2922.86
473.997	2925.8
474.369	2980.49
474.74	2995.63
475.112	3065.23
475.484	3133.93
475.855	3109.97
476.227	3182.74
476.598	3267.03
476.97	3277.65
477.341	3377.99
477.713	3428.16
478.084	3447.59
478.455	3550.42
478.827	3556.74
479.198	3650.98
479.569	3658.89
479.94	3715.38
480.311	3784.76
480.682	3823.63
481.053	3914.93
481.424	4039.44
481.795	4026.79
482.166	4072.66
482.537	4114.69
482.908	4242.15
483.279	4282.15
483.65	4344.07
484.021	4434.69
484.391	4435.59
484.762	4546.55
485.133	4558.98
485.503	4603.72
485.874	4708.8
486.244	4779.99
486.615	4862.92
486.985	4890.94
487.356	4992.41
487.726	5056.14
488.097	5071.05
488.467	5135.68
488.837	5266.53
489.207	5311.27
489.578	5341.1
489.948	5429.24
490.318	5499.52
490.688	5578.84
491.058	5622.68
491.428	5667.87
491.798	5740.19
492.168	5835.78
492.538	5843.24
492.908	5930.24
493.278	5977.24
493.648	5975.44
494.017	6105.15
494.387	6137.69
494.757	6199.84
495.126	6265.6
495.496	6265.6
495.866	6306.5
496.235	6424.92
496.605	6487.97
496.974	6527.51
497.344	6572.71
497.713	6590.79
498.082	6724.79
498.452	6735.87
498.821	6745.13
499.19	6747.85
499.559	6880.95
499.928	6893.83
500.298	6943.32
500.667	7033.94
501.036	7012.47
501.405	7042.98
501.774	7143.09
502.143	7167.72
502.512	7246.36
502.88	7297.21
503.249	7284.33
503.618	7336.3
503.987	7394.61
504.356	7440.48
504.724	7489.97
505.093	7518.9
505.462	7570.87
505.83	7700.36
506.199	7738.33
506.567	7833.47
506.936	7807.48
507.304	7920.24
507.672	7914.82
508.041	7989.85
508.409	8003.18
508.777	8113.01
509.145	8116.17
509.514	8188.03
509.882	8326.79
510.25	8297.86
510.618	8299.44
510.986	8417.86
511.354	8442.26
511.722	8581.47
512.09	8621.47
512.458	8579.89
512.826	8733.33
513.193	8784.85
513.561	8842.03
513.929	8859.65
514.297	8992.08
514.664	9063.26
515.032	9072.76
515.4	9147.1
515.767	9152.3
516.135	9244.73
516.502	9185.97
516.869	9422.35
517.237	9449.02
517.604	9472.29
517.972	9537.83
518.339	9694.21
518.706	9670.03
519.073	9707.54
519.44	9839.97
519.808	9901.21
520.175	9940.76
520.542	9993.18
520.909	10171.48
521.276	10137.36
521.643	10272.72
522.009	10340.29
522.376	10444.7
522.743	10437.01
523.11	10576.67
523.477	10719.27
523.843	10717.01
524.21	10808.08
524.577	10941.18
524.943	10994.29
525.31	11053.72
525.676	11099.14
526.043	11246.48
526.409	11291.23
526.776	11415.52
527.142	11396.08
527.508	11434.5
527.874	11637.89
528.241	11656.64
528.607	11694.16
528.973	11855.06
529.339	11840.14
529.705	11977.31
530.071	12046.46
530.437	12167.36
530.803	12217.31
531.169	12228.38
531.535	12244.88
531.901	12316.29
532.267	12417.75
532.632	12503.17
532.998	12533.23
533.364	12600.12
533.73	12734.81
534.095	12708.37
534.461	12870.4
534.826	12926.67
535.192	12930.28
535.557	13030.17
535.923	13032.88
536.288	13144.74
536.653	13197.17
537.019	13236.49
537.384	13198.75
537.749	13231.97
538.114	13399.65
538.479	13374.11
538.845	13433.32
539.21	13476.93
539.575	13513.09
539.94	13603.26
540.305	13612.3
540.67	13579.08
541.034	13682.8
541.399	13811.39
541.764	13947.43
542.129	13906.75
542.494	13940.88
542.858	14016.13
543.223	13950.37
543.587	14092.96
543.952	14063.36
544.316	14149.91
544.681	14185.62
545.045	14370.47
545.41	14359.17
545.774	14393.29
546.138	14343.13
546.503	14469.22
546.867	14496.57
547.231	14653.63
547.595	14637.58
547.959	14668.09
548.324	14703.57
548.688	14806.39
549.052	14933.84
549.416	15014.52
549.779	14820.4
550.143	14973.84
550.507	15145.59
550.871	15090.22
551.235	15101.75
551.599	15308.3
551.962	15367.96
552.326	15414.51
552.689	15439.14
553.053	15469.2
553.417	15504.23
553.78	15661.28
554.143	15604.79
554.507	15696.08
554.87	15653.15
555.234	15903.76
555.597	15807.72
555.96	15922.97
556.323	16024.66
556.686	16064.44
557.05	16261.27
557.413	16171.78
557.776	16286.13
558.139	16343.3
558.502	16486.8
558.865	16502.16
559.228	16661.26
559.59	16657.64
559.953	16743.29
560.316	16766.11
560.679	16888.37
561.041	17055.37
561.404	17065.54
561.767	17162.26
562.129	17137.18
562.492	17405.87
562.854	17411.97
563.217	17334.01
563.579	17518.64
563.941	17552.08
564.304	17614.23
564.666	17730.16
565.028	17820.77
565.39	17915.24
565.753	18045.85
566.115	18112.74
566.477	18209.69
566.839	18231.84
567.201	18301.21
567.563	18391.38
567.925	18462.57
568.287	18506.18
568.648	18589.57
569.01	18751.37
569.372	18937.13
569.734	18782.78
570.095	18980.29
570.457	19076.56
570.819	19165.37
571.18	19069.1
571.542	19265.26
571.903	19244.24
572.265	19358.14
572.626	19505.93
572.987	19594.74
573.349	19650.56
573.71	19713.15
574.071	19712.93
574.432	19839.7
574.794	19957.67
575.155	19975.07
575.516	19977.78
575.877	20164.67
576.238	20204.89
576.599	20243.76
576.96	20309.07
577.32	20385.23
577.681	20428.16
578.042	20422.74
578.403	20469.74
578.763	20520.82
579.124	20578.67
579.485	20779.79
579.845	20909.51
580.206	20769.4
580.566	20768.04
580.927	20748.61
581.287	20961.71
581.648	20934.82
582.008	20991.31
582.368	20956.06
582.728	21109.95
583.089	21033.57
583.449	21177.52
583.809	21100.01
584.169	21127.35
584.529	21272.89
584.889	21329.83
585.249	21250.06
585.609	21154.7
585.969	21328.93
586.329	21249.61
586.688	21360.79
587.048	21377.97
587.408	21296.16
587.768	21404.18
588.127	21372.09
588.487	21447.12
588.846	21618.41
589.206	21454.13
589.565	21544.29
589.925	21675.36
590.284	21716.72
590.643	21751.52
591.003	21769.6
591.362	21884.62
591.721	21766.66
592.08	21788.58
592.44	21899.09
592.799	21800.33
593.158	21808.92
593.517	21864.96
593.876	22030.61
594.235	21919.42
594.593	21958.29
594.952	21923.27
595.311	22022.02
595.67	22108.35
596.029	22202.81
596.387	22130.94
596.746	22230.83
597.104	22109.02
597.463	22177.5
597.822	22349.69
598.18	22210.49
598.538	22270.37
598.897	22335.46
599.255	22241.9
599.613	22705.62
599.972	22452.74
600.33	22443.25
600.688	22473.76
601.046	22588.78
601.404	22636.47
601.762	22414.1
602.12	22647.77
602.478	22673.08
602.836	22669.46
603.194	22547.2
603.552	22630.82
603.91	22587.65
604.268	22811.15
604.625	22717.14
604.983	22747.65
605.341	22784.94
605.698	22856.35
606.056	23029.68
606.413	22983.12
606.771	22991.26
607.128	22950.13
607.485	22896.12
607.843	23033.74
608.2	23107.42
608.557	23164.59
608.914	23134.31
609.272	23279.61
609.629	23221.99
609.986	23367.75
610.343	23299.27
610.7	23422.66
611.057	23530
611.414	23369.1
611.771	23395.54
612.127	23532.04
612.484	23455.65
612.841	23547.86
613.198	23461.53
613.554	23598.93
613.911	23657.23
614.267	23690
614.624	23716.21
614.98	23649.55
615.337	23786.72
615.693	23856.1
616.05	23723.22
616.406	23906.72
616.762	23759.15
617.118	23969.99
617.475	23890.45
617.831	23962.53
618.187	24001.85
618.543	23950.56
618.899	24099.25
619.255	24062.87
619.611	24036.88
619.967	24173.15
620.323	24183.54
620.678	24139.03
621.034	24021.97
621.39	24068.52
621.746	24033.27
622.101	24245.01
622.457	24091.34
622.812	24094.73
623.168	24285.92
623.523	24235.97
623.879	24224.9
624.234	24184.9
624.589	24279.36
624.945	24379.47
625.3	24238.01
625.655	24256.54
626.01	24205.24
626.365	24309.42
626.72	24226.03
627.075	24228.52
627.43	24256.09
627.785	24131.12
628.14	24179.7
628.495	24289.53
628.85	24188.97
629.205	24096.32
629.559	24284.56
629.914	24158.23
630.269	24175.86
630.623	24096.54
630.978	24108.97
631.332	24204.56
631.687	24199.59
632.041	24030.78
632.396	24126.82
632.75	23984
633.104	24057.45
633.459	24012.25
633.813	23906.49
634.167	23987.62
634.521	23953.49
634.875	23923.21
635.229	23932.48
635.583	23754.4
635.937	23788.3
636.291	23807.74
636.645	23872.37
636.999	23739.26
637.352	23729.55
637.706	23684.35
638.06	23785.59
638.413	23662.65
638.767	23589.89
639.121	23612.71
639.474	23482.77
639.828	23453.39
640.181	23553.28
640.534	23531.58
640.888	23519.83
641.241	23479.83
641.594	23534.52
641.947	23446.39
642.301	23451.59
642.654	23515.77
643.007	23500.4
643.36	23342.89
643.713	23442.77
644.066	23475.99
644.419	23400.06
644.771	23242.55
645.124	22958.49
645.477	22850.02
645.83	22730.48
646.182	22661.55
646.535	22503.36
646.888	22675.79
647.24	22437.38
647.593	22663.36
647.945	22522.12
648.298	22498.84
648.65	22379.07
649.002	22324.16
649.355	22459.3
649.707	22285.74
650.059	22525.28
650.411	22769.8
650.763	22787.88
651.115	23048.21
651.467	22938.38
651.819	22879.85
652.171	22758.5
652.523	22789.46
652.875	22873.52
653.227	22737.03
653.578	22871.71
653.93	22756.46
654.282	22672.4
654.633	22702.68
654.985	22718.95
655.337	22720.31
655.688	22767.31
656.039	22776.35
656.391	22591.95
656.742	22656.58
657.094	22723.7
657.445	22831.72
657.796	22656.13
658.147	22671.49
658.498	22602.8
658.849	22697.26
659.2	22691.83
659.551	22692.96
659.902	22706.3
660.253	22649.57
660.604	22704.94
660.955	22486.41
661.306	22616.35
661.656	22543.14
662.007	22541.33
662.358	22558.05
662.708	22596.47
663.059	22497.94
663.409	22419.75
663.76	22689.57
664.11	22577.94
664.461	22612.29
664.811	22668.1
665.161	22624.26
665.511	22595.56
665.862	22527.09
666.212	22588.56
666.562	22625.39
666.912	22554.44
667.262	22620.2
667.612	22572.97
667.962	22520.31
668.312	22553.76
668.662	22543.36
669.011	22616.13
669.361	22470.37
669.711	22517.6
670.06	22512.4
670.41	22397.15
670.76	22407.09
671.109	22436.92
671.459	22437.83
671.808	22358.73
672.157	22498.84
672.507	22318.74
672.856	22361.22
673.205	22398.51
673.554	22365.51
673.904	22362.35
674.253	22388.11
674.602	22429.92
674.951	21995.35
675.3	21891.4
675.649	22213.88
675.998	22214.56
676.346	22169.13
676.695	22361.9
677.044	22111.73
677.393	22281.45
677.741	22327.32
678.09	22213.65
678.438	22151.06
678.787	22243.48
679.135	22226.76
679.484	22036.93
679.832	22113.32
680.181	22081.91
680.529	22108.57
680.877	22030.16
681.225	22047.1
681.573	22174.11
681.922	22017.95
682.27	21952.19
682.618	21943.38
682.966	22035.13
683.314	21956.94
683.661	21828.13
684.009	21864.96
684.357	21702.25
684.705	21647.57
685.053	21703.61
685.4	21680.56
685.748	21570.73
686.095	21624.52
686.443	21484.41
686.79	21460.23
687.138	21533.67
687.485	21476.5
687.832	21476.72
688.18	21450.06
688.527	21338.65
688.874	21319.67
689.221	21312.89
689.568	21098.65
689.915	21096.85
690.262	21086.68
690.609	21143.4
690.956	21106.11
691.303	21020.01
691.65	20830.41
691.997	20839.45
692.344	20732.79
692.69	20703.64
693.037	20694.15
693.383	20545
693.73	20583.41
694.077	20499.35
694.423	20530.76
694.769	20448.73
695.116	20378
695.462	20438.11
695.808	20348.39
696.155	20376.41
696.501	20241.5
696.847	20214.38
697.193	20156.76
697.539	20157.66
697.885	20025.46
698.231	19969.64
698.577	20078.34
698.923	19899.82
699.269	19814.85
699.614	19715.19
699.96	19749.76
700.306	19733.94
700.651	19658.01
700.997	19482.2
701.342	19516.77
701.688	19526.27
702.033	19454.63
702.379	19470.67
702.724	19345.71
703.069	19445.36
703.415	19136.67
703.76	19200.63
704.105	19193.62
704.45	19153.62
704.795	19037.69
705.14	19058.26
705.485	18911.59
705.83	18882.22
706.175	18958.82
706.52	18910.24
706.865	18839.5
707.209	18731.94
707.554	18648.55
707.899	18699.62
708.243	18567.42
708.588	18613.3
708.932	18536.24
709.277	18505.05
709.621	18515.22
709.966	18459.18
710.31	18471.15
710.654	18323.36
710.998	18291.04
711.342	18300.54
711.687	18273.87
712.031	18233.87
712.375	18162.91
712.719	18078.85
713.063	18127.21
713.407	18162.23
713.75	18005.85
714.094	18191.61
714.438	18011.96
714.782	18011.28
715.125	17899.19
715.469	17987.1
715.812	17842.24
716.156	17729.7
716.499	17761.11
716.843	17811.51
717.186	17684.51
717.53	17809.48
717.873	17758.18
718.216	17683.83
718.559	17750.04
718.902	17511.63
719.246	17650.84
719.589	17529.26
719.932	17407.23
720.275	17528.35
720.617	17459.88
720.96	17451.97
721.303	17494
721.646	17383.72
721.989	17333.1
722.331	17248.36
722.674	17411.07
723.016	17433.21
723.359	17331.52
723.701	17290.39
724.044	17215.37
724.386	17153.45
724.729	17271.41
725.071	17109.61
725.413	17214.01
725.755	17095.37
726.097	17026.67
726.439	16988.71
726.782	17051.76
727.124	17056.05
727.465	17016.95
727.807	17016.05
728.149	16807.92
728.491	16859.22
728.833	16908.48
729.175	16957.07
729.516	16851.53
729.858	16966.56
730.199	16925.43
730.541	16897.41
730.882	16762.95
731.224	16875.49
731.565	16698.32
731.906	16691.54
732.248	16764.3
732.589	16608.38
732.93	16650.41
733.271	16642.95
733.612	16684.08
733.953	16718.88
734.294	16584.65
734.635	16674.82
734.976	16642.05
735.317	16655.38
735.658	16620.58
735.999	16528.38
736.339	16560.47
736.68	16603.86
737.021	16471.88
737.361	16439.57
737.702	16586.23
738.042	16440.02
738.383	16485.22
738.723	16499.23
739.063	16444.54
739.404	16423.97
739.744	16340.36
740.084	16414.03
740.424	16417.2
740.764	16389.4
741.104	16291.78
741.444	16213.13
741.784	16150.54
742.124	16240.25
742.464	16225.11
742.804	16144.43
743.143	16096.75
743.483	16191.89
743.823	16145.11
744.162	16113.93
744.502	16245.45
744.841	16005.68
745.181	16101.72
745.52	16068.96
745.86	16070.54
746.199	16092.91
746.538	16005
746.877	16106.02
747.216	16062.63
747.556	15891.33
747.895	15926.81
748.234	15884.55
748.573	15942.41
748.911	15830.32
749.25	15913.48
749.589	15863.09
749.928	15890.88
750.267	15868.28
750.605	15709.19
750.944	15705.58
751.283	15686.59
751.621	15776.31
751.96	15718.23
752.298	15672.13
752.636	15685.92
752.975	15619.25
753.313	15574.05
753.651	15694.73
753.989	15519.82
754.327	15526.15
754.666	15416.09
755.004	15470.55
755.342	15491.8
755.679	15432.81
756.017	15299.48
756.355	15401.4
756.693	15310.78
757.031	15333.16
757.368	15234.4
757.706	15166.61
758.044	15165.93
758.381	15162.54
758.719	14995.31
759.056	15173.61
759.394	15044.12
759.731	14960.06
760.068	14999.83
760.405	14905.82
760.743	14832.15
761.08	14955.76
761.417	14804.58
761.754	14765.71
762.091	14734.75
762.428	14690.24
762.765	14645.49
763.102	14604.81
763.438	14554.87
763.775	14520.3
764.112	14615.21
764.449	14566.17
764.785	14443.24
765.122	14299.74
765.458	14354.42
765.795	14262.22
766.131	14201.21
766.467	14164.15
766.804	13992.85
767.14	14048.44
767.476	14040.53
767.812	14004.6
768.148	13951.72
768.485	13908.11
768.821	13854.1
769.157	13766.42
769.492	13769.13
769.828	13738.85
770.164	13617.72
770.5	13522.58
770.836	13558.29
771.171	13506.09
771.507	13510.15
771.842	13320.78
772.178	13369.82
772.513	13389.48
772.849	13256.83
773.184	13212.08
773.519	13196.49
773.855	13119.2
774.19	13093.44
774.525	13005.31
774.86	13019.09
775.195	12953.78
775.53	12920.34
775.865	12934.8
776.2	12735.48
776.535	12744.07
776.87	12781.81
777.205	12707.01
777.539	12665.43
777.874	12639.89
778.209	12521.48
778.543	12475.15
778.878	12401.26
779.212	12458.2
779.547	12349.73
779.881	12448.94
780.215	12295.04
780.55	12326
780.884	12208.04
781.218	12194.26
781.552	12150.87
781.886	12114.94
782.22	12001.72
782.554	11998.33
782.888	11941.38
783.222	11753.14
783.556	11803.98
783.889	11770.09
784.223	11720.14
784.557	11708.17
784.89	11686.47
785.224	11516.53
785.557	11549.3
785.891	11501.62
786.224	11410.77
786.558	11475.4
786.891	11387.05
787.224	11331.45
787.557	11316.76
787.891	11273.15
788.224	11189.31
788.557	11211
788.89	11254.17
789.223	11134.17
789.556	11097.56
789.888	11026.38
790.221	11011.24
790.554	10930.33
790.887	10935.76
791.219	10920.39
791.552	10850.34
791.884	10818.25
792.217	10735.99
792.549	10713.62
792.882	10630.91
793.214	10631.58
793.546	10585.48
793.879	10596.11
794.211	10511.14
794.543	10530.12
794.875	10463.91
795.207	10480.18
795.539	10411.7
795.871	10387.07
796.203	10270.92
796.535	10255.1
796.867	10196.34
797.198	10196.34
797.53	10238.83
797.862	10207.19
798.193	10223.23
798.525	10201.31
798.856	10163.8
799.188	10042.67
799.519	9954.54
799.85	9887.88
800.182	9966.52
800.513	9963.13
800.844	9834.09
801.175	9857.37
801.506	9885.62
801.837	9753.64
802.168	9747.31
802.499	9732.4
802.83	9722.23
803.161	9595.23
803.491	9725.39
803.822	9636.58
804.153	9576.25
804.483	9476.36
804.814	9479.07
805.145	9565.4
805.475	9459.86
805.805	9428.9
806.136	9419.41
806.466	9363.6
806.796	9354.33
807.126	9318.4
807.457	9233.88
807.787	9242.69
808.117	9253.54
808.447	9215.35
808.777	9259.19
809.107	9160.44
809.436	9121.79
809.766	9075.47
810.096	9058.07
810.426	9023.72
810.755	9048.58
811.085	9010.16
811.414	9028.01
811.744	8893.78
812.073	8938.75
812.403	8895.59
812.732	8871.41
813.061	8856.26
813.39	8830.05
813.719	8778.53
814.049	8814.23
814.378	8739.88
814.707	8758.19
815.036	8708.02
815.365	8709.15
815.693	8621.69
816.022	8645.87
816.351	8676.38
816.68	8589.15
817.008	8615.59
817.337	8539.66
817.665	8487.91
817.994	8510.74
818.322	8478.42
818.651	8431.64
818.979	8412.66
819.307	8451.76
819.636	8381.7
819.964	8409.5
820.292	8373.34
820.62	8325.66
820.948	8348.03
821.276	8367.69
821.604	8332.66
821.932	8286.34
822.259	8298.09
822.587	8441.36
822.915	8271.42
823.243	8368.37
823.57	8357.52
823.898	8340.12
824.225	8285.88
824.553	8287.01
824.88	8264.64
825.207	8294.02
825.535	8283.4
825.862	8311.42
826.189	8287.69
826.516	8341.48
826.843	8362.49
827.17	8295.38
827.497	8333.11
827.824	8376.28
828.151	8299.44
828.478	8319.1
828.805	8289.73
829.131	8300.12
829.458	8282.72
829.785	8209.73
830.111	8315.71
830.438	8309.61
830.764	8275.71
831.09	8347.35
831.417	8169.95
831.743	8309.39
832.069	8291.31
832.395	8179.67
832.722	8284.98
833.048	8252.66
833.374	8223.06
833.7	8239.56
834.026	8174.25
834.351	8209.5
834.677	8185.32
835.003	8239.56
835.329	8157.98
835.654	8153.01
835.98	8079.56
836.306	8095.38
836.631	8136.06
836.956	8186
837.282	8102.16
837.607	8037.98
837.932	8089.73
838.258	8106.91
838.583	8088.37
838.908	8019.45
839.233	7949.62
839.558	7976.06
839.883	7998.89
840.208	7979.23
840.533	7986.23
840.858	7991.43
841.182	7934.93
841.507	7967.7
841.832	7931.09
842.156	7869.4
842.481	7876.86
842.805	7797.08
843.13	7830.75
843.454	7863.07
843.778	7758.21
844.103	7768.16
844.427	7765.22
844.751	7762.51
845.075	7718.67
845.399	7675.96
845.723	7664.21
846.047	7702.62
846.371	7595.28
846.695	7589.63
847.019	7462.63
847.343	7498.33
847.666	7400.26
847.99	7456.75
848.313	7400.03
848.637	7301.05
848.96	7372.69
849.284	7326.81
849.607	7282.97
849.931	7216.76
850.254	7192.81
850.577	7216.76
850.9	7166.82
851.223	7134.5
851.546	7106.03
851.869	7052.7
852.192	7162.98
852.515	7062.64
852.838	7007.5
853.161	6973.6
853.483	6987.16
853.806	6878.46
854.129	6906.49
854.451	6926.6
854.774	6863.55
855.096	6847.28
855.419	6876.88
855.741	6751.69
856.063	6782.19
856.385	6795.3
856.708	6757.79
857.03	6687.28
857.352	6746.72
857.674	6698.35
857.996	6687.06
858.318	6610.45
858.64	6607.74
858.961	6639.6
859.283	6642.54
859.605	6617.68
859.926	6590.56
860.248	6561.18
860.57	6545.82
860.891	6576.32
861.212	6505.37
861.534	6564.35
861.855	6524.57
862.176	6513.28
862.498	6474.86
862.819	6454.29
863.14	6399.38
863.461	6485.48
863.782	6412.26
864.103	6416.55
864.424	6390.11
864.745	6398.7
865.065	6377.01
865.386	6363
865.707	6364.8
866.027	6374.07
866.348	6378.14
866.668	6330.68
866.989	6339.04
867.309	6291.36
867.63	6277.35
867.95	6302.89
868.27	6295.65
868.59	6246.16
868.91	6321.87
869.23	6236.9
869.55	6213.62
869.87	6234.19
870.19	6215.43
870.51	6199.84
870.83	6227.63
871.15	6163.45
871.469	6130.46
871.789	6191.48
872.109	6187.63
872.428	6167.07
872.748	6168.43
873.067	6188.54
873.386	6133.4
873.706	6118.94
874.025	6103.12
874.344	6149.44
874.663	6134.53
874.982	6061.31
875.301	6076.9
875.62	6085.72
875.939	6039.16
876.258	6075.32
876.577	6038.71
876.896	5986.74
877.214	6048.43
877.533	5965.72
877.852	6025.83
878.17	6013.85
878.489	6040.29
878.807	5951.48
879.125	5941.76
879.444	5970.01
879.762	5963.68
880.08	5928.43
880.398	5862.67
880.716	5889.34
881.034	5884.59
881.352	5898.83
881.67	5836.91
881.988	5845.04
882.306	5845.95
882.624	5845.72
882.941	5822.67
883.259	5846.4
883.577	5811.37
883.894	5755.33
884.212	5757.36
884.529	5706.74
884.846	5754.2
885.164	5768.66
885.481	5751.26
885.798	5771.83
886.115	5711.71
886.432	5699.96
886.75	5698.83
887.067	5728.89
887.383	5622.68
887.7	5652.51
888.017	5636.01
888.334	5629.23
888.651	5644.6
888.967	5643.02
889.284	5584.94
889.6	5540.42
889.917	5558.5
890.233	5557.37
890.55	5511.27
890.866	5500.87
891.182	5526.63
891.498	5477.6
891.815	5456.35
892.131	5451.61
892.447	5408.9
892.763	5401.89
893.079	5458.39
893.395	5366.86
893.71	5392.63
894.026	5383.36
894.342	5337.71
894.657	5327.54
894.973	5302.23
895.289	5318.05
895.604	5299.97
895.92	5279.18
896.235	5273.53
896.55	5229.47
896.865	5222.91
897.181	5212.07
897.496	5245.29
897.811	5172.07
898.126	5156.47
898.441	5118.28
898.756	5058.62
899.071	5096.82
899.386	5128.9
899.7	5112.86
900.015	5091.39
900.33	5054.78
900.644	5059.53
900.959	5046.19
901.273	5012.07
901.588	5002.35
901.902	4983.15
902.216	4958.29
902.531	4955.35
902.845	4900.66
903.159	4913.09
903.473	4927.78
903.787	4894.11
904.101	4857.27
904.415	4851.4
904.729	4833.09
905.042	4787.67
905.356	4795.35
905.67	4789.03
905.984	4831.06
906.297	4763.94
906.611	4722.14
906.924	4692.31
907.237	4707.67
907.551	4664.74
907.864	4681.91
908.177	4657.73
908.491	4638.75
908.804	4639.2
909.117	4583.38
909.43	4586.55
909.743	4584.06
910.056	4566.66
910.368	4566.66
910.681	4514.01
910.994	4504.06
911.307	4478.07
911.619	4467.23
911.932	4483.95
912.244	4424.74
912.557	4458.41
912.869	4428.36
913.181	4400.11
913.494	4408.47
913.806	4366.44
914.118	4345.87
914.43	4354.24
914.742	4314.01
915.054	4300.23
915.366	4288.02
915.678	4268.59
915.99	4282.6
916.302	4226.1
916.613	4197.4
916.925	4177.97
917.236	4216.39
917.548	4176.16
917.859	4210.28
918.171	4174.81
918.482	4132.55
918.794	4114.47
919.105	4141.81
919.416	4050.29
919.727	4100.23
920.038	4034.47
920.349	4023.62
920.66	4003.51
920.971	3996.28
921.282	3975.04
921.593	3972.78
921.903	3935.26
922.214	3948.6
922.525	4001.48
922.835	3906.79
923.146	3922.61
923.456	3921.03
923.767	3878.99
924.077	3863.63
924.387	3857.07
924.697	3803.06
925.008	3797.41
925.318	3780.01
925.628	3785.21
925.938	3791.09
926.248	3740.92
926.558	3736.62
926.867	3740.69
927.177	3697.98
927.487	3674.93
927.796	3681.49
928.106	3675.16
928.416	3689.85
928.725	3641.94
929.034	3646.23
929.344	3599.23
929.653	3628.38
929.962	3603.75
930.271	3549.74
930.581	3546.8
930.89	3559
931.199	3495.28
931.508	3513.58
931.817	3488.5
932.125	3495.73
932.434	3491.21
932.743	3431.77
933.051	3426.58
933.36	3437.42
933.669	3422.51
933.977	3430.42
934.286	3417.99
934.594	3410.08
934.902	3375.96
935.21	3382.51
935.519	3320.82
935.827	3345.9
936.135	3285.11
936.443	3324.66
936.751	3312.91
937.059	3290.99
937.367	3298.22
937.674	3248.28
937.982	3248.95
938.29	3229.07
938.597	3217.99
938.905	3232.46
939.213	3183.87
939.52	3195.62
939.827	3177.32
940.135	3174.15
940.442	3147.26
940.749	3171.22
941.056	3144.78
941.363	3100.71
941.67	3111.56
941.977	3125.57
942.284	3075.85
942.591	3091.22
942.898	3046.93
943.205	3055.51
943.511	3030.43
943.818	3032.69
944.125	2995.4
944.431	2960.37
944.738	3026.81
945.044	3028.17
945.35	2983.42
945.657	2928.96
945.963	2955.85
946.269	2961.96
946.575	2919.7
946.881	2892.81
947.187	2905.69
947.493	2863.43
947.799	2867.27
948.105	2865.91
948.41	2837.44
948.716	2821.39
949.022	2836.54
949.327	2823.88
949.633	2777.33
949.938	2764.22
950.244	2792.47
950.549	2761.28
950.854	2757.89
951.16	2786.82
951.465	2754.28
951.77	2740.94
952.075	2733.04
952.38	2714.28
952.685	2706.82
952.99	2718.35
953.294	2732.36
953.599	2684
953.904	2671.79
954.209	2670.44
954.513	2669.53
954.818	2613.72
955.122	2640.61
955.426	2637.44
955.731	2592.47
956.035	2592.93
956.339	2561.51
956.643	2595.64
956.948	2545.7
957.252	2542.08
957.556	2566.71
957.86	2550.22
958.163	2564.68
958.467	2506.83
958.771	2506.6
959.075	2522.65
959.378	2499.6
959.682	2507.73
959.985	2495.3
960.289	2430.44
960.592	2457.79
960.896	2421.18
961.199	2426.6
961.502	2448.52
961.805	2377.79
962.108	2433.38
962.411	2420.28
962.714	2379.82
963.017	2389.54
963.32	2359.71
963.623	2333.72
963.926	2366.04
964.228	2334.85
964.531	2324.01
964.833	2302.31
965.136	2321.52
965.438	2281.75
965.741	2272.93
966.043	2276.1
966.345	2292.14
966.648	2274.97
966.95	2280.62
967.252	2266.38
967.554	2255.31
967.856	2266.83
968.158	2222.99
968.46	2187.51
968.761	2220.05
969.063	2194.07
969.365	2195.42
969.666	2202.43
969.968	2187.97
970.269	2155.88
970.571	2117.01
970.872	2147.29
971.174	2128.53
971.475	2155.42
971.776	2169.21
972.077	2110
972.378	2104.35
972.679	2094.63
972.98	2079.04
973.281	2111.81
973.582	2102.54
973.883	2077.23
974.183	2076.1
974.484	2036.78
974.785	2042.43
975.085	2044.69
975.386	2056.22
975.686	2017.12
975.986	2030
976.287	2028.87
976.587	1964.47
976.887	2017.35
977.187	1973.73
977.487	1980.51
977.787	1956.78
978.087	1980.51
978.387	1951.36
978.687	1926.73
978.987	1939.38
979.286	1945.26
979.586	1943.23
979.885	1932.38
980.185	1882.66
980.484	1910.91
980.784	1893.74
981.083	1892.61
981.382	1886.05
981.682	1850.12
981.981	1852.15
982.28	1860.74
982.579	1859.61
982.878	1874.08
983.177	1856.45
983.475	1840.4
983.774	1824.58
984.073	1812.16
984.372	1793.85
984.67	1824.58
984.969	1786.39
985.267	1797.69
985.566	1786.17
985.864	1776
986.162	1772.83
986.461	1731.71
986.759	1754.76
987.057	1725.38
987.355	1713.18
987.653	1725.15
987.951	1718.37
988.249	1730.35
988.547	1685.61
988.844	1682.22
989.142	1728.32
989.44	1692.38
989.737	1692.84
990.035	1699.16
990.332	1663.91
990.63	1638.83
990.927	1645.15
991.224	1641.54
991.521	1643.35
991.819	1625.49
992.116	1616.68
992.413	1611.71
992.71	1619.84
993.006	1618.26
993.303	1618.94
993.6	1605.38
993.897	1586.4
994.193	1595.66
994.49	1610.58
994.787	1571.94
995.083	1542.78
995.379	1549.34
995.676	1560.41
995.972	1551.15
996.268	1537.36
996.565	1498.49
996.861	1532.62
997.157	1505.72
997.453	1503.92
997.749	1467.76
998.044	1515.89
998.34	1501.66
998.636	1517.25
998.932	1453.52
999.227	1463.69
999.523	1520.19
999.818	1477.02
1000.114	1435.44
1000.409	1437.93
1000.704	1422.56
1001	1442.45
1001.295	1426.4
1001.59	1413.3
1001.885	1409.91
1002.18	1394.54
1002.475	1379.17
1002.77	1380.98
1003.065	1376.23
1003.359	1375.33
1003.654	1354.99
1003.949	1373.98
1004.243	1338.5
1004.538	1343.47
1004.832	1362.68
1005.127	1315.9
1005.421	1343.24
1005.715	1331.94
1006.009	1352.96
1006.304	1293.53
1006.598	1324.94
1006.892	1320.19
1007.186	1287.42
1007.48	1277.93
1007.773	1267.54
1008.067	1270.25
1008.361	1253.3
1008.655	1261.66
1008.948	1244.04
1009.242	1234.32
1009.535	1261.21
1009.829	1225.05
1010.122	1220.98
1010.415	1185.05
1010.708	1209.69
1011.001	1219.63
1011.295	1188.22
1011.588	1203.13
1011.881	1185.73
1012.173	1177.37
1012.466	1170.59
1012.759	1145.28
1013.052	1165.85
1013.344	1163.59
1013.637	1173.53
1013.93	1150.25
1014.222	1136.47
1014.514	1129.91
1014.807	1135.11
1015.099	1127.2
1015.391	1121.33
1015.683	1112.29
1015.976	1133.08
1016.268	1133.98
1016.56	1097.6
1016.851	1083.14
1017.143	1075.68
1017.435	1078.84
1017.727	1067.54
1018.018	1071.38
1018.31	1069.35
1018.602	1069.8
1018.893	1070.71
1019.185	1033.42
1019.476	1027.54
1019.767	1004.49
1020.058	1039.75
1020.35	1027.09
1020.641	1027.77
1020.932	985.51
1021.223	993.19
1021.514	1011.27
1021.804	999.3
1022.095	980.54
1022.386	995.23
1022.677	972.18
1022.967	955.23
1023.258	951.16
1023.548	971.73
1023.839	931.27
1024.129	944.83
1024.419	943.93
1024.709	943.7
1025	949.13
1025.29	927.21
1025.58	906.42
1025.87	907.32
1026.16	917.72
1026.449	941.9
1026.739	900.77
1027.029	893.31
1027.319	901.22
1027.608	879.98
1027.898	892.86
1028.187	888.34
1028.477	894.89
1028.766	866.19
1029.055	841.11
1029.344	849.7
1029.634	860.32
1029.923	858.73
1030.212	823.93
1030.501	828.45
1030.79	842.24
1031.078	825.52
1031.367	835.91
1031.656	808.11
1031.945	832.29
1032.233	796.59
1032.522	815.8
1032.81	805.63
1033.099	792.52
1033.387	789.58
1033.675	776.93
1033.963	815.8
1034.251	785.06
1034.54	805.63
1034.828	771.05
1035.116	755.69
1035.403	767.21
1035.691	772.86
1035.979	747.1
1036.267	767.89
1036.554	751.62
1036.842	764.95
1037.129	723.37
1037.417	740.55
1037.704	764.05
1037.992	721.11
1038.279	727.66
1038.566	729.92
1038.853	729.92
1039.14	729.92
