Data from tablewood_brown_FLMS001491_064.txt Node
Date: Tue Feb 07 11:10:50 GMT 2017
User: dcchb
Spectrometer: FLMS00149
Trigger mode: 0
Integration Time (sec): 2.000000E-2
Scans to average: 10
Electric dark correction enabled: true
Nonlinearity correction enabled: false
Boxcar width: 0
XAxis mode: Wavelengths
Number of Pixels in Spectrum: 2048
>>>>>Begin Spectral Data<<<<<
341.393	5.08
341.776	5.08
342.16	5.08
342.543	-56.16
342.927	-70.85
343.31	-57.51
343.693	-58.42
344.077	-86.44
344.46	-58.19
344.843	-73.56
345.226	-34.69
345.61	-43.95
345.993	-9.15
346.376	0.79
346.759	16.84
347.142	36.27
347.525	36.95
347.908	54.57
348.291	73.33
348.674	94.57
349.057	108.58
349.44	102.26
349.823	146.32
350.206	155.36
350.588	213.67
350.971	196.94
351.354	207.34
351.737	230.39
352.119	228.36
352.502	269.71
352.884	287.34
353.267	278.3
353.65	275.13
354.032	291.4
354.414	302.7
354.797	309.03
355.179	301.8
355.562	318.52
355.944	317.39
356.326	327.56
356.709	340.44
357.091	341.12
357.473	343.38
357.855	342.7
358.238	338.41
358.62	348.35
359.002	325.75
359.384	330.05
359.766	328.24
360.148	332.31
360.53	341.12
360.912	346.32
361.294	330.5
361.676	333.89
362.057	331.4
362.439	322.36
362.821	330.05
363.203	346.77
363.584	339.09
363.966	330.05
364.348	332.99
364.729	338.18
365.111	319.43
365.493	317.62
365.874	312.87
366.256	330.5
366.637	309.26
367.019	306.09
367.4	323.49
367.781	323.04
368.163	317.17
368.544	310.84
368.925	334.79
369.306	327.79
369.688	330.95
370.069	327.34
370.45	313.33
370.831	301.57
371.212	335.25
371.593	316.04
371.974	327.79
372.355	319.2
372.736	302.25
373.117	343.61
373.498	315.81
373.879	317.39
374.26	328.69
374.641	332.53
375.021	307.68
375.402	336.83
375.783	350.16
376.163	349.71
376.544	327.56
376.925	342.25
377.305	343.61
377.686	346.54
378.066	353.78
378.447	332.99
378.827	341.35
379.208	355.81
379.588	358.3
379.968	337.28
380.349	321.46
380.729	365.08
381.109	343.83
381.489	361.69
381.87	373.66
382.25	352.87
382.63	353.55
383.01	362.59
383.39	353.78
383.77	351.29
384.15	368.92
384.53	353.55
384.91	373.66
385.29	374.11
385.67	359.2
386.049	388.8
386.429	375.47
386.809	389.03
387.189	363.72
387.568	382.25
387.948	395.13
388.328	394.68
388.707	395.13
389.087	406.88
389.466	405.3
389.846	401.46
390.225	406.43
390.605	405.98
390.984	410.5
391.363	398.97
391.743	417.28
392.122	422.25
392.501	418.63
392.881	426.99
393.26	425.64
393.639	425.64
394.018	412.98
394.397	418.86
394.776	433.1
395.155	445.75
395.534	431.06
395.913	450.72
396.292	436.49
396.671	463.6
397.05	459.08
397.429	461.57
397.808	478.97
398.186	483.26
398.565	467.45
398.944	460.89
399.323	496.37
399.701	503.83
400.08	474.68
400.458	476.48
400.837	470.38
401.215	475.35
401.594	487.56
401.972	493.43
402.351	513.09
402.729	532.53
403.107	508.8
403.486	495.69
403.864	490.95
404.242	512.19
404.62	534.56
404.999	538.86
405.377	544.51
405.755	525.52
406.133	560.1
406.511	551.74
406.889	529.36
407.267	536.14
407.645	568.23
408.023	565.75
408.401	572.98
408.779	583.15
409.156	537.95
409.534	596.03
409.912	589.7
410.29	579.98
410.667	594.22
411.045	592.87
411.422	613.43
411.8	599.19
412.178	621.11
412.555	630.38
412.933	639.19
413.31	620.21
413.687	633.09
414.065	654.11
414.442	664.05
414.819	655.91
415.197	669.25
415.574	655.46
415.951	681
416.328	684.61
416.705	676.93
417.082	693.88
417.46	690.94
417.837	704.73
418.214	694.11
418.591	705.18
418.967	708.34
419.344	722.35
419.721	709.7
420.098	736.82
420.475	748.34
420.852	727.55
421.228	724.84
421.605	740.88
421.982	754.44
422.358	759.42
422.735	751.28
423.111	773.65
423.488	777.72
423.864	775.69
424.241	779.53
424.617	775.23
424.994	801.67
425.37	832.86
425.746	816.81
426.123	828.34
426.499	823.82
426.875	822.46
427.251	815.91
427.627	838.28
428.003	841.67
428.379	867.43
428.756	869.47
429.132	873.08
429.507	913.31
429.883	898.39
430.259	866.76
430.635	907.89
431.011	912.18
431.387	934.55
431.763	945.4
432.138	940.65
432.514	965.06
432.89	982.91
433.265	996.47
433.641	1014.78
434.016	1021.56
434.392	1027.43
434.767	1049.58
435.143	1027.66
435.518	1066.53
435.894	1070.37
436.269	1089.12
436.644	1103.36
437.02	1103.36
437.395	1111.27
437.77	1130.25
438.145	1126.86
438.52	1151.27
438.895	1169.8
439.271	1110.82
439.646	1160.76
440.021	1196.01
440.395	1166.18
440.77	1172.29
441.145	1210.02
441.52	1192.17
441.895	1231.72
442.27	1213.87
442.645	1232.4
443.019	1257.93
443.394	1239.18
443.769	1272.62
444.143	1250.25
444.518	1281.89
444.892	1263.58
445.267	1285.95
445.641	1294.54
446.016	1310.14
446.39	1280.08
446.764	1311.94
447.139	1302.45
447.513	1320.08
447.887	1342.9
448.262	1353.3
448.636	1358.04
449.01	1382.9
449.384	1357.82
449.758	1364.37
450.132	1419.51
450.506	1412.73
450.88	1420.64
451.254	1408.44
451.628	1432.84
452.002	1436.46
452.376	1471.26
452.75	1447.53
453.123	1461.32
453.497	1530.02
453.871	1520.52
454.244	1549.9
454.618	1556.23
454.992	1565.95
455.365	1557.59
455.739	1589.9
456.112	1620.64
456.486	1625.61
456.859	1643.01
457.232	1658.15
457.606	1658.37
457.979	1671.93
458.352	1709.45
458.725	1726.85
459.099	1744.93
459.472	1778.37
459.845	1796.9
460.218	1803
460.591	1806.17
460.964	1843.45
461.337	1866.28
461.71	1916.9
462.083	1926.16
462.456	1941.76
462.829	1961.64
463.201	1968.65
463.574	1976.11
463.947	2002.55
464.32	2060.62
464.692	2092.94
465.065	2100.62
465.438	2130.68
465.81	2110.11
466.183	2209.32
466.555	2249.77
466.928	2249.32
467.3	2240.28
467.672	2252.03
468.045	2373.84
468.417	2365.93
468.789	2412.93
469.161	2378.36
469.534	2476.43
469.906	2491.8
470.278	2543.77
470.65	2568.18
471.022	2649.99
471.394	2678.01
471.766	2719.59
472.138	2756.42
472.51	2822.41
472.882	2859.02
473.253	2870.09
473.625	2887.72
473.997	2987.61
474.369	3002.29
474.74	3061.05
475.112	3146.7
475.484	3231.44
475.855	3254.72
476.227	3288.39
476.598	3395.73
476.97	3413.36
477.341	3546.23
477.713	3581.71
478.084	3630.98
478.455	3725.21
478.827	3785.32
479.198	3858.54
479.569	3874.36
479.94	4042.49
480.311	4075.71
480.682	4174.24
481.053	4280.45
481.424	4401.13
481.795	4426.89
482.166	4465.76
482.537	4560.67
482.908	4668.24
483.279	4716.37
483.65	4835.24
484.021	4931.28
484.391	5023.03
484.762	5068.23
485.133	5138.06
485.503	5216.02
485.874	5278.84
486.244	5323.14
486.615	5499.63
486.985	5559.51
487.356	5670.7
487.726	5715.22
488.097	5810.13
488.467	5815.33
488.837	5946.85
489.207	6058.94
489.578	6156.79
489.948	6209.67
490.318	6295.54
490.688	6333.96
491.058	6481.3
491.428	6516.78
491.798	6552.48
492.168	6745.25
492.538	6763.55
492.908	6843.1
493.278	6969.2
493.648	6977.56
494.017	7029.53
494.387	7136.42
494.757	7175.29
495.126	7276.76
495.496	7304.78
495.866	7383.42
496.235	7477.66
496.605	7470.65
496.974	7589.29
497.344	7649.4
497.713	7708.16
498.082	7745.67
498.452	7838.78
498.821	7857.08
499.19	7896.85
499.559	8043.52
499.928	8101.82
500.298	8096.17
500.667	8239.44
501.036	8273.34
501.405	8332.32
501.774	8345.43
502.143	8401.02
502.512	8501.13
502.88	8579.1
503.249	8622.26
503.618	8633.33
503.987	8682.6
504.356	8747.23
504.724	8848.69
505.093	8913.1
505.462	8967.11
505.83	9056.37
506.199	9102.7
506.567	9208.91
506.936	9156.71
507.304	9327.1
507.672	9465.63
508.041	9462.24
508.409	9555.57
508.777	9648.45
509.145	9732.96
509.514	9718.05
509.882	9850.48
510.25	9816.13
510.618	10006.86
510.986	10015.22
511.354	10117.59
511.722	10207.53
512.09	10332.5
512.458	10275.32
512.826	10410.01
513.193	10525.94
513.561	10584.47
513.929	10734.97
514.297	10755.31
514.664	10897.45
515.032	10946.72
515.4	11021.52
515.767	11076.43
516.135	11170.89
516.502	11062.65
516.869	11351
517.237	11405.91
517.604	11349.19
517.972	11469.64
518.339	11600.26
518.706	11670.31
519.073	11790.31
519.44	11841.16
519.808	12084.77
520.175	12075.73
520.542	12192.79
520.909	12308.94
521.276	12338.77
521.643	12433.23
522.009	12514.13
522.376	12709.61
522.743	12725.88
523.11	12920.23
523.477	13015.82
523.843	13162.25
524.21	13257.17
524.577	13367.45
524.943	13336.49
525.31	13521.11
525.676	13715.91
526.043	13745.97
526.409	13913.42
526.776	14058.73
527.142	14044.26
527.508	14154.77
527.874	14266.86
528.241	14409.45
528.607	14453.52
528.973	14637.47
529.339	14615.77
529.705	14778.03
530.071	14896.9
530.437	15004.69
530.803	15087.85
531.169	15223.44
531.535	15211.69
531.901	15224.35
532.267	15292.59
532.632	15403.1
532.998	15495.52
533.364	15629.53
533.73	15560.38
534.095	15816.65
534.461	15765.12
534.826	15941.61
535.192	15875.4
535.557	16066.13
535.923	16039.24
536.288	16108.62
536.653	16288.05
537.019	16201.27
537.384	16351.55
537.749	16457.99
538.114	16489.62
538.479	16507.48
538.845	16646.23
539.21	16593.8
539.575	16704.31
539.94	16746.34
540.305	16843.96
540.67	16807.58
541.034	16912.66
541.399	17095.93
541.764	17078.08
542.129	17210.73
542.494	17207.34
542.858	17264.07
543.223	17375.48
543.587	17435.13
543.952	17460.44
544.316	17495.7
544.681	17500.22
545.045	17563.72
545.41	17757.16
545.774	17750.61
546.138	17700.44
546.503	17845.52
546.867	17848.46
547.231	18189.24
547.595	18022.46
547.959	18190.6
548.324	18173.87
548.688	18206.41
549.052	18423.58
549.416	18443.24
549.779	18407.54
550.143	18619.96
550.507	18747.42
550.871	18834.19
551.235	18832.39
551.599	18941.54
551.962	19057.92
552.326	19214.97
552.689	19220.85
553.053	19223.34
553.417	19384.69
553.78	19693.61
554.143	19677.11
554.507	19713.27
554.87	19789.2
555.234	20059.47
555.597	20054.95
555.96	20100.83
556.323	20222.41
556.686	20281.16
557.05	20539.01
557.413	20589.4
557.776	20746.23
558.139	20979.22
558.502	20913.01
558.865	21129.95
559.228	21381.7
559.59	21377.4
559.953	21641.58
560.316	21797.28
560.679	21897.39
561.041	22123.83
561.404	22232.97
561.767	22275.69
562.129	22368.34
562.492	22738.95
562.854	22754.09
563.217	22803.13
563.579	22946.4
563.941	23154.98
564.304	23367.41
564.666	23557.23
565.028	23636.78
565.39	23736.89
565.753	23999.48
566.115	24191.12
566.477	24369.64
566.839	24519.69
567.201	24703.87
567.563	24721.5
567.925	25069.28
568.287	25091.2
568.648	25235.38
569.01	25568.71
569.372	25743.16
569.734	25659.1
570.095	25918.08
570.457	26196.26
570.819	26261.34
571.18	26447.78
571.542	26739.75
571.903	26773.65
572.265	27023.81
572.626	27186.52
572.987	27226.06
573.349	27361.43
573.71	27550.8
574.071	27629.44
574.432	27863.79
574.794	28177.45
575.155	28205.7
575.516	28246.83
575.877	28495.18
576.238	28641.62
576.599	28746.48
576.96	28887.94
577.32	29104.66
577.681	29184.66
578.042	29370.64
578.403	29420.13
578.763	29667.36
579.124	29654.93
579.485	29960.23
579.845	30122.03
580.206	30070.06
580.566	30077.29
580.927	30405.64
581.287	30459.43
581.648	30451.29
582.008	30757.5
582.368	30617.84
582.728	30781.45
583.089	30888.34
583.449	30792.75
583.809	31051.05
584.169	30956.36
584.529	31040.88
584.889	31228.67
585.249	31227.54
585.609	31132.63
585.969	31404.94
586.329	31423.02
586.688	31402.23
587.048	31343.92
587.408	31405.39
587.768	31540.07
588.127	31599.06
588.487	31425.28
588.846	31858.94
589.206	31723.8
589.565	31829.56
589.925	31929.44
590.284	31884.7
590.643	31869.33
591.003	31946.17
591.362	32128.53
591.721	32016.22
592.08	32044.69
592.44	32117.69
592.799	32144.8
593.158	32118.59
593.517	32187.29
593.876	32170.57
594.235	32203.79
594.593	32206.95
594.952	32373.5
595.311	32308.87
595.67	32295.31
596.029	32523.33
596.387	32461.63
596.746	32590.22
597.104	32428.19
597.463	32510.67
597.822	32563.32
598.18	32618.92
598.538	32660.05
598.897	32758.12
599.255	32427.51
599.613	32956.99
599.972	32699.82
600.33	32760.83
600.688	32777.78
601.046	32871.34
601.404	33003.99
601.762	32862.53
602.12	32973.94
602.478	32973.03
602.836	33043.76
603.194	32756.99
603.552	33002.86
603.91	32937.33
604.268	33001.73
604.625	33041.28
604.983	33101.39
605.341	32982.07
605.698	33232.46
606.056	33211.9
606.413	33185.46
606.771	33333.93
607.128	33460.25
607.485	33339.35
607.843	33211.9
608.2	33423.64
608.557	33460.25
608.914	33403.75
609.272	33594.26
609.629	33656.4
609.986	33687.36
610.343	33669.96
610.7	33787.25
611.057	33867.7
611.414	33845.1
611.771	33764.87
612.127	33890.52
612.484	33923.29
612.841	33999.67
613.198	33937.53
613.554	33815.27
613.911	34060.91
614.267	34188.14
614.624	34170.29
614.98	34259.33
615.337	34426.1
615.693	34373.45
616.05	34249.61
616.406	34470.39
616.762	34355.14
617.118	34286.9
617.475	34246.44
617.831	34459.55
618.187	34446.44
618.543	34565.76
618.899	34573.22
619.255	34663.83
619.611	34404.41
619.967	34576.6
620.323	34730.05
620.678	34688.24
621.034	34539.32
621.39	34553.78
621.746	34562.14
622.101	35010.04
622.457	34756.94
622.812	34859.76
623.168	34820.21
623.523	34883.94
623.879	34910.61
624.234	34769.82
624.589	34830.61
624.945	34918.74
625.3	34944.5
625.655	34958.29
626.01	34967.78
626.365	34831.97
626.72	34906.99
627.075	34842.59
627.43	34856.6
627.785	34822.93
628.14	34884.39
628.495	34882.81
628.85	34697.73
629.205	34689.82
629.559	34899.99
629.914	34689.6
630.269	34828.35
630.623	34648.02
630.978	34659.99
631.332	34801.46
631.687	34795.36
632.041	34649.82
632.396	34649.6
632.75	34489.6
633.104	34596.49
633.459	34371.86
633.813	34453.67
634.167	34423.16
634.521	34223.17
634.875	34421.81
635.229	34417.51
635.583	34137.97
635.937	34246.67
636.291	34259.55
636.645	34304.75
636.999	34060.46
637.352	34219.33
637.706	33881.26
638.06	34109.27
638.413	34056.84
638.767	33844.42
639.121	34040.12
639.474	33895.72
639.828	33763.52
640.181	33895.72
640.534	33956.51
640.888	33694.59
641.241	33648.27
641.594	33603.98
641.947	33978.65
642.301	33580.25
642.654	33690.3
643.007	33628.38
643.36	33512.68
643.713	33525.79
644.066	33676.74
644.419	33582.05
644.771	33219.13
645.124	33036.98
645.477	32971.45
645.83	32804.22
646.182	32620.05
646.535	32562.65
646.888	32601.74
647.24	32328.08
647.593	32626.6
647.945	32548.64
648.298	32370.56
648.65	32337.12
649.002	32218.25
649.355	32391.58
649.707	32334.4
650.059	32510.22
650.411	32911.79
650.763	32854.84
651.115	33194.49
651.467	33010.77
651.819	33132.35
652.171	33056.19
652.523	33049.41
652.875	32971.68
653.227	32967.83
653.578	33140.94
653.93	33083.76
654.282	32864.11
654.633	32881.96
654.985	32891.45
655.337	32835.18
655.688	32924.22
656.039	32915.41
656.391	32686.94
656.742	32792.47
657.094	32811.23
657.445	32889.64
657.796	32887.38
658.147	32815.07
658.498	32864.11
658.849	32877.89
659.2	32836.31
659.551	32769.42
659.902	32839.48
660.253	32794.96
660.604	32796.31
660.955	32709.08
661.306	32762.42
661.656	32781.17
662.007	32754.28
662.358	32803.32
662.708	32664.34
663.059	32782.98
663.409	32516.55
663.76	32805.13
664.11	32768.97
664.461	32733.49
664.811	32813.49
665.161	32775.07
665.511	32671.34
665.862	32705.02
666.212	32659.37
666.562	32687.16
666.912	32771.23
667.262	32652.59
667.612	32747.27
667.962	32684.68
668.312	32577.11
668.662	32666.6
669.011	32682.64
669.361	32753.38
669.711	32605.81
670.06	32417.11
670.41	32479.94
670.76	32419.83
671.109	32580.73
671.459	32497.56
671.808	32247.4
672.157	32498.24
672.507	32223.67
672.856	32330.34
673.205	32328.53
673.554	32476.55
673.904	32274.52
674.253	32382.99
674.602	32338.47
674.951	31842.44
675.3	31764.25
675.649	32169.44
675.998	32105.94
676.346	32139.15
676.695	32308.64
677.044	32088.76
677.393	32195.65
677.741	32241.75
678.09	32019.61
678.438	32004.92
678.787	32082.43
679.135	32067.97
679.484	31811.93
679.832	31947.07
680.181	31798.6
680.529	31823.23
680.877	31701.2
681.225	31704.82
681.573	31793.4
681.922	31651.94
682.27	31473.86
682.618	31478.16
682.966	31415.33
683.314	31564.03
683.661	31390.47
684.009	31139.41
684.357	31191.61
684.705	31217.37
685.053	31206.07
685.4	31110.26
685.748	30944.38
686.095	30991.84
686.443	30783.71
686.79	30830.94
687.138	30897.83
687.485	30854.22
687.832	30642.92
688.18	30674.11
688.527	30467.56
688.874	30396.38
689.221	30426.43
689.568	30197.29
689.915	30185.99
690.262	30144.63
690.609	30131.52
690.956	29917.74
691.303	29997.06
691.65	29853.11
691.997	29900.34
692.344	29554.59
692.69	29554.82
693.037	29596.62
693.383	29315.05
693.73	29435.72
694.077	29243.86
694.423	29173.13
694.769	29068.28
695.116	29075.96
695.462	28991.44
695.808	28878.9
696.155	28946.47
696.501	28639.59
696.847	28645.24
697.193	28465.81
697.539	28701.96
697.885	28385.13
698.231	28241.4
698.577	28170.45
698.923	28208.86
699.269	28206.83
699.614	28030.34
699.96	27738.59
700.306	27828.99
700.651	27704.7
700.997	27568.65
701.342	27515.55
701.688	27520.52
702.033	27470.58
702.379	27416.34
702.724	27333.41
703.069	27424.48
703.415	27056.12
703.76	26889.58
704.105	27061.77
704.45	26835.11
704.795	26720.54
705.14	26615.91
705.485	26541.56
705.83	26475.12
706.175	26511.05
706.52	26475.8
706.865	26329.59
707.209	26162.14
707.554	26113.55
707.899	26194.23
708.243	26141.12
708.588	26196.03
708.932	25648.48
709.277	25894.35
709.621	25904.52
709.966	25702.26
710.31	25659.1
710.654	25437.18
710.998	25466.11
711.342	25483.28
711.687	25365.55
712.031	25303.4
712.375	25264.08
712.719	25319.45
713.063	25186.57
713.407	25241.48
713.75	25041.71
714.094	25130.53
714.438	24996.97
714.782	24989.74
715.125	24915.39
715.469	24948.38
715.812	24695.28
716.156	24676.75
716.499	24665.45
716.843	24756.52
717.186	24499.36
717.53	24718.11
717.873	24721.5
718.216	24662.06
718.559	24543.42
718.902	24336.65
719.246	24442.63
719.589	24409.87
719.932	24279.7
720.275	24289.19
720.617	24247.39
720.96	24227.72
721.303	24216.2
721.646	24267.95
721.989	24164.9
722.331	24088.97
722.674	24126.48
723.016	24110.89
723.359	24029.09
723.701	24113.83
724.044	24018.92
724.386	23976.66
724.729	24044.9
725.071	23883.55
725.413	23931.46
725.755	24018.01
726.097	23955.87
726.439	23759.26
726.782	23852.82
727.124	23952.25
727.465	23750.45
727.807	23691.47
728.149	23736.21
728.491	23648.76
728.833	23802.65
729.175	23707.29
729.516	23545.26
729.858	23703.22
730.199	23668.19
730.541	23706.83
730.882	23558.14
731.224	23694.41
731.565	23491.7
731.906	23570.57
732.248	23592.94
732.589	23497.12
732.93	23446.73
733.271	23468.65
733.612	23564.69
733.953	23574.63
734.294	23469.1
734.635	23442.21
734.976	23486.73
735.317	23361.31
735.658	23398.37
735.999	23438.14
736.339	23489.66
736.68	23391.14
737.021	23378.03
737.361	23327.41
737.702	23421.64
738.042	23417.12
738.383	23403.79
738.723	23383.9
739.063	23324.25
739.404	23383.23
739.744	23296.9
740.084	23270.91
740.424	23298.94
740.764	23175.55
741.104	23253.06
741.444	23202.21
741.784	23181.88
742.124	23246.96
742.464	23197.47
742.804	23115.21
743.143	23192.27
743.483	23218.26
743.823	23053.52
744.162	23150.24
744.502	23122.67
744.841	22983.92
745.181	23209.67
745.52	23133.74
745.86	23190.92
746.199	23119.73
746.538	23126.51
746.877	23265.26
747.216	23178.94
747.556	23068.43
747.895	23096.23
748.234	23104.82
748.573	22968.32
748.911	23073.4
749.25	22959.06
749.589	22948.44
749.928	23044.25
750.267	22994.08
750.605	22916.57
750.944	22864.6
751.283	22790.7
751.621	22843.35
751.96	22753.64
752.298	22839.29
752.636	22957.02
752.975	22664.15
753.313	22629.12
753.651	22752.96
753.989	22635.45
754.327	22646.52
754.666	22559.07
755.004	22483.82
755.342	22575.79
755.679	22497.15
756.017	22391.61
756.355	22442.69
756.693	22346.87
757.031	22391.84
757.368	22244.73
757.706	22319.75
758.044	22219.87
758.381	22196.82
758.719	22170.83
759.056	22206.99
759.394	22049.93
759.731	21962.7
760.068	21924.28
760.405	21905.07
760.743	21753.21
761.08	21913.44
761.417	21733.55
761.754	21796.83
762.091	21775.81
762.428	21682.93
762.765	21437.06
763.102	21657.4
763.438	21478.87
763.775	21401.81
764.112	21405.88
764.449	21383.73
764.785	21336.5
765.122	21091.54
765.458	21053.34
765.795	21029.62
766.131	20933.57
766.467	20918.66
766.804	20921.14
767.14	20739.68
767.476	20716.18
767.812	20616.75
768.148	20664.65
768.485	20548.73
768.821	20455.85
769.157	20427.37
769.492	20360.93
769.828	20308.73
770.164	20121.17
770.5	20124.78
770.836	20162.97
771.171	20099.47
771.507	20005.24
771.842	19845.69
772.178	19834.85
772.513	19782.42
772.849	19718.92
773.184	19661.97
773.519	19670.33
773.855	19496.55
774.19	19414.29
774.525	19422.88
774.86	19386.72
775.195	19331.36
775.53	19227.18
775.865	19188.08
776.2	19002.55
776.535	18847.98
776.87	18890.24
777.205	18807.98
777.539	18700.86
777.874	18775.89
778.209	18562.56
778.543	18542.45
778.878	18447.76
779.212	18480.98
779.547	18378.16
779.881	18418.61
780.215	18297.71
780.55	18296.81
780.884	18102.69
781.218	18103.14
781.552	18101.33
781.886	18008.91
782.22	17826.08
782.554	17859.76
782.888	17684.62
783.222	17706.09
783.556	17661.8
783.889	17623.6
784.223	17364.18
784.557	17408.24
784.89	17450.73
785.224	17308.13
785.557	17199.66
785.891	17156.95
786.224	17101.58
786.558	17093.22
786.891	16933.23
787.224	16912.89
787.557	16891.19
787.891	16867.01
788.224	16741.37
788.557	16748.37
788.89	16714.48
789.223	16682.84
789.556	16472
789.888	16498.44
790.221	16434.26
790.554	16245.79
790.887	16415.5
791.219	16249.18
791.552	16180.7
791.884	16182.29
792.217	16113.36
792.549	16021.39
792.882	15932.58
793.214	15795.4
793.546	15847.38
793.879	15741.39
794.211	15657.55
794.543	15703.88
794.875	15702.75
795.207	15785.69
795.539	15664.11
795.871	15651.23
796.203	15465.24
796.535	15434.51
796.867	15349.99
797.198	15424.79
797.53	15294.17
797.862	15267.28
798.193	15255.98
798.525	15166.95
798.856	15136.44
799.188	14957.91
799.519	14911.13
799.85	14846.95
800.182	14867.29
800.513	14826.16
800.844	14717.47
801.175	14830.46
801.506	14692.61
801.837	14739.84
802.168	14599.73
802.499	14536.91
802.83	14509.11
803.161	14481.09
803.491	14481.99
803.822	14488.32
804.153	14316.35
804.483	14275.22
804.814	14187.99
805.145	14161.1
805.475	14156.35
805.805	14121.1
806.136	14126.52
806.466	14093.98
806.796	14080.65
807.126	13946.19
807.457	13905.06
807.787	13985.73
808.117	13933.08
808.447	13844.49
808.777	13820.99
809.107	13747.77
809.436	13736.47
809.766	13738.73
810.096	13627.1
810.426	13635.69
810.755	13660.54
811.085	13614.67
811.414	13605.86
811.744	13477.05
812.073	13393.43
812.403	13418.74
812.732	13328.12
813.061	13383.72
813.39	13298.97
813.719	13396.82
814.049	13424.17
814.378	13292.87
814.707	13240.44
815.036	13144.17
815.365	13110.73
815.693	12948.02
816.022	13005.19
816.351	12918.64
816.68	12871.19
817.008	12901.92
817.337	12823.28
817.665	12847.23
817.994	12883.84
818.322	12797.74
818.651	12722.94
818.979	12749.61
819.307	12791.87
819.636	12761.81
819.964	12617.41
820.292	12660.8
820.62	12698.54
820.948	12599.56
821.276	12660.8
821.604	12581.25
821.932	12627.13
822.259	12627.35
822.587	12592.78
822.915	12621.7
823.243	12569.5
823.57	12552.1
823.898	12683.17
824.225	12550.97
824.553	12535.83
824.88	12444.08
825.207	12580.12
825.535	12451.54
825.862	12593.68
826.189	12520.46
826.516	12590.97
826.843	12518.65
827.17	12595.26
827.497	12517.75
827.824	12477.98
828.151	12573.12
828.478	12520.01
828.805	12490.41
829.131	12482.04
829.458	12504.19
829.785	12461.03
830.111	12480.69
830.438	12606.34
830.764	12510.52
831.09	12504.19
831.417	12482.04
831.743	12472.55
832.069	12485.21
832.395	12414.02
832.722	12489.05
833.048	12478.43
833.374	12432.33
833.7	12289.73
834.026	12462.61
834.351	12390.97
834.677	12386.68
835.003	12356.85
835.329	12381.71
835.654	12387.58
835.98	12257.19
836.306	12343.07
836.631	12277.3
836.956	12370.41
837.282	12355.49
837.607	12269.62
837.932	12194.37
838.258	12258.77
838.583	12160.25
838.908	12058.55
839.233	12172
839.558	12103.52
839.883	12045.67
840.208	11991.21
840.533	12062.85
840.858	12030.98
841.182	12049.51
841.507	11942.62
841.832	11941.72
842.156	11943.75
842.481	11891.55
842.805	11857.43
843.13	11857.2
843.454	11863.08
843.778	11818.56
844.103	11841.84
844.427	11730.65
844.751	11746.24
845.075	11717.09
845.399	11675.29
845.723	11620.6
846.047	11601.39
846.371	11523.88
846.695	11547.61
847.019	11381.28
847.343	11396.42
847.666	11302.87
847.99	11247.05
848.313	11321.85
848.637	11153.27
848.96	11187.39
849.284	11109.88
849.607	11107.62
849.931	11054.96
850.254	10948.3
850.577	10911.46
850.9	10814.29
851.223	10840.96
851.546	10738.36
851.869	10708.98
852.192	10733.39
852.515	10662.66
852.838	10673.73
853.161	10598.7
853.483	10563.9
853.806	10524.81
854.129	10544.47
854.451	10439.61
854.774	10396.9
855.096	10384.47
855.419	10321.65
855.741	10355.09
856.063	10258.37
856.385	10236.68
856.708	10207.3
857.03	10221.77
857.352	10227.87
857.674	10106.51
857.996	10043.92
858.318	10042.56
858.64	10048.66
858.961	9938.38
859.283	10017.93
859.605	9933.19
859.926	9984.48
860.248	9911.26
860.57	9911.04
860.891	9898.84
861.212	9846.63
861.534	9824.04
861.855	9792.85
862.176	9745.39
862.498	9838.5
862.819	9808.44
863.14	9833.07
863.461	9742.23
863.782	9745.39
864.103	9683.02
864.424	9629.92
864.745	9677.6
865.065	9563.93
865.386	9585.4
865.707	9617.94
866.027	9587.43
866.348	9629.46
866.668	9636.7
866.989	9572.29
867.309	9464.27
867.63	9530.71
867.95	9502.01
868.27	9381.56
868.59	9469.02
868.91	9390.83
869.23	9378.4
869.55	9335.46
869.87	9444.16
870.19	9375.23
870.51	9398.28
870.83	9354.22
871.15	9277.16
871.469	9294.11
871.789	9281.22
872.109	9266.08
872.428	9205.07
872.748	9271.73
873.067	9212.07
873.386	9186.54
873.706	9210.49
874.025	9143.6
874.344	9139.99
874.663	9191.06
874.982	9163.94
875.301	9128.91
875.62	9080.78
875.939	9142.92
876.258	9062.93
876.577	8973.21
876.896	8967.11
877.214	9012.31
877.533	8995.13
877.852	8998.29
878.17	8972.53
878.489	8938.41
878.807	8986.32
879.125	8873.33
879.444	8949.48
879.762	8923.27
880.08	8952.42
880.398	8886.66
880.716	8900.9
881.034	8828.58
881.352	8809.82
881.67	8787.23
881.988	8789.94
882.306	8798.75
882.624	8745.19
882.941	8735.48
883.259	8711.75
883.577	8664.29
883.894	8663.39
884.212	8638.53
884.529	8663.61
884.846	8630.39
885.164	8621.81
885.481	8525.31
885.798	8612.99
886.115	8495.93
886.432	8501.81
886.75	8481.92
887.067	8492.09
887.383	8527.8
887.7	8424.07
888.017	8386.33
888.334	8468.59
888.651	8367.58
888.967	8378.42
889.284	8358.99
889.6	8286.45
889.917	8265.88
890.233	8316.5
890.55	8207.81
890.866	8222.04
891.182	8181.14
891.498	8188.15
891.815	8155.83
892.131	8072.67
892.447	8130.97
892.763	8038.09
893.079	8037.19
893.395	8049.62
893.71	8047.36
894.026	8003.74
894.342	7988.38
894.657	7892.79
894.973	7884.2
895.289	7919.45
895.604	7866.57
895.92	7806.69
896.235	7768.27
896.55	7784.99
896.865	7735.95
897.181	7698.44
897.496	7672.68
897.811	7709.29
898.126	7612.34
898.441	7657.54
898.756	7518.33
899.071	7523.98
899.386	7564.43
899.7	7503.87
900.015	7456.87
900.33	7410.99
900.644	7338
900.959	7448.96
901.273	7326.7
901.588	7340.03
901.902	7293.25
902.216	7297.77
902.531	7253.71
902.845	7190.66
903.159	7210.54
903.473	7173.03
903.787	7145.01
904.101	7164.44
904.415	7077.67
904.729	7121.28
905.042	7055.97
905.356	7069.08
905.67	7065.01
905.984	7069.98
906.297	7035.41
906.611	6884
906.924	6927.16
907.237	6956.54
907.551	6904.79
907.864	6819.14
908.177	6826.37
908.491	6812.36
908.804	6752.7
909.117	6763.78
909.43	6724.46
909.743	6705.02
910.056	6659.37
910.368	6626.15
910.681	6649.88
910.994	6583.89
911.307	6544.57
911.619	6511.81
911.932	6568.53
912.244	6486.27
912.557	6463.9
912.869	6406.72
913.181	6390.23
913.494	6406.5
913.806	6366.5
914.118	6360.85
914.43	6289.67
914.742	6295.54
915.054	6248.08
915.366	6215.77
915.678	6249.89
915.99	6202.21
916.302	6111.82
916.613	6143.91
916.925	6098.94
917.236	6112.27
917.548	6086.28
917.859	6091.25
918.171	5991.14
918.482	5976.68
918.794	5955.66
919.105	5920.86
919.416	5867.98
919.727	5862.11
920.038	5828.43
920.349	5853.07
920.66	5814.65
920.971	5772.62
921.282	5767.42
921.593	5757.25
921.903	5680.64
922.214	5643.13
922.525	5665.05
922.835	5630.47
923.146	5608.1
923.456	5639.96
923.767	5607.88
924.077	5578.72
924.387	5526.07
924.697	5473.42
925.008	5476.58
925.318	5468.67
925.628	5425.06
925.938	5443.36
926.248	5359.29
926.558	5361.33
926.867	5358.39
927.177	5317.04
927.487	5283.59
927.796	5288.79
928.106	5217.38
928.416	5201.33
928.725	5251.27
929.034	5170.6
929.344	5186.87
929.653	5168.34
929.962	5118.85
930.271	5070.04
930.581	5078.85
930.89	5023.26
931.199	5032.75
931.508	5018.96
931.817	4984.39
932.125	4977.61
932.434	4950.04
932.743	4940.32
933.051	4931.06
933.36	4886.76
933.669	4863.26
933.977	4838.18
934.286	4845.18
934.594	4788.69
934.902	4713.44
935.21	4753.89
935.519	4773.77
935.827	4713.44
936.135	4674.34
936.443	4684.96
936.751	4621.23
937.059	4659.65
937.367	4678.86
937.674	4634.34
937.982	4606.32
938.29	4567.9
938.597	4596.6
938.905	4512.54
939.213	4556.15
939.52	4465.31
939.827	4483.16
940.135	4466.44
940.442	4417.4
940.749	4451.75
941.056	4453.78
941.363	4371.52
941.67	4368.81
941.977	4343.05
942.284	4272.99
942.591	4320.9
942.898	4216.05
943.205	4331.52
943.511	4287.01
943.818	4233.45
944.125	4241.13
944.431	4193
944.738	4219.21
945.044	4183.28
945.35	4159.33
945.657	4123.17
945.963	4111.19
946.269	4081.59
946.575	4108.93
946.881	4031.42
947.187	4051.98
947.493	3993.91
947.799	4001.82
948.105	3975.83
948.41	3933.34
948.716	3973.79
949.022	3957.07
949.327	3936.73
949.633	3927.69
949.938	3898.09
950.244	3893.34
950.549	3862.84
950.854	3820.58
951.16	3826.45
951.465	3769.28
951.77	3809.73
952.075	3803.63
952.38	3758.43
952.685	3768.83
952.99	3688.15
953.294	3694.71
953.599	3718.66
953.904	3680.69
954.209	3635.5
954.513	3630.98
954.818	3650.41
955.122	3611.77
955.426	3614.93
955.731	3564.54
956.035	3569.96
956.339	3517.76
956.643	3548.72
956.948	3537.2
957.252	3513.47
957.556	3463.75
957.86	3494.71
958.163	3469.4
958.467	3469.4
958.771	3466.46
959.075	3426.01
959.378	3418.55
959.682	3447.93
959.985	3359.57
960.289	3348.27
960.592	3349.4
960.896	3311.21
961.199	3290.87
961.502	3317.54
961.805	3311.89
962.108	3241.38
962.411	3284.55
962.714	3267.15
963.017	3244.77
963.32	3250.2
963.623	3197.54
963.926	3196.19
964.228	3137.21
964.531	3192.35
964.833	3192.57
965.136	3139.24
965.438	3119.35
965.741	3128.17
966.043	3131.56
966.345	3068.05
966.648	3085.68
966.95	3071.9
967.252	3092.91
967.554	3061.73
967.856	3039.13
968.158	2980.6
968.46	2999.58
968.761	2973.82
969.063	2971.79
969.365	2966.81
969.666	2948.06
969.968	2945.57
970.269	2921.62
970.571	2882.07
970.872	2905.35
971.174	2863.09
971.475	2887.72
971.776	2853.6
972.077	2847.72
972.378	2821.96
972.679	2840.26
972.98	2806.59
973.281	2803.66
973.582	2780.15
973.883	2767.05
974.183	2763.88
974.484	2740.15
974.785	2742.87
975.085	2741.51
975.386	2719.36
975.686	2685.92
975.986	2706.71
976.287	2703.77
976.587	2667.61
976.887	2646.37
977.187	2607.95
977.487	2617.45
977.787	2616.77
978.087	2612.7
978.387	2624
978.687	2616.09
978.987	2591.91
979.286	2549.88
979.586	2583.1
979.885	2561.18
980.185	2518.01
980.484	2522.76
980.784	2518.01
981.083	2490.67
981.382	2533.15
981.682	2501.52
981.981	2489.99
982.28	2441.18
982.579	2455.64
982.878	2418.35
983.177	2427.85
983.475	2403.89
983.774	2435.3
984.073	2452.48
984.372	2379.94
984.67	2393.04
984.969	2326.15
985.267	2363.21
985.566	2373.84
985.864	2318.24
986.162	2327.28
986.461	2292.48
986.759	2300.84
987.057	2303.56
987.355	2285.93
987.653	2256.55
987.951	2245.93
988.249	2278.7
988.547	2239.38
988.844	2236.66
989.142	2220.85
989.44	2223.11
989.737	2190.56
990.035	2186.04
990.332	2181.98
990.63	2179.72
990.927	2174.52
991.224	2136.33
991.521	2137.68
991.819	2146.05
992.116	2153.05
992.413	2114.18
992.71	2119.61
993.006	2094.07
993.303	2064.01
993.6	2078.93
993.897	2041.42
994.193	2057.01
994.49	2010.68
994.787	2037.57
995.083	2029.44
995.379	2035.09
995.676	1995.09
995.972	1992.83
996.268	1981.08
996.565	1965.71
996.861	1953.96
997.157	1974.75
997.453	1937.92
997.749	1946.73
998.044	1939.5
998.34	1915.99
998.636	1941.76
998.932	1909.22
999.227	1887.75
999.523	1869.67
999.818	1873.06
1000.114	1873.51
1000.409	1887.3
1000.704	1873.28
1001	1838.26
1001.295	1794.64
1001.59	1793.06
1001.885	1828.77
1002.18	1808.88
1002.475	1798.94
1002.77	1802.33
1003.065	1765.94
1003.359	1784.92
1003.654	1803.91
1003.949	1720.97
1004.243	1744.7
1004.538	1715.77
1004.832	1749.45
1005.127	1737.92
1005.421	1698.15
1005.715	1703.8
1006.009	1658.15
1006.304	1686.85
1006.598	1682.1
1006.892	1705.83
1007.186	1637.81
1007.48	1642.56
1007.773	1643.46
1008.067	1633.74
1008.361	1612.27
1008.655	1603.46
1008.948	1599.62
1009.242	1601.65
1009.535	1571.15
1009.829	1574.76
1010.122	1534.76
1010.415	1556.91
1010.708	1550.81
1011.001	1552.16
1011.295	1524.14
1011.588	1520.98
1011.881	1500.19
1012.173	1483.92
1012.466	1493.18
1012.759	1505.16
1013.052	1488.44
1013.344	1469.68
1013.637	1462
1013.93	1452.5
1014.222	1455.44
1014.514	1471.71
1014.807	1427.87
1015.099	1396.01
1015.391	1405.95
1015.683	1389.23
1015.976	1391.49
1016.268	1398.49
1016.56	1379.96
1016.851	1349.46
1017.143	1377.25
1017.435	1353.52
1017.727	1346.29
1018.018	1320.76
1018.31	1346.52
1018.602	1325.73
1018.893	1293.86
1019.185	1286.86
1019.476	1305.84
1019.767	1302.23
1020.058	1292.06
1020.35	1287.08
1020.641	1280.76
1020.932	1247.31
1021.223	1250.48
1021.514	1237.37
1021.804	1201.66
1022.095	1221.55
1022.386	1220.87
1022.677	1227.88
1022.967	1200.31
1023.258	1174.77
1023.548	1182.45
1023.839	1154.21
1024.129	1162.12
1024.419	1163.47
1024.709	1177.26
1025	1153.75
1025.29	1165.96
1025.58	1129.57
1025.87	1153.08
1026.16	1121.21
1026.449	1127.99
1026.739	1114.43
1027.029	1109.46
1027.319	1091.16
1027.608	1111.5
1027.898	1106.07
1028.187	1081.21
1028.477	1073.53
1028.766	1053.87
1029.055	1048.67
1029.344	1035.11
1029.634	1049.58
1029.923	1028.11
1030.212	1031.5
1030.501	1006.64
1030.79	1009.8
1031.078	1004.83
1031.367	1001.44
1031.656	988.34
1031.945	1005.51
1032.233	1009.58
1032.522	984.95
1032.81	974.78
1033.099	971.16
1033.387	946.08
1033.675	941.33
1033.963	947.21
1034.251	950.82
1034.54	947.88
1034.828	937.04
1035.116	913.76
1035.403	920.77
1035.691	902.69
1035.979	917.38
1036.267	918.73
1036.554	940.2
1036.842	904.95
1037.129	899.75
1037.417	886.87
1037.704	859.98
1037.992	879.41
1038.279	866.3
1038.566	866.08
1038.853	866.08
1039.14	866.08
