Data from tablewood_brown_FLMS001491_073.txt Node
Date: Tue Feb 07 11:10:59 GMT 2017
User: dcchb
Spectrometer: FLMS00149
Trigger mode: 0
Integration Time (sec): 2.000000E-2
Scans to average: 10
Electric dark correction enabled: true
Nonlinearity correction enabled: false
Boxcar width: 0
XAxis mode: Wavelengths
Number of Pixels in Spectrum: 2048
>>>>>Begin Spectral Data<<<<<
341.393	-23.12
341.776	-23.12
342.16	-23.12
342.543	-46.62
342.927	-75.55
343.31	-74.64
343.693	-66.28
344.077	-64.25
344.46	-58.37
344.843	-51.59
345.226	-52.95
345.61	-20.41
345.993	-26.51
346.376	-28.54
346.759	-0.52
347.142	43.77
347.525	41.06
347.908	72.02
348.291	89.64
348.674	89.42
349.057	108.18
349.44	125.35
349.823	108.63
350.206	173.26
350.588	204.9
350.971	192.69
351.354	204.22
351.737	241.05
352.119	221.84
352.502	254.61
352.884	260.49
353.267	284.22
353.65	281.73
354.032	283.99
354.414	293.26
354.797	309.3
355.179	300.71
355.562	318.57
355.944	329.64
356.326	338.9
356.709	339.36
357.091	326.02
357.473	337.32
357.855	322.41
358.238	332.58
358.62	322.86
359.002	326.93
359.384	346.81
359.766	333.03
360.148	342.29
360.53	338
360.912	329.86
361.294	332.8
361.676	337.32
362.057	338.68
362.439	324.21
362.821	320.15
363.203	335.51
363.584	310.66
363.966	328.73
364.348	304.33
364.729	325.8
365.111	327.83
365.493	317.44
365.874	308.62
366.256	319.02
366.637	324.44
367.019	339.13
367.4	305.23
367.781	318.57
368.163	321.28
368.544	335.97
368.925	323.99
369.306	318.79
369.688	310.66
370.069	317.66
370.45	319.02
370.831	297.55
371.212	285.35
371.593	321.95
371.974	322.41
372.355	307.49
372.736	316.98
373.117	319.47
373.498	321.05
373.879	335.51
374.26	316.08
374.641	319.47
375.021	320.37
375.402	338
375.783	333.48
376.163	331.45
376.544	334.38
376.925	320.6
377.305	338.68
377.686	346.13
378.066	332.35
378.447	339.13
378.827	335.74
379.208	358.11
379.588	342.52
379.968	351.11
380.349	347.72
380.729	346.81
381.109	348.62
381.489	348.39
381.87	341.39
382.25	349.07
382.63	346.13
383.01	353.37
383.39	369.19
383.77	354.72
384.15	368.51
384.53	370.54
384.91	371.67
385.29	378.68
385.67	392.46
386.049	377.09
386.429	391.11
386.809	372.12
387.189	404.21
387.568	366.7
387.948	382.74
388.328	391.56
388.707	392.91
389.087	389.98
389.466	399.92
389.846	415.29
390.225	392.91
390.605	402.86
390.984	399.24
391.363	424.33
391.743	392.69
392.122	411.9
392.501	408.05
392.881	417.32
393.26	417.09
393.639	418.9
394.018	440.6
394.397	439.01
394.776	428.39
395.155	441.73
395.534	424.1
395.913	445.79
396.292	449.18
396.671	453.93
397.05	464.32
397.429	463.42
397.808	446.02
398.186	456.87
398.565	469.07
398.944	464.55
399.323	488.96
399.701	471.78
400.08	482.18
400.458	488.28
400.837	469.75
401.215	480.82
401.594	466.36
401.972	480.59
402.351	481.27
402.729	517.43
403.107	504.55
403.486	490.76
403.864	516.75
404.242	517.88
404.62	527.37
404.999	525.34
405.377	526.24
405.755	517.88
406.133	518.79
406.511	536.86
406.889	547.71
407.267	540.25
407.645	574.6
408.023	566.47
408.401	573.7
408.779	564.89
409.156	578.45
409.534	571.44
409.912	584.77
410.29	594.94
410.667	615.28
411.045	602.63
411.422	607.6
411.8	617.54
412.178	608.27
412.555	606.92
412.933	640.59
413.31	650.99
413.687	629.52
414.065	632
414.442	635.84
414.819	648.95
415.197	663.64
415.574	665.22
415.951	659.35
416.328	668.84
416.705	669.97
417.082	665.67
417.46	678.78
417.837	710.65
418.214	688.5
418.591	684.66
418.967	702.96
419.344	723.98
419.721	712.9
420.098	706.13
420.475	748.38
420.852	736.63
421.228	732.34
421.605	751.1
421.982	754.49
422.358	750.42
422.735	751.55
423.111	776.63
423.488	774.37
423.864	791.1
424.241	805.56
424.617	813.47
424.994	791.77
425.37	802.85
425.746	796.07
426.123	816.86
426.499	833.81
426.875	816.41
427.251	800.59
427.627	844.65
428.003	854.6
428.379	867.03
428.756	887.82
429.132	883.97
429.507	891.43
429.883	913.58
430.259	909.28
430.635	920.36
431.011	918.1
431.387	933.01
431.763	942.96
432.138	946.8
432.514	965.1
432.89	977.98
433.265	985.67
433.641	1000.36
434.016	988.38
434.392	1024.99
434.767	1013.24
435.143	1049.62
435.518	1038.32
435.894	1087.58
436.269	1059.34
436.644	1092.1
437.02	1092.78
437.395	1130.52
437.77	1106.11
438.145	1146.79
438.52	1129.17
438.895	1152.67
439.271	1151.76
439.646	1174.14
440.021	1152.67
440.395	1174.59
440.77	1201.48
441.145	1201.25
441.52	1211.42
441.895	1225.89
442.27	1224.98
442.645	1224.08
443.019	1258.2
443.394	1234.25
443.769	1253.68
444.143	1250.07
444.518	1264.53
444.892	1264.75
445.267	1298.88
445.641	1300.23
446.016	1321.7
446.39	1313.34
446.764	1329.84
447.139	1312.66
447.513	1316.73
447.887	1375.71
448.262	1370.06
448.636	1359.89
449.01	1379.33
449.384	1384.75
449.758	1382.04
450.132	1400.34
450.506	1386.56
450.88	1436.95
451.254	1437.18
451.628	1428.59
452.002	1417.75
452.376	1458.2
452.75	1481.25
453.123	1495.03
453.497	1534.58
453.871	1521.47
454.244	1531.87
454.618	1561.7
454.992	1598.08
455.365	1568.02
455.739	1589.04
456.112	1618.87
456.486	1630.85
456.859	1675.82
457.232	1690.96
457.606	1662.26
457.979	1684.63
458.352	1749.49
458.725	1746.1
459.099	1801.46
459.472	1794.68
459.845	1808.92
460.218	1856.15
460.591	1865.64
460.964	1857.96
461.337	1913.33
461.71	1947.67
462.083	1948.13
462.456	1931.18
462.829	1977.5
463.201	2019.31
463.574	1996.94
463.947	2012.08
464.32	2055.69
464.692	2101.8
465.065	2136.14
465.438	2150.83
465.81	2179.76
466.183	2252.53
466.555	2257.5
466.928	2295.01
467.3	2273.77
467.672	2311.96
468.045	2338.62
468.417	2386.53
468.789	2394.22
469.161	2467.66
469.534	2481.22
469.906	2537.26
470.278	2576.13
470.65	2602.35
471.022	2678.5
471.394	2713.53
471.766	2726.19
472.138	2803.02
472.51	2858.61
472.882	2891.83
473.253	2919.63
473.625	2980.64
473.997	3047.53
474.369	3082.79
474.74	3104.71
475.112	3201.88
475.484	3259.28
475.855	3316.45
476.227	3342.21
476.598	3464.7
476.97	3469.89
477.341	3565.49
477.713	3591.7
478.084	3630.12
478.455	3770.9
478.827	3848.19
479.198	3899.49
479.569	3948.07
479.94	4025.81
480.311	4157.56
480.682	4188.07
481.053	4308.52
481.424	4398.23
481.795	4424.9
482.166	4535.4
482.537	4595.74
482.908	4752.8
483.279	4767.71
483.65	4894.26
484.021	5027.59
484.391	5045.67
484.762	5131.55
485.133	5134.26
485.503	5246.12
485.874	5341.03
486.244	5411.31
486.615	5466.45
486.985	5564.53
487.356	5680.91
487.726	5759.55
488.097	5883.84
488.467	5916.84
488.837	6003.61
489.207	6110.96
489.578	6173.33
489.948	6299.2
490.318	6308.69
490.688	6398.18
491.058	6476.6
491.428	6592.98
491.798	6645.63
492.168	6796.36
492.538	6823.48
492.908	6844.72
493.278	6967.66
493.648	7044.26
494.017	7081.78
494.387	7150.25
494.757	7258.04
495.126	7294.2
495.496	7324.93
495.866	7357.02
496.235	7517.47
496.605	7596.34
496.974	7658.71
497.344	7738.48
497.713	7749.33
498.082	7871.59
498.452	7965.82
498.821	7967.18
499.19	8001.98
499.559	8049.21
499.928	8122.2
500.298	8152.94
500.667	8262.99
501.036	8326.94
501.405	8426.6
501.774	8444.91
502.143	8474.73
502.512	8581.62
502.88	8611.91
503.249	8611
503.618	8723.32
503.987	8819.36
504.356	8818
504.724	8872.46
505.093	8909.07
505.462	9011.9
505.83	9119.24
506.199	9223.42
506.567	9212.57
506.936	9276.75
507.304	9399
507.672	9455.5
508.041	9462.51
508.409	9543.86
508.777	9619.34
509.145	9786.56
509.514	9748.83
509.882	9850.07
510.25	9894.13
510.618	10012.1
510.986	10099.55
511.354	10161.47
511.722	10225.65
512.09	10278.3
512.458	10314.01
512.826	10502.03
513.193	10488.69
513.561	10524.62
513.929	10640.33
514.297	10740.44
514.664	10891.17
515.032	10833.09
515.4	11082.58
515.767	11085.74
516.135	11119.41
516.502	11116.47
516.869	11284.15
517.237	11415.45
517.604	11413.41
517.972	11570.7
518.339	11668.1
518.706	11693.63
519.073	11771.6
519.44	11902.89
519.808	12043
520.175	11973.4
520.542	12183.56
520.909	12277.12
521.276	12313.73
521.643	12431.92
522.009	12447.74
522.376	12703.55
522.743	12681.86
523.11	12906.26
523.477	13075.97
523.843	13176.08
524.21	13236.64
524.577	13310.54
524.943	13372.01
525.31	13504.43
525.676	13581.27
526.043	13724.09
526.409	13818.1
526.776	13963.18
527.142	14054.7
527.508	14104.87
527.874	14204.53
528.241	14222.83
528.607	14381.25
528.973	14528.59
529.339	14558.42
529.705	14729.49
530.071	14705.98
530.437	14819.88
530.803	14934.45
531.169	15061.23
531.535	14972.87
531.901	15147.55
532.267	15186.65
532.632	15403.14
532.998	15413.76
533.364	15588.22
533.73	15610.14
534.095	15706.86
534.461	15689.23
534.826	15744.83
535.192	15938.49
535.557	16000.86
535.923	15963.58
536.288	16067.53
536.653	16228.66
537.019	16118.15
537.384	16244.93
537.749	16270.24
538.114	16316.34
538.479	16324.92
538.845	16492.15
539.21	16532.6
539.575	16585.71
539.94	16688.3
540.305	16769.21
540.67	16749.09
541.034	16843.55
541.399	16936.43
541.764	16940.73
542.129	17017.34
542.494	16995.19
542.858	17196.99
543.223	17211.68
543.587	17227.05
543.952	17391.34
544.316	17353.15
544.681	17418.91
545.045	17489.86
545.41	17590.88
545.774	17610.09
546.138	17613.48
546.503	17700.48
546.867	17760.59
547.231	17928.05
547.595	17876.3
547.959	18000.13
548.324	18016.63
548.688	18059.12
549.052	18162.62
549.416	18225.21
549.779	18307.92
550.143	18350.18
550.507	18490.52
550.871	18618.42
551.235	18672.21
551.599	18728.7
551.962	18812.32
552.326	18849.83
552.689	19012.76
553.053	19022.93
553.417	19081.24
553.78	19394
554.143	19335.01
554.507	19454.79
554.87	19558.06
555.234	19760.99
555.597	19680.09
555.96	19868.11
556.323	19955.79
556.686	20047.31
557.05	20304.48
557.413	20329.34
557.776	20489.79
558.139	20607.52
558.502	20660.4
558.865	20871.47
559.228	20999.15
559.59	21007.51
559.953	21167.96
560.316	21454.51
560.679	21519.82
561.041	21732.47
561.404	21835.06
561.767	21949.18
562.129	21941.5
562.492	22346.91
562.854	22329.51
563.217	22334.26
563.579	22611.31
563.941	22768.82
564.304	23057.63
564.666	23113.9
565.028	23263.95
565.39	23408.13
565.753	23492.42
566.115	23718.63
566.477	23876.82
566.839	23884.5
567.201	24184.15
567.563	24216.02
567.925	24507.53
568.287	24685.83
568.648	24714.31
569.01	24882.66
569.372	25262.77
569.734	25203.56
570.095	25555.87
570.457	25678.8
570.819	25854.62
571.18	25910.89
571.542	26109.3
571.903	26297.32
572.265	26396.52
572.626	26540.02
572.987	26636.52
573.349	26910.41
573.71	26958.32
574.071	27203.96
574.432	27358.98
574.794	27538.64
575.155	27551.52
575.516	27623.16
575.877	28053.88
576.238	28030.6
576.599	28208.91
576.96	28253.88
577.32	28361.22
577.681	28648.67
578.042	28627.88
578.403	28790.58
578.763	28868.32
579.124	28916.68
579.485	29201.87
579.845	29387.18
580.206	29395.77
580.566	29485.48
580.927	29640.73
581.287	29697.45
581.648	29754.18
582.008	29825.59
582.368	29846.38
582.728	29974.96
583.089	29981.29
583.449	30094.05
583.809	30161.62
584.169	30228.97
584.529	30351
584.889	30553.25
585.249	30369.75
585.609	30543.99
585.969	30601.61
586.329	30661.04
586.688	30744.66
587.048	30790.76
587.408	30637.99
587.768	30692.23
588.127	30783.53
588.487	30811.77
588.846	31001.37
589.206	30791.89
589.565	31035.05
589.925	31112.56
590.284	31103.29
590.643	31025.55
591.003	31185.55
591.362	31327.69
591.721	31222.84
592.08	31201.59
592.44	31229.39
592.799	31353.23
593.158	31179.67
593.517	31207.02
593.876	31382.38
594.235	31421.02
594.593	31427.13
594.952	31491.53
595.311	31509.84
595.67	31503.06
596.029	31518.87
596.387	31719.77
596.746	31710.51
597.104	31632.09
597.463	31586.22
597.822	31805.87
598.18	31727.23
598.538	31666.22
598.897	31895.59
599.255	31618.53
599.613	32028.47
599.972	31707.57
600.33	31880.22
600.688	31858.53
601.046	31980.11
601.404	32133.77
601.762	31972.42
602.12	32145.3
602.478	32168.8
602.836	32191.17
603.194	32006.32
603.552	32131.29
603.91	31997.73
604.268	32133.77
604.625	32062.59
604.983	32336.71
605.341	32236.37
605.698	32278.18
606.056	32538.28
606.413	32205.41
606.771	32361.11
607.128	32472.3
607.485	32370.6
607.843	32341.45
608.2	32573.31
608.557	32505.97
608.914	32491.5
609.272	32744.15
609.629	32753.19
609.986	32845.62
610.343	32617.83
610.7	32937.59
611.057	32801.78
611.414	32904.6
611.771	32886.52
612.127	33079.06
612.484	32867.99
612.841	32972.85
613.198	32769.46
613.554	33042
613.911	33125.16
614.267	32997.48
614.624	33197.7
614.98	33050.13
615.337	33277.25
615.693	33359.05
616.05	33369
616.406	33460.29
616.762	33484.47
617.118	33359.28
617.475	33460.52
617.831	33486.96
618.187	33573.74
618.543	33530.12
618.899	33733.51
619.255	33537.58
619.611	33455.09
619.967	33604.02
620.323	33775.09
620.678	33603.34
621.034	33677.01
621.39	33731.25
621.746	33596.56
622.101	33961.52
622.457	33607.63
622.812	33701.87
623.168	33836.1
623.523	33720.4
623.879	33812.83
624.234	33546.39
624.589	33665.48
624.945	33754.97
625.3	33765.82
625.655	33746.84
626.01	33762.21
626.365	33922.43
626.72	33848.08
627.075	33700.96
627.43	33773.28
627.785	33723.34
628.14	33797.91
628.495	33725.82
628.85	33759.95
629.205	33660.29
629.559	33786.39
629.914	33469.78
630.269	33634.3
630.623	33472.72
630.978	33525.38
631.332	33667.29
631.687	33820.96
632.041	33426.17
632.396	33530.8
632.75	33465.04
633.104	33452.16
633.459	33246.74
633.813	33216.91
634.167	33240.64
634.521	33254.42
634.875	33161.54
635.229	33342.1
635.583	33169.45
635.937	32937.37
636.291	33253.97
636.645	33125.16
636.999	32906.63
637.352	33116.57
637.706	32928.56
638.06	33024.6
638.413	32916.8
638.767	32822.34
639.121	33036.12
639.474	32707.32
639.828	32831.16
640.181	32543.93
640.534	32856.01
640.888	32719.52
641.241	32494.89
641.594	32453.54
641.947	32724.27
642.301	32566.08
642.654	32603.82
643.007	32702.35
643.36	32471.17
643.713	32541.22
644.066	32568.79
644.419	32311.17
644.771	32228.91
645.124	32068.92
645.477	32017.39
645.83	31692.43
646.182	31427.13
646.535	31517.97
646.888	31662.83
647.24	31183.29
647.593	31443.17
647.945	31406.79
648.298	31113.46
648.65	31180.8
649.002	31066.23
649.355	31328.37
649.707	31163.4
650.059	31468.93
650.411	31796.16
650.763	31947.56
651.115	32108.24
651.467	31980.11
651.819	31965.19
652.171	31939.65
652.523	31863.72
652.875	31859.66
653.227	31855.59
653.578	31997.96
653.93	31919.32
654.282	31562.72
654.633	31735.59
654.985	31702.15
655.337	31827.79
655.688	31884.29
656.039	31869.37
656.391	31619.89
656.742	31713.45
657.094	31759.55
657.445	31910.5
657.796	31730.85
658.147	31846.1
658.498	31765.2
658.849	31753.22
659.2	31664.86
659.551	31580.79
659.902	31762.94
660.253	31750.06
660.604	31652.43
660.955	31534.69
661.306	31729.49
661.656	31679.32
662.007	31687.46
662.358	31662.37
662.708	31750.51
663.059	31568.82
663.409	31420.8
663.76	31823.05
664.11	31684.75
664.461	31818.98
664.811	31677.97
665.161	31681.58
665.511	31593.22
665.862	31544.41
666.212	31580.12
666.562	31691.75
666.912	31541.02
667.262	31574.01
667.612	31665.09
667.962	31596.39
668.312	31525.88
668.662	31732.65
669.011	31507.35
669.361	31624.41
669.711	31594.8
670.06	31510.06
670.41	31454.02
670.76	31376.73
671.109	31542.6
671.459	31416.05
671.808	31333.79
672.157	31321.37
672.507	31085.89
672.856	31075.04
673.205	31219.45
673.554	31280.01
673.904	31099.22
674.253	31250.86
674.602	31268.26
674.951	30717.77
675.3	30726.58
675.649	31140.81
675.998	31111.88
676.346	30998.89
676.695	31043.41
677.044	30935.39
677.393	31004.09
677.741	30947.14
678.09	30865.33
678.438	30884.54
678.787	30876.63
679.135	30892
679.484	30625.79
679.832	30806.35
680.181	30583.53
680.529	30620.14
680.877	30745.34
681.225	30468.73
681.573	30675.28
681.922	30465.12
682.27	30340.15
682.618	30404.78
682.966	30186.03
683.314	30290.88
683.661	30234.39
684.009	30069.2
684.357	30039.82
684.705	30011.8
685.053	29990.1
685.4	29919.37
685.748	29808.19
686.095	29737.9
686.443	29636.44
686.79	29727.74
687.138	29700.39
687.485	29759.6
687.832	29549.43
688.18	29553.95
688.527	29464.24
688.874	29354.86
689.221	29250.91
689.568	29125.72
689.915	29181.08
690.262	29021.09
690.609	29045.49
690.956	28935.44
691.303	28907.42
691.65	28728.67
691.997	28804.6
692.344	28566.41
692.69	28505.62
693.037	28429.92
693.383	28283.03
693.73	28385.4
694.077	28058.63
694.423	28165.74
694.769	28086.65
695.116	27965.75
695.462	27829.25
695.808	27905.86
696.155	27895.69
696.501	27559.88
696.847	27616.83
697.193	27400.11
697.539	27419.32
697.885	27365.09
698.231	27229.5
698.577	27219.55
698.923	27132.78
699.269	27043.06
699.614	26836.74
699.96	26836.29
700.306	26754.03
700.651	26666.12
700.997	26436.52
701.342	26439.23
701.688	26473.81
702.033	26308.84
702.379	26203.76
702.724	26197.66
703.069	26197.66
703.415	26026.59
703.76	25928.97
704.105	25978.23
704.45	25774.17
704.795	25689.2
705.14	25604
705.485	25635.64
705.83	25476.77
706.175	25375.31
706.52	25273.62
706.865	25231.81
707.209	25187.74
707.554	24987.07
707.899	25113.85
708.243	24900.07
708.588	25021.19
708.932	24797.02
709.277	24811.48
709.621	24765.38
709.966	24601.09
710.31	24793.18
710.654	24424.82
710.998	24597.47
711.342	24475.22
711.687	24455.33
712.031	24401.1
712.375	24266.86
712.719	24330.36
713.063	24218.95
713.407	24236.81
713.75	24017.6
714.094	24122.46
714.438	23960.2
714.782	24028.45
715.125	23879.3
715.469	23933.54
715.812	23791.39
716.156	23702.81
716.499	23695.35
716.843	23792.07
717.186	23571.51
717.53	23826.2
717.873	23755.24
718.216	23672.08
718.559	23480.67
718.902	23503.04
719.246	23508.46
719.589	23437.05
719.932	23280
720.275	23245.42
720.617	23357.28
720.96	23282.48
721.303	23349.15
721.646	23325.87
721.989	23220.79
722.331	23156.61
722.674	23147.57
723.016	23199.55
723.359	23047.91
723.701	23152.31
724.044	23019.21
724.386	22907.8
724.729	22997.74
725.071	22910.06
725.413	22942.15
725.755	22903.28
726.097	22830.06
726.439	22756.17
726.782	22837.52
727.124	22897.86
727.465	22837.3
727.807	22755.26
728.149	22794.81
728.491	22682.72
728.833	22726.11
729.175	22669.16
729.516	22642.95
729.858	22716.39
730.199	22735.6
730.541	22600.24
730.882	22632.55
731.224	22645.66
731.565	22569.51
731.906	22573.12
732.248	22653.57
732.589	22542.16
732.93	22500.81
733.271	22482.73
733.612	22391.43
733.953	22553.01
734.294	22458.55
734.635	22443.41
734.976	22428.72
735.317	22329.96
735.658	22413.13
735.999	22471.88
736.339	22440.02
736.68	22423.97
737.021	22338.55
737.361	22345.56
737.702	22450.19
738.042	22451.32
738.383	22386.69
738.723	22461.49
739.063	22404.09
739.404	22429.17
739.744	22468.49
740.084	22292.68
740.424	22212.9
740.764	22222.4
741.104	22411.54
741.444	22280.47
741.784	22294.03
742.124	22361.6
742.464	22321.38
742.804	22236.63
743.143	22210.19
743.483	22260.59
743.823	22177.43
744.162	22210.19
744.502	22188.95
744.841	22139.69
745.181	22157.31
745.52	22180.59
745.86	22183.07
746.199	22107.6
746.538	21993.02
746.877	22156.41
747.216	22159.8
747.556	22059.01
747.895	22083.42
748.234	22045.45
748.573	22027.15
748.911	22030.08
749.25	22076.19
749.589	21879.13
749.928	22021.95
750.267	21964.32
750.605	21947.6
750.944	21914.83
751.283	21843.2
751.621	22003.64
751.96	21881.84
752.298	21831.22
752.636	21871.67
752.975	21688.85
753.313	21629.87
753.651	21871.67
753.989	21655.18
754.327	21726.14
754.666	21575.41
755.004	21571.57
755.342	21721.39
755.679	21569.31
756.017	21508.06
756.355	21437.78
756.693	21492.47
757.031	21461.96
757.368	21355.53
757.706	21362.08
758.044	21345.36
758.381	21424.68
758.719	21280.05
759.056	21322.98
759.394	21224.46
759.731	21050.68
760.068	21122.31
760.405	21031.47
760.743	20931.81
761.08	20966.84
761.417	20802.09
761.754	20862.43
762.091	20811.13
762.428	20712.38
762.765	20609.56
763.102	20785.37
763.438	20556.68
763.775	20484.81
764.112	20575.43
764.449	20584.02
764.785	20434.87
765.122	20246.18
765.458	20202.56
765.795	20160.08
766.131	20122.34
766.467	20113.75
766.804	19905.62
767.14	19834.44
767.476	19800.31
767.812	19686.42
768.148	19866.75
768.485	19710.82
768.821	19590.37
769.157	19587.66
769.492	19464.73
769.828	19513.99
770.164	19287.11
770.5	19237.16
770.836	19265.41
771.171	19201.46
771.507	19230.61
771.842	18983.84
772.178	18990.62
772.513	18892.54
772.849	18859.77
773.184	18831.3
773.519	18782.94
773.855	18705.43
774.19	18622.49
774.525	18630.17
774.86	18614.13
775.195	18469.73
775.53	18431.99
775.865	18330.52
776.2	18229.05
776.535	18091.66
776.87	18191.09
777.205	17994.71
777.539	17968.5
777.874	18036.07
778.209	17817.54
778.543	17681.27
778.878	17661.39
779.212	17640.37
779.547	17482.41
779.881	17657.09
780.215	17437.66
780.55	17561.95
780.884	17349.98
781.218	17235.63
781.552	17249.42
781.886	17135.98
782.22	17122.87
782.554	17074.06
782.888	16934.17
783.222	16758.81
783.556	16743.44
783.889	16762.65
784.223	16571.25
784.557	16605.14
784.89	16625.48
785.224	16528.99
785.557	16421.42
785.891	16533.73
786.224	16384.36
786.558	16336.45
786.891	16099.17
787.224	16191.59
787.557	16114.31
787.891	16043.12
788.224	16033.41
788.557	16036.34
788.89	15959.74
789.223	15890.59
789.556	15787.99
789.888	15738.05
790.221	15673.64
790.554	15652.4
790.887	15620.76
791.219	15604.94
791.552	15503.93
791.884	15438.39
792.217	15355.01
792.549	15293.54
792.882	15188.23
793.214	15221.45
793.546	15162.24
793.879	15092.19
794.211	15023.72
794.543	15053.54
794.875	14970.38
795.207	15083.15
795.539	14916.83
795.871	14825.75
796.203	14726.77
796.535	14690.39
796.867	14673.44
797.198	14599.77
797.53	14697.62
797.862	14564.74
798.193	14562.26
798.525	14518.19
798.856	14436.16
799.188	14331.76
799.519	14252.44
799.85	14174.02
800.182	14225.54
800.513	14164.98
800.844	14069.62
801.175	14110.29
801.506	14064.64
801.837	14094.47
802.168	13981.48
802.499	13998.21
802.83	13836.4
803.161	13816.74
803.491	13833.69
803.822	13822.62
804.153	13747.59
804.483	13593.02
804.814	13512.57
805.145	13567.93
805.475	13509.86
805.805	13468.28
806.136	13491.1
806.466	13536.07
806.796	13404.1
807.126	13405.45
807.457	13325
807.787	13325.68
808.117	13294.27
808.447	13189.87
808.777	13205.68
809.107	13127.49
809.436	13097.21
809.766	13165.01
810.096	13006.37
810.426	12967.27
810.755	13026.25
811.085	12981.73
811.414	12898.8
811.744	12894.05
812.073	12830.55
812.403	12785.13
812.732	12767.73
813.061	12800.27
813.39	12637.11
813.719	12630.78
814.049	12785.81
814.378	12595.76
814.707	12605.93
815.036	12537
815.365	12488.87
815.693	12397.57
816.022	12397.34
816.351	12336.55
816.68	12391.69
817.008	12299.04
817.337	12228.99
817.665	12228.31
817.994	12234.86
818.322	12210.68
818.651	12181.3
818.979	12174.07
819.307	12198.93
819.636	12118.93
819.964	12050.23
820.292	12118.25
820.62	12017.24
820.948	11995.32
821.276	12101.08
821.604	11951.25
821.932	12119.61
822.259	12000.07
822.587	11985.6
822.915	11980.41
823.243	12056.79
823.57	11917.58
823.898	11894.53
824.225	11916
824.553	11826.74
824.88	11971.59
825.207	11996.22
825.535	11974.3
825.862	11975.89
826.189	11923.23
826.516	11968.65
826.843	12017.47
827.17	12004.81
827.497	11966.17
827.824	11967.3
828.151	11864.93
828.478	11953.74
828.805	12078.03
829.131	11945.6
829.458	11892.5
829.785	11890.01
830.111	11887.75
830.438	11982.44
830.764	11875.32
831.09	11964.13
831.417	11800.75
831.743	11940.63
832.069	11922.33
832.395	11794.42
832.722	11915.1
833.048	11784.03
833.374	11768.21
833.7	11768.66
834.026	11810.47
834.351	11805.27
834.677	11849.56
835.003	11809.11
835.329	11762.33
835.654	11792.61
835.98	11775.66
836.306	11729.79
836.631	11675.55
836.956	11620.19
837.282	11712.39
837.607	11624.26
837.932	11516.01
838.258	11611.15
838.583	11550.59
838.908	11552.17
839.233	11479.85
839.558	11506.29
839.883	11532.73
840.208	11468.33
840.533	11525.28
840.858	11398.27
841.182	11417.48
841.507	11417.26
841.832	11350.82
842.156	11292.51
842.481	11396.92
842.805	11283.93
843.13	11293.42
843.454	11274.89
843.778	11197.15
844.103	11135.23
844.427	11184.27
844.751	11193.76
845.075	11132.29
845.399	11093.65
845.723	10972.07
846.047	11029.92
846.371	10909.47
846.695	10977.95
847.019	10816.59
847.343	10811.4
847.666	10785.86
847.99	10682.59
848.313	10734.56
848.637	10682.36
848.96	10568.92
849.284	10575.47
849.607	10566.66
849.931	10521.91
850.254	10478.98
850.577	10343.39
850.9	10356.95
851.223	10304.97
851.546	10224.29
851.869	10274.46
852.192	10202.6
852.515	10094.13
852.838	10104.97
853.161	10130.28
853.483	10008.71
853.806	9966.45
854.129	10055.48
854.451	9951.53
854.774	9901.36
855.096	9900.69
855.419	9867.01
855.741	9851.2
856.063	9779.56
856.385	9734.59
856.708	9715.61
857.03	9720.13
857.352	9727.58
857.674	9691.65
857.996	9630.18
858.318	9581.37
858.64	9543.18
858.961	9542.73
859.283	9518.32
859.605	9496.4
859.926	9428.16
860.248	9413.24
860.57	9422.28
860.891	9409.85
861.212	9338.44
861.534	9337.09
861.855	9317.88
862.176	9335.73
862.498	9316.07
862.819	9260.02
863.14	9248.73
863.461	9264.54
863.782	9227.48
864.103	9252.57
864.424	9129.63
864.745	9169.63
865.065	9115.85
865.386	9166.69
865.707	9097.54
866.027	9121.05
866.348	9105.23
866.668	9155.85
866.989	9029.3
867.309	8999.47
867.63	9039.92
867.95	9030.2
868.27	8973.7
868.59	8950.65
868.91	8939.81
869.23	8977.09
869.55	8870.66
869.87	8999.24
870.19	8886.02
870.51	8930.54
870.83	8938.23
871.15	8850.32
871.469	8892.35
871.789	8878.57
872.109	8861.17
872.428	8777.78
872.748	8766.7
873.067	8761.73
873.386	8822.07
873.706	8792.24
874.025	8765.12
874.344	8699.14
874.663	8713.82
874.982	8673.83
875.301	8656.65
875.62	8648.74
875.939	8621.85
876.258	8643.77
876.577	8577.56
876.896	8595.41
877.214	8537.11
877.533	8522.64
877.852	8502.53
878.17	8482.64
878.489	8540.27
878.807	8529.65
879.125	8501.63
879.444	8442.65
879.762	8450.33
880.08	8482.19
880.398	8368.75
880.716	8456.66
881.034	8315.64
881.352	8406.26
881.67	8378.01
881.988	8355.19
882.306	8295.98
882.624	8298.24
882.941	8313.61
883.259	8313.38
883.577	8255.53
883.894	8188.19
884.212	8192.48
884.529	8203.56
884.846	8209.43
885.164	8195.87
885.481	8180.28
885.798	8184.8
886.115	8084.91
886.432	8141.86
886.75	8105.93
887.067	8081.3
887.383	8015.99
887.7	8000.85
888.017	7996.1
888.334	7962.88
888.651	7971.47
888.967	7973.96
889.284	7937.57
889.6	7953.17
889.917	7927.18
890.233	7856.45
890.55	7846.5
890.866	7827.07
891.182	7814.87
891.498	7807.41
891.815	7703.46
892.131	7708.2
892.447	7682.89
892.763	7699.16
893.079	7647.64
893.395	7613.06
893.71	7609.22
894.026	7617.58
894.342	7506.62
894.657	7511.14
894.973	7506.17
895.289	7541.88
895.604	7465.72
895.92	7392.05
896.235	7395.22
896.55	7330.81
896.865	7394.99
897.181	7376.01
897.496	7324.71
897.811	7299.17
898.126	7283.58
898.441	7230.02
898.756	7204.71
899.071	7153.41
899.386	7204.26
899.7	7125.62
900.015	7093.75
900.33	7075
900.644	6967.2
900.959	7044.72
901.273	7004.94
901.588	6966.75
901.902	6960.2
902.216	6964.94
902.531	6883.82
902.845	6865.74
903.159	6831.84
903.473	6840.88
903.787	6835.91
904.101	6776.7
904.415	6785.29
904.729	6749.36
905.042	6768.11
905.356	6679.98
905.67	6701.9
905.984	6672.52
906.297	6654.44
906.611	6546.88
906.924	6583.94
907.237	6534.67
907.551	6547.1
907.864	6493.77
908.177	6456.93
908.491	6500.32
908.804	6410.83
909.117	6430.49
909.43	6334.68
909.743	6328.12
910.056	6266.43
910.368	6290.16
910.681	6244.96
910.994	6212.42
911.307	6179.43
911.619	6126.32
911.932	6180.78
912.244	6183.5
912.557	6147.34
912.869	6121.35
913.181	6057.17
913.494	6063.72
913.806	6050.17
914.118	6003.61
914.43	5968.59
914.742	6018.3
915.054	5903.73
915.366	5971.3
915.678	5891.3
915.99	5878.19
916.302	5815.82
916.613	5810.62
916.925	5814.69
917.236	5746.67
917.548	5725.2
917.859	5772.43
918.171	5642.94
918.482	5645.43
918.794	5660.12
919.105	5594.13
919.416	5624.19
919.727	5637.3
920.038	5597.52
920.349	5537.18
920.66	5517.52
920.971	5497.64
921.282	5487.69
921.593	5481.37
921.903	5413.8
922.214	5446.34
922.525	5360.47
922.835	5371.09
923.146	5325.21
923.456	5303.29
923.767	5274.37
924.077	5280.47
924.387	5242.96
924.697	5206.12
925.008	5192.56
925.318	5170.41
925.628	5186.23
925.938	5132.22
926.248	5084.77
926.558	5089.51
926.867	5107.59
927.177	5056.97
927.487	5026.46
927.796	4997.09
928.106	5033.02
928.416	4976.75
928.725	4953.02
929.034	4934.04
929.344	4964.32
929.653	4958.9
929.962	4834.38
930.271	4802.97
930.581	4814.49
930.89	4828.05
931.199	4793.02
931.508	4766.58
931.817	4742.86
932.125	4708.05
932.434	4762.06
932.743	4654.27
933.051	4642.97
933.36	4690.2
933.669	4630.32
933.977	4603.2
934.286	4565.23
934.594	4576.08
934.902	4506.25
935.21	4499.47
935.519	4555.74
935.827	4529.3
936.135	4457.21
936.443	4452.02
936.751	4402.07
937.059	4435.29
937.367	4423.32
937.674	4410.89
937.982	4396.88
938.29	4362.07
938.597	4318.01
938.905	4313.26
939.213	4308.74
939.52	4288.86
939.827	4244.56
940.135	4235.07
940.442	4190.33
940.749	4216.99
941.056	4206.37
941.363	4112.14
941.67	4125.92
941.977	4089.77
942.284	4104.45
942.591	4032.14
942.898	4033.27
943.205	4045.02
943.511	4033.72
943.818	4044.12
944.125	4007.06
944.431	3951.01
944.738	3958.02
945.044	4031.91
945.35	3960.96
945.657	3910.11
945.963	3898.36
946.269	3875.08
946.575	3882.54
946.881	3861.3
947.187	3865.36
947.493	3801.19
947.799	3809.55
948.105	3773.16
948.41	3772.94
948.716	3762.32
949.022	3745.59
949.327	3716.89
949.633	3661.98
949.938	3685.71
950.244	3660.85
950.549	3680.96
950.854	3642.09
951.16	3622.21
951.465	3632.38
951.77	3624.92
952.075	3567.97
952.38	3576.11
952.685	3603.45
952.99	3507.86
953.294	3539.05
953.599	3531.36
953.904	3514.41
954.209	3464.92
954.513	3469.67
954.818	3491.14
955.122	3437.13
955.426	3434.42
955.731	3395.77
956.035	3407.52
956.339	3391.7
956.643	3382.89
956.948	3341.99
957.252	3329.79
957.556	3330.46
957.86	3325.49
958.163	3297.92
958.467	3287.75
958.771	3244.36
959.075	3307.87
959.378	3234.65
959.682	3230.8
959.985	3201.88
960.289	3193.07
960.592	3189.45
960.896	3209.56
961.199	3133.41
961.502	3123.01
961.805	3169.11
962.108	3120.53
962.411	3115.1
962.714	3088.66
963.017	3069.23
963.32	3049.34
963.623	3034.65
963.926	3060.87
964.228	3040.98
964.531	3012.28
964.833	3047.98
965.136	2990.59
965.438	2965.73
965.741	2943.35
966.043	2960.76
966.345	2948.78
966.648	2907.42
966.95	2916.69
967.252	2919.63
967.554	2924.37
967.856	2898.16
968.158	2867.88
968.46	2872.62
968.761	2859.06
969.063	2823.36
969.365	2836.24
969.666	2793.53
969.968	2767.31
970.269	2845.96
970.571	2784.04
970.872	2777.26
971.174	2756.02
971.475	2739.29
971.776	2739.29
972.077	2694.77
972.378	2723.02
972.679	2704.72
972.98	2708.56
973.281	2662.46
973.582	2646.19
973.883	2640.76
974.183	2609.13
974.484	2619.75
974.785	2633.98
975.085	2597.38
975.386	2626.3
975.686	2553.53
975.986	2578.39
976.287	2574.55
976.587	2544.72
976.887	2567.09
977.187	2518.96
977.487	2537.49
977.787	2480.09
978.087	2480.99
978.387	2499.98
978.687	2512.86
978.987	2480.99
979.286	2435.57
979.586	2423.37
979.885	2404.16
980.185	2397.61
980.484	2395.57
980.784	2376.14
981.083	2390.83
981.382	2384.27
981.682	2350.38
981.981	2334.33
982.28	2312.41
982.579	2314.67
982.878	2343.37
983.177	2311.73
983.475	2286.65
983.774	2314.67
984.073	2296.59
984.372	2267.89
984.67	2269.02
984.969	2283.03
985.267	2245.75
985.566	2243.71
985.864	2218.63
986.162	2255.92
986.461	2225.18
986.759	2209.81
987.057	2171.17
987.355	2207.55
987.653	2174.56
987.951	2127.56
988.249	2144.73
988.547	2147.9
988.844	2123.94
989.142	2140.21
989.44	2116.26
989.737	2120.1
990.035	2047.11
990.332	2111.06
990.63	2058.18
990.927	2078.97
991.224	2038.52
991.521	2069.25
991.819	2050.72
992.116	2071.06
992.413	2013.89
992.71	1995.36
993.006	2009.14
993.303	1998.52
993.6	1997.17
993.897	1944.96
994.193	1966.21
994.49	1953.32
994.787	1904.74
995.083	1918.75
995.379	1915.13
995.676	1910.61
995.972	1922.82
996.268	1868.81
996.565	1865.42
996.861	1880.11
997.157	1887.11
997.453	1873.33
997.749	1850.73
998.044	1845.76
998.34	1835.36
998.636	1807.57
998.932	1787
999.227	1807.79
999.523	1823.38
999.818	1804.4
1000.114	1754.23
1000.409	1747.91
1000.704	1772.54
1001	1747
1001.295	1744.74
1001.59	1726.66
1001.885	1775.25
1002.18	1720.34
1002.475	1718.53
1002.77	1693.44
1003.065	1702.71
1003.359	1669.49
1003.654	1686.66
1003.949	1667.68
1004.243	1695.48
1004.538	1620.23
1004.832	1657.06
1005.127	1642.37
1005.421	1634.46
1005.715	1609.6
1006.009	1607.34
1006.304	1610.28
1006.598	1587.23
1006.892	1598.31
1007.186	1570.06
1007.48	1557.18
1007.773	1558.98
1008.067	1514.47
1008.361	1562.37
1008.655	1546.78
1008.948	1522.83
1009.242	1509.72
1009.535	1534.13
1009.829	1469.27
1010.122	1481.7
1010.415	1477.86
1010.708	1481.47
1011.001	1487.57
1011.295	1476.05
1011.588	1456.16
1011.881	1442.15
1012.173	1422.94
1012.466	1424.07
1012.759	1402.38
1013.052	1410.51
1013.344	1395.37
1013.637	1393.57
1013.93	1377.07
1014.222	1366
1014.514	1364.64
1014.807	1367.58
1015.099	1366.45
1015.391	1371.64
1015.683	1332.78
1015.976	1322.61
1016.268	1350.85
1016.56	1311.31
1016.851	1334.13
1017.143	1322.15
1017.435	1315.83
1017.727	1295.04
1018.018	1308.14
1018.31	1274.92
1018.602	1268.14
1018.893	1250.74
1019.185	1288.71
1019.476	1244.19
1019.767	1255.49
1020.058	1217.98
1020.35	1206.45
1020.641	1208.71
1020.932	1204.64
1021.223	1196.06
1021.514	1210.07
1021.804	1176.4
1022.095	1177.53
1022.386	1173.01
1022.677	1176.17
1022.967	1145.21
1023.258	1128.04
1023.548	1126.68
1023.839	1160.8
1024.129	1138.88
1024.419	1141.82
1024.709	1115.38
1025	1104.53
1025.29	1108.37
1025.58	1074.25
1025.87	1087.58
1026.16	1077.42
1026.449	1081.48
1026.739	1078.32
1027.029	1065.21
1027.319	1050.75
1027.608	1053.69
1027.898	1059.56
1028.187	1052.11
1028.477	1044.2
1028.766	1020.24
1029.055	1007.81
1029.344	1014.59
1029.634	1004.65
1029.923	989.73
1030.212	988.38
1030.501	1005.78
1030.79	980.24
1031.078	982.5
1031.367	954.71
1031.656	955.61
1031.945	950.64
1032.233	986.12
1032.522	952.22
1032.81	930.3
1033.099	927.81
1033.387	942.5
1033.675	920.36
1033.963	906.57
1034.251	906.57
1034.54	928.49
1034.828	899.11
1035.116	900.47
1035.403	882.84
1035.691	907.93
1035.979	865.9
1036.267	869.74
1036.554	881.04
1036.842	850.98
1037.129	842.62
1037.417	843.07
1037.704	848.49
1037.992	845.1
1038.279	826.57
1038.566	831.09
1038.853	831.09
1039.14	831.09
