Data from tablewood_dark_bookshelf_FLMS001491_00092.txt Node
Date: Wed Feb 08 14:16:01 GMT 2017
User: dcchb
Spectrometer: FLMS00149
Trigger mode: 0
Integration Time (sec): 2.000000E-2
Scans to average: 10
Electric dark correction enabled: true
Nonlinearity correction enabled: false
Boxcar width: 0
XAxis mode: Wavelengths
Number of Pixels in Spectrum: 2048
>>>>>Begin Spectral Data<<<<<
341.393	-2.03
341.776	-2.03
342.16	-2.03
342.543	-71.64
342.927	-55.59
343.31	-54.01
343.693	-72.31
344.077	-75.7
344.46	-65.54
344.843	-54.24
345.226	-47.23
345.61	-35.25
345.993	-20.56
346.376	13.11
346.759	15.59
347.142	35.71
347.525	36.84
347.908	62.15
348.291	65.53
348.674	78.64
349.057	117.29
349.44	117.06
349.823	153.67
350.206	169.94
350.588	185.08
350.971	223.95
351.354	223.5
351.737	205.87
352.119	239.09
352.502	247.68
352.884	270.28
353.267	292.65
353.65	284.96
354.032	284.51
354.414	284.29
354.797	326.77
355.179	322.25
355.562	330.84
355.944	329.48
356.326	311.63
356.709	338.75
357.091	328.13
357.473	335.13
357.855	337.84
358.238	315.7
358.62	336.26
359.002	331.74
359.384	358.41
359.766	317.28
360.148	313.89
360.53	334.45
360.912	325.87
361.294	343.95
361.676	328.58
362.057	333.55
362.439	318.18
362.821	330.39
363.203	311.4
363.584	332.65
363.966	326.55
364.348	329.26
364.729	324.96
365.111	315.92
365.493	328.35
365.874	315.7
366.256	332.42
366.637	319.54
367.019	302.36
367.4	301.46
367.781	323.16
368.163	306.21
368.544	310.95
368.925	308.01
369.306	308.47
369.688	319.09
370.069	323.83
370.45	312.53
370.831	306.21
371.212	307.56
371.593	312.99
371.974	325.64
372.355	310.5
372.736	316.83
373.117	313.89
373.498	322.25
373.879	324.74
374.26	317.28
374.641	333.55
375.021	315.02
375.402	315.92
375.783	323.16
376.163	337.84
376.544	347.56
376.925	344.17
377.305	328.58
377.686	316.6
378.066	357.28
378.447	338.3
378.827	359.09
379.208	367
379.588	324.74
379.968	336.04
380.349	335.58
380.729	338.07
381.109	353.89
381.489	338.3
381.87	357.28
382.25	364.74
382.63	348.01
383.01	353.66
383.39	361.57
383.77	351.4
384.15	366.77
384.53	365.64
384.91	347.34
385.29	354.34
385.67	373.32
386.049	375.13
386.429	357.73
386.809	354.79
387.189	371.29
387.568	362.93
387.948	369.03
388.328	377.17
388.707	389.59
389.087	385.98
389.466	394.11
389.846	388.46
390.225	384.17
390.605	401.12
390.984	403.15
391.363	386.66
391.743	394.34
392.122	399.99
392.501	389.82
392.881	399.76
393.26	406.99
393.639	420.33
394.018	404.28
394.397	429.82
394.776	415.36
395.155	443.15
395.534	427.11
395.913	407.67
396.292	419.88
396.671	426.88
397.05	397.05
397.429	436.15
397.808	432.53
398.186	411.29
398.565	439.08
398.944	435.69
399.323	447.45
399.701	448.8
400.08	446.77
400.458	433.66
400.837	458.52
401.215	439.08
401.594	461.91
401.972	443.38
402.351	462.59
402.729	464.62
403.107	475.24
403.486	468.01
403.864	469.82
404.242	479.31
404.62	461.91
404.999	497.16
405.377	509.37
405.755	497.39
406.133	467.33
406.511	508.01
406.889	509.82
407.267	478.86
407.645	488.8
408.023	526.09
408.401	514.79
408.779	520.21
409.156	524.73
409.534	525.86
409.912	525.64
410.29	543.26
410.667	547.56
411.045	538.97
411.422	539.65
411.8	524.51
412.178	557.27
412.555	566.09
412.933	543.26
413.31	557.73
413.687	548.23
414.065	571.74
414.442	592.3
414.819	565.63
415.197	603.83
415.574	585.3
415.951	580.78
416.328	612.64
416.705	592.53
417.082	596.14
417.46	600.89
417.837	605.63
418.214	609.48
418.591	621.23
418.967	612.64
419.344	628.23
419.721	650.6
420.098	623.03
420.475	651.73
420.852	667.55
421.228	654.45
421.605	652.41
421.982	677.04
422.358	648.34
422.735	674.78
423.111	673.43
423.488	668.23
423.864	674.33
424.241	711.39
424.617	736.7
424.994	699.42
425.37	724.27
425.746	715.69
426.123	739.64
426.499	730.38
426.875	722.92
427.251	739.87
427.627	756.59
428.003	751.39
428.379	754.56
428.756	764.5
429.132	760.21
429.507	783.71
429.883	785.97
430.259	794.78
430.635	801.33
431.011	817.15
431.387	844.05
431.763	818.74
432.138	823.71
432.514	853.08
432.89	865.51
433.265	858.28
433.641	879.07
434.016	865.51
434.392	896.02
434.767	893.99
435.143	894.21
435.518	879.07
435.894	922.24
436.269	952.97
436.644	918.85
437.02	964.95
437.395	936.02
437.77	937.38
438.145	966.75
438.52	958.17
438.895	971.5
439.271	995.45
439.646	1014.89
440.021	994.78
440.395	1025.06
440.77	1013.98
441.145	1023.7
441.52	1039.07
441.895	1028.67
442.27	1047.43
442.645	1047.66
443.019	1037.49
443.394	1058.96
443.769	1054.89
444.143	1060.76
444.518	1075.9
444.892	1079.97
445.267	1074.32
445.641	1100.99
446.016	1090.82
446.39	1109.35
446.764	1110.71
447.139	1108.22
447.513	1142.12
447.887	1121.33
448.262	1141.66
448.636	1129.91
449.01	1181.66
449.384	1175.34
449.758	1182.12
450.132	1177.37
450.506	1201.32
450.88	1164.94
451.254	1186.86
451.628	1202.68
452.002	1207.88
452.376	1232.51
452.75	1206.75
453.123	1247.42
453.497	1276.12
453.871	1290.36
454.244	1289.68
454.618	1306.63
454.992	1321.1
455.365	1322.9
455.739	1345.5
456.112	1364.94
456.486	1354.31
456.859	1397.7
457.232	1391.6
457.606	1410.13
457.979	1444.93
458.352	1457.14
458.725	1462.11
459.099	1484.48
459.472	1498.49
459.845	1512.5
460.218	1525.16
460.591	1539.62
460.964	1535.55
461.337	1568.77
461.71	1581.88
462.083	1586.17
462.456	1630.24
462.829	1599.96
463.201	1653.06
463.574	1660.97
463.947	1723.12
464.32	1692.84
464.692	1712.5
465.065	1715.66
465.438	1748.43
465.81	1802.89
466.183	1782.55
466.555	1799.05
466.928	1845.15
467.3	1845.38
467.672	1851.25
468.045	1911.36
468.417	1898.48
468.789	1928.76
469.161	1953.62
469.534	1947.52
469.906	2018.03
470.278	2066.61
470.65	2015.09
471.022	2078.36
471.394	2106.39
471.766	2127.18
472.138	2161.75
472.51	2183.67
472.882	2237.91
473.253	2242.2
473.625	2237.91
473.997	2293.95
474.369	2320.62
474.74	2341.86
475.112	2403.1
475.484	2433.61
475.855	2484
476.227	2471.8
476.598	2569.88
476.97	2597.9
477.341	2615.07
477.713	2653.94
478.084	2664.79
478.455	2738.69
478.827	2769.64
479.198	2856.42
479.569	2811.45
479.94	2904.56
480.311	2992.46
480.682	2979.58
481.053	3028.85
481.424	3089.86
481.795	3116.53
482.166	3182.97
482.537	3216.19
482.908	3281.95
483.279	3345.45
483.65	3374.6
484.021	3420.48
484.391	3455.95
484.762	3490.98
485.133	3522.39
485.503	3563.97
485.874	3630.86
486.244	3684.65
486.615	3772.56
486.985	3790.86
487.356	3870.41
487.726	3845.1
488.097	3932.55
488.467	3980.69
488.837	4038.09
489.207	4043.51
489.578	4140
489.948	4175.48
490.318	4204.86
490.688	4269.27
491.058	4332.32
491.428	4381.35
491.798	4399.88
492.168	4497.51
492.538	4547.68
492.908	4539.99
493.278	4595.59
493.648	4604.85
494.017	4658.41
494.387	4736.37
494.757	4804.39
495.126	4804.62
495.496	4819.53
495.866	4927.78
496.235	4928.68
496.605	4965.52
496.974	5000.32
497.344	5018.63
497.713	5055.23
498.082	5070.38
498.452	5206.42
498.821	5199.64
499.19	5184.72
499.559	5233.31
499.928	5334.77
500.298	5320.54
500.667	5340.2
501.036	5428.78
501.405	5497.93
501.774	5462
502.143	5469.46
502.512	5545.62
502.88	5567.76
503.249	5621.1
503.618	5648.89
503.987	5595.56
504.356	5696.12
504.724	5734.76
505.093	5762.11
505.462	5772.73
505.83	5858.38
506.199	5906.06
506.567	5972.72
506.936	5942.89
507.304	6028.54
507.672	6046.39
508.041	6129.78
508.409	6227.18
508.777	6200.97
509.145	6209.33
509.514	6240.29
509.882	6271.93
510.25	6372.49
510.618	6369.55
510.986	6427.18
511.354	6496.55
511.722	6507.4
512.09	6628.53
512.458	6569.09
512.826	6657.68
513.193	6667.85
513.561	6741.52
513.929	6832.36
514.297	6807.96
514.664	6936.31
515.032	6814.51
515.4	6986.71
515.767	7010.21
516.135	7083.66
516.502	7017.67
516.869	7200.04
517.237	7175.63
517.604	7167.5
517.972	7276.42
518.339	7349.19
518.706	7316.19
519.073	7382.86
519.44	7470.54
519.808	7526.81
520.175	7525.23
520.542	7652.68
520.909	7663.98
521.276	7747.37
521.643	7782.85
522.009	7835.27
522.376	7880.24
522.743	7980.13
523.11	8088.37
523.477	8096.06
523.843	8109.62
524.21	8218.54
524.577	8290.86
524.943	8344.41
525.31	8388.48
525.676	8496.95
526.043	8517.06
526.409	8558.19
526.776	8620.11
527.142	8721.58
527.508	8703.95
527.874	8823.95
528.241	8868.69
528.607	8863.72
528.973	8992.76
529.339	8953.44
529.705	9019.2
530.071	9169.7
530.437	9208.57
530.803	9279.3
531.169	9319.3
531.535	9322.69
531.901	9363.82
532.267	9397.49
532.632	9449.47
532.998	9500.77
533.364	9572.86
533.73	9610.82
534.095	9735.11
534.461	9764.26
534.826	9704.6
535.192	9830.25
535.557	9823.02
535.923	9928.1
536.288	9851.04
536.653	9983.01
537.019	9989.79
537.384	9986.18
537.749	10044.26
538.114	10108.21
538.479	10117.25
538.845	10233.4
539.21	10158.6
539.575	10215.32
539.94	10277.02
540.305	10334.42
540.67	10281.31
541.034	10390.91
541.399	10449.67
541.764	10520.18
542.129	10468.88
542.494	10585.03
542.858	10627.52
543.223	10673.62
543.587	10699.61
543.952	10710.23
544.316	10714.07
544.681	10700.96
545.045	10792.48
545.41	10879.49
545.774	10888.75
546.138	10912.48
546.503	10953.61
546.867	10978.69
547.231	11060.5
547.595	11080.16
547.959	11100.27
548.324	11102.76
548.688	11202.64
549.052	11248.29
549.416	11215.3
549.779	11177.11
550.143	11314.5
550.507	11392.24
550.871	11383.2
551.235	11462.07
551.599	11534.16
551.962	11627.04
552.326	11580.26
552.689	11683.53
553.053	11586.36
553.417	11702.07
553.78	11875.85
554.143	11717.66
554.507	11895.96
554.87	11890.53
555.234	12072
555.597	11938.44
555.96	12066.8
556.323	12161.04
556.686	12176.18
557.05	12263.63
557.413	12265.67
557.776	12336.4
558.139	12438.54
558.502	12473.34
558.865	12449.62
559.228	12624.75
559.59	12667.46
559.953	12702.49
560.316	12820.45
560.679	12895.48
561.041	12930.06
561.404	12929.38
561.767	13039.66
562.129	12988.13
562.492	13179.09
562.854	13098.86
563.217	13170.95
563.579	13263.15
563.941	13385.18
564.304	13467.44
564.666	13518.51
565.028	13622.24
565.39	13573.43
565.753	13639.42
566.115	13755.34
566.477	13912.85
566.839	13888
567.201	13958.73
567.563	13953.53
567.925	14070.59
568.287	14172.96
568.648	14179.97
569.01	14236.91
569.372	14419.28
569.734	14277.36
570.095	14498.6
570.457	14438.04
570.819	14562.55
571.18	14569.56
571.542	14681.87
571.903	14753.06
572.265	14870.34
572.626	14911.92
572.987	14934.75
573.349	14972.26
573.71	15125.93
574.071	15195.98
574.432	15165.93
574.794	15325.02
575.155	15352.14
575.516	15190.34
575.877	15456.99
576.238	15500.84
576.599	15626.93
576.96	15594.39
577.32	15623.77
577.681	15546.26
578.042	15808.17
578.403	15801.17
578.763	15835.74
579.124	15800.04
579.485	15937.66
579.845	16066.02
580.206	15950.32
580.566	16064.44
580.927	16090.65
581.287	16230.53
581.648	16142.85
582.008	16259.23
582.368	16287.48
582.728	16372
583.089	16319.12
583.449	16490.19
583.809	16397.99
584.169	16397.99
584.529	16500.58
584.889	16628.94
585.249	16530.86
585.609	16500.81
585.969	16688.15
586.329	16645.89
586.688	16758.43
587.048	16710.75
587.408	16691.31
587.768	16759.79
588.127	16870.52
588.487	16819.9
588.846	17011.08
589.206	16948.48
589.565	16980.34
589.925	16961.59
590.284	17105.31
590.643	17053.34
591.003	17117.74
591.362	17067.57
591.721	17139.89
592.08	17158.42
592.44	17226.44
592.799	17301.01
593.158	17250.85
593.517	17364.97
593.876	17298.3
594.235	17335.14
594.593	17398.64
594.952	17440.22
595.311	17422.82
595.67	17434.34
596.029	17595.02
596.387	17645.64
596.746	17602.93
597.104	17593.21
597.463	17644.06
597.822	17687.22
598.18	17586.66
598.538	17614.9
598.897	17831.85
599.255	17700.78
599.613	17961.11
599.972	17853.32
600.33	17936.7
600.688	17854.9
601.046	18002.24
601.404	18094.89
601.762	18104.16
602.12	18084.95
602.478	18125.17
602.836	18111.84
603.194	18078.85
603.552	18184.15
603.91	18057.83
604.268	18225.74
604.625	18160.2
604.983	18206.75
605.341	18130.14
605.698	18300.54
606.056	18348.9
606.413	18202.91
606.771	18383.92
607.128	18376.92
607.485	18447.65
607.843	18434.77
608.2	18479.29
608.557	18532.17
608.914	18568.1
609.272	18689
609.629	18641.32
609.986	18787.08
610.343	18683.12
610.7	18830.92
611.057	18720.86
611.414	18743.01
611.771	18824.82
612.127	18839.96
612.484	18837.24
612.841	18983.91
613.198	18824.36
613.554	18908.43
613.911	18958.6
614.267	19008.99
614.624	19016.45
614.98	19114.3
615.337	19168.76
615.693	19110.01
616.05	19087.86
616.406	19162.66
616.762	19106.16
617.118	19065.49
617.475	19282.2
617.831	19198.14
618.187	19190.23
618.543	19296.67
618.899	19388.87
619.255	19382.09
619.611	19388.42
619.967	19403.33
620.323	19512.71
620.678	19387.29
621.034	19336.44
621.39	19432.26
621.746	19336.67
622.101	19608.98
622.457	19406.27
622.812	19455.76
623.168	19574.63
623.523	19590.67
623.879	19620.28
624.234	19455.31
624.589	19563.78
624.945	19471.13
625.3	19541.18
625.655	19568.75
626.01	19527.85
626.365	19615.53
626.72	19607.39
627.075	19585.47
627.43	19579.37
627.785	19544.57
628.14	19632.25
628.495	19528.98
628.85	19549.54
629.205	19498.92
629.559	19535.53
629.914	19477.23
630.269	19504.57
630.623	19445.36
630.978	19428.87
631.332	19634.96
631.687	19582.54
632.041	19504.35
632.396	19520.39
632.75	19367.85
633.104	19364.69
633.459	19335.76
633.813	19422.31
634.167	19318.81
634.521	19426.38
634.875	19357.23
635.229	19342.99
635.583	19312.26
635.937	19279.49
636.291	19312.49
636.645	19233.62
636.999	19344.35
637.352	19405.59
637.706	19271.13
638.06	19278.59
638.413	19171.02
638.767	19181.19
639.121	19263.67
639.474	19108.65
639.828	19056.45
640.181	19060.74
640.534	19120.63
640.888	19047.41
641.241	18973.96
641.594	19057.58
641.947	18955.43
642.301	18939.62
642.654	18990.46
643.007	18990.69
643.36	18964.47
643.713	18910.46
644.066	19068.43
644.419	18856.23
644.771	18738.94
645.124	18547.08
645.477	18579.17
645.83	18549.12
646.182	18434.54
646.535	18348.67
646.888	18378.5
647.24	18195.91
647.593	18354.55
647.945	18260.08
648.298	18165.85
648.65	18128.56
649.002	18041.33
649.355	18217.83
649.707	18268.45
650.059	18329.69
650.411	18515.22
650.763	18582.79
651.115	18758.6
651.467	18632.96
651.819	18692.62
652.171	18755.21
652.523	18559.51
652.875	18518.38
653.227	18514.54
653.578	18623.47
653.93	18599.51
654.282	18490.59
654.633	18449.68
654.985	18458.5
655.337	18526.74
655.688	18529
656.039	18607.87
656.391	18513.64
656.742	18564.71
657.094	18475.67
657.445	18588.44
657.796	18475.22
658.147	18458.95
658.498	18376.01
658.849	18441.32
659.2	18297.37
659.551	18367.2
659.902	18449.68
660.253	18489.01
660.604	18388.22
660.955	18403.58
661.306	18399.97
661.656	18453.75
662.007	18499.17
662.358	18417.59
662.708	18360.42
663.059	18410.14
663.409	18414.43
663.76	18541.89
664.11	18404.71
664.461	18490.14
664.811	18520.64
665.161	18526.52
665.511	18392.96
665.862	18483.81
666.212	18521.32
666.562	18535.78
666.912	18503.47
667.262	18443.81
667.612	18435.67
667.962	18299.86
668.312	18361.1
668.662	18502.79
669.011	18420.53
669.361	18520.42
669.711	18434.32
670.06	18336.02
670.41	18366.97
670.76	18326.07
671.109	18398.84
671.459	18354.32
671.808	18368.1
672.157	18346.64
672.507	18325.62
672.856	18263.47
673.205	18417.37
673.554	18430.7
673.904	18395
674.253	18453.98
674.602	18399.97
674.951	18232.29
675.3	18087.66
675.649	18357.03
675.998	18308.9
676.346	18257.6
676.695	18377.14
677.044	18275.68
677.393	18315
677.741	18297.15
678.09	18287.88
678.438	18288.33
678.787	18195.45
679.135	18265.96
679.484	18118.17
679.832	18155.91
680.181	18018.51
680.529	18152.29
680.877	18164.49
681.225	18081.33
681.573	18297.15
681.922	18052.63
682.27	18052.63
682.618	17973.99
682.966	17926.76
683.314	18050.37
683.661	18008.57
684.009	17865.97
684.357	17927.66
684.705	17802.47
685.053	17822.13
685.4	17779.19
685.748	17658.97
686.095	17796.37
686.443	17668.01
686.79	17632.53
687.138	17737.39
687.485	17666.88
687.832	17640.21
688.18	17694
688.527	17539.2
688.874	17601.57
689.221	17524.96
689.568	17487.9
689.915	17516.38
690.262	17441.58
690.609	17420.11
690.956	17315.48
691.303	17306.66
691.65	17259.66
691.997	17215.82
692.344	17045.2
692.69	17100.79
693.037	17215.82
693.383	17001.59
693.73	17068.25
694.077	16892.89
694.423	17016.95
694.769	16905.32
695.116	16935.15
695.462	16879.33
695.808	16756.85
696.155	16817.64
696.501	16583.07
696.847	16742.84
697.193	16621.48
697.539	16609.73
697.885	16548.72
698.231	16471.66
698.577	16433.01
698.923	16441.15
699.269	16381.26
699.614	16310.98
699.96	16276.63
700.306	16306.92
700.651	16252.45
700.997	16183.53
701.342	16101.95
701.688	16113.93
702.033	16038.67
702.379	16014.95
702.724	15957.55
703.069	16100.82
703.415	15854.95
703.76	15745.8
704.105	15771.34
704.45	15782.86
704.795	15768.4
705.14	15817.66
705.485	15741.06
705.83	15618.57
706.175	15686.14
706.52	15654.05
706.865	15573.15
707.209	15489.54
707.554	15466.94
707.899	15440.95
708.243	15383.1
708.588	15426.71
708.932	15289.99
709.277	15358.69
709.621	15284.12
709.966	15182.43
710.31	15255.87
710.654	15134.07
710.998	15188.98
711.342	15198.24
711.687	15111.69
712.031	15121.86
712.375	14985.59
712.719	15020.17
713.063	14958.7
713.407	14952.83
713.75	14933.62
714.094	14978.14
714.438	14949.66
714.782	14950.34
715.125	14878.03
715.469	14958.25
715.812	14868.76
716.156	14833.28
716.499	14783.57
716.843	14764.13
717.186	14691.59
717.53	14743.79
717.873	14732.72
718.216	14722.55
718.559	14638.71
718.902	14535.66
719.246	14608.43
719.589	14568.66
719.932	14471.03
720.275	14505.83
720.617	14480.75
720.96	14466.51
721.303	14478.26
721.646	14509.67
721.989	14428.77
722.331	14493.4
722.674	14466.96
723.016	14482.11
723.359	14497.7
723.701	14403.01
724.044	14352.62
724.386	14264.03
724.729	14438.94
725.071	14341.54
725.413	14325.95
725.755	14312.84
726.097	14328.21
726.439	14204.6
726.782	14268.55
727.124	14324.82
727.465	14269.68
727.807	14175.22
728.149	14199.85
728.491	14121.44
728.833	14172.51
729.175	14172.06
729.516	14110.36
729.858	14150.14
730.199	14077.37
730.541	14034.21
730.882	14069.69
731.224	14113.53
731.565	14004.6
731.906	14119.18
732.248	14057.48
732.589	13986.98
732.93	14097.93
733.271	13982.68
733.612	13979.75
733.953	13996.47
734.294	13955.11
734.635	13972.06
734.976	13963.25
735.317	13905.62
735.658	13879.41
735.999	13925.28
736.339	13891.84
736.68	13931.84
737.021	13925.51
737.361	13807.09
737.702	13886.64
738.042	13890.26
738.383	13749.92
738.723	13890.48
739.063	13763.25
739.404	13909.69
739.744	13791.5
740.084	13824.04
740.424	13835.34
740.764	13745.63
741.104	13781.11
741.444	13742.01
741.784	13675.35
742.124	13715.57
742.464	13675.12
742.804	13652.07
743.143	13685.74
743.483	13691.62
743.823	13610.94
744.162	13630.15
744.502	13592.86
744.841	13590.15
745.181	13669.92
745.52	13497.27
745.86	13553.09
746.199	13591.51
746.538	13542.02
746.877	13629.02
747.216	13648.68
747.556	13551.73
747.895	13541.79
748.234	13569.36
748.573	13513.54
748.911	13515.58
749.25	13544.5
749.589	13507.67
749.928	13488.68
750.267	13518.29
750.605	13504.96
750.944	13372.3
751.283	13413.66
751.621	13432.19
751.96	13330.72
752.298	13355.81
752.636	13333.66
752.975	13257.05
753.313	13304.28
753.651	13409.36
753.989	13230.61
754.327	13293.44
754.666	13177.05
755.004	13223.16
755.342	13164.63
755.679	13254.34
756.017	13172.08
756.355	13180.9
756.693	13085.98
757.031	13073.33
757.368	13107
757.706	13010.05
758.044	13015.48
758.381	13041.46
758.719	13001.24
759.056	13027.23
759.394	12966.21
759.731	12881.7
760.068	12818.42
760.405	12822.94
760.743	12663.4
761.08	12741.36
761.417	12646.9
761.754	12695.03
762.091	12590.18
762.428	12617.97
762.765	12510.63
763.102	12604.64
763.438	12487.58
763.775	12422.95
764.112	12522.61
764.449	12441.25
764.785	12307.92
765.122	12324.87
765.458	12254.37
765.795	12227.25
766.131	12226.57
766.467	12215.5
766.804	12064.32
767.14	12037.65
767.476	12064.09
767.812	11972.34
768.148	12027.93
768.485	11937.31
768.821	11855.51
769.157	11810.99
769.492	11808.5
769.828	11852.12
770.164	11701.61
770.5	11669.07
770.836	11691.44
771.171	11640.6
771.507	11558.57
771.842	11432.47
772.178	11439.25
772.513	11483.09
772.849	11380.49
773.184	11348.4
773.519	11328.52
773.855	11290.78
774.19	11181.17
774.525	11171.91
774.86	11217.56
775.195	11164.45
775.53	11108.41
775.865	11062.76
776.2	10885.14
776.535	10928.75
776.87	10965.81
777.205	10868.41
777.539	10782.77
777.874	10846.27
778.209	10782.09
778.543	10700.96
778.878	10646.05
779.212	10681.53
779.547	10558.37
779.881	10571.7
780.215	10561.76
780.55	10531.02
780.884	10402.66
781.218	10406.51
781.552	10390.01
781.886	10352.72
782.22	10232.73
782.554	10268.43
782.888	10107.76
783.222	10132.16
783.556	10171.26
783.889	10117.25
784.223	9966.29
784.557	9920.87
784.89	9994.09
785.224	9952.73
785.557	9875.22
785.891	9863.02
786.224	9939.4
786.558	9839.29
786.891	9786.86
787.224	9718.16
787.557	9771.72
787.891	9647.2
788.224	9676.36
788.557	9671.16
788.89	9600.43
789.223	9579.41
789.556	9593.42
789.888	9568.79
790.221	9432.29
790.554	9481.33
790.887	9453.99
791.219	9353.65
791.552	9337.38
791.884	9289.47
792.217	9232.75
792.549	9217.61
792.882	9190.04
793.214	9066.2
793.546	9193.88
793.879	9042.47
794.211	9062.81
794.543	8992.76
794.875	9023.94
795.207	9010.61
795.539	8955.24
795.871	8959.76
796.203	8936.26
796.535	8888.81
796.867	8851.52
797.198	8763.39
797.53	8740.56
797.862	8750.28
798.193	8710.05
798.525	8735.36
798.856	8713.9
799.188	8591.19
799.519	8590.06
799.85	8503.51
800.182	8510.74
800.513	8526.33
800.844	8461.7
801.175	8557.97
801.506	8449.95
801.837	8456.05
802.168	8403.62
802.499	8379.44
802.83	8296.96
803.161	8318.2
803.491	8343.74
803.822	8263.51
804.153	8223.51
804.483	8175.6
804.814	8198.43
805.145	8196.17
805.475	8085.89
805.805	8072.1
806.136	8078.43
806.466	8060.13
806.796	8087.92
807.126	7967.7
807.457	7976.06
807.787	7907.36
808.117	7964.08
808.447	7988.04
808.777	7987.36
809.107	7897.19
809.436	7853.8
809.766	7914.14
810.096	7849.51
810.426	7781.26
810.755	7790.76
811.085	7764.54
811.414	7745.79
811.744	7700.81
812.073	7672.79
812.403	7715.5
812.732	7682.06
813.061	7638.22
813.39	7531.55
813.719	7537.65
814.049	7659.69
814.378	7518.22
814.707	7535.85
815.036	7526.13
815.365	7473.02
815.693	7367.94
816.022	7418.79
816.351	7403.42
816.68	7358.68
817.008	7415.62
817.337	7282.07
817.665	7333.14
817.994	7325.23
818.322	7344.21
818.651	7362.07
818.979	7280.03
819.307	7279.13
819.636	7272.35
819.964	7202.52
820.292	7230.54
820.62	7180.6
820.948	7158.68
821.276	7224.67
821.604	7155.97
821.932	7165.69
822.259	7164.56
822.587	7184.67
822.915	7117.1
823.243	7183.99
823.57	7093.82
823.898	7153.71
824.225	7076.2
824.553	7126.14
824.88	7180.83
825.207	7158
825.535	7096.76
825.862	7127.27
826.189	7172.47
826.516	7143.99
826.843	7092.69
827.17	7134.28
827.497	7141.51
827.824	7210.88
828.151	7115.07
828.478	7060.83
828.805	7095.41
829.131	7099.47
829.458	7140.38
829.785	7057.89
830.111	7066.93
830.438	7046.37
830.764	7125.91
831.09	7100.15
831.417	7031.68
831.743	7137.44
832.069	7082.53
832.395	7039.59
832.722	7056.76
833.048	7024.45
833.374	7059.93
833.7	6980.16
834.026	7051.11
834.351	7037.1
834.677	7010.89
835.003	7054.73
835.329	7042.07
835.654	7034.39
835.98	7041.62
836.306	7026.26
836.631	6994.39
836.956	6982.19
837.282	6951.91
837.607	6937.9
837.932	6865.36
838.258	6919.14
838.583	6905.58
838.908	6830.55
839.233	6783.78
839.558	6778.13
839.883	6788.07
840.208	6882.53
840.533	6776.54
840.858	6829.2
841.182	6816.32
841.507	6789.88
841.832	6740.84
842.156	6760.73
842.481	6758.01
842.805	6761.63
843.13	6685.7
843.454	6673.95
843.778	6727.51
844.103	6713.04
844.427	6686.83
844.751	6621.97
845.075	6697.23
845.399	6610.9
845.723	6596.89
846.047	6570.9
846.371	6509.66
846.695	6574.97
847.019	6496.78
847.343	6485.71
847.666	6469.43
847.99	6403.67
848.313	6373.17
848.637	6408.42
848.96	6315.77
849.284	6308.76
849.607	6292.72
849.931	6286.61
850.254	6259.04
850.577	6156.9
850.9	6172.95
851.223	6183.79
851.546	6218.14
851.869	6101.53
852.192	6131.14
852.515	6048.88
852.838	6056.79
853.161	6051.37
853.483	5984.7
853.806	5983.12
854.129	5976.11
854.451	5963.01
854.774	5924.36
855.096	5906.51
855.419	5941.31
855.741	5906.96
856.063	5837.13
856.385	5868.32
856.708	5836.46
857.03	5770.24
857.352	5852.28
857.674	5786.97
857.996	5781.54
858.318	5759.85
858.64	5734.09
858.961	5716.69
859.283	5721.88
859.605	5694.77
859.926	5700.42
860.248	5679.85
860.57	5656.57
860.891	5647.99
861.212	5597.59
861.534	5589.23
861.855	5606.86
862.176	5598.27
862.498	5623.58
862.819	5658.16
863.14	5580.42
863.461	5539.74
863.782	5574.32
864.103	5541.78
864.424	5552.85
864.745	5563.7
865.065	5506.07
865.386	5504.04
865.707	5508.78
866.027	5483.7
866.348	5497.48
866.668	5463.59
866.989	5447.31
867.309	5416.58
867.63	5449.35
867.95	5450.03
868.27	5410.25
868.59	5416.58
868.91	5417.48
869.23	5396.02
869.55	5336.13
869.87	5381.1
870.19	5374.77
870.51	5363.02
870.83	5372.06
871.15	5357.6
871.469	5365.06
871.789	5340.42
872.109	5377.71
872.428	5280.99
872.748	5404.15
873.067	5326.87
873.386	5294.32
873.706	5308.56
874.025	5278.96
874.344	5216.81
874.663	5297.94
874.982	5305.4
875.301	5250.71
875.62	5259.97
875.939	5285.06
876.258	5271.27
876.577	5228.56
876.896	5265.4
877.214	5210.94
877.533	5211.16
877.852	5194.21
878.17	5192.86
878.489	5234.66
878.807	5183.37
879.125	5157.38
879.444	5200.54
879.762	5200.99
880.08	5188.11
880.398	5139.3
880.716	5165.51
881.034	5133.65
881.352	5095.91
881.67	5123.93
881.988	5121.67
882.306	5085.74
882.624	5076.7
882.941	5102.92
883.259	5040.32
883.577	5021.34
883.894	5011.39
884.212	5001.9
884.529	4974.33
884.846	5053.88
885.164	5024.73
885.481	4988.12
885.798	5047.32
886.115	4943.15
886.432	4941.34
886.75	4976.37
887.067	4981.79
887.383	4915.12
887.7	4949.93
888.017	4896.14
888.334	4900.44
888.651	4888.23
888.967	4862.7
889.284	4784.51
889.6	4814.79
889.917	4825.64
890.233	4844.17
890.55	4756.94
890.866	4859.53
891.182	4769.82
891.498	4719.2
891.815	4783.83
892.131	4760.55
892.447	4723.94
892.763	4723.49
893.079	4734.79
893.395	4670.16
893.71	4713.77
894.026	4677.84
894.342	4664.96
894.657	4633.55
894.973	4686.88
895.289	4669.26
895.604	4682.81
895.92	4598.52
896.235	4597.85
896.55	4584.29
896.865	4561.46
897.181	4530.28
897.496	4551.97
897.811	4535.7
898.126	4529.15
898.441	4483.5
898.756	4456.83
899.071	4468.13
899.386	4486.21
899.7	4471.29
900.015	4431.3
900.33	4411.86
900.644	4431.52
900.959	4445.31
901.273	4429.26
901.588	4351.52
901.902	4358.98
902.216	4348.36
902.531	4344.07
902.845	4332.09
903.159	4318.3
903.473	4246.89
903.787	4251.41
904.101	4223.62
904.415	4259.77
904.729	4227.01
905.042	4191.53
905.356	4236.72
905.67	4193.34
905.984	4213.9
906.297	4168.25
906.611	4128.93
906.924	4113.79
907.237	4124.19
907.551	4150.63
907.864	4050.74
908.177	4120.57
908.491	4096.39
908.804	4069.72
909.117	4072.89
909.43	4028.82
909.743	4010.29
910.056	4024.75
910.368	3935.94
910.681	3969.61
910.994	3946.56
911.307	3923.51
911.619	3914.7
911.932	3915.6
912.244	3855.94
912.557	3903.63
912.869	3857.07
913.181	3835.38
913.494	3830.86
913.806	3796.51
914.118	3848.49
914.43	3796.74
914.742	3818.66
915.054	3830.63
915.366	3794.02
915.678	3787.25
915.99	3755.38
916.302	3723.29
916.613	3718.77
916.925	3681.71
917.236	3706.57
917.548	3644.88
917.859	3700.47
918.171	3662.73
918.482	3617.53
918.794	3626.57
919.105	3623.86
919.416	3600.81
919.727	3581.37
920.038	3580.47
920.349	3541.83
920.66	3567.59
920.971	3544.54
921.282	3538.89
921.593	3492.11
921.903	3502.28
922.214	3484.88
922.525	3437.65
922.835	3446.24
923.146	3447.59
923.456	3453.92
923.767	3433.36
924.077	3405.79
924.387	3402.4
924.697	3421.38
925.008	3346.58
925.318	3322.4
925.628	3387.03
925.938	3366.47
926.248	3309.52
926.558	3297.77
926.867	3287.37
927.177	3305.68
927.487	3287.6
927.796	3281.27
928.106	3241.5
928.416	3229.52
928.725	3263.64
929.034	3197.2
929.344	3228.39
929.653	3196.07
929.962	3166.47
930.271	3174.83
930.581	3140.71
930.89	3134.38
931.199	3127.38
931.508	3119.47
931.817	3126.47
932.125	3127.38
932.434	3116.98
932.743	3059.13
933.051	3054.83
933.36	3070.65
933.669	3089.41
933.977	2994.27
934.286	3015.97
934.594	3030.43
934.902	2983.2
935.21	2978.45
935.519	2986.36
935.827	2955.18
936.135	2961.28
936.443	2912.92
936.751	2949.75
937.059	2937.78
937.367	2945.01
937.674	2902.75
937.982	2912.24
938.29	2887.83
938.597	2864.11
938.905	2862.98
939.213	2822.98
939.52	2826.37
939.827	2851
940.135	2796.76
940.442	2800.15
940.749	2818.23
941.056	2808.29
941.363	2793.15
941.67	2783.2
941.977	2779.36
942.284	2742.07
942.591	2725.58
942.898	2731.91
943.205	2700.95
943.511	2703.88
943.818	2712.47
944.125	2686.26
944.431	2675.86
944.738	2685.58
945.044	2667.5
945.35	2662.98
945.657	2693.94
945.963	2650.78
946.269	2596.54
946.575	2662.98
946.881	2643.32
947.187	2593.6
947.493	2583.89
947.799	2556.77
948.105	2597.45
948.41	2540.05
948.716	2554.74
949.022	2560.61
949.327	2534.17
949.633	2526.26
949.938	2510.89
950.244	2484.68
950.549	2487.84
950.854	2493.49
951.16	2460.27
951.465	2460.95
951.77	2455.08
952.075	2444.68
952.38	2427.96
952.685	2436.32
952.99	2390.22
953.294	2412.14
953.599	2395.42
953.904	2406.26
954.209	2399.26
954.513	2386.38
954.818	2368.75
955.122	2372.59
955.426	2342.99
955.731	2325.36
956.035	2314.74
956.339	2293.05
956.643	2324.23
956.948	2293.72
957.252	2269.09
957.556	2327.17
957.86	2287.62
958.163	2266.61
958.467	2276.78
958.771	2258.02
959.075	2257.34
959.378	2225.03
959.682	2251.24
959.985	2213.05
960.289	2245.82
960.592	2209.66
960.896	2178.47
961.199	2186.38
961.502	2199.49
961.805	2167.4
962.108	2176.44
962.411	2159.72
962.714	2172.37
963.017	2170.34
963.32	2171.24
963.623	2159.49
963.926	2149.32
964.228	2122.43
964.531	2112.03
964.833	2098.93
965.136	2089.44
965.438	2064.13
965.741	2055.54
966.043	2066.84
966.345	2046.73
966.648	2063
966.95	2034.52
967.252	2028.65
967.554	2015.31
967.856	2032.49
968.158	2034.3
968.46	2000.4
968.761	1997.01
969.063	1958.59
969.365	2002.43
969.666	1983.68
969.968	1971.47
970.269	1979.61
970.571	1959.72
970.872	1908.88
971.174	1923.79
971.475	1952.49
971.776	1937.35
972.077	1934.64
972.378	1934.64
972.679	1914.75
972.98	1889.22
973.281	1914.98
973.582	1886.5
973.883	1880.85
974.183	1853.51
974.484	1896.45
974.785	1867.52
975.085	1834.75
975.386	1854.41
975.686	1849.44
975.986	1844.92
976.287	1842.21
976.587	1803.79
976.887	1797.92
977.187	1801.76
977.487	1797.47
977.787	1795.21
978.087	1774.64
978.387	1770.57
978.687	1765.15
978.987	1748.65
979.286	1756.56
979.586	1770.35
979.885	1773.51
980.185	1726.96
980.484	1759.5
980.784	1755.66
981.083	1721.31
981.382	1714.31
981.682	1722.89
981.981	1706.4
982.28	1696.45
982.579	1711.14
982.878	1691.03
983.177	1694.64
983.475	1669.33
983.774	1655.55
984.073	1625.04
984.372	1628.21
984.67	1617.81
984.969	1639.28
985.267	1656.45
985.566	1625.27
985.864	1621.43
986.162	1596.34
986.461	1627.3
986.759	1595.44
987.057	1594.76
987.355	1575.55
987.653	1590.01
987.951	1586.62
988.249	1576.91
988.547	1579.85
988.844	1565.61
989.142	1551.82
989.44	1528.77
989.737	1564.93
990.035	1556.12
990.332	1532.16
990.63	1519.73
990.927	1522.45
991.224	1520.41
991.521	1517.25
991.819	1513.63
992.116	1494.65
992.413	1521.77
992.71	1516.12
993.006	1466.18
993.303	1476.57
993.6	1468.89
993.897	1464.82
994.193	1421.21
994.49	1432.5
994.787	1446.97
995.083	1438.15
995.379	1434.99
995.676	1411.94
995.972	1403.13
996.268	1402.9
996.565	1395.22
996.861	1428.66
997.157	1379.17
997.453	1397.03
997.749	1369.68
998.044	1372.17
998.34	1359.51
998.636	1349.8
998.932	1380.98
999.227	1359.96
999.523	1348.44
999.818	1351.6
1000.114	1359.51
1000.409	1328.55
1000.704	1305.28
1001	1315.67
1001.295	1330.59
1001.59	1274.99
1001.885	1292.17
1002.18	1303.47
1002.475	1292.17
1002.77	1310.02
1003.065	1303.69
1003.359	1284.03
1003.654	1280.42
1003.949	1220.53
1004.243	1267.31
1004.538	1242
1004.832	1242.68
1005.127	1248.1
1005.421	1234.77
1005.715	1220.53
1006.009	1225.96
1006.304	1238.61
1006.598	1224.15
1006.892	1180.76
1007.186	1197.71
1007.48	1204.71
1007.773	1171.95
1008.067	1192.96
1008.361	1151.38
1008.655	1154.09
1008.948	1190.25
1009.242	1163.81
1009.535	1159.74
1009.829	1154.09
1010.122	1126.75
1010.415	1145.96
1010.708	1115.68
1011.001	1116.58
1011.295	1127.88
1011.588	1126.3
1011.881	1103.02
1012.173	1108.9
1012.466	1112.06
1012.759	1067.09
1013.052	1094.43
1013.344	1098.05
1013.637	1087.88
1013.93	1051.5
1014.222	1073.87
1014.514	1090.14
1014.807	1049.24
1015.099	1062.12
1015.391	1060.09
1015.683	1039.07
1015.976	1013.31
1016.268	1019.41
1016.56	1037.94
1016.851	1004.72
1017.143	993.19
1017.435	1005.17
1017.727	1009.92
1018.018	1022.8
1018.31	971.05
1018.602	986.41
1018.893	963.59
1019.185	983.02
1019.476	980.99
1019.767	958.39
1020.058	982.35
1020.35	961.56
1020.641	957.26
1020.932	955.68
1021.223	937.6
1021.514	918.62
1021.804	924.27
1022.095	909.35
1022.386	928.11
1022.677	927.66
1022.967	934.21
1023.258	898.73
1023.548	892.86
1023.839	891.73
1024.129	884.95
1024.419	885.85
1024.709	876.81
1025	866.64
1025.29	893.76
1025.58	853.76
1025.87	854.44
1026.16	837.94
1026.449	874.1
1026.739	852.18
1027.029	853.76
1027.319	839.53
1027.608	833.65
1027.898	833.88
1028.187	823.03
1028.477	829.36
1028.766	807.89
1029.055	793.65
1029.344	827.32
1029.634	802.46
1029.923	818.28
1030.212	824.61
1030.501	805.85
1030.79	789.13
1031.078	755.46
1031.367	773.31
1031.656	771.51
1031.945	782.13
1032.233	750.04
1032.522	766.99
1032.81	770.38
1033.099	751.39
1033.387	746.42
1033.675	735.35
1033.963	755.01
1034.251	752.75
1034.54	749.36
1034.828	775.57
1035.116	753.43
1035.403	746.42
1035.691	729.02
1035.979	724.27
1036.267	718.17
1036.554	713.43
1036.842	707.33
1037.129	706.42
1037.417	690.38
1037.704	717.04
1037.992	702.58
1038.279	679.98
1038.566	690.6
1038.853	690.6
1039.14	690.6
