Data from tablewood_brown_FLMS001491_045.txt Node
Date: Tue Feb 07 11:10:31 GMT 2017
User: dcchb
Spectrometer: FLMS00149
Trigger mode: 0
Integration Time (sec): 2.000000E-2
Scans to average: 10
Electric dark correction enabled: true
Nonlinearity correction enabled: false
Boxcar width: 0
XAxis mode: Wavelengths
Number of Pixels in Spectrum: 2048
>>>>>Begin Spectral Data<<<<<
341.393	6.55
341.776	6.55
342.16	6.55
342.543	-60.34
342.927	-63.28
343.31	-72.77
343.693	-76.61
344.077	-75.7
344.46	-30.51
344.843	-39.55
345.226	-38.19
345.61	-37.97
345.993	-13.11
346.376	-3.62
346.759	16.95
347.142	40.22
347.525	36.38
347.908	38.87
348.291	58.98
348.674	96.72
349.057	99.88
349.44	134.46
349.823	141.92
350.206	160.45
350.588	179.2
350.971	212.42
351.354	213.55
351.737	236.38
352.119	237.28
352.502	258.75
352.884	280.44
353.267	284.74
353.65	296.49
354.032	281.8
354.414	287.68
354.797	303.49
355.179	305.75
355.562	310.05
355.944	327.9
356.326	331.97
356.709	328.35
357.091	342.36
357.473	340.33
357.855	335.36
358.238	329.93
358.62	335.81
359.002	355.24
359.384	349.37
359.766	356.83
360.148	331.06
360.53	338.97
360.912	338.52
361.294	336.49
361.676	321.8
362.057	355.92
362.439	328.58
362.821	350.95
363.203	307.11
363.584	350.73
363.966	355.47
364.348	327.22
364.729	330.84
365.111	336.04
365.493	319.99
365.874	322.93
366.256	317.96
366.637	335.13
367.019	334
367.4	338.97
367.781	319.99
368.163	325.19
368.544	330.16
368.925	318.18
369.306	323.38
369.688	305.08
370.069	315.02
370.45	288.13
370.831	334.23
371.212	318.41
371.593	339.43
371.974	323.61
372.355	313.66
372.736	325.64
373.117	346.21
373.498	326.32
373.879	345.75
374.26	318.41
374.641	337.17
375.021	318.86
375.402	327.45
375.783	336.04
376.163	345.98
376.544	334.68
376.925	333.78
377.305	335.36
377.686	334.45
378.066	348.24
378.447	344.85
378.827	347.56
379.208	342.82
379.588	339.65
379.968	357.73
380.349	356.83
380.729	354.57
381.109	355.92
381.489	362.02
381.87	361.12
382.25	357.28
382.63	355.92
383.01	354.79
383.39	372.19
383.77	359.31
384.15	363.61
384.53	379.65
384.91	374.23
385.29	371.06
385.67	374.45
386.049	373.1
386.429	377.84
386.809	395.47
387.189	400.44
387.568	385.98
387.948	388.01
388.328	398.41
388.707	387.79
389.087	384.62
389.466	412.64
389.846	395.24
390.225	421.46
390.605	428.46
390.984	403.38
391.363	407.22
391.743	410.38
392.122	436.82
392.501	433.21
392.881	429.59
393.26	444.73
393.639	412.87
394.018	432.76
394.397	444.51
394.776	438.41
395.155	439.08
395.534	454.45
395.913	460.55
396.292	447.22
396.671	482.47
397.05	446.99
397.429	455.36
397.808	462.13
398.186	453.55
398.565	470.27
398.944	454.68
399.323	466.88
399.701	481.57
400.08	482.7
400.458	488.57
400.837	492.42
401.215	480.21
401.594	493.32
401.972	509.37
402.351	508.91
402.729	490.61
403.107	488.8
403.486	510.27
403.864	515.69
404.242	498.97
404.62	511.17
404.999	537.84
405.377	545.07
405.755	529.25
406.133	522.92
406.511	545.3
406.889	544.62
407.267	535.35
407.645	545.3
408.023	571.74
408.401	552.3
408.779	565.41
409.156	585.3
409.534	548.91
409.912	599.53
410.29	588.23
410.667	571.06
411.045	598.4
411.422	614
411.8	587.1
412.178	594.56
412.555	609.48
412.933	620.55
413.31	628.23
413.687	633.2
414.065	626.88
414.442	647.67
414.819	646.08
415.197	668.46
415.574	666.88
415.951	691.06
416.328	667.1
416.705	665.52
417.082	675.46
417.46	682.47
417.837	693.99
418.214	719.76
418.591	710.26
418.967	685.18
419.344	708
419.721	691.96
420.098	702.58
420.475	702.58
420.852	728.57
421.228	737.61
421.605	721.56
421.982	720.21
422.358	745.29
422.735	753.88
423.111	773.54
423.488	755.23
423.864	760.88
424.241	784.84
424.617	792.75
424.994	752.97
425.37	750.04
425.746	792.75
426.123	790.94
426.499	797.27
426.875	812.41
427.251	804.27
427.627	833.88
428.003	844.05
428.379	830.03
428.756	864.16
429.132	852.86
429.507	829.58
429.883	890.37
430.259	867.55
430.635	885.85
431.011	887.43
431.387	886.76
431.763	924.72
432.138	919.52
432.514	944.61
432.89	937.38
433.265	978.73
433.641	944.61
434.016	978.51
434.392	992.97
434.767	1023.02
435.143	1003.14
435.518	1037.94
435.894	1035.45
436.269	1030.03
436.644	1031.39
437.02	1047.2
437.395	1071.84
437.77	1067.09
438.145	1077.03
438.52	1111.16
438.895	1089.01
439.271	1094.43
439.646	1151.38
440.021	1122.23
440.395	1126.75
440.77	1118.16
441.145	1159.74
441.52	1191.38
441.895	1131.72
442.27	1177.37
442.645	1202.91
443.019	1191.61
443.394	1187.09
443.769	1192.96
444.143	1227.31
444.518	1221.89
444.892	1206.07
445.267	1229.35
445.641	1233.19
446.016	1240.19
446.39	1225.73
446.764	1283.13
447.139	1269.35
447.513	1261.21
447.887	1264.15
448.262	1282.45
448.636	1317.71
449.01	1297.37
449.384	1326.07
449.758	1365.84
450.132	1321.1
450.506	1328.33
450.88	1361.55
451.254	1334.88
451.628	1371.04
452.002	1377.59
452.376	1380.75
452.75	1388.89
453.123	1420.98
453.497	1428.89
453.871	1430.02
454.244	1478.61
454.618	1467.98
454.992	1463.24
455.365	1481.32
455.739	1535.55
456.112	1516.34
456.486	1548.43
456.859	1562.44
457.232	1578.04
457.606	1573.52
457.979	1614.19
458.352	1630.47
458.725	1633.86
459.099	1666.62
459.472	1725.83
459.845	1686.51
460.218	1725.83
460.591	1703.23
460.964	1753.4
461.337	1780.29
461.71	1794.98
462.083	1833.17
462.456	1824.81
462.829	1812.61
463.201	1875.43
463.574	1881.08
463.947	1925.15
464.32	1946.39
464.692	1952.72
465.065	1971.7
465.438	1973.96
465.81	2024.13
466.183	2073.84
466.555	2082.66
466.928	2134.86
467.3	2135.09
467.672	2182.99
468.045	2218.02
468.417	2242.2
468.789	2218.25
469.161	2291.47
469.534	2327.4
469.906	2374.63
470.278	2393.84
470.65	2425.02
471.022	2454.17
471.394	2504.11
471.766	2566.03
472.138	2579.82
472.51	2619.14
472.882	2697.56
473.253	2714.05
473.625	2782.3
473.997	2840.15
474.369	2867.27
474.74	2911.34
475.112	2962.63
475.484	3023.42
475.855	3075.63
476.227	3109.97
476.598	3210.31
476.97	3265
477.341	3344.77
477.713	3334.38
478.084	3400.59
478.455	3496.18
478.827	3534.37
479.198	3637.87
479.569	3639.68
479.94	3770.3
480.311	3870.63
480.682	3885.77
481.053	3993.57
481.424	4063.62
481.795	4130.96
482.166	4246.89
482.537	4297.74
482.908	4397.85
483.279	4437.4
483.65	4538.41
484.021	4629.71
484.391	4624.06
484.762	4710.16
485.133	4788.57
485.503	4820.44
485.874	4925.29
486.244	5050.71
486.615	5084.61
486.985	5196.47
487.356	5262.69
487.726	5320.31
488.097	5407.32
488.467	5492.74
488.837	5617.71
489.207	5674.88
489.578	5712.84
489.948	5779.96
490.318	5846.4
490.688	5829.9
491.058	5974.31
491.428	6068.77
491.798	6104.92
492.168	6300.4
492.538	6294.98
492.908	6367.74
493.278	6458.36
493.648	6476.89
494.017	6606.38
494.387	6626.27
494.757	6681.18
495.126	6744.68
495.496	6771.35
495.866	6791.46
496.235	6930.21
496.605	6953.94
496.974	7033.04
497.344	7104.9
497.713	7155.07
498.082	7260.37
498.452	7300.82
498.821	7320.49
499.19	7396.87
499.559	7495.85
499.928	7500.14
500.298	7597.31
500.667	7647.93
501.036	7647.48
501.405	7726.12
501.774	7749.17
502.143	7842.96
502.512	7859
502.88	7907.59
503.249	7879.57
503.618	8022.84
503.987	8088.37
504.356	8183.97
504.724	8163.4
505.093	8264.87
505.462	8248.14
505.83	8295.83
506.199	8390.74
506.567	8550.51
506.936	8521.81
507.304	8603.16
507.672	8712.77
508.041	8762.93
508.409	8774.68
508.777	8905.75
509.145	8946.66
509.514	8987.33
509.882	9069.14
510.25	9125.41
510.618	9184.39
510.986	9213.54
511.354	9329.92
511.722	9416.48
512.09	9442.92
512.458	9504.61
512.826	9620.54
513.193	9660.99
513.561	9667.09
513.929	9896.69
514.297	9942.11
514.664	9931.94
515.032	10044.03
515.4	10161.99
515.767	10232.05
516.135	10280.18
516.502	10261.65
516.869	10425.94
517.237	10545.49
517.604	10557.69
517.972	10661.64
518.339	10728.08
518.706	10761.3
519.073	10859.6
519.44	10946.83
519.808	11109.99
520.175	11081.06
520.542	11215.3
520.909	11327.39
521.276	11332.36
521.643	11477.89
522.009	11563.54
522.376	11595.18
522.743	11764.66
523.11	11845.56
523.477	12006.24
523.843	12167.36
524.21	12208.27
524.577	12358.32
524.943	12354.48
525.31	12440.35
525.676	12561.03
526.043	12713.56
526.409	12759.44
526.776	12859.55
527.142	12924.86
527.508	13011.18
527.874	13136.6
528.241	13184.29
528.607	13292.31
528.973	13420.21
529.339	13448.23
529.705	13535.46
530.071	13628.79
530.437	13655.01
530.803	13813.2
531.169	13873.08
531.535	13902.69
531.901	14024.94
532.267	14077.6
532.632	14086.41
532.998	14276.23
533.364	14316.23
533.73	14372.73
534.095	14474.42
534.461	14542.89
534.826	14684.59
535.192	14579.28
535.557	14838.03
535.923	14841.19
536.288	14846.62
536.653	14904.47
537.019	14960.28
537.384	14949.21
537.749	15033.73
538.114	15163.22
538.479	15204.8
538.845	15303.78
539.21	15268.98
539.575	15371.8
539.94	15381.06
540.305	15615.18
540.67	15443.44
541.034	15639.36
541.399	15671.9
541.764	15687.5
542.129	15798.23
542.494	15872.35
542.858	15854.5
543.223	15900.15
543.587	15997.77
543.952	15981.73
544.316	16134.94
544.681	16152.8
545.045	16238.44
545.41	16321.38
545.774	16287.03
546.138	16323.19
546.503	16475.72
546.867	16477.08
547.231	16602.05
547.595	16644.31
547.959	16716.85
548.324	16732.22
548.688	16805.66
549.052	16963.4
549.416	17007.69
549.779	17121.81
550.143	17175.82
550.507	17268.92
550.871	17410.39
551.235	17300.11
551.599	17430.28
551.962	17521.57
552.326	17654.45
552.689	17752.3
553.053	17804.73
553.417	17785.97
553.78	18040.2
554.143	18029.13
554.507	18237.49
554.87	18342.79
555.234	18503.92
555.597	18455.56
555.96	18613.52
556.323	18658.49
556.686	18832.5
557.05	18893.29
557.413	19034.75
557.776	19031.14
558.139	19238.82
558.502	19405.59
558.865	19489.43
559.228	19606.72
559.59	19722.87
559.953	19817.78
560.316	20107.49
560.679	20047.61
561.041	20254.16
561.404	20408.5
561.767	20664.32
562.129	20627.48
562.492	20784.09
562.854	20828.15
563.217	20984.53
563.579	21172.55
563.941	21393.79
564.304	21513.56
564.666	21675.36
565.028	21740.9
565.39	21972.98
565.753	22182.24
566.115	22269.47
566.477	22336.36
566.839	22555.34
567.201	22784.03
567.563	23024.48
567.925	23083.01
568.287	23113.06
568.648	23173.4
569.01	23558.02
569.372	23815.87
569.734	23672.37
570.095	23966.83
570.457	24105.13
570.819	24421.28
571.18	24360.04
571.542	24635.06
571.903	24719.58
572.265	24910.31
572.626	24988.5
572.987	25192.11
573.349	25241.6
573.71	25567.92
574.071	25530.85
574.432	25696.95
574.794	26050.16
575.155	26164.96
575.516	26107.56
575.877	26379.65
576.238	26400.66
576.599	26807.66
576.96	26848.56
577.32	26848.56
577.681	26977.37
578.042	27132.17
578.403	27199.74
578.763	27323.58
579.124	27511.14
579.485	27668.65
579.845	27705.49
580.206	27778.93
580.566	27818.93
580.927	27980.51
581.287	28183.67
581.648	28044.91
582.008	28315.41
582.368	28468.18
582.728	28497.33
583.089	28564.22
583.449	28521.06
583.809	28665.91
584.169	28803.08
584.529	28846.25
584.889	29086.01
585.249	28876.98
585.609	28840.6
585.969	29033.13
586.329	28963.31
586.688	29130.99
587.048	29218.89
587.408	29138.89
587.768	29285.56
588.127	29295.73
588.487	29385.67
588.846	29401.94
589.206	29287.59
589.565	29454.59
589.925	29586.11
590.284	29574.59
590.643	29497.98
591.003	29675.83
591.362	29804.41
591.721	29583.85
592.08	29796.96
592.44	29728.26
592.799	29868.37
593.158	29796.05
593.517	29954.69
593.876	29852.32
594.235	29731.2
594.593	29918.54
594.952	29948.14
595.311	29854.81
595.67	29968.03
596.029	30067.01
596.387	30236.49
596.746	30154.01
597.104	30019.55
597.463	30149.49
597.822	30208.25
598.18	30170.96
598.538	30109.94
598.897	30185.65
599.255	30116.95
599.613	30557.39
599.972	30352.65
600.33	30451.4
600.688	30417.05
601.046	30548.35
601.404	30601.68
601.762	30496.15
602.12	30705.41
602.478	30535.24
602.836	30685.29
603.194	30530.5
603.552	30669.7
603.91	30528.01
604.268	30708.57
604.625	30547.22
604.983	30781.11
605.341	30610.49
605.698	30840.32
606.056	30749.47
606.413	30834.67
606.771	30952.41
607.128	30983.37
607.485	30828.57
607.843	30899.75
608.2	30995.34
608.557	31115.79
608.914	30964.16
609.272	31146.53
609.629	31092.06
609.986	31317.82
610.343	31206.86
610.7	31309.69
611.057	31273.75
611.414	31330.02
611.771	31391.72
612.127	31534.54
612.484	31520.08
612.841	31592.39
613.198	31506.97
613.554	31555.55
613.911	31737.02
614.267	31782.22
614.624	31600.07
614.98	31811.82
615.337	31801.88
615.693	31757.13
616.05	31782.44
616.406	31844.81
616.762	31826.73
617.118	31818.15
617.475	31786.06
617.831	31928.43
618.187	31782.89
618.543	31970.01
618.899	32060.4
619.255	32092.04
619.611	32009.78
619.967	32218.36
620.323	32292.71
620.678	32014.53
621.034	32016.79
621.39	32040.06
621.746	32105.82
622.101	32356.66
622.457	32128.65
622.812	32097.01
623.168	32174.3
623.523	32177.46
623.879	32294.74
624.234	32221.07
624.589	32194.41
624.945	32250
625.3	32388.3
625.655	32319.6
626.01	32266.72
626.365	32425.81
626.72	32367.51
627.075	32324.12
627.43	32372.03
627.785	32174.3
628.14	32350.34
628.495	32312.6
628.85	32167.29
629.205	32157.8
629.559	32363.89
629.914	32266.72
630.269	32143.79
630.623	32167.52
630.978	31994.41
631.332	32207.51
631.687	32168.87
632.041	31844.81
632.396	32041.42
632.75	32007.29
633.104	32056.56
633.459	31900.18
633.813	31963
634.167	31950.35
634.521	31950.35
634.875	31925.94
635.229	31850.91
635.583	31749
635.937	31695.44
636.291	31704.7
636.645	31692.95
636.999	31572.96
637.352	31626.97
637.706	31515.56
638.06	31579.73
638.413	31559.62
638.767	31557.36
639.121	31434.65
639.474	31285.96
639.828	31409.34
640.181	31402.34
640.534	31347.65
640.888	31300.19
641.241	31154.66
641.594	31342.45
641.947	31280.53
642.301	31196.02
642.654	31159.86
643.007	31182.46
643.36	31196.24
643.713	31072.18
644.066	31151.5
644.419	31011.61
644.771	30845.74
645.124	30560.55
645.477	30465.87
645.83	30307.45
646.182	30230.62
646.535	30069.04
646.888	30156.5
647.24	30062.26
647.593	30294.12
647.945	30160.34
648.298	30087.12
648.65	29947.01
649.002	29982.04
649.355	30045.99
649.707	30062.26
650.059	30071.3
650.411	30446.66
650.763	30568.24
651.115	30807.1
651.467	30604.85
651.819	30692.75
652.171	30620.44
652.523	30531.63
652.875	30663.37
653.227	30489.82
653.578	30717.38
653.93	30631.06
654.282	30438.07
654.633	30437.17
654.985	30502.93
655.337	30465.64
655.688	30543.15
656.039	30647.33
656.391	30220.22
656.742	30419.31
657.094	30431.29
657.445	30561.91
657.796	30367.79
658.147	30426.54
658.498	30365.98
658.849	30441.23
659.2	30309.71
659.551	30322.59
659.902	30437.62
660.253	30402.36
660.604	30343.61
660.955	30238.3
661.306	30465.64
661.656	30399.88
662.007	30367.34
662.358	30415.92
662.708	30261.58
663.059	30425.41
663.409	30321.24
663.76	30477.62
664.11	30371.18
664.461	30444.4
664.811	30366.66
665.161	30319.65
665.511	30238.75
665.862	30323.95
666.212	30412.08
666.562	30417.96
666.912	30317.62
667.262	30398.75
667.612	30363.04
667.962	30363.04
668.312	30316.27
668.662	30434.45
669.011	30354.46
669.361	30196.95
669.711	30297.73
670.06	30199.88
670.41	30078.76
670.76	30052.32
671.109	30113.33
671.459	30086.89
671.808	29995.6
672.157	30184.29
672.507	30033.79
672.856	29960.34
673.205	29924.18
673.554	30152.65
673.904	29976.84
674.253	30051.41
674.602	30026.33
674.951	29550.64
675.3	29448.04
675.649	29890.97
675.998	29780.23
676.346	29821.14
676.695	29842.83
677.044	29695.49
677.393	29785.21
677.741	29856.39
678.09	29796.5
678.438	29554.93
678.787	29700.24
679.135	29653.01
679.484	29577.75
679.832	29634.02
680.181	29489.62
680.529	29496.63
680.877	29393.35
681.225	29315.39
681.573	29494.14
681.922	29297.53
682.27	29266.35
682.618	29348.38
682.966	29199.68
683.314	29251.43
683.661	29066.35
684.009	28906.13
684.357	28917.88
684.705	28821.62
685.053	28865
685.4	28834.95
685.748	28719.47
686.095	28627.27
686.443	28555.41
686.79	28472.7
687.138	28575.29
687.485	28523.77
687.832	28445.13
688.18	28409.42
688.527	28297.34
688.874	28313.61
689.221	28084.46
689.568	28051.69
689.915	28051.47
690.262	27914.07
690.609	27891.02
690.956	27829.32
691.303	27775.54
691.65	27540.29
691.997	27597.92
692.344	27426.4
692.69	27333.52
693.037	27376.23
693.383	27129.68
693.73	27288.32
694.077	27041.32
694.423	27079.06
694.769	26976.92
695.116	26884.72
695.462	26853.98
695.808	26774.44
696.155	26740.99
696.501	26601.79
696.847	26538.51
697.193	26301.91
697.539	26396.59
697.885	26220.33
698.231	26107.56
698.577	26110.27
698.923	26042.93
699.269	25909.83
699.614	25866.44
699.96	25748.25
700.306	25752.32
700.651	25586.45
700.997	25555.71
701.342	25435.72
701.688	25334.48
702.033	25320.01
702.379	25424.42
702.724	25080.24
703.069	25168.15
703.415	24813.81
703.76	24877.99
704.105	24949.4
704.45	24764.09
704.795	24751.21
705.14	24603.19
705.485	24594.61
705.83	24410.21
706.175	24483.65
706.52	24390.09
706.865	24314.16
707.209	24250.44
707.554	24247.5
707.899	24206.14
708.243	24114.39
708.588	24104.22
708.932	23929.99
709.277	23827.4
709.621	23863.55
709.966	23777.91
710.31	23793.05
710.654	23580.4
710.998	23565.03
711.342	23536.78
711.687	23589.44
712.031	23425.82
712.375	23386.28
712.719	23327.3
713.063	23409.55
713.407	23419.27
713.75	23281.87
714.094	23327.07
714.438	23232.16
714.782	23152.84
715.125	23034.2
715.469	23053.41
715.812	22981.99
716.156	22909.68
716.499	22992.39
716.843	23021.32
717.186	22844.82
717.53	22897.7
717.873	22873.07
718.216	22882.34
718.559	22644.83
718.902	22645.28
719.246	22662
719.589	22533.19
719.932	22391.28
720.275	22411.61
720.617	22423.37
720.96	22356.93
721.303	22425.4
721.646	22567.77
721.989	22332.52
722.331	22347.66
722.674	22308.11
723.016	22278.06
723.359	22249.81
723.701	22313.76
724.044	22250.71
724.386	21969.59
724.729	22304.72
725.071	22113.54
725.413	22163.49
725.755	22131.4
726.097	22129.81
726.439	22061.34
726.782	22055.24
727.124	22222.24
727.465	22034.67
727.807	21973.21
728.149	22041
728.491	21921.23
728.833	21993.77
729.175	21932.3
729.516	21952.87
729.858	21936.15
730.199	21848.24
730.541	21754.23
730.882	21872.65
731.224	21842.36
731.565	21780.44
731.906	21801.91
732.248	21955.58
732.589	21751.52
732.93	21714.68
733.271	21816.6
733.612	21716.94
733.953	21773.44
734.294	21698.64
734.635	21700.45
734.976	21740.9
735.317	21659.32
735.658	21748.13
735.999	21761.24
736.339	21668.81
736.68	21758.3
737.021	21701.58
737.361	21703.61
737.702	21722.82
738.042	21620
738.383	21699.09
738.723	21683.95
739.063	21619.32
739.404	21663.84
739.744	21649.83
740.084	21597.62
740.424	21612.99
740.764	21575.25
741.104	21732.08
741.444	21565.53
741.784	21638.75
742.124	21681.01
742.464	21534.35
742.804	21523.5
743.143	21526.44
743.483	21640.11
743.823	21481.47
744.162	21491.64
744.502	21636.95
744.841	21504.07
745.181	21575.25
745.52	21484.86
745.86	21570.96
746.199	21480.57
746.538	21488.47
746.877	21526.21
747.216	21516.04
747.556	21498.64
747.895	21544.52
748.234	21439.89
748.573	21517.85
748.911	21497.29
749.25	21466.78
749.589	21382.94
749.928	21386.56
750.267	21473.79
750.605	21466.55
750.944	21316.5
751.283	21358.53
751.621	21434.92
751.96	21246.45
752.298	21170.52
752.636	21348.59
752.975	21260.68
753.313	21227.01
753.651	21350.63
753.989	20987.47
754.327	21029.5
754.666	20938.43
755.004	21022.05
755.342	21094.81
755.679	21103.4
756.017	20979.56
756.355	21016.62
756.693	20994.48
757.031	21045.1
757.368	20780.02
757.706	20781.6
758.044	20674.26
758.381	20820.7
758.719	20677.87
759.056	20780.02
759.394	20602.85
759.731	20505.22
760.068	20521.04
760.405	20445.79
760.743	20461.83
761.08	20475.62
761.417	20360.82
761.754	20379.13
762.091	20243.99
762.428	20237.43
762.765	20195.85
763.102	20215.97
763.438	20009.42
763.775	20047.83
764.112	19949.76
764.449	19988.63
764.785	19839.7
765.122	19664.57
765.458	19771.46
765.795	19754.06
766.131	19698.69
766.467	19583.21
766.804	19480.17
767.14	19359.49
767.476	19484.69
767.812	19338.93
768.148	19331.92
768.485	19340.28
768.821	19166.05
769.157	19078.82
769.492	19081.31
769.828	19014.64
770.164	18910.92
770.5	18887.19
770.836	18905.04
771.171	18766.29
771.507	18677.93
771.842	18676.12
772.178	18553.41
772.513	18523.81
772.849	18474.77
773.184	18364.49
773.519	18322
773.855	18347.31
774.19	18188.9
774.525	18153.87
774.86	18127.43
775.195	18058.96
775.53	17974.67
775.865	17907.1
776.2	17852.41
776.535	17680.89
776.87	17712.53
777.205	17660.55
777.539	17579.88
777.874	17654.45
778.209	17361.13
778.543	17477.51
778.878	17375.81
779.212	17279.32
779.547	17205.88
779.881	17238.87
780.215	17110.74
780.55	17076.16
780.884	17041.59
781.218	17044.07
781.552	16948.03
781.886	16898.99
782.22	16774.47
782.554	16639.79
782.888	16498.78
783.222	16470.3
783.556	16378.33
783.889	16382.39
784.223	16256.97
784.557	16247.48
784.89	16186.02
785.224	16233.92
785.557	16162.06
785.891	16060.82
786.224	15977.21
786.558	15970.2
786.891	15908.28
787.224	15779.47
787.557	15816.08
787.891	15777.21
788.224	15760.72
788.557	15734.5
788.89	15722.3
789.223	15686.14
789.556	15469.2
789.888	15515.52
790.221	15319.15
790.554	15218.13
790.887	15251.8
791.219	15181.3
791.552	15159.83
791.884	15039.38
792.217	15137
792.549	15012.49
792.882	14909.44
793.214	14848.42
793.546	14890
793.879	14796.22
794.211	14730.23
794.543	14784.92
794.875	14654.53
795.207	14782.89
795.539	14645.72
795.871	14583.35
796.203	14540.86
796.535	14353.07
796.867	14369.79
797.198	14419.73
797.53	14350.36
797.862	14244.82
798.193	14251.6
798.525	14122.57
798.856	14170.47
799.188	14091.83
799.519	14028.11
799.85	13886.19
800.182	13974.1
800.513	13994.43
800.844	13859.07
801.175	13900.43
801.506	13848.9
801.837	13772.07
802.168	13667.66
802.499	13696.59
802.83	13617.72
803.161	13575.01
803.491	13532.98
803.822	13557.38
804.153	13421.79
804.483	13389.93
804.814	13335.24
805.145	13331.4
805.475	13371.85
805.805	13207.79
806.136	13269.03
806.466	13183.16
806.796	13181.57
807.126	13159.88
807.457	13110.84
807.787	13022.71
808.117	12937.51
808.447	12972.77
808.777	12984.97
809.107	12877.63
809.436	12858.42
809.766	12817.74
810.096	12744.75
810.426	12783.39
810.755	12715.6
811.085	12691.42
811.414	12666.33
811.744	12569.39
812.073	12584.3
812.403	12553.34
812.732	12474.25
813.061	12537.07
813.39	12410.97
813.719	12413.01
814.049	12467.47
814.378	12442.38
814.707	12348.6
815.036	12357.42
815.365	12190.41
815.693	12156.29
816.022	12142.28
816.351	12120.13
816.68	12123.52
817.008	12165.1
817.337	12039.91
817.665	12006.46
817.994	11971.66
818.322	12026.8
818.651	11942.74
818.979	11922.62
819.307	11959.01
819.636	11975.73
819.964	11792.91
820.292	11864.32
820.62	11840.59
820.948	11846.69
821.276	11771.44
821.604	11823.64
821.932	11837.2
822.259	11798.79
822.587	11790.2
822.915	11716.98
823.243	11832.46
823.57	11707.94
823.898	11753.14
824.225	11716.08
824.553	11733.7
824.88	11748.84
825.207	11774.61
825.535	11744.32
825.862	11806.7
826.189	11729.64
826.516	11826.13
826.843	11833.81
827.17	11853.25
827.497	11799.24
827.824	11799.92
828.151	11832.91
828.478	11798.79
828.805	11791.1
829.131	11728.96
829.458	11661.39
829.785	11644.44
830.111	11735.74
830.438	11778.9
830.764	11744.32
831.09	11738.45
831.417	11625.23
831.743	11742.52
832.069	11677.66
832.395	11633.37
832.722	11669.98
833.048	11590.66
833.374	11737.77
833.7	11601.95
834.026	11631.33
834.351	11613.93
834.677	11689.86
835.003	11627.72
835.329	11531.9
835.654	11551.33
835.98	11545.69
836.306	11564.44
836.631	11472.24
836.956	11494.16
837.282	11527.38
837.607	11445.57
837.932	11484.9
838.258	11397.21
838.583	11455.07
838.908	11351.11
839.233	11298.91
839.558	11382.75
839.883	11328.74
840.208	11310.66
840.533	11371.9
840.858	11300.27
841.182	11321.74
841.507	11309.53
841.832	11278.57
842.156	11131.46
842.481	11175.07
842.805	11115.41
843.13	11131.68
843.454	11093.04
843.778	11091.23
844.103	11057.79
844.427	11051.01
844.751	10990.9
845.075	10998.81
845.399	10926.72
845.723	10914.97
846.047	10905.02
846.371	10808.98
846.695	10791.58
847.019	10774.18
847.343	10708.42
847.666	10655.54
847.99	10600.4
848.313	10583.45
848.637	10510.46
848.96	10514.98
849.284	10447.63
849.607	10317.24
849.931	10402.44
850.254	10291.48
850.577	10268.43
850.9	10215.1
851.223	10218.26
851.546	10152.5
851.869	10083.8
852.192	10156.34
852.515	10001.09
852.838	10004.71
853.161	10027.08
853.483	9930.36
853.806	9866.41
854.129	9999.06
854.451	9840.87
854.774	9792.74
855.096	9785.28
855.419	9791.61
855.741	9792.74
856.063	9631.84
856.385	9656.92
856.708	9674.55
857.03	9644.94
857.352	9607.66
857.674	9567.66
857.996	9543.48
858.318	9453.31
858.64	9426.87
858.961	9396.59
859.283	9364.27
859.605	9372.41
859.926	9361.56
860.248	9432.52
860.57	9268.23
860.891	9286.99
861.212	9221
861.534	9229.59
861.855	9188.91
862.176	9219.19
862.498	9207.44
862.819	9235.92
863.14	9156.6
863.461	9137.39
863.782	9147.1
864.103	9109.82
864.424	9115.24
864.745	9115.92
865.065	9002.02
865.386	9050.38
865.707	9005.64
866.027	8997.73
866.348	8965.19
866.668	8968.58
866.989	8993.44
867.309	8903.72
867.63	8918.41
867.95	8929.48
868.27	8795.7
868.59	8881.8
868.91	8878.41
869.23	8900.1
869.55	8801.58
869.87	8845.87
870.19	8795.47
870.51	8821.01
870.83	8822.59
871.15	8736.27
871.469	8758.64
871.789	8778.07
872.109	8764.74
872.428	8674.8
872.748	8695.36
873.067	8708.25
873.386	8743.5
873.706	8750.96
874.025	8633.67
874.344	8608.14
874.663	8558.87
874.982	8628.25
875.301	8592.32
875.62	8554.35
875.939	8502.83
876.258	8587.8
876.577	8531.08
876.896	8504.18
877.214	8463.73
877.533	8490.17
877.852	8505.31
878.17	8491.98
878.489	8414.69
878.807	8409.5
879.125	8373.11
879.444	8452.89
879.762	8410.63
880.08	8417.86
880.398	8277.75
880.716	8335.6
881.034	8278.65
881.352	8310.06
881.67	8301.7
881.988	8316.17
882.306	8277.3
882.624	8229.84
882.941	8197.52
883.259	8252.44
883.577	8124.76
883.894	8228.03
884.212	8109.39
884.529	8065.55
884.846	8147.81
885.164	8164.53
885.481	8046.79
885.798	8113.23
886.115	8059.9
886.432	8016.29
886.75	7982.39
887.067	8031.43
887.383	7948.49
887.7	8017.87
888.017	7931.09
888.334	7911.88
888.651	7870.98
888.967	7922.05
889.284	7913.24
889.6	7802.73
889.917	7762.28
890.233	7739.91
890.55	7726.12
890.866	7755.5
891.182	7741.94
891.498	7699.23
891.815	7656.97
892.131	7673.02
892.447	7669.18
892.763	7557.09
893.079	7577.88
893.395	7564.77
893.71	7538.11
894.026	7490.42
894.342	7469.18
894.657	7395.29
894.973	7464.66
895.289	7393.7
895.604	7469.18
895.92	7348.06
896.235	7376.53
896.55	7357.55
896.865	7301.28
897.181	7262.41
897.496	7262.86
897.811	7271.22
898.126	7200.49
898.441	7163.88
898.756	7148.29
899.071	7121.85
899.386	7130.89
899.7	7071.45
900.015	7031
900.33	6990.1
900.644	7058.35
900.959	7018.8
901.273	6951.91
901.588	6901.97
901.902	6915.52
902.216	6911.46
902.531	6851.57
902.845	6823.32
903.159	6791.69
903.473	6779.48
903.787	6818.13
904.101	6705.59
904.415	6706.94
904.729	6640.5
905.042	6630.33
905.356	6620.84
905.67	6605.48
905.984	6604.57
906.297	6594.63
906.611	6532.26
906.924	6511.02
907.237	6495.87
907.551	6484.8
907.864	6449.55
908.177	6418.14
908.491	6492.94
908.804	6323.68
909.117	6333.62
909.43	6283
909.743	6274.64
910.056	6269.21
910.368	6257.24
910.681	6185.37
910.994	6207.07
911.307	6175.88
911.619	6130.91
911.932	6100.86
912.244	6134.3
912.557	6069.67
912.869	6072.61
913.181	6068.54
913.494	6012.05
913.806	5968.66
914.118	5949.9
914.43	5959.62
914.742	5932.5
915.054	5912.16
915.366	5890.01
915.678	5919.17
915.99	5808.21
916.302	5781.32
916.613	5781.32
916.925	5799.85
917.236	5694.77
917.548	5674.2
917.859	5695.44
918.171	5674.88
918.482	5653.41
918.794	5638.72
919.105	5627.42
919.416	5544.94
919.727	5561.66
920.038	5550.81
920.349	5466.3
920.66	5478.27
920.971	5474.88
921.282	5432.17
921.593	5407.77
921.903	5365.51
922.214	5402.8
922.525	5394.89
922.835	5396.92
923.146	5326.19
923.456	5278.05
923.767	5248.45
924.077	5211.84
924.387	5227.89
924.697	5206.64
925.008	5165.51
925.318	5130.71
925.628	5140.88
925.938	5124.39
926.248	5088.68
926.558	5036.93
926.867	5062.24
927.177	5033.54
927.487	5038.29
927.796	4925.52
928.106	5011.17
928.416	4910.15
928.725	4897.5
929.034	4908.35
929.344	4896.37
929.653	4884.62
929.962	4848.01
930.271	4811.4
930.581	4814.56
930.89	4730.72
931.199	4767.33
931.508	4753.1
931.817	4712.42
932.125	4650.73
932.434	4667.67
932.743	4662.48
933.051	4597.39
933.36	4637.62
933.669	4623.83
933.977	4596.04
934.286	4578.86
934.594	4536.15
934.902	4543.84
935.21	4508.13
935.519	4476.72
935.827	4450.28
936.135	4442.14
936.443	4413.67
936.751	4402.37
937.059	4384.97
937.367	4357.85
937.674	4372.54
937.982	4381.13
938.29	4287.34
938.597	4327.8
938.905	4258.87
939.213	4268.36
939.52	4211.64
939.827	4225.88
940.135	4165.09
940.442	4180.91
940.749	4167.12
941.056	4154.02
941.363	4121.93
941.67	4100.01
941.977	4101.81
942.284	4078.31
942.591	4075.37
942.898	4050.06
943.205	4057.52
943.511	4046.45
943.818	3997.41
944.125	3979.33
944.431	3975.94
944.738	3970.29
945.044	3921.7
945.35	3943.85
945.657	3913.8
945.963	3880.58
946.269	3913.12
946.575	3892.33
946.881	3845.1
947.187	3802.39
947.493	3752.67
947.799	3810.3
948.105	3816.62
948.41	3764.65
948.716	3786.34
949.022	3742.05
949.327	3714.48
949.633	3697.3
949.938	3693.91
950.244	3675.38
950.549	3640.36
950.854	3620.24
951.16	3705.21
951.465	3592.67
951.77	3551.32
952.075	3589.06
952.38	3560.58
952.685	3555.16
952.99	3521.72
953.294	3526.46
953.599	3488.04
953.904	3496.41
954.209	3489.17
954.513	3460.7
954.818	3429.74
955.122	3459.12
955.426	3455.73
955.731	3428.61
956.035	3393.81
956.339	3333.7
956.643	3355.17
956.948	3309.52
957.252	3356.75
957.556	3334.6
957.86	3297.99
958.163	3295.96
958.467	3295.51
958.771	3290.76
959.075	3202.63
959.378	3234.49
959.682	3213.02
959.985	3187.49
960.289	3177.09
960.592	3151.1
960.896	3177.09
961.199	3137.32
961.502	3161.27
961.805	3107.49
962.108	3112.69
962.411	3066.36
962.714	3053.71
963.017	3046.25
963.32	3103.87
963.623	3041.95
963.926	3046.25
964.228	3010.77
964.531	2969.19
964.833	3016.19
965.136	2938
965.438	2968.96
965.741	2958.34
966.043	2941.84
966.345	2946.36
966.648	2919.47
966.95	2940.49
967.252	2915.63
967.554	2863.65
967.856	2867.27
968.158	2867.95
968.46	2879.92
968.761	2843.99
969.063	2851.45
969.365	2785.92
969.666	2796.31
969.968	2802.19
970.269	2772.36
970.571	2747.5
970.872	2751.11
971.174	2754.73
971.475	2716.99
971.776	2754.28
972.077	2687.16
972.378	2706.37
972.679	2688.97
972.98	2666.14
973.281	2653.94
973.582	2654.39
973.883	2652.59
974.183	2652.36
974.484	2635.86
974.785	2589.08
975.085	2616.88
975.386	2592.25
975.686	2541.63
975.986	2568.52
976.287	2539.82
976.587	2560.84
976.887	2529.2
977.187	2538.24
977.487	2501.63
977.787	2506.15
978.087	2462.99
978.387	2489.88
978.687	2487.39
978.987	2444.46
979.286	2417.79
979.586	2427.73
979.885	2441.52
980.185	2384.8
980.484	2386.38
980.784	2379.82
981.083	2376.43
981.382	2359.49
981.682	2345.48
981.981	2361.29
982.28	2342.54
982.579	2288.75
982.878	2334.4
983.177	2307.96
983.475	2314.97
983.774	2287.62
984.073	2261.18
984.372	2274.29
984.67	2237.46
984.969	2247.17
985.267	2253.73
985.566	2268.41
985.864	2221.64
986.162	2233.16
986.461	2218.47
986.759	2176.67
987.057	2181.41
987.355	2163.33
987.653	2174.18
987.951	2141.19
988.249	2132.37
988.547	2160.17
988.844	2112.26
989.142	2121.3
989.44	2129.44
989.737	2094.18
990.035	2086.72
990.332	2099.61
990.63	2060.28
990.927	2091.24
991.224	2052.38
991.521	2005.82
991.819	2034.07
992.116	2052.15
992.413	2018.7
992.71	2018.7
993.006	2000.63
993.303	1980.74
993.6	1980.74
993.897	1982.77
994.193	1979.38
994.49	1971.02
994.787	1964.02
995.083	1956.11
995.379	1966.05
995.676	1941.87
995.972	1927.18
996.268	1902.32
996.565	1889.44
996.861	1878.37
997.157	1877.92
997.453	1848.54
997.749	1870.91
998.044	1856.45
998.34	1848.76
998.636	1816.68
998.932	1819.39
999.227	1806.51
999.523	1813.74
999.818	1807.86
1000.114	1799.73
1000.409	1761.99
1000.704	1750.01
1001	1749.33
1001.295	1745.26
1001.59	1725.83
1001.885	1771.25
1002.18	1733.74
1002.475	1707.07
1002.77	1716.57
1003.065	1680.86
1003.359	1685.83
1003.654	1678.15
1003.949	1664.81
1004.243	1674.31
1004.538	1652.61
1004.832	1646.28
1005.127	1623.01
1005.421	1629.79
1005.715	1631.37
1006.009	1630.01
1006.304	1626.4
1006.598	1568.77
1006.892	1568.09
1007.186	1570.58
1007.48	1533.74
1007.773	1556.57
1008.067	1556.8
1008.361	1568.09
1008.655	1542.78
1008.948	1508.43
1009.242	1490.58
1009.535	1518.6
1009.829	1491.03
1010.122	1508.66
1010.415	1493.07
1010.708	1472.73
1011.001	1462.79
1011.295	1474.76
1011.588	1460.07
1011.881	1457.36
1012.173	1418.27
1012.466	1428.89
1012.759	1435.67
1013.052	1405.84
1013.344	1415.1
1013.637	1405.84
1013.93	1372.39
1014.222	1385.5
1014.514	1384.6
1014.807	1371.72
1015.099	1350.25
1015.391	1342.34
1015.683	1323.58
1015.976	1338.95
1016.268	1320.42
1016.56	1315.67
1016.851	1302.79
1017.143	1320.87
1017.435	1267.99
1017.727	1275.22
1018.018	1295.79
1018.31	1284.94
1018.602	1273.19
1018.893	1247.88
1019.185	1259.18
1019.476	1259.85
1019.767	1245.84
1020.058	1250.59
1020.35	1225.28
1020.641	1199.29
1020.932	1184.6
1021.223	1231.83
1021.514	1166.97
1021.804	1190.7
1022.095	1186.64
1022.386	1176.01
1022.677	1160.87
1022.967	1144.6
1023.258	1147.99
1023.548	1138.5
1023.839	1141.44
1024.129	1125.39
1024.419	1152.29
1024.709	1110.25
1025	1088.56
1025.29	1109.58
1025.58	1102.8
1025.87	1093.08
1026.16	1079.07
1026.449	1068.45
1026.739	1052.85
1027.029	1073.87
1027.319	1068.9
1027.608	1043.81
1027.898	1056.47
1028.187	1017.6
1028.477	1053.08
1028.766	1043.59
1029.055	1020.54
1029.344	1003.36
1029.634	1007.43
1029.923	1004.49
1030.212	1005.17
1030.501	973.08
1030.79	1017.15
1031.078	962.69
1031.367	976.47
1031.656	971.5
1031.945	969.24
1032.233	950.94
1032.522	938.05
1032.81	955.91
1033.099	934.66
1033.387	912.74
1033.675	913.87
1033.963	908.9
1034.251	883.82
1034.54	913.2
1034.828	913.65
1035.116	912.74
1035.403	911.39
1035.691	882.24
1035.979	878.62
1036.267	868.9
1036.554	881.33
1036.842	853.76
1037.129	845.63
1037.417	842.46
1037.704	856.25
1037.992	848.34
1038.279	839.53
1038.566	825.97
1038.853	825.97
1039.14	825.97
