Data from tablewood_brown_FLMS001491_089.txt Node
Date: Tue Feb 07 11:11:08 GMT 2017
User: dcchb
Spectrometer: FLMS00149
Trigger mode: 0
Integration Time (sec): 2.000000E-2
Scans to average: 10
Electric dark correction enabled: true
Nonlinearity correction enabled: false
Boxcar width: 0
XAxis mode: Wavelengths
Number of Pixels in Spectrum: 2048
>>>>>Begin Spectral Data<<<<<
341.393	-26.75
341.776	-26.75
342.16	-26.75
342.543	-57.48
342.927	-66.07
343.31	-67.88
343.693	-80.76
344.077	-61.78
344.46	-55.45
344.843	-54.32
345.226	-55
345.61	-42.34
345.993	-27.88
346.376	5.34
346.759	18.45
347.142	26.58
347.525	36.3
347.908	63.19
348.291	83.08
348.674	93.25
349.057	119.23
349.44	113.36
349.823	141.61
350.206	141.61
350.588	186.13
350.971	238.78
351.354	250.76
351.737	236.52
352.119	252.11
352.502	245.78
352.884	273.81
353.267	272
353.65	277.65
354.032	305.22
354.414	320.81
354.797	303.18
355.179	326.69
355.562	333.92
355.944	327.59
356.326	320.58
356.709	346.8
357.091	343.18
357.473	343.18
357.855	353.58
358.238	337.76
358.62	357.42
359.002	358.55
359.384	350.41
359.766	348.38
360.148	353.35
360.53	344.76
360.912	333.24
361.294	348.83
361.676	359.91
362.057	339.34
362.439	333.92
362.821	324.2
363.203	342.05
363.584	325.78
363.966	328.27
364.348	335.95
364.729	317.65
365.111	341.15
365.493	335.27
365.874	325.56
366.256	326.46
366.637	324.2
367.019	301.38
367.4	312
367.781	325.56
368.163	330.08
368.544	312.22
368.925	346.12
369.306	326.23
369.688	338.21
370.069	310.87
370.45	347.48
370.831	337.31
371.212	336.86
371.593	319.23
371.974	322.84
372.355	329.62
372.736	330.75
373.117	337.31
373.498	323.52
373.879	305.44
374.26	319
374.641	350.19
375.021	338.44
375.402	314.48
375.783	346.8
376.163	334.6
376.544	343.41
376.925	359.68
377.305	338.44
377.686	345.22
378.066	347.02
378.447	363.97
378.827	344.99
379.208	376.18
379.588	361.49
379.968	352.45
380.349	362.62
380.729	364.43
381.109	353.8
381.489	361.71
381.87	347.93
382.25	374.82
382.63	363.75
383.01	378.89
383.39	367.14
383.77	368.04
384.15	369.17
384.53	370.98
384.91	362.17
385.29	399.9
385.67	390.41
386.049	390.19
386.429	355.84
386.809	399
387.189	410.75
387.568	379.57
387.948	390.87
388.328	369.62
388.707	383.86
389.087	426.12
389.466	396.06
389.846	405.55
390.225	414.37
390.605	427.02
390.984	427.47
391.363	416.63
391.743	422.73
392.122	410.75
392.501	456.85
392.881	433.35
393.26	431.77
393.639	442.16
394.018	460.69
394.397	449.85
394.776	445.55
395.155	474.71
395.534	462.73
395.913	463.18
396.292	458.89
396.671	477.42
397.05	464.54
397.429	466.57
397.808	476.74
398.186	471.99
398.565	476.96
398.944	487.13
399.323	474.03
399.701	483.74
400.08	484.42
400.458	493.24
400.837	519.45
401.215	523.74
401.594	522.84
401.972	520.58
402.351	514.25
402.729	510.41
403.107	507.92
403.486	513.12
403.864	521.94
404.242	549.73
404.62	530.3
404.999	568.04
405.377	546.57
405.755	556.96
406.133	546.34
406.511	569.84
406.889	570.97
407.267	546.57
407.645	562.16
408.023	560.58
408.401	583.18
408.779	584.31
409.156	581.82
409.534	588.15
409.912	597.41
410.29	577.53
410.667	617.53
411.045	612.78
411.422	622.05
411.8	611.42
412.178	633.57
412.555	648.03
412.933	653.68
413.31	658.65
413.687	661.82
414.065	662.72
414.442	652.78
414.819	676.06
415.197	653.23
415.574	693.68
415.951	694.81
416.328	691.2
416.705	700.69
417.082	698.88
417.46	699.33
417.837	711.53
418.214	731.87
418.591	725.77
418.967	737.75
419.344	717.86
419.721	762.83
420.098	717.64
420.475	747.24
420.852	721.25
421.228	734.36
421.605	773.68
421.982	763.29
422.358	773.45
422.735	802.83
423.111	801.25
423.488	809.16
423.864	811.19
424.241	812.1
424.617	810.52
424.994	840.57
425.37	836.73
425.746	833.57
426.123	840.8
426.499	841.25
426.875	849.61
427.251	866.11
427.627	888.71
428.003	890.06
428.379	895.26
428.756	897.74
429.132	916.28
429.507	914.92
429.883	930.06
430.259	966.44
430.635	941.81
431.011	944.07
431.387	974.13
431.763	984.52
432.138	977.52
432.514	991.75
432.89	1024.3
433.265	1043.73
433.641	1052.09
434.016	1036.95
434.392	1074.24
434.767	1081.24
435.143	1052.54
435.518	1064.97
435.894	1077.63
436.269	1073.79
436.644	1138.87
437.02	1099.32
437.395	1123.73
437.77	1122.15
438.145	1142.03
438.52	1176.61
438.895	1165.99
439.271	1180.68
439.646	1206.44
440.021	1207.12
440.395	1231.75
440.77	1210.96
441.145	1217.28
441.52	1241.92
441.895	1250.05
442.27	1256.61
442.645	1256.38
443.019	1302.48
443.394	1297.96
443.769	1289.37
444.143	1318.52
444.518	1327.56
444.892	1319.2
445.267	1318.98
445.641	1386.55
446.016	1324.4
446.39	1349.94
446.764	1388.13
447.139	1384.51
447.513	1411.4
447.887	1398.97
448.262	1390.84
448.636	1401.23
449.01	1423.38
449.384	1448.92
449.758	1443.49
450.132	1453.89
450.506	1444.17
450.88	1459.09
451.254	1488.46
451.628	1504.06
452.002	1524.62
452.376	1541.12
452.75	1523.49
453.123	1550.38
453.497	1557.61
453.871	1549.25
454.244	1611.62
454.618	1607.56
454.992	1623.38
455.365	1620.89
455.739	1679.65
456.112	1699.53
456.486	1703.6
456.859	1717.38
457.232	1724.39
457.606	1716.03
457.979	1739.08
458.352	1782.47
458.725	1812.75
459.099	1853.43
459.472	1841.67
459.845	1862.92
460.218	1899.75
460.591	1928.45
460.964	1894.78
461.337	1955.8
461.71	2000.77
462.083	2017.72
462.456	2036.92
462.829	2068.11
463.201	2063.82
463.574	2072.18
463.947	2098.84
464.32	2167.54
464.692	2151.5
465.065	2199.63
465.438	2222.91
465.81	2243.92
466.183	2298.84
466.555	2321.21
466.928	2321.89
467.3	2319.63
467.672	2390.59
468.045	2455.22
468.417	2477.59
468.789	2490.92
469.161	2530.92
469.534	2583.12
469.906	2618.38
470.278	2649.11
470.65	2651.14
471.022	2717.36
471.394	2778.83
471.766	2852.04
472.138	2887.75
472.51	2945.37
472.882	2967.52
473.253	3001.19
473.625	3028.08
473.997	3109.89
474.369	3176.78
474.74	3174.52
475.112	3234.18
475.484	3326.16
475.855	3361.63
476.227	3435.98
476.598	3536.55
476.97	3590.1
477.341	3679.37
477.713	3711.46
478.084	3755.52
478.455	3874.16
478.827	3937.44
479.198	4048.4
479.569	4070.09
479.94	4146.7
480.311	4182.18
480.682	4341.95
481.053	4420.59
481.424	4501.72
481.795	4534.71
482.166	4621.49
482.537	4713.92
482.908	4841.6
483.279	4891.76
483.65	4991.87
484.021	5072.55
484.391	5187.58
484.762	5223.28
485.133	5272.09
485.503	5389.15
485.874	5503.73
486.244	5558.87
486.615	5605.42
486.985	5752.31
487.356	5809.25
487.726	5870.95
488.097	6051.06
488.467	6038.85
488.837	6207.21
489.207	6308.68
489.578	6415.79
489.948	6416.92
490.318	6466.19
490.688	6508.22
491.058	6645.84
491.428	6743.92
491.798	6787.76
492.168	6928.32
492.538	6954.76
492.908	7072.05
493.278	7178.03
493.648	7161.53
494.017	7261.19
494.387	7393.62
494.757	7413.96
495.126	7509.1
495.496	7578.7
495.866	7578.93
496.235	7681.3
496.605	7727.85
496.974	7810.56
497.344	7935.75
497.713	7965.58
498.082	8019.37
498.452	8104.11
498.821	8165.58
499.19	8195.86
499.559	8283.09
499.928	8320.6
500.298	8375.06
500.667	8528.96
501.036	8467.72
501.405	8609.86
501.774	8580.03
502.143	8683.98
502.512	8737.54
502.88	8852.11
503.249	8787.03
503.618	8848.95
503.987	8982.05
504.356	8990.64
504.724	9135.72
505.093	9130.07
505.462	9241.03
505.83	9278.54
506.199	9373
506.567	9499.78
506.936	9504.3
507.304	9574.35
507.672	9596.73
508.041	9645.54
508.409	9762.37
508.777	9787.45
509.145	9980.22
509.514	9931.41
509.882	10053.66
510.25	10116.26
510.618	10197.61
510.986	10249.82
511.354	10336.59
511.722	10459.3
512.09	10547.43
512.458	10591.73
512.826	10664.49
513.193	10718.73
513.561	10788.11
513.929	10888.89
514.297	11048.66
514.664	11097.93
515.032	11130.47
515.4	11203.69
515.767	11281.43
516.135	11367.75
516.502	11350.8
516.869	11612.49
517.237	11581.53
517.604	11614.3
517.972	11829.43
518.339	11891.35
518.706	11903.11
519.073	12047.28
519.44	12122.08
519.808	12224
520.175	12282.08
520.542	12400.49
520.909	12516.42
521.276	12487.95
521.643	12741.28
522.009	12773.82
522.376	12881.16
522.743	12961.83
523.11	13092.45
523.477	13327.25
523.843	13339
524.21	13550.52
524.577	13570.18
524.943	13663.74
525.31	13806.78
525.676	13964.52
526.043	14038.64
526.409	13974.24
526.776	14198.64
527.142	14301.69
527.508	14404.96
527.874	14521.34
528.241	14579.87
528.607	14647.89
528.973	14689.47
529.339	14842.46
529.705	14995
530.071	15070.71
530.437	15123.81
530.803	15264.82
531.169	15392.73
531.535	15376.01
531.901	15377.14
532.267	15588.66
532.632	15639.28
532.998	15692.61
533.364	15874.98
533.73	15811.48
534.095	15955.65
534.461	16039.72
534.826	16098.7
535.192	16222.99
535.557	16341.41
535.923	16231.13
536.288	16371.91
536.653	16459.6
537.019	16529.88
537.384	16608.52
537.749	16681.28
538.114	16759.7
538.479	16728.51
538.845	16835.86
539.21	16897.55
539.575	16961.5
539.94	16980.26
540.305	17128.5
540.67	17140.26
541.034	17187.94
541.399	17230.65
541.764	17408.5
542.129	17453.24
542.494	17422.28
542.858	17481.49
543.223	17476.97
543.587	17780.69
543.952	17638.1
544.316	17721.03
544.681	17735.04
545.045	17869.05
545.41	17918.54
545.774	18017.07
546.138	18014.81
546.503	18102.49
546.867	18153.34
547.231	18310.17
547.595	18387.23
547.959	18490.73
548.324	18476.04
548.688	18523.72
549.052	18595.58
549.416	18717.39
549.779	18763.26
550.143	18732.76
550.507	19033.77
550.871	19033.99
551.235	19092.29
551.599	19272.4
551.962	19179.98
552.326	19415.22
552.689	19517.82
553.053	19458.16
553.417	19535.45
553.78	19816.57
554.143	19897.7
554.507	19864.48
554.87	20046.85
555.234	20214.52
555.597	20209.78
555.96	20391.7
556.323	20531.58
556.686	20595.76
557.05	20741.74
557.413	20700.61
557.776	20922.53
558.139	21158.68
558.502	21211.33
558.865	21369.97
559.228	21487.26
559.59	21595.51
559.953	21679.12
560.316	21913.01
560.679	21993.69
561.041	22262.38
561.404	22273
561.767	22476.84
562.129	22461.25
562.492	22794.12
562.854	22815.59
563.217	23043.6
563.579	23161.57
563.941	23309.36
564.304	23602.91
564.666	23685.85
565.028	23788.22
565.39	23921.77
565.753	24085.38
566.115	24220.75
566.477	24470.91
566.839	24667.97
567.201	24813.95
567.563	24894.4
567.925	25111.8
568.287	25185.92
568.648	25426.82
569.01	25480.38
569.372	25696.41
569.734	25768.96
570.095	26098.44
570.457	26336.17
570.819	26434.02
571.18	26504.98
571.542	26788.14
571.903	26838.98
572.265	27024.74
572.626	27226.54
572.987	27317.16
573.349	27519.64
573.71	27753.08
574.071	27884.15
574.432	27976.35
574.794	28361.43
575.155	28363.46
575.516	28354.65
575.877	28491.6
576.238	28692.72
576.599	28844.13
576.96	28934.3
577.32	29064.91
577.681	29278.92
578.042	29484.34
578.403	29548.52
578.763	29599.14
579.124	29829.64
579.485	29847.94
579.845	30114.15
580.206	30176.97
580.566	30141.27
580.927	30282.73
581.287	30528.6
581.648	30377.2
582.008	30755.26
582.368	30761.14
582.728	30838.2
583.089	30841.59
583.449	30806.11
583.809	30882.95
584.169	31170.62
584.529	31122.94
584.889	31341.01
585.249	31248.36
585.609	31221.47
585.969	31329.03
586.329	31285.65
586.688	31543.04
587.048	31625.07
587.408	31571.06
587.768	31576.03
588.127	31532.19
588.487	31628.24
588.846	31835.69
589.206	31779.19
589.565	31795.92
589.925	31774.45
590.284	31900.09
590.643	31896.7
591.003	31987.55
591.362	32170.82
591.721	32000.2
592.08	32115.45
592.44	32187.32
592.799	32117.94
593.158	32134.89
593.517	32095.57
593.876	32360.19
594.235	32218.28
594.593	32244.94
594.952	32357.26
595.311	32335.34
595.67	32398.39
596.029	32578.95
596.387	32617.36
596.746	32573.52
597.104	32389.12
597.463	32349.57
597.822	32695.55
598.18	32439.29
598.538	32498.72
598.897	32703.24
599.255	32472.06
599.613	33085.82
599.972	32765.83
600.33	32824.81
600.688	32760.18
601.046	32832.72
601.404	32960.63
601.762	32946.17
602.12	33020.06
602.478	32985.26
602.836	33252.83
603.194	33085.82
603.552	33053.51
603.91	32971.25
604.268	33037.92
604.625	32915.66
604.983	33112.49
605.341	33055.32
605.698	33156.33
606.056	33244.46
606.413	33168.08
606.771	33328.53
607.128	33342.77
607.485	33307.29
607.843	33389.32
608.2	33434.97
608.557	33613.04
608.914	33439.71
609.272	33680.39
609.629	33683.1
609.986	33696.2
610.343	33591.35
610.7	33813.72
611.057	33789.76
611.414	33694.62
611.771	33797.67
612.127	33898.91
612.484	33995.63
612.841	34059.13
613.198	33920.83
613.554	33989.98
613.911	34103.2
614.267	33994.95
614.624	34159.24
614.98	34170.77
615.337	34339.13
615.693	34222.74
616.05	34334.61
616.406	34360.14
616.762	34243.08
617.118	34316.98
617.475	34309.3
617.831	34494.83
618.187	34589.97
618.543	34553.36
618.899	34578.22
619.255	34628.16
619.611	34555.84
619.967	34591.55
620.323	34806.91
620.678	34580.25
621.034	34521.04
621.39	34535.05
621.746	34502.51
622.101	34890.98
622.457	34644.88
622.812	34860.47
623.168	34797.19
623.523	34897.53
623.879	34996.06
624.234	34671.09
624.589	34849.85
624.945	34730.98
625.3	34904.31
625.655	34791.99
626.01	34893.69
626.365	34898.66
626.72	34834.25
627.075	34896.62
627.43	34854.59
627.785	34575.28
628.14	34815.27
628.495	34700.7
628.85	34716.06
629.205	34672
629.559	34781.6
629.914	34637.2
630.269	34777.53
630.623	34632.9
630.978	34567.59
631.332	34735.5
631.687	34772.56
632.041	34439.01
632.396	34599.68
632.75	34557.2
633.104	34615.28
633.459	34443.08
633.813	34337.77
634.167	34367.37
634.521	34310.88
634.875	34373.7
635.229	34253.93
635.583	34227.49
635.937	34222.97
636.291	34086.7
636.645	34246.7
636.999	34130.77
637.352	34207.6
637.706	33886.48
638.06	34159.47
638.413	33933.71
638.767	33862.3
639.121	33997.89
639.474	33792.25
639.828	33796.54
640.181	33884.67
640.534	33781.17
640.888	33705.02
641.241	33438.58
641.594	33635.64
641.947	33746.82
642.301	33613.95
642.654	33702.98
643.007	33544.12
643.36	33636.54
643.713	33504.57
644.066	33655.3
644.419	33619.82
644.771	33362.43
645.124	32932.38
645.477	33031.14
645.83	32731.26
646.182	32601.77
646.535	32388.67
646.888	32592.5
647.24	32362.68
647.593	32581.21
647.945	32494.88
648.298	32343.02
648.65	32199.75
649.002	32169.69
649.355	32383.47
649.707	32201.55
650.059	32446.75
650.411	32923.57
650.763	32939.16
651.115	33177.12
651.467	33013.06
651.819	33046.05
652.171	33017.58
652.523	32959.05
652.875	33126.73
653.227	32840.63
653.578	33038.59
653.93	32999.27
654.282	32909.33
654.633	32861.65
654.985	32887.41
655.337	32814.19
655.688	32844.48
656.039	33046.73
656.391	32699.39
656.742	32736.23
657.094	32739.39
657.445	32990.46
657.796	33053.74
658.147	32883.8
658.498	32745.49
658.849	32840.41
659.2	32762.22
659.551	32688.77
659.902	32883.34
660.253	32782.33
660.604	32841.99
660.955	32684.25
661.306	32838.6
661.656	32673.18
662.007	32738.26
662.358	32651.26
662.708	32648.55
663.059	32621.88
663.409	32458.95
663.76	32725.83
664.11	32744.14
664.461	32696.91
664.811	32750.92
665.161	32782.1
665.511	32647.19
665.862	32837.02
666.212	32664.14
666.562	32730.58
666.912	32738.26
667.262	32672.95
667.612	32580.08
667.962	32631.83
668.312	32621.66
668.662	32689.23
669.011	32689.68
669.361	32535.1
669.711	32558.61
670.06	32530.59
670.41	32493.98
670.76	32436.58
671.109	32455.11
671.459	32518.61
671.808	32390.48
672.157	32494.88
672.507	32250.82
672.856	32280.42
673.205	32375.34
673.554	32466.86
673.904	32384.83
674.253	32319.52
674.602	32378.27
674.951	31906.42
675.3	31765.18
675.649	32227.77
675.998	32090.82
676.346	32243.59
676.695	32281.78
677.044	32049.69
677.393	32042.69
677.741	32000.66
678.09	31995.68
678.438	31937.83
678.787	31998.4
679.135	31877.04
679.484	31708.23
679.832	31850.6
680.181	31691.74
680.529	31857.16
680.877	31660.55
681.225	31672.08
681.573	31758.85
681.922	31643.38
682.27	31366.1
682.618	31493.78
682.966	31333.33
683.314	31357.51
683.661	31154.58
684.009	31184.63
684.357	31199.55
684.705	31080.91
685.053	30954.58
685.4	31132.43
685.748	30962.26
686.095	30821.93
686.443	30813.79
686.79	30660.8
687.138	30749.62
687.485	30675.49
687.832	30591.43
688.18	30579.45
688.527	30400.92
688.874	30437.98
689.221	30251.32
689.568	30235.28
689.915	30218.1
690.262	30240.02
690.609	29966.81
690.956	29885.01
691.303	29929.07
691.65	29739.02
691.997	29755.52
692.344	29496.31
692.69	29504
693.037	29558.01
693.383	29300.84
693.73	29491.57
694.077	29181.29
694.423	29278.02
694.769	29107.17
695.116	28932.26
695.462	28970.9
695.808	28723.68
696.155	28959.15
696.501	28665.83
696.847	28671.93
697.193	28508.54
697.539	28520.75
697.885	28214.54
698.231	28082.57
698.577	28159.4
698.923	28045.96
699.269	28019.74
699.614	27855.45
699.96	27784.95
700.306	27820.88
700.651	27572.3
700.997	27602.35
701.342	27415.24
701.688	27412.08
702.033	27308.12
702.379	27249.82
702.724	27206.66
703.069	27192.42
703.415	26841.24
703.76	26904.07
704.105	26932.77
704.45	26700.23
704.795	26698.2
705.14	26576.62
705.485	26569.39
705.83	26356.74
706.175	26360.35
706.52	26411.65
706.865	26298.21
707.209	26128.49
707.554	26075.16
707.899	26167.14
708.243	26100.47
708.588	25982.28
708.932	25896.18
709.277	25761.95
709.621	25740.93
709.966	25618.45
710.31	25784.55
710.654	25357.21
710.998	25540.26
711.342	25487.15
711.687	25432.47
712.031	25180.04
712.375	25203.77
712.719	25172.36
713.063	25224.56
713.407	25086.71
713.75	25064.11
714.094	25090.1
714.438	24994.51
714.782	25011.01
715.125	24858.47
715.469	24857.34
715.812	24724.46
716.156	24627.52
716.499	24713.39
716.843	24692.83
717.186	24664.35
717.53	24727.85
717.873	24528.31
718.216	24574.41
718.559	24372.38
718.902	24326.28
719.246	24336.9
719.589	24266.17
719.932	24192.5
720.275	24237.02
720.617	24230.24
720.96	24138.26
721.303	24158.83
721.646	24101.43
721.989	23947.53
722.331	24150.69
722.674	24020.07
723.016	24143.91
723.359	24046.06
723.701	24012.62
724.044	23896.24
724.386	23814.66
724.729	23943.69
725.071	23899.17
725.413	23835.45
725.755	23929.46
726.097	23813.53
726.439	23744.6
726.782	23766.97
727.124	23791.61
727.465	23596.36
727.807	23787.09
728.149	23683.81
728.491	23587.77
728.833	23825.96
729.175	23679.52
729.516	23594.1
729.858	23607.2
730.199	23577.83
730.541	23578.96
730.882	23595.68
731.224	23628.67
731.565	23442.69
731.906	23560.2
732.248	23534.66
732.589	23370.6
732.93	23339.19
733.271	23329.47
733.612	23398.17
733.953	23401.11
734.294	23422.58
734.635	23436.14
734.976	23537.15
735.317	23456.47
735.658	23325.86
735.999	23491.5
736.339	23313.88
736.68	23393.2
737.021	23347.78
737.361	23174.67
737.702	23358.17
738.042	23251.28
738.383	23296.48
738.723	23289.7
739.063	23266.65
739.404	23264.84
739.744	23336.02
740.084	23251.28
740.424	23163.83
740.764	23171.51
741.104	23316.59
741.444	23082.02
741.784	23078.4
742.124	23261.9
742.464	23194.11
742.804	23096.94
743.143	23131.74
743.483	23217.16
743.823	23146.88
744.162	23152.07
744.502	23159.31
744.841	22999.31
745.181	23157.27
745.52	22955.7
745.86	23158.63
746.199	23064.17
746.538	23047.67
746.877	23090.61
747.216	23098.06
747.556	23042.7
747.895	23200.66
748.234	22982.59
748.573	23034.34
748.911	22971.29
749.25	23023.26
749.589	22978.52
749.928	23048.57
750.267	23061.68
750.605	22974.45
750.944	22988.46
751.283	22862.59
751.621	22947.33
751.96	22814
752.298	22902.82
752.636	22857.17
752.975	22744.18
753.313	22756.83
753.651	22733.55
753.989	22725.65
754.327	22613.56
754.666	22466.44
755.004	22651.3
755.342	22597.29
755.679	22473.45
756.017	22505.99
756.355	22480.23
756.693	22409.95
757.031	22440.91
757.368	22274.81
757.706	22371.08
758.044	22142.38
758.381	22249.95
758.719	22218.09
759.056	22297.41
759.394	22231.42
759.731	21991.88
760.068	22068.04
760.405	21869.62
760.743	21907.36
761.08	21861.04
761.417	21785.78
761.754	21686.8
762.091	21834.14
762.428	21638.67
762.765	21539.91
763.102	21625.56
763.438	21437.09
763.775	21483.42
764.112	21445.68
764.449	21365.91
764.785	21263.99
765.122	21115.07
765.458	21197.55
765.795	21122.75
766.131	21061.06
766.467	21017.44
766.804	20926.14
767.14	20806.15
767.476	20826.49
767.812	20735.19
768.148	20768.41
768.485	20559.6
768.821	20520.05
769.157	20394.18
769.492	20388.98
769.828	20334.3
770.164	20106.28
770.5	20237.12
770.836	20150.57
771.171	20064.7
771.507	20034.87
771.842	19931.14
772.178	19831.26
772.513	19815.44
772.849	19676.23
773.184	19654.99
773.519	19591.72
773.855	19526.63
774.19	19442.79
774.525	19445.51
774.86	19410.93
775.195	19324.15
775.53	19264.49
775.865	19173.2
776.2	18965.07
776.535	18960.55
776.87	18933.65
777.205	18910.38
777.539	18767.56
777.874	18807.33
778.209	18631.29
778.543	18570.05
778.878	18533.67
779.212	18488.02
779.547	18338.87
779.881	18416.15
780.215	18296.61
780.55	18273.56
780.884	18153.34
781.218	18176.84
781.552	18077.63
781.886	17984.08
782.22	17888.03
782.554	17796.06
782.888	17718.32
783.222	17628.15
783.556	17566.46
783.889	17653.24
784.223	17408.95
784.557	17320.82
784.89	17464.54
785.224	17240.59
785.557	17296.64
785.891	17265.68
786.224	17104.1
786.558	17156.75
786.891	17018.22
787.224	16852.58
787.557	16951.33
787.891	16913.82
788.224	16855.97
788.557	16764.45
788.89	16766.48
789.223	16667.05
789.556	16604
789.888	16575.98
790.221	16496.88
790.554	16351.8
790.887	16323.78
791.219	16310.67
791.552	16240.17
791.884	16176.21
792.217	16016.22
792.549	16086.27
792.882	15910.01
793.214	15884.92
793.546	15855.54
793.879	15774.42
794.211	15729.67
794.543	15881.08
794.875	15660.52
795.207	15792.72
795.539	15686.28
795.871	15606.74
796.203	15555.44
796.535	15477.7
796.867	15425.72
797.198	15367.65
797.53	15328.78
797.862	15241.77
798.193	15316.8
798.525	15189.8
798.856	15157.71
799.188	15037.71
799.519	14956.36
799.85	14876.36
800.182	14924.04
800.513	14818.06
800.844	14766.98
801.175	14825.06
801.506	14856.47
801.837	14754.33
802.168	14601.34
802.499	14632.75
802.83	14533.09
803.161	14533.09
803.491	14498.74
803.822	14570.83
804.153	14531.51
804.483	14327.22
804.814	14285.64
805.145	14287.22
805.475	14243.61
805.805	14218.3
806.136	14072.09
806.466	14165.87
806.796	14080.45
807.126	13988.25
807.457	13959.32
807.787	13928.81
808.117	13945.09
808.447	13812.21
808.777	13882.26
809.107	13858.31
809.436	13815.82
809.766	13811.3
810.096	13775.82
810.426	13607.02
810.755	13721.14
811.085	13600.46
811.414	13637.07
811.744	13457.64
812.073	13490.86
812.403	13525.89
812.732	13316.85
813.061	13328.6
813.39	13266.23
813.719	13320.02
814.049	13312.33
814.378	13290.41
814.707	13216.97
815.036	13149.85
815.365	13153.02
815.693	13100.59
816.022	13050.19
816.351	12996.41
816.68	13019.46
817.008	12972.46
817.337	12894.94
817.665	12882.51
817.994	12924.32
818.322	12855.4
818.651	12797.77
818.979	12708.51
819.307	12720.48
819.636	12793.48
819.964	12557.33
820.292	12667.83
820.62	12659.47
820.948	12672.8
821.276	12655.63
821.604	12640.49
821.932	12603.2
822.259	12599.81
822.587	12611.34
822.915	12478.68
823.243	12580.38
823.57	12556.42
823.898	12601.62
824.225	12559.36
824.553	12565.01
824.88	12542.64
825.207	12588.96
825.535	12513.94
825.862	12561.84
826.189	12485.91
826.516	12587.15
826.843	12678.9
827.17	12554.61
827.497	12563.2
827.824	12592.58
828.151	12612.01
828.478	12568.85
828.805	12590.54
829.131	12449.98
829.458	12560.04
829.785	12524.78
830.111	12486.37
830.438	12535.86
830.764	12557.33
831.09	12501.06
831.417	12483.65
831.743	12495.18
832.069	12524.33
832.395	12579.47
832.722	12548.51
833.048	12477.78
833.374	12518.23
833.7	12343.32
834.026	12470.77
834.351	12408.85
834.677	12419.25
835.003	12447.27
835.329	12480.27
835.654	12366.6
835.98	12338.57
836.306	12405.01
836.631	12354.39
836.956	12370.21
837.282	12379.7
837.607	12268.52
837.932	12325.24
838.258	12251.8
838.583	12139.71
838.908	12135.19
839.233	12171.8
839.558	12168.41
839.883	12060.39
840.208	12019.26
840.533	12106.72
840.858	12125.02
841.182	12077.34
841.507	11996.66
841.832	11969.54
842.156	11921.64
842.481	11998.02
842.805	11949.43
843.13	11849.55
843.454	11828.3
843.778	11766.16
844.103	11743.56
844.427	11719.16
844.751	11710.57
845.075	11694.07
845.399	11678.93
845.723	11628.76
846.047	11630.34
846.371	11532.49
846.695	11471.7
847.019	11321.2
847.343	11390.35
847.666	11308.54
847.99	11291.6
848.313	11254.76
848.637	11177.47
848.96	11227.42
849.284	11176.57
849.607	11089.12
849.931	11047.31
850.254	10946.07
850.577	10908.55
850.9	10884.6
851.223	10832.17
851.546	10752.17
851.869	10763.25
852.192	10785.17
852.515	10708.11
852.838	10672.4
853.161	10672.85
853.483	10628.11
853.806	10557.83
854.129	10553.08
854.451	10515.34
854.774	10402.13
855.096	10388.34
855.419	10374.11
855.741	10359.64
856.063	10323.03
856.385	10213.21
856.708	10221.57
857.03	10245.52
857.352	10207.33
857.674	10173.21
857.996	10088.46
858.318	10084.85
858.64	10083.94
858.961	10079.65
859.283	10058.63
859.605	9938.19
859.926	9984.96
860.248	9921.46
860.57	9901.35
860.891	9926.89
861.212	9819.54
861.534	9841.92
861.855	9805.31
862.176	9850.96
862.498	9815.25
862.819	9832.65
863.14	9686.44
863.461	9732.31
863.782	9719.43
864.103	9728.02
864.424	9662.71
864.745	9650.96
865.065	9591.53
865.386	9539.78
865.707	9582.49
866.027	9663.39
866.348	9572.77
866.668	9531.42
866.989	9543.62
867.309	9441.02
867.63	9480.34
867.95	9474.02
868.27	9469.95
868.59	9492.1
868.91	9401.48
869.23	9433.79
869.55	9309.73
869.87	9421.14
870.19	9419.55
870.51	9402.61
870.83	9432.44
871.15	9311.99
871.469	9313.79
871.789	9343.4
872.109	9327.81
872.428	9252.78
872.748	9251.65
873.067	9222.95
873.386	9263.63
873.706	9283.06
874.025	9229.28
874.344	9179.33
874.663	9200.8
874.982	9114.93
875.301	9195.83
875.62	9131.2
875.939	9180.69
876.258	9076.51
876.577	9137.75
876.896	9028.83
877.214	9065.89
877.533	8989.06
877.852	8972.56
878.17	8981.15
878.489	9044.65
878.807	9004.2
879.125	9013.69
879.444	8896.18
879.762	8902.96
880.08	8897.99
880.398	8827.03
880.716	8933.47
881.034	8838.33
881.352	8814.15
881.67	8771.89
881.988	8761.04
882.306	8776.63
882.624	8797.2
882.941	8767.59
883.259	8665.22
883.577	8678.56
883.894	8688.73
884.212	8661.38
884.529	8672.46
884.846	8657.77
885.164	8581.84
885.481	8565.79
885.798	8601.5
886.115	8577.99
886.432	8521.27
886.75	8492.12
887.067	8460.03
887.383	8451.9
887.7	8457.55
888.017	8469.07
888.334	8469.3
888.651	8413.25
888.967	8413.93
889.284	8326.25
889.6	8340.71
889.917	8246.93
890.233	8326.02
890.55	8251.45
890.866	8248.29
891.182	8197.21
891.498	8204.45
891.815	8101.85
892.131	8112.02
892.447	8096.65
892.763	8043.09
893.079	8083.77
893.395	8052.58
893.71	7994.06
894.026	7962.87
894.342	7937.79
894.657	7984.34
894.973	7895.07
895.289	7930.55
895.604	7862.99
895.92	7764
896.235	7758.36
896.55	7804
896.865	7789.99
897.181	7722.2
897.496	7751.58
897.811	7725.14
898.126	7697.11
898.441	7624.35
898.756	7657.34
899.071	7596.55
899.386	7539.6
899.7	7486.5
900.015	7454.18
900.33	7412.6
900.644	7391.81
900.959	7463.67
901.273	7405.6
901.588	7376.9
901.902	7307.97
902.216	7351.36
902.531	7298.71
902.845	7290.35
903.159	7190.01
903.473	7210.57
903.787	7194.75
904.101	7171.48
904.415	7109.11
904.729	7135.55
905.042	7067.3
905.356	7040.18
905.67	7052.16
905.984	7029.79
906.297	7009.9
906.611	6917.47
906.924	6928.32
907.237	6894.88
907.551	6882.45
907.864	6822.56
908.177	6829.57
908.491	6805.84
908.804	6779.85
909.117	6788.21
909.43	6693.3
909.743	6663.47
910.056	6718.61
910.368	6661.21
910.681	6696.69
910.994	6578.95
911.307	6512.74
911.619	6455.11
911.932	6545.28
912.244	6474.32
912.557	6452.63
912.869	6420.76
913.181	6470.93
913.494	6391.84
913.806	6348.67
914.118	6319.75
914.43	6282.24
914.742	6258.06
915.054	6298.05
915.366	6226.64
915.678	6195.01
915.99	6200.88
916.302	6136.48
916.613	6098.74
916.925	6108.91
917.236	6120.21
917.548	6099.64
917.859	6024.39
918.171	6027.78
918.482	5978.52
918.794	5934.67
919.105	6009.47
919.416	5865.07
919.727	5881.79
920.038	5848.35
920.349	5803.6
920.66	5788.24
920.971	5780.55
921.282	5797.28
921.593	5761.12
921.903	5692.19
922.214	5682.25
922.525	5619.65
922.835	5684.51
923.146	5602.03
923.456	5624.4
923.767	5565.87
924.077	5507.79
924.387	5531.75
924.697	5521.35
925.008	5516.15
925.318	5477.96
925.628	5426.21
925.938	5426.21
926.248	5347.8
926.558	5303.05
926.867	5372.43
927.177	5352.32
927.487	5298.53
927.796	5253.34
928.106	5292.21
928.416	5270.96
928.725	5220.57
929.034	5169.5
929.344	5196.84
929.653	5165.66
929.962	5136.5
930.271	5124.75
930.581	5107.58
930.89	5074.13
931.199	5044.53
931.508	5023.06
931.817	5012.21
932.125	4996.17
932.434	4980.58
932.743	4954.14
933.051	4893.57
933.36	4893.8
933.669	4868.26
933.977	4863.74
934.286	4859.67
934.594	4816.06
934.902	4764.31
935.21	4747.59
935.519	4776.74
935.827	4803.4
936.135	4702.39
936.443	4684.99
936.751	4689.28
937.059	4630.3
937.367	4612.68
937.674	4632.34
937.982	4601.38
938.29	4574.03
938.597	4602.05
938.905	4523.86
939.213	4490.87
939.52	4516.86
939.827	4471.44
940.135	4452.45
940.442	4424.43
940.749	4428.05
941.056	4418.33
941.363	4360.93
941.67	4396.41
941.977	4323.19
942.284	4323.19
942.591	4340.14
942.898	4316.41
943.205	4323.19
943.511	4267.83
943.818	4281.38
944.125	4223.31
944.431	4191.22
944.738	4197.09
945.044	4168.39
945.35	4119.35
945.657	4159.35
945.963	4109.41
946.269	4116.42
946.575	4095.85
946.881	4067.38
947.187	4075.29
947.493	4052.01
947.799	4052.24
948.105	3961.84
948.41	3949.87
948.716	3975.86
949.022	3914.84
949.327	3955.97
949.633	3911.45
949.938	3913.26
950.244	3864.45
950.549	3857.89
950.854	3875.75
951.16	3847.5
951.465	3807.72
951.77	3784.22
952.075	3760.49
952.38	3796.88
952.685	3762.98
952.99	3702.87
953.294	3702.87
953.599	3711.23
953.904	3694.51
954.209	3616.77
954.513	3678.46
954.818	3632.59
955.122	3620.39
955.426	3616.77
955.731	3585.58
956.035	3562.31
956.339	3577.67
956.643	3540.16
956.948	3511.24
957.252	3556.88
957.556	3476.66
957.86	3505.81
958.163	3478.47
958.467	3465.13
958.771	3438.02
959.075	3400.73
959.378	3402.99
959.682	3436.21
959.985	3406.15
960.289	3362.54
960.592	3367.96
960.896	3352.14
961.199	3333.16
961.502	3318.47
961.805	3337.91
962.108	3255.87
962.411	3244.8
962.714	3268.08
963.017	3218.36
963.32	3221.53
963.623	3256.55
963.926	3201.41
964.228	3160.06
964.531	3209.1
964.833	3153.28
965.136	3190.79
965.438	3132.26
965.741	3138.14
966.043	3114.86
966.345	3091.13
966.648	3131.36
966.95	3076.44
967.252	3076.67
967.554	3053.85
967.856	3052.26
968.158	3022.66
968.46	3028.08
968.761	3012.04
969.063	3000.74
969.365	2963.45
969.666	2944.7
969.968	2944.92
970.269	2929.1
970.571	2894.75
970.872	2898.6
971.174	2892.27
971.475	2873.06
971.776	2870.57
972.077	2814.08
972.378	2832.84
972.679	2784.7
972.98	2829.45
973.281	2799.62
973.582	2808.2
973.883	2798.71
974.183	2767.3
974.484	2749.67
974.785	2758.71
975.085	2741.76
975.386	2769.79
975.686	2693.63
975.986	2731.82
976.287	2716.45
976.587	2657.92
976.887	2639.17
977.187	2643.46
977.487	2646.63
977.787	2633.07
978.087	2637.36
978.387	2615.21
978.687	2606.63
978.987	2614.31
979.286	2563.69
979.586	2546.51
979.885	2541.32
980.185	2543.35
980.484	2487.76
980.784	2491.6
981.083	2493.41
981.382	2512.39
981.682	2478.49
981.981	2507.87
982.28	2476.01
982.579	2412.28
982.878	2452.96
983.177	2454.77
983.475	2422.22
983.774	2450.02
984.073	2401.43
984.372	2401.66
984.67	2383.13
984.969	2376.35
985.267	2379.06
985.566	2326.41
985.864	2318.72
986.162	2325.05
986.461	2331.61
986.759	2330.48
987.057	2281.66
987.355	2316.46
987.653	2284.6
987.951	2240.76
988.249	2288.44
988.547	2272.62
988.844	2219.52
989.142	2208.67
989.44	2215.9
989.737	2209.35
990.035	2215.22
990.332	2218.16
990.63	2187.65
990.927	2190.59
991.224	2175.45
991.521	2144.04
991.819	2147.43
992.116	2111.5
992.413	2118.73
992.71	2119.63
993.006	2088
993.303	2079.18
993.6	2112.18
993.897	2081.22
994.193	2054.1
994.49	2047.32
994.787	2066.08
995.083	2015.68
995.379	2002.35
995.676	2009.81
995.972	2050.48
996.268	2009.81
996.565	1968.68
996.861	1988.34
997.157	1976.13
997.453	1969.13
997.749	1952.86
998.044	1921.22
998.34	1950.6
998.636	1939.75
998.932	1890.71
999.227	1909.92
999.523	1887.1
999.818	1878.74
1000.114	1858.4
1000.409	1874.89
1000.704	1852.97
1001	1837.61
1001.295	1843.48
1001.59	1840.54
1001.885	1845.29
1002.18	1825.4
1002.475	1794.44
1002.77	1790.6
1003.065	1778.17
1003.359	1779.3
1003.654	1779.76
1003.949	1728.91
1004.243	1743.6
1004.538	1757.16
1004.832	1738.85
1005.127	1724.39
1005.421	1715.58
1005.715	1689.14
1006.009	1694.33
1006.304	1678.97
1006.598	1660.66
1006.892	1673.77
1007.186	1676.93
1007.48	1646.65
1007.773	1636.03
1008.067	1612.53
1008.361	1597.39
1008.655	1617.27
1008.948	1589.7
1009.242	1577.5
1009.535	1582.7
1009.829	1564.17
1010.122	1555.35
1010.415	1553.55
1010.708	1542.7
1011.001	1525.52
1011.295	1572.08
1011.588	1517.62
1011.881	1510.16
1012.173	1506.99
1012.466	1504.51
1012.759	1511.06
1013.052	1492.98
1013.344	1475.58
1013.637	1459.76
1013.93	1454.57
1014.222	1420.89
1014.514	1457.96
1014.807	1442.36
1015.099	1473.32
1015.391	1410.05
1015.683	1392.2
1015.976	1381.57
1016.268	1391.07
1016.56	1388.58
1016.851	1375.25
1017.143	1367.11
1017.435	1337.96
1017.727	1344.29
1018.018	1364.85
1018.31	1348.35
1018.602	1337.51
1018.893	1314
1019.185	1292.76
1019.476	1305.42
1019.767	1301.8
1020.058	1300.67
1020.35	1270.62
1020.641	1271.07
1020.932	1277.4
1021.223	1258.41
1021.514	1235.81
1021.804	1242.59
1022.095	1228.13
1022.386	1236.27
1022.677	1214.12
1022.967	1188.36
1023.258	1194.69
1023.548	1170.73
1023.839	1197.4
1024.129	1181.81
1024.419	1166.21
1024.709	1168.02
1025	1160.34
1025.29	1145.2
1025.58	1176.61
1025.87	1141.35
1026.16	1140.45
1026.449	1170.05
1026.739	1120.56
1027.029	1088.93
1027.319	1111.3
1027.608	1108.81
1027.898	1069.94
1028.187	1069.49
1028.477	1072.2
1028.766	1075.82
1029.055	1043.73
1029.344	1067.68
1029.634	1062.71
1029.923	1023.84
1030.212	1022.49
1030.501	1016.39
1030.79	1032.88
1031.078	1021.13
1031.367	1014.13
1031.656	1007.35
1031.945	968.25
1032.233	995.82
1032.522	989.27
1032.81	976.16
1033.099	988.59
1033.387	959.21
1033.675	977.74
1033.963	948.36
1034.251	948.82
1034.54	935.03
1034.828	950.17
1035.116	922.15
1035.403	930.74
1035.691	933.9
1035.979	930.74
1036.267	916.73
1036.554	910.85
1036.842	905.2
1037.129	907.24
1037.417	895.94
1037.704	862.49
1037.992	895.26
1038.279	845.77
1038.566	866.79
1038.853	866.79
1039.14	866.79
