Data from tablewood_brown_FLMS001491_072.txt Node
Date: Tue Feb 07 11:10:59 GMT 2017
User: dcchb
Spectrometer: FLMS00149
Trigger mode: 0
Integration Time (sec): 2.000000E-2
Scans to average: 10
Electric dark correction enabled: true
Nonlinearity correction enabled: false
Boxcar width: 0
XAxis mode: Wavelengths
Number of Pixels in Spectrum: 2048
>>>>>Begin Spectral Data<<<<<
341.393	-12.51
341.776	-12.51
342.16	-12.51
342.543	-69.91
342.927	-76.01
343.31	-70.37
343.693	-67.65
344.077	-71.95
344.46	-76.24
344.843	-46.86
345.226	-34.89
345.61	-32.85
345.993	-19.29
346.376	-12.74
346.759	14.6
347.142	35.85
347.525	58.22
347.908	61.16
348.291	67.03
348.674	89.18
349.057	106.81
349.44	130.31
349.823	154.71
350.206	154.94
350.588	213.47
350.971	220.93
351.354	210.98
351.737	222.06
352.119	257.08
352.502	277.42
352.884	279.23
353.267	286.91
353.65	291.43
354.032	295.05
354.414	286.46
354.797	301.83
355.179	317.2
355.562	329.4
355.944	318.1
356.326	348.38
356.709	334.82
357.091	339.12
357.473	339.34
357.855	334.37
358.238	337.99
358.62	330.53
359.002	363.3
359.384	360.81
359.766	334.37
360.148	331.21
360.53	352.45
360.912	342.96
361.294	342.73
361.676	319.45
362.057	317.65
362.439	326.23
362.821	338.89
363.203	332.11
363.584	330.3
363.966	341.15
364.348	340.7
364.729	342.51
365.111	306.8
365.493	327.82
365.874	339.79
366.256	318.55
366.637	324.2
367.019	321.94
367.4	308.16
367.781	333.69
368.163	316.07
368.544	322.62
368.925	307.03
369.306	330.75
369.688	343.18
370.069	309.51
370.45	345.67
370.831	301.15
371.212	312.68
371.593	328.95
371.974	323.07
372.355	343.41
372.736	324.88
373.117	332.56
373.498	331.21
373.879	342.28
374.26	313.13
374.641	334.37
375.021	331.66
375.402	340.47
375.783	328.49
376.163	327.14
376.544	337.08
376.925	335.27
377.305	356.97
377.686	319.68
378.066	324.2
378.447	349.51
378.827	339.34
379.208	352
379.588	368.72
379.968	356.06
380.349	369.85
380.729	360.58
381.109	337.99
381.489	347.48
381.87	354.26
382.25	375.72
382.63	361.94
383.01	371.43
383.39	343.64
383.77	373.92
384.15	336.18
384.53	373.24
384.91	347.7
385.29	372.79
385.67	385.89
386.049	387.02
386.429	386.57
386.809	384.76
387.189	379.34
387.568	359
387.948	379.34
388.328	389.06
388.707	401.94
389.087	389.51
389.466	394.48
389.846	395.16
390.225	397.64
390.605	428.6
390.984	412.11
391.363	389.51
391.743	412.11
392.122	424.54
392.501	434.71
392.881	441.71
393.26	423.86
393.639	438.77
394.018	439.23
394.397	443.75
394.776	430.86
395.155	459.79
395.534	431.99
395.913	436.51
396.292	473.12
396.671	454.37
397.05	455.95
397.429	443.97
397.808	451.88
398.186	465.44
398.565	480.81
398.944	462.05
399.323	463.41
399.701	481.71
400.08	473.35
400.458	496.4
400.837	483.07
401.215	502.73
401.594	474.71
401.972	497.98
402.351	512.67
402.729	505.21
403.107	510.41
403.486	515.83
403.864	503.86
404.242	510.41
404.62	521.26
404.999	516.74
405.377	519.22
405.755	507.7
406.133	543.86
406.511	550.86
406.889	553.8
407.267	596.74
407.645	543.4
408.023	564.42
408.401	586.11
408.779	550.86
409.156	555.38
409.534	592.89
409.912	596.96
410.29	599.22
410.667	595.15
411.045	592.22
411.422	594.02
411.8	593.8
412.178	598.32
412.555	606
412.933	636.73
413.31	617.98
413.687	643.29
414.065	644.87
414.442	644.42
414.819	651.2
415.197	670.63
415.574	671.08
415.951	678.99
416.328	679.45
416.705	679.9
417.082	684.87
417.46	685.55
417.837	689.16
418.214	690.97
418.591	694.59
418.967	703.17
419.344	730.52
419.721	724.64
420.098	700.91
420.475	717.86
420.852	740.01
421.228	746.56
421.605	736.39
421.982	753.12
422.358	763.74
422.735	755.38
423.111	744.08
423.488	808.03
423.864	774.13
424.241	809.16
424.617	792.44
424.994	794.7
425.37	817.52
425.746	795.6
426.123	828.14
426.499	840.8
426.875	813.91
427.251	831.53
427.627	833.11
428.003	860.23
428.379	858.2
428.756	875.37
429.132	876.73
429.507	873.56
429.883	883.51
430.259	909.72
430.635	916.95
431.011	934.13
431.387	949.95
431.763	948.59
432.138	961.92
432.514	974.35
432.89	968.7
433.265	989.49
433.641	1020.23
434.016	989.27
434.392	1022.71
434.767	1050.51
435.143	1036.5
435.518	1056.84
435.894	1067.01
436.269	1091.64
436.644	1082.82
437.02	1084.41
437.395	1121.47
437.77	1109.94
438.145	1131.18
438.52	1121.24
438.895	1145.65
439.271	1151.98
439.646	1164.18
440.021	1154.69
440.395	1211.41
440.77	1178.19
441.145	1184.29
441.52	1231.97
441.895	1229.04
442.27	1226.78
442.645	1258.41
443.019	1266.32
443.394	1262.48
443.769	1281.46
444.143	1265.64
444.518	1272.2
444.892	1276.04
445.267	1294.12
445.641	1294.34
446.016	1295.7
446.39	1310.84
446.764	1322.59
447.139	1349.94
447.513	1319.65
447.887	1360.33
448.262	1358.52
448.636	1362.37
449.01	1401.46
449.384	1363.27
449.758	1396.71
450.132	1414.34
450.506	1430.84
450.88	1434.68
451.254	1434.23
451.628	1449.37
452.002	1448.46
452.376	1495.7
452.75	1484.4
453.123	1516.26
453.497	1503.6
453.871	1527.56
454.244	1530.04
454.618	1581.79
454.992	1578.4
455.365	1581.34
455.739	1619.99
456.112	1629.93
456.486	1610.27
456.859	1646.2
457.232	1666.76
457.606	1701.34
457.979	1710.6
458.352	1730.27
458.725	1778.63
459.099	1790.15
459.472	1840.32
459.845	1804.61
460.218	1833.31
460.591	1828.57
460.964	1876.7
461.337	1887.78
461.71	1922.35
462.083	1960.77
462.456	1989.69
462.829	1969.13
463.201	2018.62
463.574	2005.96
463.947	2068.34
464.32	2127.32
464.692	2099.3
465.065	2170.25
465.438	2151.5
465.81	2183.13
466.183	2197.15
466.555	2244.6
466.928	2260.19
467.3	2267.88
467.672	2353.53
468.045	2365.73
468.417	2405.5
468.789	2406.18
469.161	2437.59
469.534	2520.75
469.906	2486.86
470.278	2577.93
470.65	2578.6
471.022	2657.7
471.394	2695.44
471.766	2737.47
472.138	2787.86
472.51	2851.14
472.882	2909.9
473.253	2919.84
473.625	2981.76
473.997	3042.77
474.369	3046.84
474.74	3141.98
475.112	3191.47
475.484	3229.89
475.855	3294.74
476.227	3321.18
476.598	3447.28
476.97	3430.11
477.341	3547.84
477.713	3625.58
478.084	3701.74
478.455	3763.66
478.827	3832.58
479.198	3927.5
479.569	3956.87
479.94	4095.4
480.311	4115.06
480.682	4249.97
481.053	4341.72
481.424	4384.43
481.795	4441.38
482.166	4549.85
482.537	4625.33
482.908	4729.96
483.279	4786.68
483.65	4868.94
484.021	4962.95
484.391	5033.46
484.762	5133.79
485.133	5219.44
485.503	5247.01
485.874	5348.7
486.244	5446.1
486.615	5545.76
486.985	5628.24
487.356	5707.56
487.726	5719.76
488.097	5831.85
488.467	5892.64
488.837	5991.85
489.207	6091.51
489.578	6155.23
489.948	6290.15
490.318	6322.23
490.688	6387.09
491.058	6475.45
491.428	6569.69
491.798	6628.89
492.168	6751.6
492.538	6815.1
492.908	6853.52
493.278	7019.62
493.648	7030.92
494.017	7133.96
494.387	7168.31
494.757	7240.85
495.126	7323.79
495.496	7368.08
495.866	7415.31
496.235	7534.41
496.605	7573.73
496.974	7622.77
497.344	7750.9
497.713	7777.34
498.082	7884.91
498.452	7893.27
498.821	7922.87
499.19	7996.99
499.559	8091.23
499.928	8178.23
500.298	8229.76
500.667	8317.89
501.036	8278.12
501.405	8373.93
501.774	8393.14
502.143	8521.5
502.512	8548.84
502.88	8684.66
503.249	8643.3
503.618	8755.84
503.987	8773.02
504.356	8827.25
504.724	8888.27
505.093	8919
505.462	8973.69
505.83	9050.75
506.199	9192.44
506.567	9229.05
506.936	9248.49
507.304	9367.35
507.672	9435.6
508.041	9534.13
508.409	9586.56
508.777	9705.65
509.145	9683.28
509.514	9789.49
509.882	9861.58
510.25	9894.57
510.618	9977.96
510.986	10024.96
511.354	10143.15
511.722	10231.51
512.09	10332.52
512.458	10353.54
512.826	10428.57
513.193	10552.86
513.561	10556.47
513.929	10661.56
514.297	10762.57
514.664	10869.69
515.032	10962.11
515.4	11015.67
515.767	11090.7
516.135	11160.75
516.502	11157.59
516.869	11358.03
517.237	11445.94
517.604	11421.99
517.972	11591.47
518.339	11673.96
518.706	11697.23
519.073	11776.55
519.44	11897.91
519.808	12025.81
520.175	12046.38
520.542	12175.19
520.909	12289.76
521.276	12274.62
521.643	12405.01
522.009	12553.94
522.376	12744.44
522.743	12756.19
523.11	12906.24
523.477	12983.53
523.843	13101.94
524.21	13247.7
524.577	13378.09
524.943	13315.5
525.31	13520.01
525.676	13633
526.043	13730.4
526.409	13791.87
526.776	13955.25
527.142	14025.08
527.508	14131.3
527.874	14283.83
528.241	14401.34
528.607	14370.38
528.973	14538.29
529.339	14575.35
529.705	14689.92
530.071	14840.43
530.437	14881.11
530.803	14969.01
531.169	15023.48
531.535	15048.11
531.901	15095.11
532.267	15257.14
532.632	15437.25
532.998	15390.92
533.364	15467.76
533.73	15591.37
534.095	15659.62
534.461	15761.53
534.826	15756.34
535.192	15843.11
535.557	16055.09
535.923	15980.96
536.288	16065.26
536.653	16204.69
537.019	16124.69
537.384	16267.06
537.749	16326.72
538.114	16340.5
538.479	16379.82
538.845	16512.7
539.21	16445.58
539.575	16528.97
539.94	16606.94
540.305	16752.02
540.67	16741.17
541.034	16764.45
541.399	16943.2
541.764	16955.85
542.129	17115.17
542.494	17021.84
542.858	17125.34
543.223	17189.52
543.587	17226.81
543.952	17308.39
544.316	17323.08
544.681	17356.3
545.045	17443.98
545.41	17539.57
545.774	17660.92
546.138	17713.57
546.503	17749.73
546.867	17706.34
547.231	17926
547.595	17908.6
547.959	18012.77
548.324	18109.27
548.688	18099.1
549.052	18180.91
549.416	18249.38
549.779	18255.71
550.143	18338.87
550.507	18593.78
550.871	18616.37
551.235	18525.3
551.599	18809.59
551.962	18901.57
552.326	18939.3
552.689	19063.14
553.053	19018.17
553.417	19055.69
553.78	19470.59
554.143	19445.96
554.507	19454.77
554.87	19673.3
555.234	19819.51
555.597	19702.22
555.96	19890.47
556.323	20003.23
556.686	20110.8
557.05	20258.37
557.413	20345.59
557.776	20488.64
558.139	20638.24
558.502	20685.47
558.865	20728.86
559.228	21012.02
559.59	21020.15
559.953	21214.72
560.316	21449.75
560.679	21475.96
561.041	21693.81
561.404	21743.3
561.767	22043.4
562.129	21925.44
562.492	22326.11
562.854	22304.64
563.217	22494.92
563.579	22514.8
563.941	22853.33
564.304	22995.69
564.666	23043.38
565.028	23349.36
565.39	23275.46
565.753	23583.02
566.115	23717.48
566.477	23884.48
566.839	23950.7
567.201	24189.56
567.563	24229.56
567.925	24561.53
568.287	24653.05
568.648	24806.27
569.01	24973.72
569.372	25347.27
569.734	25208.52
570.095	25471.56
570.457	25626.59
570.819	25751.55
571.18	25919.23
571.542	26138.21
571.903	26231.99
572.265	26366.68
572.626	26587.92
572.987	26697.74
573.349	26923.5
573.71	27130.05
574.071	27236.04
574.432	27353.09
574.794	27528
575.155	27692.97
575.516	27636.93
575.877	27892.74
576.238	28067.2
576.599	28180.42
576.96	28309.68
577.32	28373.41
577.681	28659.5
578.042	28745.6
578.403	28755.77
578.763	28830.57
579.124	28977.91
579.485	29192.82
579.845	29431.46
580.206	29433.27
580.566	29467.16
580.927	29602.07
581.287	29877.55
581.648	29702.41
582.008	29960.26
582.368	29950.99
582.728	29955.96
583.089	29933.14
583.449	30099.91
583.809	30197.54
584.169	30287.03
584.529	30220.82
584.889	30631.65
585.249	30448.15
585.609	30386.91
585.969	30683.63
586.329	30546
586.688	30713.46
587.048	30694.7
587.408	30774.25
587.768	30665.55
588.127	30778.09
588.487	30808.6
588.846	31052.88
589.206	30776.51
589.565	30753.68
589.925	31110.28
590.284	31012.21
590.643	31040
591.003	31245.2
591.362	31260.79
591.721	31196.16
592.08	31206.78
592.44	31312.31
592.799	31347.11
593.158	31185.31
593.517	31338.53
593.876	31375.36
594.235	31384.17
594.593	31413.55
594.952	31517.05
595.311	31394.34
595.67	31510.5
596.029	31668.46
596.387	31633.43
596.746	31824.62
597.104	31527.9
597.463	31507.56
597.822	31673.21
598.18	31716.82
598.538	31620.55
598.897	31878.17
599.255	31647.9
599.613	32058.06
599.972	31839.53
600.33	31902.35
600.688	31824.16
601.046	32063.48
601.404	32176.7
601.762	32161.1
602.12	32152.29
602.478	32213.31
602.836	32246.52
603.194	31875.01
603.552	31983.48
603.91	32005.85
604.268	32169.01
604.625	32010.37
604.983	32379.18
605.341	32060.32
605.698	32334.43
606.056	32354.32
606.413	32292.85
606.771	32478.38
607.128	32487.87
607.485	32345.73
607.843	32420.53
608.2	32565.84
608.557	32585.5
608.914	32581.43
609.272	32693.74
609.629	32509.12
609.986	32893.74
610.343	32773.74
610.7	32882.21
611.057	32773.97
611.414	32852.61
611.771	32920.86
612.127	32980.52
612.484	32876.11
612.841	33113.17
613.198	32938.94
613.554	32957.24
613.911	33128.99
614.267	33236.78
614.624	33154.07
614.98	33082.21
615.337	33283.11
615.693	33275.42
616.05	33233.17
616.406	33386.83
616.762	33261.87
617.118	33361.75
617.475	33321.52
617.831	33454.4
618.187	33552.48
618.543	33613.27
618.899	33654.17
619.255	33550.9
619.611	33505.25
619.967	33538.92
620.323	33628.41
620.678	33671.12
621.034	33506.38
621.39	33547.28
621.746	33571.91
622.101	34006.7
622.457	33608.75
622.812	33616.88
623.168	33696.88
623.523	33736.2
623.879	33964.22
624.234	33599.71
624.589	33691.68
624.945	33836.99
625.3	33824.34
625.655	33804.22
626.01	33805.13
626.365	33747.5
626.72	33810.55
627.075	33867.27
627.43	33765.81
627.785	33728.29
628.14	33724.45
628.495	33856.65
628.85	33829.53
629.205	33590.67
629.559	33672.02
629.914	33621.63
630.269	33682.19
630.623	33502.54
630.978	33487.62
631.332	33722.87
631.687	33618.24
632.041	33544.8
632.396	33600.61
632.75	33442.43
633.104	33506.38
633.459	33262.77
633.813	33290.57
634.167	33286.72
634.521	33230.23
634.875	33352.94
635.229	33297.34
635.583	33127.63
635.937	33213.51
636.291	32983
636.645	33237.46
636.999	33012.83
637.352	33202.88
637.706	32911.59
638.06	32968.77
638.413	32946.39
638.767	32952.95
639.121	33029.1
639.474	32784.59
639.828	32841.76
640.181	32906.85
640.534	32719.51
640.888	32543.69
641.241	32616.23
641.594	32603.35
641.947	32728.09
642.301	32511.15
642.654	32610.58
643.007	32686.29
643.36	32558.61
643.713	32481.55
644.066	32646.06
644.419	32366.52
644.771	32298.73
645.124	32064.83
645.477	32019.41
645.83	31657.16
646.182	31613.32
646.535	31435.25
646.888	31390.5
647.24	31334.23
647.593	31637.05
647.945	31332.65
648.298	31178.3
648.65	31169.49
649.002	31243.39
649.355	31279.09
649.707	31203.16
650.059	31429.82
650.411	31753.2
650.763	31741.68
651.115	32133.76
651.467	31910.71
651.819	32057.83
652.171	31985.97
652.523	31864.16
652.875	31883.37
653.227	31830.04
653.578	32020.09
653.93	31796.59
654.282	31760.21
654.633	31622.13
654.985	31710.49
655.337	31881.79
655.688	31812.41
656.039	31835.46
656.391	31607.9
656.742	31853.31
657.094	31827.78
657.445	31920.21
657.796	31861
658.147	31902.81
658.498	31769.25
658.849	31852.86
659.2	31734.9
659.551	31662.59
659.902	31679.08
660.253	31703.49
660.604	31748.68
660.955	31503.27
661.306	31707.1
661.656	31645.64
662.007	31698.29
662.358	31581.23
662.708	31682.92
663.059	31714.34
663.409	31479.31
663.76	31741.68
664.11	31833.65
664.461	31658.07
664.811	31813.77
665.161	31711.62
665.511	31633.43
665.862	31636.15
666.212	31656.03
666.562	31609.93
666.912	31452.42
667.262	31487.45
667.612	31549.14
667.962	31451.07
668.312	31484.51
668.662	31686.31
669.011	31613.1
669.361	31617.61
669.711	31494.91
670.06	31525.64
670.41	31438.41
670.76	31450.61
671.109	31409.48
671.459	31293.56
671.808	31338.75
672.157	31261.24
672.507	31142.37
672.856	31075.71
673.205	31261.24
673.554	31285.42
673.904	31189.15
674.253	31378.53
674.602	31237.74
674.951	30832.1
675.3	30591.88
675.649	31085.65
675.998	30951.19
676.346	30950.74
676.695	31122.49
677.044	31006.33
677.393	31009.04
677.741	31000.91
678.09	30893.79
678.438	30862.38
678.787	30842.49
679.135	30871.19
679.484	30610.86
679.832	30898.54
680.181	30648.37
680.529	30724.98
680.877	30644.08
681.225	30491.54
681.573	30749.84
681.922	30328.38
682.27	30287.25
682.618	30290.64
682.966	30309.4
683.314	30298.1
683.661	30153.02
684.009	30102.63
684.357	30008.39
684.705	29968.84
685.053	29979.24
685.4	29971.56
685.748	29738.34
686.095	29814.95
686.443	29757.55
686.79	29710.32
687.138	29680.72
687.485	29674.16
687.832	29491.12
688.18	29635.52
688.527	29382.65
688.874	29383.1
689.221	29239.82
689.568	29195.76
689.915	29138.13
690.262	29026.04
690.609	28978.59
690.956	28864.24
691.303	28845.94
691.65	28751.48
691.997	28557.81
692.344	28510.58
692.69	28493.63
693.037	28571.14
693.383	28231.04
693.73	28372.28
694.077	28135.45
694.423	28220.64
694.769	28017.71
695.116	27978.61
695.462	27890.71
695.808	27784.5
696.155	27873.08
696.501	27600.55
696.847	27602.13
697.193	27376.14
697.539	27505.63
697.885	27265.64
698.231	27227.45
698.577	27257.05
698.923	27112.65
699.269	26954.46
699.614	26834.92
699.96	26792.43
700.306	26648.48
700.651	26582.04
700.997	26540.91
701.342	26535.04
701.688	26413.23
702.033	26283.52
702.379	26330.3
702.724	26241.03
703.069	26251.43
703.415	25855.05
703.76	25892.34
704.105	25988.84
704.45	25823.64
704.795	25644.21
705.14	25566.7
705.485	25434.5
705.83	25357.44
706.175	25311.79
706.52	25316.09
706.865	25145.47
707.209	25193.83
707.554	25097.33
707.899	25155.86
708.243	24915.19
708.588	24990.22
708.932	24775.76
709.277	24874.06
709.621	24808.08
709.966	24575.09
710.31	24620.28
710.654	24464.81
710.998	24479.95
711.342	24477.69
711.687	24370.35
712.031	24323.57
712.375	24316.56
712.719	24290.8
713.063	24199.96
713.407	24298.26
713.75	23994.76
714.094	24036.35
714.438	23880.42
714.782	24026.4
715.125	23899.4
715.469	24037.7
715.812	23824.15
716.156	23749.8
716.499	23870.93
716.843	23884.94
717.186	23566.75
717.53	23757.03
717.873	23644.27
718.216	23582.35
718.559	23680.87
718.902	23392.97
719.246	23490.82
719.589	23460.54
719.932	23420.54
720.275	23379.19
720.617	23298.96
720.96	23337.38
721.303	23225.52
721.646	23351.17
721.989	23168.35
722.331	23179.42
722.674	23173.54
723.016	23138.29
723.359	23114.56
723.701	23032.98
724.044	22908.24
724.386	22857.39
724.729	22954.79
725.071	22917.73
725.413	22982.14
725.755	22936.49
726.097	22934.23
726.439	22780.79
726.782	22835.7
727.124	22905.75
727.465	22801.12
727.807	22769.49
728.149	22811.74
728.491	22689.94
728.833	22756.83
729.175	22621.92
729.516	22662.37
729.858	22602.26
730.199	22698.98
730.541	22648.13
730.882	22526.1
731.224	22585.99
731.565	22445.43
731.906	22604.97
732.248	22664.18
732.589	22496.05
732.93	22460.34
733.271	22474.58
733.612	22625.99
733.953	22616.04
734.294	22408.82
734.635	22441.36
734.976	22403.39
735.317	22497.18
735.658	22402.04
735.999	22476.16
736.339	22365.88
736.68	22518.65
737.021	22318.42
737.361	22353.23
737.702	22381.93
738.042	22306
738.383	22373.79
738.723	22359.1
739.063	22253.12
739.404	22450.62
739.744	22341.93
740.084	22319.78
740.424	22296.28
740.764	22307.35
741.104	22326.33
741.444	22337.18
741.784	22193.46
742.124	22286.11
742.464	22239.56
742.804	22324.53
743.143	22242.04
743.483	22236.17
743.823	22080.01
744.162	22194.59
744.502	22239.33
744.841	22124.53
745.181	22244.08
745.52	22164.98
745.86	22268.03
746.199	22220.12
746.538	22143.06
746.877	22139.45
747.216	22125.44
747.556	22079.11
747.895	22115.72
748.234	22090.41
748.573	21955.72
748.911	21974.25
749.25	22076.17
749.589	21996.63
749.928	22110.07
750.267	22126.79
750.605	21974.7
750.944	21915.95
751.283	21784.65
751.621	21875.95
751.96	21819.91
752.298	21790.75
752.636	21936.29
752.975	21790.75
753.313	21755.5
753.651	21810.87
753.989	21656.97
754.327	21730.19
754.666	21663.75
755.004	21627.14
755.342	21696.75
755.679	21611.32
756.017	21491.33
756.355	21611.55
756.693	21421.5
757.031	21539.01
757.368	21353.7
757.706	21362.07
758.044	21364.1
758.381	21315.29
758.719	21222.41
759.056	21372.69
759.394	21312.58
759.731	21168.4
760.068	21218.11
760.405	21055.41
760.743	20982.87
761.08	21014.28
761.417	20901.06
761.754	20821.06
762.091	20779.71
762.428	20831.46
762.765	20626.72
763.102	20726.15
763.438	20575.87
763.775	20505.36
764.112	20516.44
764.449	20449.77
764.785	20318.25
765.122	20284.81
765.458	20167.07
765.795	20177.92
766.131	20103.34
766.467	20049.56
766.804	19998.94
767.14	19926.85
767.476	19885.49
767.812	19758.94
768.148	19798.49
768.485	19679.85
768.821	19553.07
769.157	19535.67
769.492	19468.33
769.828	19435.34
770.164	19284.38
770.5	19225.4
770.836	19301.78
771.171	19242.57
771.507	19118.06
771.842	19001.9
772.178	19039.87
772.513	18952.41
772.849	18916.71
773.184	18808.69
773.519	18758.97
773.855	18686.43
774.19	18598.75
774.525	18584.06
774.86	18495.25
775.195	18524.17
775.53	18437.4
775.865	18409.83
776.2	18273.56
776.535	18147.91
776.87	18128.25
777.205	18010.06
777.539	17906.79
777.874	17982.49
778.209	17799
778.543	17778.2
778.878	17607.81
779.212	17554.03
779.547	17537.76
779.881	17582.96
780.215	17493.01
780.55	17572.56
780.884	17327.37
781.218	17223.64
781.552	17228.61
781.886	17098.67
782.22	17179.58
782.554	17119.92
782.888	16915.4
783.222	16863.2
783.556	16840.38
783.889	16812.35
784.223	16645.35
784.557	16573.49
784.89	16649.19
785.224	16486.04
785.557	16532.81
785.891	16413.27
786.224	16367.39
786.558	16280.62
786.891	16193.39
787.224	16188.42
787.557	16148.64
787.891	16102.54
788.224	16044.01
788.557	15964.24
788.89	15914.07
789.223	15813.74
789.556	15807.64
789.888	15859.16
790.221	15759.73
790.554	15631.14
790.887	15597.92
791.219	15565.61
791.552	15499.62
791.884	15395.89
792.217	15378.49
792.549	15387.31
792.882	15176.92
793.214	15127.65
793.546	15100.76
793.879	15062.57
794.211	15045.17
794.543	15021.89
794.875	15019.18
795.207	15017.37
795.539	14912.74
795.871	14857.83
796.203	14756.59
796.535	14811.05
796.867	14635.69
797.198	14684.05
797.53	14587.33
797.862	14579.19
798.193	14601.57
798.525	14436.37
798.856	14508.91
799.188	14362.02
799.519	14356.6
799.85	14244.74
800.182	14241.57
800.513	14254
800.844	14097.17
801.175	14126.55
801.506	14046.33
801.837	14087
802.168	13996.84
802.499	13956.84
802.83	13938.31
803.161	13865.31
803.491	13780.8
803.822	13824.64
804.153	13676.17
804.483	13669.84
804.814	13567.92
805.145	13565.66
805.475	13612.44
805.805	13432.33
806.136	13550.07
806.466	13482.95
806.796	13480.92
807.126	13413.12
807.457	13259
807.787	13320.69
808.117	13164.09
808.447	13158.21
808.777	13176.74
809.107	13096.75
809.436	13142.62
809.766	13046.35
810.096	13033.24
810.426	13043.64
810.755	12971.55
811.085	13048.39
811.414	12945.34
811.744	12858.11
812.073	12796.87
812.403	12847.71
812.732	12733.59
813.061	12781.5
813.39	12689.53
813.719	12599.58
814.049	12769.97
814.378	12651.79
814.707	12583.31
815.036	12607.72
815.365	12566.36
815.693	12350.78
816.022	12388.52
816.351	12442.07
816.68	12268.29
817.008	12391.68
817.337	12248.41
817.665	12229.2
817.994	12275.52
818.322	12248.86
818.651	12181.06
818.979	12099.03
819.307	12165.7
819.636	12074.17
819.964	12058.58
820.292	12082.31
820.62	12051.12
820.948	12063.1
821.276	12082.99
821.604	12057.68
821.932	12014.97
822.259	12038.47
822.587	12081.41
822.915	11948.75
823.243	12023.55
823.57	11966.15
823.898	12007.06
824.225	11866.72
824.553	11905.36
824.88	11984.01
825.207	11986.49
825.535	11912.37
825.862	11979.49
826.189	11958.24
826.516	11948.98
826.843	12010.22
827.17	12045.02
827.497	11895.87
827.824	11923.22
828.151	11982.43
828.478	11941.97
828.805	11981.3
829.131	11932.48
829.458	11930.67
829.785	11767.97
830.111	11846.16
830.438	11875.76
830.764	11925.03
831.09	11874.86
831.417	11854.97
831.743	11888.19
832.069	11926.83
832.395	11848.64
832.722	11851.58
833.048	11761.41
833.374	11837.57
833.7	11775.42
834.026	11798.02
834.351	11841.41
834.677	11840.28
835.003	11847.97
835.329	11810
835.654	11748.31
835.98	11736.78
836.306	11678.48
836.631	11680.06
836.956	11706.27
837.282	11697.69
837.607	11619.27
837.932	11662.66
838.258	11603.9
838.583	11628.54
838.908	11508.99
839.233	11567.07
839.558	11513.28
839.883	11532.27
840.208	11532.27
840.533	11479.61
840.858	11404.14
841.182	11433.29
841.507	11347.64
841.832	11335.89
842.156	11319.17
842.481	11300.64
842.805	11280.3
843.13	11222.67
843.454	11237.13
843.778	11206.4
844.103	11168.66
844.427	11187.19
844.751	11104.48
845.075	11102.67
845.399	11057.03
845.723	11058.83
846.047	11046.86
846.371	10955.33
846.695	10939.74
847.019	10804.83
847.343	10852.51
847.666	10730.71
847.99	10644.83
848.313	10638.28
848.637	10631.05
848.96	10595.79
849.284	10680.54
849.607	10488.23
849.931	10476.93
850.254	10466.76
850.577	10387.66
850.9	10322.13
851.223	10254.79
851.546	10221.34
851.869	10196.48
852.192	10292.53
852.515	10226.54
852.838	10090.5
853.161	10108.35
853.483	10106.32
853.806	10056.37
854.129	10013.89
854.451	9942.93
854.774	9885.53
855.096	9925.53
855.419	9790.39
855.741	9788.81
856.063	9775.7
856.385	9761.24
856.708	9741.58
857.03	9736.61
857.352	9752.88
857.674	9631.98
857.996	9646.89
858.318	9579.78
858.64	9522.83
858.961	9579.32
859.283	9530.74
859.605	9491.87
859.926	9439.44
860.248	9443.06
860.57	9429.27
860.891	9462.94
861.212	9369.61
861.534	9340.91
861.855	9303.17
862.176	9333.68
862.498	9307.02
862.819	9300.91
863.14	9334.13
863.461	9174.59
863.782	9241.03
864.103	9170.52
864.424	9149.73
864.745	9241.03
865.065	9094.59
865.386	9114.7
865.707	9092.33
866.027	9151.99
866.348	9086
866.668	9105.89
866.989	9082.84
867.309	9020.7
867.63	9081.48
867.95	9053.24
868.27	8867.7
868.59	8982.05
868.91	8918.78
869.23	8903.86
869.55	8892.34
869.87	8932.11
870.19	8887.82
870.51	8848.95
870.83	8881.72
871.15	8824.99
871.469	8853.02
871.789	8824.54
872.109	8786.12
872.428	8775.5
872.748	8821.38
873.067	8784.32
873.386	8739.8
873.706	8763.07
874.025	8768.95
874.344	8769.18
874.663	8724.66
874.982	8695.05
875.301	8702.74
875.62	8611.21
875.939	8634.94
876.258	8622.97
876.577	8601.5
876.896	8587.94
877.214	8553.59
877.533	8523.98
877.852	8482.18
878.17	8599.92
878.489	8515.4
878.807	8549.07
879.125	8442.18
879.444	8512.46
879.762	8493.7
880.08	8413.71
880.398	8362.63
880.716	8462.52
881.034	8351.79
881.352	8394.72
881.67	8352.24
881.988	8390.43
882.306	8393.37
882.624	8306.14
882.941	8288.51
883.259	8228.63
883.577	8272.47
883.894	8255.52
884.212	8326.7
884.529	8232.69
884.846	8225.24
885.164	8156.76
885.481	8096.43
885.798	8157.89
886.115	8088.29
886.432	8117.44
886.75	8037.9
887.067	8097.33
887.383	8070.44
887.7	8071.57
888.017	8008.29
888.334	7926.94
888.651	7970.33
888.967	7971.01
889.284	7972.14
889.6	7922.87
889.917	7844.91
890.233	7831.8
890.55	7826.38
890.866	7870.44
891.182	7813.04
891.498	7738.47
891.815	7766.04
892.131	7739.37
892.447	7658.7
892.763	7689.66
893.079	7706.61
893.395	7626.16
893.71	7563.78
894.026	7590.22
894.342	7533.28
894.657	7431.81
894.973	7519.72
895.289	7547.97
895.604	7479.49
895.92	7362.66
896.235	7393.17
896.55	7437.46
896.865	7323.11
897.181	7359.04
897.496	7374.86
897.811	7276.79
898.126	7324.24
898.441	7222.55
898.756	7194.3
899.071	7184.81
899.386	7201.31
899.7	7117.02
900.015	7014.19
900.33	7103.46
900.644	7007.87
900.959	6983.01
901.273	6980.3
901.588	6949.34
901.902	6940.75
902.216	6903.46
902.531	6948.21
902.845	6896.23
903.159	6860.53
903.473	6790.25
903.787	6810.36
904.101	6777.36
904.415	6706.41
904.729	6730.81
905.042	6704.37
905.356	6740.08
905.67	6657.14
905.984	6661.66
906.297	6616.24
906.611	6571.95
906.924	6583.92
907.237	6541.44
907.551	6504.83
907.864	6505.51
908.177	6498.5
908.491	6455.56
908.804	6420.31
909.117	6381.22
909.43	6381.89
909.743	6352.97
910.056	6335.57
910.368	6302.35
910.681	6230.71
910.994	6220.32
911.307	6212.41
911.619	6171.05
911.932	6166.76
912.244	6164.05
912.557	6121.79
912.869	6097.61
913.181	6052.19
913.494	6060.09
913.806	6058.51
914.118	6009.47
914.43	5955.69
914.742	5968.8
915.054	5965.86
915.366	5918.86
915.678	5878.4
915.99	5829.59
916.302	5838.86
916.613	5815.81
916.925	5772.42
917.236	5808.12
917.548	5769.93
917.859	5743.49
918.171	5636.83
918.482	5700.1
918.794	5663.72
919.105	5632.31
919.416	5606.55
919.727	5635.47
920.038	5566.55
920.349	5530.39
920.66	5454.46
920.971	5540.79
921.282	5452.43
921.593	5423.28
921.903	5416.04
922.214	5385.76
922.525	5345.31
922.835	5313
923.146	5295.6
923.456	5293.11
923.767	5323.84
924.077	5338.08
924.387	5273.67
924.697	5260.34
925.008	5226.9
925.318	5176.95
925.628	5196.39
925.938	5116.62
926.248	5074.13
926.558	5102.38
926.867	5062.16
927.177	5074.81
927.487	5011.99
927.796	4995.94
928.106	4946.9
928.416	4985.55
928.725	4910.07
929.034	4903.52
929.344	4974.93
929.653	4907.81
929.962	4881.82
930.271	4804.53
930.581	4838.21
930.89	4820.13
931.199	4791.2
931.508	4751.2
931.817	4738.77
932.125	4736.97
932.434	4694.71
932.743	4650.19
933.051	4654.93
933.36	4628.04
933.669	4633.24
933.977	4547.37
934.286	4624.88
934.594	4580.36
934.902	4520.02
935.21	4493.13
935.519	4516.86
935.827	4507.37
936.135	4489.51
936.443	4459.91
936.751	4447.71
937.059	4421.04
937.367	4381.27
937.674	4370.2
937.982	4374.72
938.29	4317.32
938.597	4376.75
938.905	4309.86
939.213	4270.09
939.52	4273.7
939.827	4251.78
940.135	4258.11
940.442	4225.11
940.749	4214.49
941.056	4199.58
941.363	4188.28
941.67	4132.91
941.977	4128.85
942.284	4080.94
942.591	4084.33
942.898	4071.67
943.205	4082.97
943.511	4056.76
943.818	4011.79
944.125	3972.69
944.431	4017.21
944.738	3949.42
945.044	3934.05
945.35	3978.34
945.657	3937.66
945.963	3943.99
946.269	3882.3
946.575	3888.4
946.881	3888.85
947.187	3848.18
947.493	3835.97
947.799	3805.24
948.105	3784
948.41	3784.45
948.716	3791.68
949.022	3748.74
949.327	3758.69
949.633	3683.21
949.938	3715.3
950.244	3678.01
950.549	3671.91
950.854	3716.88
951.16	3632.59
951.465	3653.15
951.77	3640.72
952.075	3550.1
952.38	3599.82
952.685	3544.23
952.99	3532.7
953.294	3518.92
953.599	3542.42
953.904	3521.4
954.209	3472.37
954.513	3495.87
954.818	3421.75
955.122	3455.64
955.426	3404.12
955.731	3419.03
956.035	3379.26
956.339	3406.83
956.643	3374.29
956.948	3373.16
957.252	3360.28
957.556	3348.3
957.86	3312.14
958.163	3250.68
958.467	3305.37
958.771	3232.6
959.075	3288.87
959.378	3261.07
959.682	3214.97
959.985	3245.03
960.289	3185.37
960.592	3195.31
960.896	3183.11
961.199	3171.36
961.502	3160.74
961.805	3159.61
962.108	3096.78
962.411	3110.34
962.714	3071.02
963.017	3053.39
963.32	3055.2
963.623	3056.78
963.926	3061.53
964.228	3053.17
964.531	3024.47
964.833	3033.73
965.136	2981.08
965.438	2989.22
965.741	2969.55
966.043	2992.83
966.345	2914.19
966.648	2940.85
966.95	2951.48
967.252	2936.11
967.554	2927.3
967.856	2881.2
968.158	2852.04
968.46	2841.87
968.761	2848.2
969.063	2816.79
969.365	2856.34
969.666	2798.03
969.968	2814.3
970.269	2810.46
970.571	2805.72
970.872	2767.53
971.174	2740.86
971.475	2750.8
971.776	2726.85
972.077	2726.17
972.378	2683.69
972.679	2714.42
972.98	2689.11
973.281	2677.13
973.582	2616.57
973.883	2684.36
974.183	2643.01
974.484	2633.29
974.785	2633.07
975.085	2616.8
975.386	2613.63
975.686	2567.98
975.986	2588.32
976.287	2553.97
976.587	2522.11
976.887	2548.77
977.187	2533.18
977.487	2520.75
977.787	2520.07
978.087	2485.95
978.387	2499.74
978.687	2469.68
978.987	2476.46
979.286	2439.4
979.586	2453.64
979.885	2422.22
980.185	2390.59
980.484	2400.08
980.784	2388.33
981.083	2383.58
981.382	2397.37
981.682	2392.62
981.981	2345.39
982.28	2366.86
982.579	2324.83
982.878	2338.38
983.177	2334.54
983.475	2312.4
983.774	2337.48
984.073	2285.96
984.372	2278.5
984.67	2251.83
984.969	2251.38
985.267	2237.82
985.566	2247.99
985.864	2226.98
986.162	2195.34
986.461	2212.29
986.759	2186.52
987.057	2203.93
987.355	2151.27
987.653	2186.3
987.951	2150.82
988.249	2132.06
988.547	2170.48
988.844	2146.07
989.142	2142.68
989.44	2137.03
989.737	2098.17
990.035	2099.97
990.332	2055
990.63	2102.23
990.927	2049.58
991.224	2062.01
991.521	2080.09
991.819	2063.14
992.116	2029.92
992.413	2016.13
992.71	2027.43
993.006	2014.78
993.303	1984.27
993.6	1989.92
993.897	1991.28
994.193	1969.35
994.49	1956.7
994.787	1967.55
995.083	1959.64
995.379	1907.89
995.676	1924.61
995.972	1901.79
996.268	1906.76
996.565	1890.71
996.861	1851.84
997.157	1908.11
997.453	1847.78
997.749	1875.8
998.044	1844.84
998.34	1840.77
998.636	1819.98
998.932	1820.66
999.227	1792.86
999.523	1808
999.818	1804.84
1000.114	1761.68
1000.409	1776.59
1000.704	1742.69
1001	1776.37
1001.295	1745.63
1001.59	1737.95
1001.885	1725.07
1002.18	1698.4
1002.475	1735.91
1002.77	1730.72
1003.065	1694.33
1003.359	1671.06
1003.654	1695.24
1003.949	1673.09
1004.243	1665.41
1004.538	1670.83
1004.832	1659.76
1005.127	1623.15
1005.421	1654.34
1005.715	1630.61
1006.009	1620.89
1006.304	1629.7
1006.598	1591.74
1006.892	1601.91
1007.186	1551.29
1007.48	1556.26
1007.773	1569.37
1008.067	1554
1008.361	1559.42
1008.655	1516.49
1008.948	1511.97
1009.242	1496.6
1009.535	1504.51
1009.829	1496.6
1010.122	1485.75
1010.415	1463.38
1010.708	1454.11
1011.001	1488.69
1011.295	1474.9
1011.588	1465.87
1011.881	1450.5
1012.173	1427.9
1012.466	1447.11
1012.759	1439.65
1013.052	1430.39
1013.344	1410.5
1013.637	1421.57
1013.93	1376.83
1014.222	1369.37
1014.514	1397.39
1014.807	1358.07
1015.099	1341.35
1015.391	1335.47
1015.683	1349.48
1015.976	1339.32
1016.268	1346.32
1016.56	1329.6
1016.851	1322.37
1017.143	1287.57
1017.435	1273.78
1017.727	1281.92
1018.018	1289.37
1018.31	1293.21
1018.602	1278.98
1018.893	1229.94
1019.185	1229.26
1019.476	1228.13
1019.767	1247.79
1020.058	1226.55
1020.35	1190.17
1020.641	1198.08
1020.932	1231.3
1021.223	1196.95
1021.514	1183.61
1021.804	1179.09
1022.095	1183.16
1022.386	1207.34
1022.677	1185.87
1022.967	1164.63
1023.258	1140
1023.548	1171.86
1023.839	1148.13
1024.129	1144.52
1024.419	1124.86
1024.709	1131.18
1025	1116.5
1025.29	1113.33
1025.58	1113.33
1025.87	1095.25
1026.16	1097.97
1026.449	1076.95
1026.739	1062.49
1027.029	1054.8
1027.319	1056.84
1027.608	1044.41
1027.898	1047.57
1028.187	1029.27
1028.477	1050.51
1028.766	1010.74
1029.055	1022.71
1029.344	1005.54
1029.634	986.1
1029.923	1004.63
1030.212	1001.24
1030.501	978.42
1030.79	1004.63
1031.078	994.92
1031.367	982.04
1031.656	960.57
1031.945	975.48
1032.233	941.36
1032.522	955.82
1032.81	952.43
1033.099	933.9
1033.387	938.87
1033.675	937.52
1033.963	910.63
1034.251	894.36
1034.54	891.19
1034.828	904.07
1035.116	905.43
1035.403	897.29
1035.691	905.43
1035.979	900.46
1036.267	869.95
1036.554	878.76
1036.842	850.06
1037.129	862.27
1037.417	851.87
1037.704	831.53
1037.992	844.41
1038.279	834.24
1038.566	833.34
1038.853	833.34
1039.14	833.34
