Data from tablewood_brown_FLMS001491_013.txt Node
Date: Tue Feb 07 11:10:05 GMT 2017
User: dcchb
Spectrometer: FLMS00149
Trigger mode: 0
Integration Time (sec): 2.000000E-2
Scans to average: 10
Electric dark correction enabled: true
Nonlinearity correction enabled: false
Boxcar width: 0
XAxis mode: Wavelengths
Number of Pixels in Spectrum: 2048
>>>>>Begin Spectral Data<<<<<
341.393	-16.38
341.776	-16.38
342.16	-16.38
342.543	-50.28
342.927	-81.92
343.31	-78.98
343.693	-59.77
344.077	-56.83
344.46	-68.81
344.843	-47.34
345.226	-33.56
345.61	-29.26
345.993	-11.41
346.376	-22.49
346.759	3.28
347.142	21.36
347.525	53.9
347.908	60.45
348.291	71.52
348.674	98.64
349.057	99.32
349.44	135.02
349.823	149.71
350.206	164.18
350.588	187.45
350.971	214.57
351.354	241.69
351.737	240.78
352.119	266.09
352.502	256.83
352.884	290.73
353.267	310.16
353.65	313.78
354.032	311.97
354.414	310.16
354.797	310.16
355.179	322.59
355.562	336.83
355.944	342.48
356.326	350.84
356.709	349.26
357.091	336.6
357.473	341.57
357.855	368.01
358.238	354.23
358.62	356.26
359.002	363.72
359.384	357.62
359.766	355.36
360.148	348.35
360.53	349.71
360.912	354
361.294	356.71
361.676	343.15
362.057	343.38
362.439	351.52
362.821	327.11
363.203	355.13
363.584	334.12
363.966	326.66
364.348	333.66
364.729	325.53
365.111	329.6
365.493	339.31
365.874	352.19
366.256	322.82
366.637	324.85
367.019	346.77
367.4	323.72
367.781	343.61
368.163	331.18
368.544	341.57
368.925	330.95
369.306	330.27
369.688	342.25
370.069	337.28
370.45	325.53
370.831	337.73
371.212	321.01
371.593	333.44
371.974	348.13
372.355	339.31
372.736	319.2
373.117	338.41
373.498	339.99
373.879	358.07
374.26	352.42
374.641	339.77
375.021	334.34
375.402	338.86
375.783	326.66
376.163	336.83
376.544	372.53
376.925	343.61
377.305	347.45
377.686	373.66
378.066	344.96
378.447	348.8
378.827	344.06
379.208	354.68
379.588	371.4
379.968	367.11
380.349	369.14
380.729	378.41
381.109	389.26
381.489	384.74
381.87	370.27
382.25	377.28
382.63	380.44
383.01	381.57
383.39	385.19
383.77	378.18
384.15	388.58
384.53	404.62
384.91	382.93
385.29	390.61
385.67	401.01
386.049	396.03
386.429	404.85
386.809	399.42
387.189	400.55
387.568	420.44
387.948	401.68
388.328	405.75
388.707	423.38
389.087	418.18
389.466	408.01
389.846	407.33
390.225	417.05
390.605	428.58
390.984	448.91
391.363	449.14
391.743	450.27
392.122	453.21
392.501	436.71
392.881	447.33
393.26	453.89
393.639	467.45
394.018	440.1
394.397	464.96
394.776	452.53
395.155	477.84
395.534	441.46
395.913	501.79
396.292	466.77
396.671	446.2
397.05	472.42
397.429	483.72
397.808	477.16
398.186	492.76
398.565	480.1
398.944	476.03
399.323	488.91
399.701	510.61
400.08	506.99
400.458	502.7
400.837	523.49
401.215	515.81
401.594	504.96
401.972	505.18
402.351	519.2
402.729	525.75
403.107	522.36
403.486	555.58
403.864	521.46
404.242	557.61
404.62	542.02
404.999	533.43
405.377	539.99
405.755	532.98
406.133	570.95
406.511	561.68
406.889	559.42
407.267	567.78
407.645	577.72
408.023	579.98
408.401	590.83
408.779	610.27
409.156	608.01
409.534	596.26
409.912	605.07
410.29	632.86
410.667	595.35
411.045	634.45
411.422	623.15
411.8	645.52
412.178	643.71
412.555	651.62
412.933	648.01
413.31	659.53
413.687	649.81
414.065	669.7
414.442	695.46
414.819	690.49
415.197	700.21
415.574	703.15
415.951	706.99
416.328	723.71
416.705	753.77
417.082	685.52
417.46	722.13
417.837	730.72
418.214	716.48
418.591	718.96
418.967	725.29
419.344	769.58
419.721	756.7
420.098	745.63
420.475	772.52
420.852	758.29
421.228	763.03
421.605	779.53
421.982	803.03
422.358	770.04
422.735	797.38
423.111	769.13
423.488	803.26
423.864	812.97
424.241	824.5
424.617	836.48
424.994	823.37
425.37	838.51
425.746	802.35
426.123	852.75
426.499	843.03
426.875	879.41
427.251	876.7
427.627	907.66
428.003	873.76
428.379	884.84
428.756	901.78
429.132	893.2
429.507	919.41
429.883	932.97
430.259	940.88
430.635	957.83
431.011	950.14
431.387	982.46
431.763	993.08
432.138	998.5
432.514	1008.9
432.89	998.05
433.265	1045.74
433.641	1042.57
434.016	1024.27
434.392	1035.79
434.767	1069.24
435.143	1073.53
435.518	1083.25
435.894	1077.37
436.269	1083.47
436.644	1109.46
437.02	1122.12
437.395	1139.74
437.77	1158.5
438.145	1140.65
438.52	1188.33
438.895	1170.93
439.271	1171.83
439.646	1181.32
440.021	1205.28
440.395	1195.34
440.77	1195.11
441.145	1199.86
441.52	1247.99
441.895	1255.67
442.27	1245.05
442.645	1264.94
443.019	1255.45
443.394	1259.51
443.769	1293.41
444.143	1272.62
444.518	1307.88
444.892	1315.11
445.267	1321.43
445.641	1326.63
446.016	1341.55
446.39	1322.79
446.764	1374.54
447.139	1335.22
447.513	1360.3
447.887	1346.97
448.262	1385.16
448.636	1367.99
449.01	1352.85
449.384	1385.61
449.758	1413.41
450.132	1419.51
450.506	1428.55
450.88	1452.28
451.254	1462.67
451.628	1466.52
452.002	1489.11
452.376	1457.02
452.75	1490.47
453.123	1483.24
453.497	1533.86
453.871	1516.01
454.244	1558.04
454.618	1581.77
454.992	1554.65
455.365	1564.59
455.739	1598.94
456.112	1626.96
456.486	1658.83
456.859	1662.22
457.232	1660.86
457.606	1692.95
457.979	1711.25
458.352	1765.94
458.725	1722.78
459.099	1776.11
459.472	1799.39
459.845	1825.83
460.218	1828.77
460.591	1865.37
460.964	1859.73
461.337	1887.75
461.71	1888.65
462.083	1897.01
462.456	1943.11
462.829	1953.73
463.201	2007.29
463.574	2016.33
463.947	2019.72
464.32	2054.52
464.692	2047.06
465.065	2077.12
465.438	2124.12
465.81	2175.87
466.183	2212.94
466.555	2218.81
466.928	2271.01
467.3	2250.45
467.672	2272.37
468.045	2318.92
468.417	2356.66
468.789	2358.7
469.161	2377.68
469.534	2421.29
469.906	2480.05
470.278	2541.52
470.65	2547.84
471.022	2642.08
471.394	2640.72
471.766	2667.39
472.138	2703.54
472.51	2781.96
472.882	2826.48
473.253	2853.15
473.625	2899.25
473.997	2939.47
474.369	2972.69
474.74	3025.12
475.112	3041.84
475.484	3155.96
475.855	3170.65
476.227	3276.64
476.598	3344.43
476.97	3376.07
477.341	3404.54
477.713	3530.19
478.084	3559.79
478.455	3647.47
478.827	3705.55
479.198	3784.42
479.569	3811.09
479.94	3934.92
480.311	3989.84
480.682	4022.61
481.053	4161.13
481.424	4240.68
481.795	4269.83
482.166	4360.45
482.537	4470.5
482.908	4492.65
483.279	4566.32
483.65	4659.88
484.021	4716.6
484.391	4841.57
484.762	4890.61
485.133	4888.57
485.503	4985.97
485.874	5089.47
486.244	5174.67
486.615	5285.85
486.985	5353.87
487.356	5426.64
487.726	5452.4
488.097	5588.21
488.467	5674.09
488.837	5760.19
489.207	5798.83
489.578	5900.75
489.948	5963.12
490.318	6038.15
490.688	6061.87
491.058	6155.21
491.428	6264.81
491.798	6328.31
492.168	6437.91
492.538	6475.65
492.908	6557.23
493.278	6607.4
493.648	6665.7
494.017	6753.16
494.387	6802.87
494.757	6827.96
495.126	6963.77
495.496	6980.27
495.866	7037.22
496.235	7150.66
496.605	7166.93
496.974	7193.37
497.344	7330.32
497.713	7394.27
498.082	7411.22
498.452	7494.15
498.821	7505.45
499.19	7475.4
499.559	7653.7
499.928	7617.54
500.298	7721.04
500.667	7790.64
501.036	7853.01
501.405	7987.47
501.774	7887.82
502.143	8021.15
502.512	7999.9
502.88	8121.26
503.249	8144.76
503.618	8147.24
503.987	8258.2
504.356	8376.39
504.724	8364.86
505.093	8464.98
505.462	8460.91
505.83	8497.29
506.199	8582.71
506.567	8761.01
506.936	8740.45
507.304	8780.22
507.672	8887.79
508.041	8960.56
508.409	9034.45
508.777	9048.69
509.145	9178.4
509.514	9205.29
509.882	9302.69
510.25	9260.21
510.618	9394.67
510.986	9438.51
511.354	9522.57
511.722	9644.38
512.09	9714.89
512.458	9763.02
512.826	9772.06
513.193	9876.92
513.561	9934.09
513.929	10038.95
514.297	10113.29
514.664	10212.95
515.032	10178.15
515.4	10328.2
515.767	10394.87
516.135	10466.96
516.502	10459.95
516.869	10655.43
517.237	10754.86
517.604	10646.84
517.972	10818.13
518.339	10885.93
518.706	10939.26
519.073	11046.6
519.44	11060.61
519.808	11207.5
520.175	11220.61
520.542	11471.22
520.909	11474.61
521.276	11436.65
521.643	11609.75
522.009	11743.98
522.376	11878.9
522.743	11844.55
523.11	12074.6
523.477	12130.42
523.843	12285.44
524.21	12402.27
524.577	12447.7
524.943	12567.92
525.31	12642.27
525.676	12769.49
526.043	12857.4
526.409	12870.51
526.776	13104.63
527.142	13100.79
527.508	13203.83
527.874	13254
528.241	13381.68
528.607	13510.27
528.973	13599.53
529.339	13581.9
529.705	13733.09
530.071	13858.96
530.437	13896.7
530.803	13967.66
531.169	14049.46
531.535	14097.82
531.901	14230.25
532.267	14292.39
532.632	14401.32
532.998	14412.62
533.364	14500.3
533.73	14518.83
534.095	14675.89
534.461	14696
534.826	14878.82
535.192	14895.54
535.557	14910.46
535.923	14988.19
536.288	15072.71
536.653	15141.18
537.019	15044.24
537.384	15164.69
537.749	15224.35
538.114	15342.76
538.479	15344.79
538.845	15399.26
539.21	15448.29
539.575	15498.69
539.94	15690.32
540.305	15781.84
540.67	15734.84
541.034	15771.45
541.399	15837.21
541.764	15904.1
542.129	15920.15
542.494	16010.31
542.858	16128.5
543.223	15996.3
543.587	16168.73
543.952	16128.73
544.316	16276.52
544.681	16276.75
545.045	16380.93
545.41	16408.72
545.774	16524.2
546.138	16551.54
546.503	16616.17
546.867	16673.35
547.231	16823.63
547.595	16768.94
547.959	16797.19
548.324	16888.48
548.688	17054.13
549.052	17071.75
549.416	17334.35
549.779	17132.77
550.143	17139.78
550.507	17365.31
550.871	17568.01
551.235	17524.17
551.599	17700.89
551.962	17733.88
552.326	17852.98
552.689	17900.43
553.053	17806.88
553.417	17965.29
553.78	18309.69
554.143	18262.68
554.507	18325.28
554.87	18444.6
555.234	18640.75
555.597	18524.15
555.96	18740.19
556.323	18830.35
556.686	18856.79
557.05	19121.42
557.413	19148.54
557.776	19206.16
558.139	19354.63
558.502	19533.16
558.865	19682.53
559.228	19688.63
559.59	19771.34
559.953	19948.29
560.316	20276.19
560.679	20298.79
561.041	20428.95
561.404	20564.09
561.767	20739
562.129	20729.51
562.492	21040.46
562.854	21113.68
563.217	21188.71
563.579	21363.39
563.941	21563.61
564.304	21623.05
564.666	21817.17
565.028	21976.03
565.39	22077.95
565.753	22327.89
566.115	22381.67
566.477	22629.35
566.839	22654.66
567.201	22878.83
567.563	22970.58
567.925	23255.77
568.287	23328.54
568.648	23328.09
569.01	23690.79
569.372	23871.35
569.734	23893.5
570.095	24106.37
570.457	24230.21
570.819	24426.36
571.18	24508.62
571.542	24774.6
571.903	24973.92
572.265	25156.74
572.626	25300.46
572.987	25409.16
573.349	25486
573.71	25748.36
574.071	25837.17
574.432	26025.87
574.794	26213.44
575.155	26374.33
575.516	26426.31
575.877	26598.06
576.238	26561.45
576.599	26847.09
576.96	26853.19
577.32	27139.51
577.681	27293.63
578.042	27394.65
578.403	27527.3
578.763	27694.07
579.124	27701.31
579.485	27913.5
579.845	28046.83
580.206	28020.39
580.566	28316.2
580.927	28160.5
581.287	28342.87
581.648	28389.65
582.008	28502.64
582.368	28603.2
582.728	28646.82
583.089	28760.03
583.449	28715.97
583.809	28990.76
584.169	29014.72
584.529	29145.79
584.889	29297.87
585.249	29096.98
585.609	29229.4
585.969	29429.62
586.329	29291.77
586.688	29446.8
587.048	29521.14
587.408	29484.08
587.768	29483.18
588.127	29565.66
588.487	29419.68
588.846	29991.64
589.206	29598.43
589.565	29709.16
589.925	29947.12
590.284	29755.94
590.643	29837.29
591.003	29893.56
591.362	30083.39
591.721	30051.07
592.08	30060.34
592.44	30033
592.799	30149.38
593.158	30058.76
593.517	30121.13
593.876	30073.45
594.235	30087.23
594.593	30124.74
594.952	30254.23
595.311	30156.16
595.67	30294.01
596.029	30317.06
596.387	30464.85
596.746	30480.44
597.104	30333.78
597.463	30394.34
597.822	30468.46
598.18	30381.24
598.538	30506.88
598.897	30672.3
599.255	30456.26
599.613	30816.7
599.972	30538.29
600.33	30651.51
600.688	30616.26
601.046	30682.7
601.404	30865.06
601.762	30809.92
602.12	30948.23
602.478	30875.01
602.836	30964.95
603.194	30892.86
603.552	30901.9
603.91	30780.09
604.268	30880.43
604.625	30803.37
604.983	30997.04
605.341	30905.74
605.698	31102.12
606.056	31157.03
606.413	31087.88
606.771	31091.05
607.128	31253.3
607.485	31065.96
607.843	31121.1
608.2	31176.02
608.557	31262.12
608.914	31176.69
609.272	31245.39
609.629	31465.05
609.986	31484.48
610.343	31359.06
610.7	31520.87
611.057	31543.24
611.414	31501.21
611.771	31608.1
612.127	31572.62
612.484	31607.19
612.841	31687.19
613.198	31739.62
613.554	31707.53
613.911	31911.82
614.267	31889.22
614.624	31717.25
614.98	31995.88
615.337	32007.41
615.693	32086.95
616.05	31964.7
616.406	32145.93
616.762	32013.96
617.118	32209.89
617.475	32041.08
617.831	32308.64
618.187	32220.73
618.543	32092.83
618.899	32371.47
619.255	32289.89
619.611	32300.05
619.967	32426.15
620.323	32465.25
620.678	32333.05
621.034	32260.51
621.39	32153.17
621.746	32270.22
622.101	32573.49
622.457	32302.09
622.812	32525.13
623.168	32524
623.523	32446.49
623.879	32580.27
624.234	32467.96
624.589	32462.54
624.945	32495.98
625.3	32645.81
625.655	32505.25
626.01	32631.8
626.365	32636.09
626.72	32366.49
627.075	32464.12
627.43	32472.93
627.785	32458.24
628.14	32459.6
628.495	32451.01
628.85	32439.49
629.205	32105.94
629.559	32336.21
629.914	32199.04
630.269	32272.26
630.623	32139.15
630.978	32136.67
631.332	32240.62
631.687	32329.88
632.041	32138.7
632.396	32189.55
632.75	32025.94
633.104	32172.83
633.459	32005.6
633.813	32070.68
634.167	32058.48
634.521	32045.6
634.875	32019.38
635.229	32046.95
635.583	31813.29
635.937	31913.17
636.291	31871.82
636.645	31844.7
636.999	31723.57
637.352	31899.61
637.706	31614.87
638.06	31709.79
638.413	31753.63
638.767	31607.19
639.121	31757.24
639.474	31544.82
639.828	31446.97
640.181	31589.11
640.534	31661.65
640.888	31248.1
641.241	31298.05
641.594	31259.63
641.947	31440.87
642.301	31406.74
642.654	31404.48
643.007	31443.35
643.36	31210.37
643.713	31183.25
644.066	31268.9
644.419	31078.17
644.771	31059.18
645.124	30654.22
645.477	30722.02
645.83	30402.93
646.182	30240.9
646.535	30211.52
646.888	30194.35
647.24	30135.14
647.593	30263.72
647.945	30322.25
648.298	30169.72
648.65	30037.52
649.002	30132.43
649.355	30137.63
649.707	30061.24
650.059	30216.27
650.411	30549.82
650.763	30483.83
651.115	30821.45
651.467	30854.89
651.819	30842.47
652.171	30668.23
652.523	30703.49
652.875	30824.39
653.227	30469.59
653.578	30826.65
653.93	30689.48
654.282	30703.49
654.633	30549.82
654.985	30674.33
655.337	30579.65
655.688	30684.73
656.039	30631.17
656.391	30496.03
656.742	30545.52
657.094	30482.25
657.445	30677.27
657.796	30546.2
658.147	30528.8
658.498	30529.71
658.849	30632.3
659.2	30442.48
659.551	30452.65
659.902	30606.54
660.253	30502.14
660.604	30547.33
660.955	30384.4
661.306	30497.84
661.656	30521.8
662.007	30482.48
662.358	30526.77
662.708	30509.59
663.059	30447.45
663.409	30281.8
663.76	30548.91
664.11	30396.38
664.461	30519.31
664.811	30455.36
665.161	30531.51
665.511	30443.61
665.862	30358.41
666.212	30489.25
666.562	30424.62
666.912	30412.65
667.262	30393.44
667.612	30437.5
667.962	30348.47
668.312	30416.49
668.662	30486.99
669.011	30431.4
669.361	30292.65
669.711	30330.84
670.06	30319.54
670.41	30194.35
670.76	30186.44
671.109	30288.36
671.459	30258.53
671.808	30211.97
672.157	30144.41
672.507	29954.35
672.856	30049.27
673.205	30176.04
673.554	30209.94
673.904	30017.85
674.253	30202.48
674.602	29975.14
674.951	29568.38
675.3	29605.66
675.649	29945.77
675.998	30000.91
676.346	30030.96
676.695	29982.6
677.044	29750.97
677.393	29899.89
677.741	29933.79
678.09	29780.57
678.438	29584.42
678.787	29698.54
679.135	29746.9
679.484	29438.43
679.832	29624.19
680.181	29437.76
680.529	29444.08
680.877	29317.99
681.225	29365.22
681.573	29431.66
681.922	29296.52
682.27	29197.09
682.618	29370.64
682.966	29167.71
683.314	29201.38
683.661	29155.28
684.009	28943.31
684.357	28902.86
684.705	28843.87
685.053	28979.01
685.4	28817.66
685.748	28766.36
686.095	28748.51
686.443	28536.76
686.79	28533.6
687.138	28573.6
687.485	28567.05
687.832	28386.03
688.18	28442.3
688.527	28330.22
688.874	28129.54
689.221	28200.95
689.568	28080.73
689.915	27998.25
690.262	28030.79
690.609	27907.85
690.956	27788.31
691.303	27791.02
691.65	27608.88
691.997	27620.63
692.344	27397.13
692.69	27425.61
693.037	27341.77
693.383	27091.38
693.73	27215.89
694.077	27178.16
694.423	26941.1
694.769	26924.83
695.116	26842.12
695.462	26778.17
695.808	26687.32
696.155	26692.97
696.501	26455.46
696.847	26511.28
697.193	26338.63
697.539	26382.7
697.885	26081.69
698.231	26157.17
698.577	26130.05
698.923	26197.39
699.269	25961.01
699.614	25737.52
699.96	25749.94
700.306	25764.41
700.651	25644.86
700.997	25433.57
701.342	25381.37
701.688	25321.71
702.033	25272.67
702.379	25193.35
702.724	25076.52
703.069	25088.27
703.415	24808.95
703.76	24798.33
704.105	24763.98
704.45	24781.38
704.795	24617.09
705.14	24575.51
705.485	24445.12
705.83	24346.59
706.175	24395.18
706.52	24339.13
706.865	24218.46
707.209	24175.3
707.554	24172.81
707.899	24126.26
708.243	24084.23
708.588	24123.55
708.932	23879.71
709.277	23791.8
709.621	23868.19
709.966	23612.83
710.31	23719.72
710.654	23500.74
710.998	23467.97
711.342	23431.36
711.687	23533.51
712.031	23260.29
712.375	23228.2
712.719	23213.29
713.063	23273.4
713.407	23264.59
713.75	23102.1
714.094	23175.55
714.438	23010.13
714.782	23172.39
715.125	22941.66
715.469	23062.33
715.812	22914.31
716.156	22823.24
716.499	22816.69
716.843	22751.38
717.186	22641.1
717.53	22709.12
717.873	22707.31
718.216	22658.73
718.559	22530.59
718.902	22421.44
719.246	22410.37
719.589	22416.7
719.932	22421.67
720.275	22324.5
720.617	22329.24
720.96	22377.83
721.303	22417.38
721.646	22382.35
721.989	22099.19
722.331	22269.81
722.674	22287.89
723.016	22249.47
723.359	22269.13
723.701	22210.38
724.044	22053.77
724.386	22059.19
724.729	22141.23
725.071	22188.23
725.413	22028.46
725.755	22097.39
726.097	22067.56
726.439	21948.01
726.782	21953.43
727.124	22011.51
727.465	21984.17
727.807	21963.15
728.149	21854
728.491	21898.52
728.833	21845.87
729.175	21680.45
729.516	21825.53
729.858	21831.4
730.199	21828.92
730.541	21811.06
730.882	21803.38
731.224	21806.55
731.565	21640.9
731.906	21738.75
732.248	21884.51
732.589	21764.51
732.93	21677.51
733.271	21801.35
733.612	21748.02
733.953	21742.14
734.294	21703.95
734.635	21626.44
734.976	21755.25
735.317	21614.01
735.658	21668.24
735.999	21617.62
736.339	21704.85
736.68	21763.83
737.021	21628.02
737.361	21531.98
737.702	21725.19
738.042	21547.8
738.383	21586.66
738.723	21589.15
739.063	21600
739.404	21589.83
739.744	21555.7
740.084	21506.44
740.424	21589.6
740.764	21505.76
741.104	21695.81
741.444	21595.25
741.784	21554.35
742.124	21617.85
742.464	21429.38
742.804	21524.74
743.143	21510.51
743.483	21524.97
743.823	21554.12
744.162	21487.46
744.502	21685.19
744.841	21497.4
745.181	21595.93
745.52	21525.87
745.86	21534.24
746.199	21527
746.538	21500.11
746.877	21575.82
747.216	21530.17
747.556	21544.18
747.895	21534.01
748.234	21540.79
748.573	21364.75
748.911	21462.15
749.25	21449.94
749.589	21359.1
749.928	21419.89
750.267	21504.63
750.605	21390.74
750.944	21261.93
751.283	21372.88
751.621	21385.09
751.96	21292.21
752.298	21207.24
752.636	21319.1
752.975	21096.96
753.313	21147.13
753.651	21266.9
753.989	21298.31
754.327	21114.81
754.666	21066.9
755.004	21134.92
755.342	21165.21
755.679	21137.18
756.017	20957.98
756.355	21150.07
756.693	20944.42
757.031	21074.36
757.368	20985.32
757.706	20940.35
758.044	20835.05
758.381	20800.47
758.719	20705.56
759.056	20781.49
759.394	20760.92
759.731	20739.45
760.068	20576.97
760.405	20562.51
760.743	20509.18
761.08	20528.39
761.417	20451.55
761.754	20372.91
762.091	20428.05
762.428	20330.88
762.765	20227.38
763.102	20268.51
763.438	20194.38
763.775	20038
764.112	20168.17
764.449	20151.45
764.785	19958.46
765.122	19781.51
765.458	19769.99
765.795	19819.03
766.131	19803.43
766.467	19714.85
766.804	19587.39
767.14	19523.89
767.476	19543.55
767.812	19452.48
768.148	19409.77
768.485	19270.57
768.821	19260.62
769.157	19227.63
769.492	19158.25
769.828	19108.09
770.164	18930.91
770.5	18828.32
770.836	18937.69
771.171	18790.81
771.507	18708.55
771.842	18645.27
772.178	18638.49
772.513	18607.08
772.849	18634.88
773.184	18484.6
773.519	18460.19
773.855	18409.8
774.19	18298.39
774.525	18227.43
774.86	18167.54
775.195	18216.58
775.53	18026.76
775.865	17904.5
776.2	17936.82
776.535	17742.25
776.87	17758.29
777.205	17686.88
777.539	17624.06
777.874	17711.51
778.209	17457.06
778.543	17376.15
778.878	17403.72
779.212	17385.19
779.547	17244.18
779.881	17319.88
780.215	17065.2
780.55	17236.27
780.884	17124.86
781.218	16973.45
781.552	17020
781.886	16912.89
782.22	16803.06
782.554	16875.38
782.888	16616.4
783.222	16478.1
783.556	16443.75
783.889	16410.53
784.223	16389.74
784.557	16375.05
784.89	16411.88
785.224	16274.94
785.557	16113.14
785.891	16148.84
786.224	16055.51
786.558	16069.07
786.891	15906.81
787.224	15870.88
787.557	15893.25
787.891	15733.03
788.224	15724.9
788.557	15760.38
788.89	15778.68
789.223	15609.42
789.556	15611.23
789.888	15471.12
790.221	15458.46
790.554	15366.71
790.887	15329.2
791.219	15197.45
791.552	15210.11
791.884	15261.41
792.217	15151.58
792.549	15066.61
792.882	15011.7
793.214	14919.72
793.546	14965.14
793.879	14899.61
794.211	14769.89
794.543	14749.1
794.875	14807.18
795.207	14751.82
795.539	14741.65
795.871	14702.33
796.203	14550.46
796.535	14478.38
796.867	14465.95
797.198	14325.61
797.53	14308.66
797.862	14256.69
798.193	14299.62
798.525	14145.28
798.856	14232.51
799.188	14070.48
799.519	14059.86
799.85	13987.54
800.182	13973.53
800.513	13971.95
800.844	13844.27
801.175	13846.75
801.506	13824.83
801.837	13771.73
802.168	13751.62
802.499	13715.68
802.83	13671.62
803.161	13664.61
803.491	13621.45
803.822	13538.74
804.153	13509.59
804.483	13391.85
804.814	13302.36
805.145	13322.02
805.475	13301.01
805.805	13370.61
806.136	13268.46
806.466	13194.12
806.796	13240.22
807.126	13094.68
807.457	13174.91
807.787	13108.92
808.117	13054.91
808.447	13002.71
808.777	12989.15
809.107	12883.84
809.436	12877.97
809.766	12908.7
810.096	12890.62
810.426	12784.86
810.755	12784.86
811.085	12826.22
811.414	12763.39
811.744	12647.69
812.073	12637.75
812.403	12619.22
812.732	12546
813.061	12495.83
813.39	12517.3
813.719	12454.93
814.049	12500.12
814.378	12429.62
814.707	12365.89
815.036	12395.72
815.365	12283.86
815.693	12164.99
816.022	12160.92
816.351	12160.25
816.68	12144.2
817.008	12175.84
817.337	12073.24
817.665	12044.32
817.994	12097.65
818.322	12006.58
818.651	11985.79
818.979	11910.76
819.307	12038.44
819.636	11913.7
819.964	11849.52
820.292	11920.03
820.62	11914.38
820.948	11808.62
821.276	11865.56
821.604	11834.6
821.932	11853.13
822.259	11842.29
822.587	11790.54
822.915	11801.38
823.243	11792.35
823.57	11788.28
823.898	11738.79
824.225	11732.01
824.553	11697.43
824.88	11703.53
825.207	11810.2
825.535	11739.47
825.862	11761.61
826.189	11738.11
826.516	11846.13
826.843	11783.76
827.17	11780.14
827.497	11788.5
827.824	11757.09
828.151	11805
828.478	11814.04
828.805	11851.55
829.131	11714.61
829.458	11741.73
829.785	11668.51
830.111	11664.89
830.438	11772.01
830.764	11817.88
831.09	11765.23
831.417	11626.93
831.743	11755.96
832.069	11715.29
832.395	11661.95
832.722	11647.49
833.048	11642.29
833.374	11622.41
833.7	11596.87
834.026	11539.02
834.351	11670.09
834.677	11621.5
835.003	11678.68
835.329	11596.87
835.654	11599.36
835.98	11528.62
836.306	11577.44
836.631	11506.48
836.956	11464.44
837.282	11473.48
837.607	11441.39
837.932	11466.03
838.258	11457.66
838.583	11442.75
838.908	11421.51
839.233	11343.09
839.558	11372.92
839.883	11331.11
840.208	11338.57
840.533	11324.11
840.858	11327.95
841.182	11286.6
841.507	11240.95
841.832	11226.94
842.156	11209.54
842.481	11200.5
842.805	11179.71
843.13	11128.63
843.454	11104.23
843.778	11059.26
844.103	11056.32
844.427	11035.98
844.751	11052.25
845.075	11003.67
845.399	11043.66
845.723	10951.01
846.047	10841.41
846.371	10830.56
846.695	10817
847.019	10729.55
847.343	10678.93
847.666	10606.16
847.99	10615.65
848.313	10671.24
848.637	10498.59
848.96	10474.41
849.284	10497.01
849.607	10395.77
849.931	10307.64
850.254	10349.9
850.577	10266.28
850.9	10177.47
851.223	10194.87
851.546	10135.21
851.869	10126.4
852.192	10107.42
852.515	10045.27
852.838	9986.97
853.161	9993.75
853.483	9913.07
853.806	9865.62
854.129	9891.38
854.451	9883.24
854.774	9796.01
855.096	9753.3
855.419	9699.52
855.741	9677.37
856.063	9708.33
856.385	9627.43
856.708	9619.75
857.03	9608.22
857.352	9612.52
857.674	9575.91
857.996	9519.18
858.318	9476.7
858.64	9504.27
858.961	9410.26
859.283	9405.52
859.605	9329.36
859.926	9406.42
860.248	9275.35
860.57	9256.82
860.891	9341.34
861.212	9184.96
861.534	9231.73
861.855	9204.16
862.176	9156.93
862.498	9238.74
862.819	9205.29
863.14	9102.25
863.461	9144.73
863.782	9050.72
864.103	9115.35
864.424	9084.85
864.745	9073.55
865.065	9059.99
865.386	9024.51
865.707	9031.29
866.027	9002.59
866.348	8993.77
866.668	8968.24
866.989	8935.47
867.309	8885.08
867.63	8934.12
867.95	8854.8
868.27	8833.55
868.59	8877.17
868.91	8837.39
869.23	8913.55
869.55	8802.14
869.87	8822.48
870.19	8758.98
870.51	8777.51
870.83	8810.95
871.15	8725.53
871.469	8723.95
871.789	8733.89
872.109	8683.73
872.428	8640.79
872.748	8749.26
873.067	8712.43
873.386	8678.53
873.706	8664.74
874.025	8662.03
874.344	8589.72
874.663	8591.53
874.982	8639.89
875.301	8550.62
875.62	8610.28
875.939	8517.86
876.258	8570.96
876.577	8541.58
876.896	8499.55
877.214	8499.1
877.533	8493.45
877.852	8482.6
878.17	8437.63
878.489	8455.48
878.807	8425.65
879.125	8402.15
879.444	8418.65
879.762	8429.04
880.08	8367.35
880.398	8353.34
880.716	8297.52
881.034	8298.65
881.352	8335.71
881.67	8299.78
881.988	8254.59
882.306	8256.62
882.624	8244.87
882.941	8200.8
883.259	8198.09
883.577	8165.1
883.894	8116.96
884.212	8124.42
884.529	8041.03
884.846	8096.17
885.164	8091.43
885.481	8115.83
885.798	8058.43
886.115	8061.82
886.432	8048.26
886.75	7987.7
887.067	7996.51
887.383	7945.21
887.7	7942.73
888.017	7973.46
888.334	7933.24
888.651	7881.71
888.967	7856.18
889.284	7822.96
889.6	7827.7
889.917	7714.03
890.233	7775.73
890.55	7801.49
890.866	7749.51
891.182	7680.14
891.498	7678.56
891.815	7688.27
892.131	7642.17
892.447	7591.33
892.763	7571.44
893.079	7552.46
893.395	7542.51
893.71	7577.31
894.026	7491.44
894.342	7493.02
894.657	7378
894.973	7432.46
895.289	7414.16
895.604	7385
895.92	7337.77
896.235	7343.42
896.55	7344.55
896.865	7284.44
897.181	7270.43
897.496	7247.15
897.811	7176.87
898.126	7168.29
898.441	7147.27
898.756	7126.71
899.071	7064.56
899.386	7110.66
899.7	7034.5
900.015	7006.48
900.33	6971.46
900.644	6979.59
900.959	6953.38
901.273	6940.04
901.588	6944.34
901.902	6898.01
902.216	6850.55
902.531	6804.45
902.845	6812.14
903.159	6790.89
903.473	6786.38
903.787	6757.68
904.101	6782.76
904.415	6724.46
904.729	6679.03
905.042	6670.9
905.356	6578.25
905.67	6622.09
905.984	6636.32
906.297	6568.3
906.611	6532.6
906.924	6519.26
907.237	6452.6
907.551	6451.47
907.864	6487.17
908.177	6415.31
908.491	6440.4
908.804	6343.45
909.117	6371.24
909.43	6293.28
909.743	6263.23
910.056	6277.69
910.368	6254.19
910.681	6180.74
910.994	6173.28
911.307	6184.13
911.619	6152.95
911.932	6131.48
912.244	6055.55
912.557	6110.91
912.869	6037.02
913.181	6014.64
913.494	6050.8
913.806	5935.1
914.118	5918.38
914.43	5888.32
914.742	5910.24
915.054	5915.44
915.366	5856.68
915.678	5802.67
915.99	5869.34
916.302	5811.94
916.613	5763.58
916.925	5769.23
917.236	5757.7
917.548	5705.73
917.859	5740.3
918.171	5646.29
918.482	5624.82
918.794	5637.48
919.105	5659.63
919.416	5595.22
919.727	5536.92
920.038	5512.28
920.349	5440.2
920.66	5464.38
920.971	5455.56
921.282	5443.59
921.593	5402.23
921.903	5384.38
922.214	5370.59
922.525	5368.33
922.835	5339.41
923.146	5253.08
923.456	5244.27
923.767	5266.87
924.077	5239.98
924.387	5164.05
924.697	5214.67
925.008	5143.03
925.318	5153.2
925.628	5150.26
925.938	5119.98
926.248	5046.31
926.558	5051.28
926.867	5005.86
927.177	5007.21
927.487	4992.07
927.796	4950.94
928.106	4935.12
928.416	4959.08
928.725	4937.38
929.034	4902.58
929.344	4855.8
929.653	4832.08
929.962	4808.8
930.271	4797.73
930.581	4804.05
930.89	4774.45
931.199	4710.05
931.508	4700.55
931.817	4764.28
932.125	4774.45
932.434	4697.84
932.743	4635.7
933.051	4654.45
933.36	4585.98
933.669	4571.29
933.977	4584.85
934.286	4565.64
934.594	4548.24
934.902	4564.96
935.21	4466.66
935.519	4488.81
935.827	4466.21
936.135	4442.48
936.443	4413.78
936.751	4456.94
937.059	4397.74
937.367	4369.49
937.674	4316.16
937.982	4354.12
938.29	4342.37
938.597	4316.84
938.905	4284.29
939.213	4291.75
939.52	4229.15
939.827	4243.17
940.135	4220.12
940.442	4176.27
940.749	4209.95
941.056	4153.45
941.363	4093.34
941.67	4134.47
941.977	4083.85
942.284	4077.75
942.591	4068.25
942.898	4049.27
943.205	4045.88
943.511	4001.82
943.818	3954.59
944.125	3906.22
944.431	3929.5
944.738	3964.75
945.044	3922.04
945.35	3922.27
945.657	3884.76
945.963	3882.72
946.269	3870.07
946.575	3855.6
946.881	3835.04
947.187	3809.5
947.493	3813.8
947.799	3812.89
948.105	3775.38
948.41	3747.59
948.716	3723.18
949.022	3755.95
949.327	3726.57
949.633	3652.9
949.938	3715.27
950.244	3634.14
950.549	3648.83
950.854	3610.19
951.16	3610.64
951.465	3601.37
951.77	3593.46
952.075	3548.27
952.38	3557.76
952.685	3577.65
952.99	3520.02
953.294	3523.64
953.599	3479.8
953.904	3454.71
954.209	3489.74
954.513	3483.64
954.818	3452.68
955.122	3441.83
955.426	3397.09
955.731	3386.01
956.035	3353.25
956.339	3369.52
956.643	3361.61
956.948	3319.35
957.252	3322.74
957.556	3328.39
957.86	3292.46
958.163	3299.24
958.467	3253.13
958.771	3247.71
959.075	3233.47
959.378	3221.05
959.682	3202.74
959.985	3200.48
960.289	3174.72
960.592	3184.21
960.896	3189.86
961.199	3166.58
961.502	3120.48
961.805	3139.69
962.108	3087.04
962.411	3091.11
962.714	3108.05
963.017	3024.44
963.32	3022.63
963.623	3027.6
963.926	3013.37
964.228	2957.32
964.531	3007.04
964.833	2988.73
965.136	2974.05
965.438	2975.18
965.741	2921.62
966.043	2943.99
966.345	2898.12
966.648	2910.54
966.95	2885.91
967.252	2903.31
967.554	2869.64
967.856	2869.42
968.158	2866.7
968.46	2825.12
968.761	2808.85
969.063	2801.62
969.365	2806.59
969.666	2762.53
969.968	2739.48
970.269	2771.34
970.571	2768.85
970.872	2737.67
971.174	2709.19
971.475	2727.72
971.776	2695.86
972.077	2696.99
972.378	2719.59
972.679	2688.4
972.98	2688.86
973.281	2682.08
973.582	2652.7
973.883	2638.69
974.183	2596.2
974.484	2598.91
974.785	2604.56
975.085	2566.37
975.386	2596.43
975.686	2601.4
975.986	2564.79
976.287	2557.79
976.587	2513.49
976.887	2509.65
977.187	2497.45
977.487	2494.28
977.787	2505.36
978.087	2442.31
978.387	2475.08
978.687	2453.61
978.987	2434.63
979.286	2433.5
979.586	2409.32
979.885	2404.34
980.185	2403.44
980.484	2398.92
980.784	2374.06
981.083	2408.41
981.382	2358.47
981.682	2369.54
981.981	2352.14
982.28	2337.45
982.579	2325.48
982.878	2334.97
983.177	2317.79
983.475	2299.94
983.774	2267.17
984.073	2293.84
984.372	2255.87
984.67	2259.71
984.969	2259.94
985.267	2266.72
985.566	2219.94
985.864	2231.24
986.162	2199.6
986.461	2236.66
986.759	2187.17
987.057	2141.3
987.355	2189.66
987.653	2131.81
987.951	2143.79
988.249	2161.64
988.547	2133.84
988.844	2091.36
989.142	2098.59
989.44	2111.92
989.737	2098.14
990.035	2103.11
990.332	2064.01
990.63	2083
990.927	2040.74
991.224	2045.26
991.521	2028.76
991.819	2046.39
992.116	2029.66
992.413	1974.3
992.71	1979.27
993.006	1994.41
993.303	1976.56
993.6	1980.4
993.897	1949.21
994.193	1986.05
994.49	1948.54
994.787	1963.68
995.083	1917.35
995.379	1912.15
995.676	1921.42
995.972	1928.65
996.268	1879.16
996.565	1889.1
996.861	1892.72
997.157	1849.1
997.453	1860.18
997.749	1854.53
998.044	1832.61
998.34	1872.61
998.636	1847.3
998.932	1859.5
999.227	1804.36
999.523	1792.38
999.818	1771.59
1000.114	1797.58
1000.409	1756.23
1000.704	1758.03
1001	1757.35
1001.295	1732.72
1001.59	1745.83
1001.885	1746.06
1002.18	1753.74
1002.475	1726.85
1002.77	1692.5
1003.065	1666.96
1003.359	1686.4
1003.654	1690.01
1003.949	1666.28
1004.243	1664.25
1004.538	1628.54
1004.832	1672.84
1005.127	1628.32
1005.421	1628.54
1005.715	1600.75
1006.009	1609.56
1006.304	1608.66
1006.598	1585.83
1006.892	1555.1
1007.186	1575.44
1007.48	1555.55
1007.773	1579.51
1008.067	1531.6
1008.361	1512.16
1008.655	1516.01
1008.948	1527.98
1009.242	1524.59
1009.535	1516.68
1009.829	1528.21
1010.122	1493.86
1010.415	1475.33
1010.708	1474.65
1011.001	1498.15
1011.295	1460.87
1011.588	1441.88
1011.881	1443.01
1012.173	1421.09
1012.466	1431.04
1012.759	1415.44
1013.052	1393.75
1013.344	1427.87
1013.637	1401.66
1013.93	1410.47
1014.222	1374.77
1014.514	1346.74
1014.807	1376.12
1015.099	1374.54
1015.391	1320.08
1015.683	1363.24
1015.976	1353.3
1016.268	1348.78
1016.56	1327.76
1016.851	1309.91
1017.143	1294.54
1017.435	1307.65
1017.727	1299.74
1018.018	1289.12
1018.31	1288.44
1018.602	1265.39
1018.893	1252.74
1019.185	1239.18
1019.476	1257.03
1019.767	1222.91
1020.058	1231.27
1020.35	1211.61
1020.641	1218.16
1020.932	1180.65
1021.223	1187.2
1021.514	1189.69
1021.804	1154.66
1022.095	1172.96
1022.386	1153.75
1022.677	1153.08
1022.967	1145.39
1023.258	1171.83
1023.548	1127.54
1023.839	1137.71
1024.129	1136.81
1024.419	1122.57
1024.709	1101.1
1025	1115.79
1025.29	1085.73
1025.58	1081.89
1025.87	1098.84
1026.16	1071.05
1026.449	1076.24
1026.739	1083.47
1027.029	1070.37
1027.319	1078.28
1027.608	1067.43
1027.898	1019.52
1028.187	1038.73
1028.477	1020.65
1028.766	1021.56
1029.055	1015.68
1029.344	1014.55
1029.634	1016.81
1029.923	997.15
1030.212	999.18
1030.501	1013.42
1030.79	1000.99
1031.078	982.01
1031.367	971.84
1031.656	950.6
1031.945	970.48
1032.233	948.79
1032.522	942.01
1032.81	947.43
1033.099	955.79
1033.387	917.15
1033.675	907.66
1033.963	919.86
1034.251	892.29
1034.54	890.49
1034.828	925.74
1035.116	901.33
1035.403	907.89
1035.691	893.2
1035.979	884.61
1036.267	851.84
1036.554	876.7
1036.842	868.34
1037.129	874.21
1037.417	872.63
1037.704	854.1
1037.992	854.78
1038.279	848.45
1038.566	830.15
1038.853	830.15
1039.14	830.15
