Data from tablewood_dark_bookshelf_FLMS001491_00003.txt Node
Date: Wed Feb 08 14:13:19 GMT 2017
User: dcchb
Spectrometer: FLMS00149
Trigger mode: 0
Integration Time (sec): 2.000000E-2
Scans to average: 10
Electric dark correction enabled: true
Nonlinearity correction enabled: false
Boxcar width: 0
XAxis mode: Wavelengths
Number of Pixels in Spectrum: 2048
>>>>>Begin Spectral Data<<<<<
341.393	-4.25
341.776	-4.25
342.16	-4.25
342.543	-45.15
342.927	-65.04
343.31	-79.05
343.693	-56.45
344.077	-77.02
344.46	-66.85
344.843	-83.57
345.226	-21.43
345.61	-34.31
345.993	-23.91
346.376	7.27
346.759	12.92
347.142	21.06
347.525	51.11
347.908	56.76
348.291	90.66
348.674	106.71
349.057	96.09
349.44	120.04
349.823	148.29
350.206	151.68
350.588	200.72
350.971	198
351.354	197.1
351.737	247.04
352.119	244.33
352.502	257.21
352.884	254.72
353.267	271
353.65	297.66
354.032	282.75
354.414	284.55
354.797	288.85
355.179	299.24
355.562	318.68
355.944	313.03
356.326	315.29
356.709	333.82
357.091	350.09
357.473	323.88
357.855	325.23
358.238	337.89
358.62	329.3
359.002	318.23
359.384	337.89
359.766	321.39
360.148	323.2
360.53	334.5
360.912	307.15
361.294	336.98
361.676	334.72
362.057	312.35
362.439	323.42
362.821	326.14
363.203	353.48
363.584	320.49
363.966	325.91
364.348	320.03
364.729	321.84
365.111	332.24
365.493	318.45
365.874	318
366.256	325.68
366.637	346.02
367.019	317.1
367.4	326.36
367.781	317.1
368.163	305.57
368.544	315.29
368.925	340.82
369.306	332.24
369.688	302.86
370.069	324.1
370.45	310.54
370.831	311.22
371.212	311.22
371.593	305.35
371.974	319.58
372.355	321.84
372.736	312.58
373.117	332.01
373.498	313.03
373.879	320.49
374.26	310.99
374.641	345.34
375.021	326.59
375.402	315.74
375.783	340.37
376.163	347.83
376.544	347.15
376.925	353.48
377.305	331.33
377.686	349.64
378.066	350.32
378.447	336.08
378.827	348.73
379.208	328.17
379.588	337.66
379.968	338.11
380.349	345.34
380.729	357.1
381.109	360.94
381.489	351.67
381.87	360.71
382.25	377.43
382.63	395.96
383.01	354.84
383.39	380.15
383.77	374.72
384.15	383.08
384.53	354.16
384.91	374.27
385.29	376.3
385.67	384.67
386.049	378.79
386.429	380.37
386.809	384.67
387.189	409.3
387.568	401.61
387.948	394.61
388.328	404.1
388.707	402.07
389.087	392.12
389.466	409.98
389.846	407.94
390.225	425.12
390.605	423.99
390.984	411.11
391.363	441.84
391.743	427.83
392.122	422.86
392.501	422.18
392.881	421.73
393.26	445.45
393.639	445.91
394.018	436.64
394.397	421.05
394.776	439.13
395.155	432.35
395.534	442.06
395.913	437.32
396.292	456.3
396.671	447.94
397.05	454.04
397.429	444.78
397.808	482.52
398.186	473.02
398.565	455.4
398.944	451.33
399.323	475.28
399.701	485.23
400.08	464.66
400.458	478
400.837	490.42
401.215	456.53
401.594	493.36
401.972	471.44
402.351	484.32
402.729	495.62
403.107	508.73
403.486	525.23
403.864	506.24
404.242	524.55
404.62	497.43
404.999	532.68
405.377	523.19
405.755	534.27
406.133	551.89
406.511	548.05
406.889	542.85
407.267	565.23
407.645	559.8
408.023	564.77
408.401	556.86
408.779	564.32
409.156	588.5
409.534	580.59
409.912	595.96
410.29	600.03
410.667	586.24
411.045	605.45
411.422	581.27
411.8	610.65
412.178	604.32
412.555	628.05
412.933	636.86
413.31	639.12
413.687	623.08
414.065	647.71
414.442	645
414.819	648.39
415.197	642.51
415.574	659.01
415.951	661.04
416.328	694.71
416.705	684.32
417.082	686.8
417.46	692
417.837	685.67
418.214	701.27
418.591	709.63
418.967	720.93
419.344	692.68
419.721	729.06
420.098	707.59
420.475	767.48
420.852	741.27
421.228	755.95
421.605	769.06
421.982	773.58
422.358	771.77
422.735	788.5
423.111	770.42
423.488	802.73
423.864	782.17
424.241	782.62
424.617	801.83
424.994	808.83
425.37	828.72
425.746	824.65
426.123	823.3
426.499	859.91
426.875	834.14
427.251	872.56
427.627	866.69
428.003	867.59
428.379	883.63
428.756	890.87
429.132	893.8
429.507	909.17
429.883	960.47
430.259	945.55
430.635	926.8
431.011	928.61
431.387	972.9
431.763	977.64
432.138	986.46
432.514	1005.44
432.89	1013.12
433.265	1021.26
433.641	1042.95
434.016	1017.42
434.392	1064.65
434.767	1079.56
435.143	1074.59
435.518	1054.7
435.894	1073.69
436.269	1109.84
436.644	1137.64
437.02	1102.39
437.395	1164.08
437.77	1136.74
438.145	1169.05
438.52	1181.93
438.895	1183.51
439.271	1178.77
439.646	1204.08
440.021	1195.04
440.395	1206.56
440.77	1191.65
441.145	1242.04
441.52	1244.53
441.895	1252.21
442.27	1270.52
442.645	1261.25
443.019	1273
443.394	1267.35
443.769	1300.57
444.143	1301.03
444.518	1286.56
444.892	1308.48
445.267	1304.41
445.641	1339.89
446.016	1315.04
446.39	1334.24
446.764	1353.68
447.139	1369.95
447.513	1366.79
447.887	1382.38
448.262	1364.53
448.636	1374.92
449.01	1406.11
449.384	1412.66
449.758	1401.36
450.132	1446.56
450.506	1440.23
450.88	1451.53
451.254	1448.82
451.628	1495.37
452.002	1475.03
452.376	1487.69
452.75	1515.93
453.123	1502.38
453.497	1557.06
453.871	1590.74
454.244	1578.76
454.618	1622.82
454.992	1605.42
455.365	1597.29
455.739	1680.68
456.112	1656.5
456.486	1679.77
456.859	1729.04
457.232	1708.92
457.606	1722.48
457.979	1750.05
458.352	1781.69
458.725	1791.86
459.099	1814.01
459.472	1834.34
459.845	1845.64
460.218	1875.93
460.591	1934.68
460.964	1918.18
461.337	1950.27
461.71	1992.31
462.083	2002.25
462.456	2016.49
462.829	2037.5
463.201	2076.82
463.574	2090.16
463.947	2101.91
464.32	2138.07
464.692	2131.51
465.065	2150.27
465.438	2196.37
465.81	2218.74
466.183	2244.5
466.555	2312.07
466.928	2307.78
467.3	2321.79
467.672	2338.96
468.045	2391.17
468.417	2425.06
468.789	2450.37
469.161	2465.97
469.534	2466.42
469.906	2527.89
470.278	2576.92
470.65	2565.4
471.022	2651.5
471.394	2670.03
471.766	2702.57
472.138	2719.52
472.51	2788.22
472.882	2840.19
473.253	2874.32
473.625	2872.51
473.997	2962
474.369	2936.46
474.74	2978.72
475.112	3042.45
475.484	3104.82
475.855	3139.39
476.227	3152.95
476.598	3274.98
476.97	3275.44
477.341	3372.16
477.713	3418.71
478.084	3421.87
478.455	3489.67
478.827	3577.58
479.198	3614.86
479.569	3659.83
479.94	3758.59
480.311	3754.97
480.682	3828.19
481.053	3961.07
481.424	3964.23
481.795	4032.48
482.166	4100.73
482.537	4121.06
482.908	4188.18
483.279	4255.52
483.65	4349.76
484.021	4399.02
484.391	4466.82
484.762	4504.33
485.133	4542.52
485.503	4609.41
485.874	4676.76
486.244	4751.78
486.615	4816.41
486.985	4890.31
487.356	4998.1
487.726	5020.48
488.097	5137.53
488.467	5136.86
488.837	5222.96
489.207	5332.56
489.578	5353.35
489.948	5407.13
490.318	5540.01
490.688	5516.51
491.058	5624.75
491.428	5685.77
491.798	5747.46
492.168	5852.54
492.538	5887.35
492.908	5861.81
493.278	5990.85
493.648	5989.49
494.017	6081.24
494.387	6123.05
494.757	6178.19
495.126	6271.52
495.496	6323.27
495.866	6294.57
496.235	6384.28
496.605	6486.43
496.974	6517.61
497.344	6536.37
497.713	6650.49
498.082	6669.25
498.452	6685.74
498.821	6775.23
499.19	6798.06
499.559	6827.43
499.928	6885.51
500.298	7000.31
500.667	7024.26
501.036	7038.28
501.405	7127.76
501.774	7131.38
502.143	7241.89
502.512	7232.39
502.88	7296.57
503.249	7320.75
503.618	7363.24
503.987	7402.33
504.356	7476
504.724	7494.76
505.093	7560.07
505.462	7641.42
505.83	7656.11
506.199	7735.43
506.567	7828.99
506.936	7819.27
507.304	7880.74
507.672	7926.61
508.041	8010.45
508.409	8113.28
508.777	8077.57
509.145	8169.09
509.514	8210.22
509.882	8224.23
510.25	8317.56
510.618	8389.43
510.986	8381.29
511.354	8501.51
511.722	8585.13
512.09	8569.08
512.458	8631.23
512.826	8694.73
513.193	8796.87
513.561	8801.39
513.929	8875.52
514.297	8983.08
514.664	9034.16
515.032	9060.37
515.4	9203.42
515.767	9157.99
516.135	9228.5
516.502	9250.87
516.869	9440.92
517.237	9451.77
517.604	9461.49
517.972	9509.4
518.339	9554.14
518.706	9644.08
519.073	9738.54
519.44	9868.94
519.808	9872.1
520.175	9884.98
520.542	10039.33
520.909	10166.55
521.276	10082.72
521.643	10240.23
522.009	10334.01
522.376	10368.81
522.743	10445.19
523.11	10522.03
523.477	10658.75
523.843	10774.67
524.21	10790.95
524.577	10900.77
524.943	11002.46
525.31	11048.57
525.676	11158.39
526.043	11173.99
526.409	11269.35
526.776	11418.73
527.142	11495.11
527.508	11440.19
527.874	11598.38
528.241	11583.24
528.607	11806.06
528.973	11916.57
529.339	11865.95
529.705	11897.13
530.071	12012.83
530.437	12103.9
530.803	12172.83
531.169	12225.03
531.535	12273.17
531.901	12287.85
532.267	12464.12
532.632	12467.51
532.998	12586.15
533.364	12628.64
533.73	12685.58
534.095	12735.53
534.461	12792.93
534.826	12958.57
535.192	12957.44
535.557	12983.43
535.923	13004.9
536.288	13090.09
536.653	13143.2
537.019	13205.8
537.384	13251.22
537.749	13323.53
538.114	13382.97
538.479	13361.5
538.845	13452.57
539.21	13543.19
539.575	13547.71
539.94	13596.07
540.305	13674.03
540.67	13721.49
541.034	13772.11
541.399	13815.05
541.764	13869.96
542.129	13923.29
542.494	13901.15
542.858	13979.11
543.223	13995.38
543.587	14092.78
543.952	14122.16
544.316	14167.35
544.681	14207.58
545.045	14271.31
545.41	14311.53
545.774	14341.59
546.138	14372.32
546.503	14506.55
546.867	14445.76
547.231	14652.31
547.595	14630.39
547.959	14733.21
548.324	14719.66
548.688	14789.26
549.052	14883.72
549.416	14877.17
549.779	14925.3
550.143	14908.58
550.507	15053.66
550.871	15079.87
551.235	15192.86
551.599	15203.03
551.962	15243.03
552.326	15271.51
552.689	15433.99
553.053	15390.6
553.417	15438.96
553.78	15672.4
554.143	15550.37
554.507	15716.24
554.87	15694.09
555.234	15928.66
555.597	15901.77
555.96	15986.74
556.323	16063.12
556.686	16104.48
557.05	16196.45
557.413	16294.3
557.776	16314.87
558.139	16357.8
558.502	16397.35
558.865	16482.09
559.228	16528.65
559.59	16673.05
559.953	16665.14
560.316	16842.31
560.679	16821.97
561.041	16963.66
561.404	16987.17
561.767	17168.86
562.129	17181.51
562.492	17319.36
562.854	17343.99
563.217	17319.59
563.579	17510.09
563.941	17578.34
564.304	17705.79
564.666	17801.16
565.028	17876.86
565.39	17913.7
565.753	17986.91
566.115	18068.95
566.477	18178.32
566.839	18215.38
567.201	18302.16
567.563	18420.57
567.925	18553.9
568.287	18597.75
568.648	18767.46
569.01	18747.57
569.372	18912.09
569.734	18934.69
570.095	19004.97
570.457	19017.17
570.819	19082.93
571.18	19124.06
571.542	19282.47
571.903	19332.87
572.265	19394.79
572.626	19496.25
572.987	19585.97
573.349	19632.29
573.71	19683.82
574.071	19716.81
574.432	19810.14
574.794	19974.21
575.155	20075.67
575.516	19924.26
575.877	20158.83
576.238	20070.25
576.599	20174.88
576.96	20313.18
577.32	20374.65
577.681	20478.37
578.042	20564.02
578.403	20526.06
578.763	20538.03
579.124	20588.88
579.485	20711.14
579.845	20773.06
580.206	20668.65
580.566	20775.32
580.927	20874.75
581.287	20880.4
581.648	20853.51
582.008	21026.38
582.368	20992.94
582.728	21005.59
583.089	21010.79
583.449	21068.41
583.809	21087.85
584.169	21175.76
584.529	21175.08
584.889	21394.28
585.249	21251.01
585.609	21195.42
585.969	21380.5
586.329	21366.94
586.688	21517.89
587.048	21424.79
587.408	21348.63
587.768	21372.81
588.127	21352.25
588.487	21454.17
588.846	21548.63
589.206	21472.47
589.565	21499.36
589.925	21608.06
590.284	21595.18
590.643	21668.63
591.003	21713.82
591.362	21865
591.721	21720.38
592.08	21729.87
592.44	21897.55
592.799	21912.01
593.158	21824.55
593.517	21872.69
593.876	21965.57
594.235	22011.22
594.593	21961.95
594.952	22023.19
595.311	21963.31
595.67	22029.97
596.029	22161.72
596.387	22171.21
596.746	22229.74
597.104	22180.48
597.463	22072
597.822	22305.9
598.18	22232.68
598.538	22256.18
598.897	22399.23
599.255	22247.37
599.613	22627.7
599.972	22406.68
600.33	22435.38
600.688	22508.15
601.046	22644.42
601.404	22677.64
601.762	22534.59
602.12	22697.98
602.478	22755.6
602.836	22647.58
603.194	22637.41
603.552	22632.22
603.91	22563.52
604.268	22729.16
604.625	22619.33
604.983	22728.94
605.341	22737.07
605.698	22888.93
606.056	22919.21
606.413	22930.06
606.771	22999.21
607.128	23035.37
607.485	22989.04
607.843	23008.7
608.2	23023.84
608.557	23202.6
608.914	23105.65
609.272	23206.44
609.629	23267.68
609.986	23247.79
610.343	23235.59
610.7	23310.39
611.057	23331.63
611.414	23287.34
611.771	23390.39
612.127	23472.65
612.484	23510.38
612.841	23616.82
613.198	23499.54
613.554	23563.26
613.911	23610.5
614.267	23717.16
614.624	23649.36
614.98	23680.55
615.337	23850.71
615.693	23803.48
616.05	23666.76
616.406	23757.61
616.762	23810.04
617.118	23765.52
617.475	23784.05
617.831	23983.59
618.187	23880.09
618.543	24000.32
618.899	24009.81
619.255	24085.74
619.611	24007.32
619.967	24193.53
620.323	24285.51
620.678	24156.92
621.034	24090.26
621.39	23909.7
621.746	23882.58
622.101	24330.25
622.457	24060.43
622.812	24121.22
623.168	24264.72
623.523	24215.68
623.879	24295
624.234	24133.87
624.589	24267.88
624.945	24283.25
625.3	24228.56
625.655	24196.69
626.01	24248.9
626.365	24296.8
626.72	24169.12
627.075	24148.79
627.43	24315.79
627.785	24166.19
628.14	24253.19
628.495	24230.59
628.85	24186.53
629.205	24096.13
629.559	24255.9
629.914	24161.44
630.269	24234.43
630.623	24027.66
630.978	24085.06
631.332	24110.59
631.687	24205.51
632.041	24019.75
632.396	24156.24
632.75	23977.49
633.104	23942.92
633.459	23901.79
633.813	23995.57
634.167	24022.24
634.521	23890.71
634.875	23912.63
635.229	23889.36
635.583	23748.12
635.937	23777.72
636.291	23715.58
636.645	23824.27
636.999	23767.55
637.352	23922.35
637.706	23706.99
638.06	23669.7
638.413	23683.71
638.767	23539.08
639.121	23660.21
639.474	23428.13
639.828	23514.45
640.181	23498.86
640.534	23523.04
640.888	23461.35
641.241	23393.55
641.594	23518.75
641.947	23598.52
642.301	23408.69
642.654	23548.8
643.007	23441.91
643.36	23457.5
643.713	23271.75
644.066	23465.19
644.419	23231.52
644.771	23175.93
645.124	23053
645.477	22932.77
645.83	22804.41
646.182	22727.81
646.535	22558.55
646.888	22606.68
647.24	22397.19
647.593	22586.57
647.945	22493.69
648.298	22399.23
648.65	22437.42
649.002	22439
649.355	22440.13
649.707	22382.28
650.059	22475.38
650.411	22789.5
650.763	22750.18
651.115	22923.06
651.467	22969.16
651.819	22844.64
652.171	22755.83
652.523	22794.25
652.875	22854.81
653.227	22772.1
653.578	22947.01
653.93	22912.43
654.282	22655.49
654.633	22678.32
654.985	22860.01
655.337	22787.47
655.688	22758.99
656.039	22786.34
656.391	22567.81
656.742	22575.95
657.094	22643.97
657.445	22724.64
657.796	22648.03
658.147	22646
658.498	22690.29
658.849	22707.69
659.2	22762.83
659.551	22619.79
659.902	22737.3
660.253	22528.94
660.604	22669.73
660.955	22472.9
661.306	22570.07
661.656	22609.62
662.007	22557.42
662.358	22589.28
662.708	22584.53
663.059	22564.19
663.409	22419.79
663.76	22662.27
664.11	22590.41
664.461	22635.15
664.811	22568.26
665.161	22551.09
665.511	22486.23
665.862	22441.94
666.212	22519.9
666.562	22638.77
666.912	22555.83
667.262	22587.25
667.612	22563.52
667.962	22517.42
668.312	22534.14
668.662	22592.22
669.011	22604.42
669.361	22556.06
669.711	22570.07
670.06	22484.87
670.41	22409.4
670.76	22351.77
671.109	22444.88
671.459	22443.97
671.808	22464.31
672.157	22382.73
672.507	22300.25
672.856	22387.02
673.205	22333.47
673.554	22455.95
673.904	22302.05
674.253	22425.67
674.602	22326.01
674.951	22116.75
675.3	21779.36
675.649	22327.82
675.998	22193.81
676.346	22201.04
676.695	22258.44
677.044	22208.27
677.393	22280.81
677.741	22369.17
678.09	22192.91
678.438	22084.21
678.787	22252.11
679.135	22280.13
679.484	21985.68
679.832	22142.29
680.181	22142.51
680.529	22140.25
680.877	21996.07
681.225	21915.4
681.573	22136.18
681.922	21962.18
682.27	21939.8
682.618	21861.39
682.966	21926.92
683.314	21929.64
683.661	21840.37
684.009	21712.24
684.357	21695.74
684.705	21742.52
685.053	21731.9
685.4	21587.05
685.748	21555.86
686.095	21559.02
686.443	21521.06
686.79	21442.42
687.138	21366.94
687.485	21512.92
687.832	21387.5
688.18	21409.87
688.527	21305.24
688.874	21270.9
689.221	21239.94
689.568	21252.14
689.915	21111.58
690.262	21127.4
690.609	21059.15
690.956	21037.68
691.303	21007.4
691.65	20916.33
691.997	20905.26
692.344	20662.1
692.69	20661.19
693.037	20637.69
693.383	20476.57
693.73	20650.35
694.077	20542.1
694.423	20472.05
694.769	20439.05
695.116	20308.89
695.462	20356.57
695.808	20294.42
696.155	20386.4
696.501	20181.43
696.847	20167.87
697.193	20163.58
697.539	20202.45
697.885	20008.78
698.231	19978.95
698.577	20046.52
698.923	19886.98
699.269	19776.02
699.614	19753.87
699.96	19716.36
700.306	19743.7
700.651	19647.21
700.997	19571.51
701.342	19529.25
701.688	19584.16
702.033	19467.33
702.379	19444.5
702.724	19426.2
703.069	19445.86
703.415	19164.06
703.76	19334.68
704.105	19214.9
704.45	19145.53
704.795	18967
705.14	19007.45
705.485	18943.05
705.83	18917.06
706.175	18906.89
706.52	18901.24
706.865	18805.65
707.209	18737.63
707.554	18670.74
707.899	18653.56
708.243	18626.22
708.588	18575.37
708.932	18505.32
709.277	18501.25
709.621	18490.4
709.966	18344.42
710.31	18444.76
710.654	18388.71
710.998	18295.15
711.342	18253.12
711.687	18268.71
712.031	18190.07
712.375	18156.4
712.719	18237.53
713.063	18139
713.407	18212.44
713.75	18025.33
714.094	18139.23
714.438	17938.55
714.782	17998.21
715.125	17892.23
715.469	17888.84
715.812	17835.05
716.156	17826.24
716.499	17720.48
716.843	17780.37
717.186	17612.91
717.53	17752.57
717.873	17833.02
718.216	17722.74
718.559	17678.45
718.902	17606.59
719.246	17597.77
719.589	17496.53
719.932	17400.04
720.275	17382.41
720.617	17374.73
720.96	17360.72
721.303	17367.72
721.646	17385.35
721.989	17245.92
722.331	17329.08
722.674	17366.82
723.016	17266.71
723.359	17223.32
723.701	17290.21
724.044	17184.68
724.386	17114.85
724.729	17181.29
725.071	17168.18
725.413	17078.92
725.755	17154.17
726.097	17062.42
726.439	17032.59
726.782	17015.64
727.124	17067.16
727.465	17003.66
727.807	16969.09
728.149	16956.43
728.491	17015.41
728.833	17054.96
729.175	16966.38
729.516	16872.14
729.858	16894.97
730.199	16953.49
730.541	16801.63
730.882	16777.68
731.224	16832.59
731.565	16724.12
731.906	16760.05
732.248	16858.13
732.589	16693.84
732.93	16646.38
733.271	16669.66
733.612	16649.77
733.953	16730
734.294	16587.18
734.635	16583.11
734.976	16606.39
735.317	16542.66
735.658	16585.14
735.999	16492.94
736.339	16506.95
736.68	16547.63
737.021	16461.3
737.361	16414.3
737.702	16521.19
738.042	16521.42
738.383	16448.88
738.723	16472.38
739.063	16360.74
739.404	16398.48
739.744	16330.91
740.084	16296.79
740.424	16358.03
740.764	16276.9
741.104	16404.13
741.444	16210.46
741.784	16187.19
742.124	16255.89
742.464	16132.5
742.804	16114.42
743.143	16136.57
743.483	16158.04
743.823	16157.58
744.162	16090.24
744.502	16205.49
744.841	16003.46
745.181	16187.19
745.52	16097.92
745.86	16039.39
746.199	16052.73
746.538	15998.27
746.877	16002.33
747.216	15986.74
747.556	16000.98
747.895	16007.31
748.234	15893.86
748.573	15948.55
748.911	15877.14
749.25	15861.32
749.589	15866.52
749.928	15810.25
750.267	15851.6
750.605	15788.33
750.944	15675.56
751.283	15713.53
751.621	15689.12
751.96	15664.04
752.298	15617.94
752.636	15732.06
752.975	15643.7
753.313	15568.45
753.651	15544.94
753.989	15600.08
754.327	15499.97
754.666	15354.89
755.004	15451.16
755.342	15452.97
755.679	15403.48
756.017	15358.96
756.355	15419.07
756.693	15261.79
757.031	15356.02
757.368	15168.23
757.706	15151.28
758.044	15247.78
758.381	15141.57
758.719	15196.93
759.056	15125.07
759.394	15059.99
759.731	14960.55
760.068	14980.67
760.405	14915.58
760.743	14811.4
761.08	14835.13
761.417	14875.13
761.754	14769.37
762.091	14798.75
762.428	14703.84
762.765	14555.82
763.102	14678.53
763.438	14619.09
763.775	14496.61
764.112	14516.27
764.449	14490.96
764.785	14442.83
765.122	14229.27
765.458	14306.11
765.795	14281.02
766.131	14206
766.467	14138.43
766.804	14026.79
767.14	14035.61
767.476	13982.05
767.812	13942.27
768.148	14005.32
768.485	13890.07
768.821	13819.79
769.157	13758.1
769.492	13778.66
769.828	13732.79
770.164	13572.57
770.5	13621.61
770.836	13562.62
771.171	13580.93
771.507	13490.99
771.842	13387.71
772.178	13365.79
772.513	13355.85
772.849	13321.05
773.184	13234.27
773.519	13236.3
773.855	13155.63
774.19	13046.48
774.525	13073.82
774.86	13030.89
775.195	12996.54
775.53	12969.42
775.865	12859.37
776.2	12800.38
776.535	12668.86
776.87	12704.79
777.205	12800.61
777.539	12591.8
777.874	12681.29
778.209	12502.76
778.543	12519.04
778.878	12441.52
779.212	12431.58
779.547	12334.41
779.881	12383.22
780.215	12244.24
780.55	12298.25
780.884	12217.12
781.218	12072.27
781.552	12132.6
781.886	12021.42
782.22	12004.47
782.554	11944.14
782.888	11882.44
783.222	11829.79
783.556	11783.46
783.889	11762.22
784.223	11622.11
784.557	11670.7
784.89	11620.08
785.224	11563.35
785.557	11577.82
785.891	11482.45
786.224	11469.57
786.558	11466.86
786.891	11376.01
787.224	11316.58
787.557	11312.74
787.891	11313.42
788.224	11244.04
788.557	11197.94
788.89	11211.05
789.223	11165.17
789.556	11063.93
789.888	11083.82
790.221	11045.18
790.554	10932.64
790.887	10935.8
791.219	10877.72
791.552	10885.18
791.884	10766.76
792.217	10764.05
792.549	10714.56
792.882	10630.72
793.214	10648.8
793.546	10669.59
793.879	10544.4
794.211	10437.28
794.543	10531.74
794.875	10423.05
795.207	10473.89
795.539	10402.93
795.871	10406.32
796.203	10302.6
796.535	10177.85
796.867	10281.81
797.198	10255.59
797.53	10200.9
797.862	10154.8
798.193	10233.9
798.525	10066.22
798.856	10122.04
799.188	10053.79
799.519	10015.6
799.85	9914.36
800.182	9964.75
800.513	9921.36
800.844	9770.18
801.175	9825.55
801.506	9888.37
801.837	9714.36
802.168	9798.2
802.499	9762.72
802.83	9654.25
803.161	9720.24
803.491	9726.11
803.822	9649.28
804.153	9622.84
804.483	9485.22
804.814	9441.38
805.145	9393.47
805.475	9518.21
805.805	9378.55
806.136	9413.13
806.466	9378.33
806.796	9379
807.126	9215.17
807.457	9282.28
807.787	9290.19
808.117	9253.81
808.447	9219.46
808.777	9213.59
809.107	9200.7
809.436	9081.84
809.766	9101.95
810.096	9063.53
810.426	9093.59
810.755	9106.47
811.085	9011.56
811.414	8956.64
811.744	8901.73
812.073	8943.76
812.403	8881.16
812.732	8834.39
813.061	8874.61
813.39	8781.73
813.719	8814.27
814.049	8805.01
814.378	8791.45
814.707	8779.92
815.036	8692.24
815.365	8640.27
815.693	8716.42
816.022	8703.09
816.351	8575.18
816.68	8554.85
817.008	8655.41
817.337	8524.11
817.665	8475.98
817.994	8465.58
818.322	8480.5
818.651	8430.78
818.979	8409.99
819.307	8481.4
819.636	8407.28
819.964	8379.26
820.292	8393.27
820.62	8363.89
820.948	8366.83
821.276	8356.66
821.604	8313.5
821.932	8315.53
822.259	8314.4
822.587	8313.04
822.915	8346.04
823.243	8302.42
823.57	8338.58
823.898	8299.03
824.225	8275.08
824.553	8293.38
824.88	8281.41
825.207	8292.48
825.535	8297.68
825.862	8308.3
826.189	8338.58
826.516	8328.18
826.843	8353.5
827.17	8249.54
827.497	8331.35
827.824	8300.62
828.151	8347.85
828.478	8311.91
828.805	8337.9
829.131	8344.23
829.458	8270.11
829.785	8273.95
830.111	8255.19
830.438	8356.43
830.764	8324.34
831.09	8274.85
831.417	8184.69
831.743	8199.83
832.069	8242.31
832.395	8251.58
832.722	8158.92
833.048	8198.24
833.374	8188.08
833.7	8143.11
834.026	8137.91
834.351	8209.77
834.677	8178.58
835.003	8131.58
835.329	8199.15
835.654	8133.84
835.98	8127.74
836.306	8164.12
836.631	8109.66
836.956	8106.04
837.282	8118.92
837.607	8038.48
837.932	8034.63
838.258	8014.29
838.583	8015.42
838.908	7972.26
839.233	7986.95
839.558	7996.44
839.883	7965.93
840.208	7923
840.533	7993.05
840.858	7935.43
841.182	8004.35
841.507	7972.94
841.832	7904.47
842.156	7858.59
842.481	7848.88
842.805	7912.38
843.13	7754.41
843.454	7787.41
843.778	7797.8
844.103	7746.05
844.427	7743.79
844.751	7741.31
845.075	7692.27
845.399	7652.27
845.723	7604.59
846.047	7647.98
846.371	7596.68
846.695	7603.68
847.019	7470.81
847.343	7468.32
847.666	7494.53
847.99	7367.08
848.313	7417.47
848.637	7385.61
848.96	7370.7
849.284	7332.28
849.607	7258.61
849.931	7225.16
850.254	7242.79
850.577	7198.27
850.9	7157.37
851.223	7156.92
851.546	7108.1
851.869	7096.13
852.192	7135.45
852.515	7037.15
852.838	7017.71
853.161	6978.16
853.483	6987.2
853.806	6923.48
854.129	6908.56
854.451	6941.55
854.774	6911.05
855.096	6867.21
855.419	6830.15
855.741	6784.27
856.063	6766.19
856.385	6742.92
856.708	6689.36
857.03	6742.69
857.352	6791.5
857.674	6697.72
857.996	6663.6
858.318	6625.63
858.64	6664.73
858.961	6634.44
859.283	6610.49
859.605	6599.87
859.926	6596.93
860.248	6608.46
860.57	6556.25
860.891	6593.32
861.212	6526.2
861.534	6515.8
861.855	6527.78
862.176	6488.01
862.498	6441.45
862.819	6464.05
863.14	6446.88
863.461	6412.76
863.782	6348.12
864.103	6355.36
864.424	6390.83
864.745	6449.59
865.065	6349.48
865.386	6357.62
865.707	6373.89
866.027	6366.88
866.348	6367.78
866.668	6342.93
866.989	6312.87
867.309	6307.67
867.63	6250.73
867.95	6312.42
868.27	6211.18
868.59	6263.83
868.91	6262.25
869.23	6276.49
869.55	6246.21
869.87	6241.91
870.19	6193.55
870.51	6167.11
870.83	6139.54
871.15	6160.33
871.469	6226.32
871.789	6188.35
872.109	6179.54
872.428	6111.97
872.748	6172.54
873.067	6159.43
873.386	6177.06
873.706	6115.59
874.025	6042.82
874.344	6075.59
874.663	6066.55
874.982	6095.02
875.301	6068.58
875.62	6089.15
875.939	6074.23
876.258	6078.98
876.577	6037.17
876.896	6040.79
877.214	6032.88
877.533	6023.61
877.852	6027.45
878.17	6015.25
878.489	5997.85
878.807	5953.11
879.125	5933.45
879.444	5966.67
879.762	5930.06
880.08	5946.1
880.398	5906.1
880.716	5899.32
881.034	5887.57
881.352	5869.72
881.67	5885.09
881.988	5859.78
882.306	5847.57
882.624	5835.6
882.941	5821.13
883.259	5801.25
883.577	5768.25
883.894	5852.32
884.212	5760.12
884.529	5744.3
884.846	5739.55
885.164	5750.63
885.481	5723.06
885.798	5723.73
886.115	5685.09
886.432	5683.73
886.75	5680.57
887.067	5685.99
887.383	5647.58
887.7	5637.18
888.017	5669.5
888.334	5650.97
888.651	5624.3
888.967	5599.9
889.284	5569.39
889.6	5553.34
889.917	5554.7
890.233	5533
890.55	5563.06
890.866	5500.69
891.182	5493.01
891.498	5449.16
891.815	5489.16
892.131	5441.48
892.447	5469.05
892.763	5475.38
893.079	5414.36
893.395	5381.37
893.71	5379.79
894.026	5352.9
894.342	5409.84
894.657	5298.66
894.973	5344.53
895.289	5309.73
895.604	5275.38
895.92	5244.88
896.235	5258.21
896.55	5286.91
896.865	5234.48
897.181	5264.54
897.496	5205.78
897.811	5197.65
898.126	5187.7
898.441	5196.97
898.756	5164.65
899.071	5097.99
899.386	5098.89
899.7	5110.42
900.015	5005.79
900.33	5061.83
900.644	5026.8
900.959	5046.46
901.273	5039.23
901.588	4975.28
901.902	4978.89
902.216	4960.82
902.531	4968.05
902.845	4954.04
903.159	4904.09
903.473	4858.67
903.787	4857.09
904.101	4873.81
904.415	4841.95
904.729	4831.55
905.042	4780.71
905.356	4786.81
905.67	4776.64
905.984	4798.11
906.297	4732.8
906.611	4749.07
906.924	4711.1
907.237	4688.51
907.551	4682.63
907.864	4678.56
908.177	4646.93
908.491	4673.59
908.804	4666.59
909.117	4618.68
909.43	4572.8
909.743	4584.1
910.056	4583.42
910.368	4538
910.681	4567.15
910.994	4527.61
911.307	4487.83
911.619	4434.28
911.932	4450.77
912.244	4394.28
912.557	4413.49
912.869	4396.31
913.181	4430.66
913.494	4411.9
913.806	4361.06
914.118	4324.67
914.43	4321.06
914.742	4315.64
915.054	4259.14
915.366	4271.79
915.678	4286.94
915.99	4252.59
916.302	4233.83
916.613	4200.16
916.925	4221.63
917.236	4196.77
917.548	4167.16
917.859	4149.09
918.171	4169.65
918.482	4117.22
918.794	4122.65
919.105	4108.18
919.416	4077.9
919.727	4066.83
920.038	4086.26
920.349	4018.92
920.66	3980.28
920.971	4052.37
921.282	4003.78
921.593	3951.58
921.903	3992.93
922.214	3921.07
922.525	3893.27
922.835	3912.71
923.146	3910.22
923.456	3870
923.767	3888.3
924.077	3854.63
924.387	3865.93
924.697	3833.61
925.008	3819.38
925.318	3821.86
925.628	3798.36
925.938	3785.93
926.248	3709.1
926.558	3706.61
926.867	3701.64
927.177	3716.55
927.487	3669.55
927.796	3651.25
928.106	3630.68
928.416	3648.31
928.725	3658.7
929.034	3630
929.344	3646.73
929.653	3607.63
929.962	3568.54
930.271	3548.88
930.581	3570.34
930.89	3518.82
931.199	3511.14
931.508	3496.22
931.817	3523.34
932.125	3514.07
932.434	3512.49
932.743	3434.75
933.051	3448.54
933.36	3429.78
933.669	3436.34
933.977	3407.41
934.286	3400.4
934.594	3373.51
934.902	3335.32
935.21	3354.76
935.519	3322.89
935.827	3329.67
936.135	3323.34
936.443	3285.15
936.751	3282.44
937.059	3292.16
937.367	3280.86
937.674	3250.8
937.982	3225.27
938.29	3206.96
938.597	3249.9
938.905	3179.62
939.213	3198.83
939.52	3203.8
939.827	3176.68
940.135	3172.16
940.442	3198.15
940.749	3150.02
941.056	3140.07
941.363	3136.01
941.67	3091.03
941.977	3138.72
942.284	3092.62
942.591	3055.78
942.898	3032.28
943.205	3038.15
943.511	3010.13
943.818	3026.18
944.125	3046.29
944.431	2999.06
944.738	2946.18
945.044	2979.85
945.35	2983.69
945.657	2951.6
945.963	2905.05
946.269	2920.42
946.575	2940.98
946.881	2906.86
947.187	2905.73
947.493	2852.17
947.799	2849.46
948.105	2848.78
948.41	2834.32
948.716	2842.23
949.022	2822.34
949.327	2864.37
949.633	2824.83
949.938	2783.7
950.244	2812.85
950.549	2771.04
950.854	2766.75
951.16	2760.65
951.465	2746.41
951.77	2726.52
952.075	2703.93
952.38	2731.5
952.685	2704.6
952.99	2679.97
953.294	2714.1
953.599	2670.48
953.904	2658.05
954.209	2652.63
954.513	2637.04
954.818	2631.16
955.122	2603.82
955.426	2626.19
955.731	2583.48
956.035	2572.63
956.339	2576.7
956.643	2596.58
956.948	2550.26
957.252	2562.91
957.556	2529.24
957.86	2519.3
958.163	2563.14
958.467	2525.85
958.771	2500.77
959.075	2496.93
959.378	2507.55
959.682	2478.4
959.985	2487.21
960.289	2449.24
960.592	2449.24
960.896	2470.71
961.199	2448.11
961.502	2422.13
961.805	2387.1
962.108	2376.7
962.411	2404.95
962.714	2386.65
963.017	2358.85
963.32	2369.92
963.623	2341.68
963.926	2325.4
964.228	2345.52
964.531	2322.24
964.833	2329.47
965.136	2295.12
965.438	2296.25
965.741	2269.81
966.043	2280.21
966.345	2258.97
966.648	2287.89
966.95	2270.04
967.252	2242.7
967.554	2218.74
967.856	2221.45
968.158	2225.75
968.46	2257.84
968.761	2201.79
969.063	2218.97
969.365	2211.28
969.666	2179.42
969.968	2169.48
970.269	2182.13
970.571	2196.37
970.872	2144.84
971.174	2163.38
971.475	2128.12
971.776	2104.85
972.077	2096.26
972.378	2109.59
972.679	2101.46
972.98	2075.02
973.281	2077.5
973.582	2108.01
973.883	2089.7
974.183	2042.25
974.484	2078.18
974.785	2046.99
975.085	2061.91
975.386	2027.11
975.686	2046.77
975.986	1990.27
976.287	1998.18
976.587	2001.8
976.887	2004.51
977.187	1977.84
977.487	1981.46
977.787	1981.01
978.087	1965.87
978.387	1934.91
978.687	1950.27
978.987	1920.67
979.286	1909.6
979.586	1892.2
979.885	1893.55
980.185	1914.12
980.484	1899.2
980.784	1910.27
981.083	1889.94
981.382	1867.56
981.682	1870.28
981.981	1856.49
982.28	1854
982.579	1870.73
982.878	1847.9
983.177	1830.95
983.475	1814.23
983.774	1804.97
984.073	1819.43
984.372	1783.27
984.67	1774.01
984.969	1761.13
985.267	1762.93
985.566	1796.38
985.864	1788.7
986.162	1741.92
986.461	1767.91
986.759	1759.77
987.057	1749.6
987.355	1730.84
987.653	1720.68
987.951	1724.52
988.249	1689.49
988.547	1702.37
988.844	1693.33
989.142	1689.26
989.44	1683.84
989.737	1655.37
990.035	1676.61
990.332	1650.85
990.63	1676.83
990.927	1640.68
991.224	1659.21
991.521	1631.41
991.819	1628.7
992.116	1638.42
992.413	1629.6
992.71	1615.37
993.006	1621.02
993.303	1594.8
993.6	1610.62
993.897	1574.46
994.193	1600
994.49	1564.75
994.787	1585.54
995.083	1548.02
995.379	1545.09
995.676	1544.86
995.972	1536.95
996.268	1535.6
996.565	1525.2
996.861	1494.92
997.157	1532.66
997.453	1508.25
997.749	1501.92
998.044	1519.1
998.34	1499.66
998.636	1477.74
998.932	1486.33
999.227	1463.96
999.523	1454.47
999.818	1438.42
1000.114	1431.87
1000.409	1440.23
1000.704	1408.82
1001	1428.25
1001.295	1401.59
1001.59	1415.82
1001.885	1410.63
1002.18	1405.43
1002.475	1396.62
1002.77	1385.09
1003.065	1389.38
1003.359	1376.05
1003.654	1365.43
1003.949	1334.7
1004.243	1364.53
1004.538	1326.79
1004.832	1361.14
1005.127	1306.22
1005.421	1331.98
1005.715	1309.16
1006.009	1308.03
1006.304	1288.37
1006.598	1293.79
1006.892	1300.8
1007.186	1298.54
1007.48	1265.77
1007.773	1285.43
1008.067	1267.81
1008.361	1248.15
1008.655	1262.38
1008.948	1247.47
1009.242	1251.08
1009.535	1253.79
1009.829	1237.52
1010.122	1220.8
1010.415	1197.07
1010.708	1202.72
1011.001	1228.48
1011.295	1192.33
1011.588	1204.3
1011.881	1180.58
1012.173	1177.19
1012.466	1179.45
1012.759	1177.41
1013.052	1161.37
1013.344	1155.94
1013.637	1148.49
1013.93	1114.36
1014.222	1148.26
1014.514	1135.15
1014.807	1139.22
1015.099	1137.41
1015.391	1120.69
1015.683	1126.34
1015.976	1118.88
1016.268	1075.04
1016.56	1091.31
1016.851	1098.77
1017.143	1080.01
1017.435	1061.94
1017.727	1039.11
1018.018	1085.21
1018.31	1076.85
1018.602	1063.52
1018.893	1054.25
1019.185	1052.9
1019.476	1019.9
1019.767	1004.99
1020.058	998.21
1020.35	1029.85
1020.641	1008.6
1020.932	1000.69
1021.223	984.65
1021.514	979.68
1021.804	1005.89
1022.095	955.95
1022.386	993.69
1022.677	986.91
1022.967	980.36
1023.258	970.86
1023.548	966.12
1023.839	962.5
1024.129	944.42
1024.419	940.13
1024.709	924.99
1025	935.39
1025.29	909.4
1025.58	899.68
1025.87	900.81
1026.16	927.7
1026.449	891.09
1026.739	885.22
1027.029	923.63
1027.319	906.69
1027.608	851.77
1027.898	900.58
1028.187	858.78
1028.477	870.98
1028.766	885.67
1029.055	866.23
1029.344	857.65
1029.634	836.18
1029.923	828.72
1030.212	850.19
1030.501	859.68
1030.79	828.95
1031.078	818.78
1031.367	819.68
1031.656	804.32
1031.945	805.67
1032.233	817.65
1032.522	810.87
1032.81	812.9
1033.099	783.3
1033.387	783.52
1033.675	771.1
1033.963	770.87
1034.251	793.92
1034.54	754.6
1034.828	769.29
1035.116	764.54
1035.403	762.96
1035.691	786.01
1035.979	766.12
1036.267	748.27
1036.554	729.97
1036.842	766.35
1037.129	743.07
1037.417	737.65
1037.704	715.5
1037.992	741.72
1038.279	725.22
1038.566	725
1038.853	725
1039.14	725
