Data from tablewood_brown_FLMS001491_021.txt Node
Date: Tue Feb 07 11:10:13 GMT 2017
User: dcchb
Spectrometer: FLMS00149
Trigger mode: 0
Integration Time (sec): 2.000000E-2
Scans to average: 10
Electric dark correction enabled: true
Nonlinearity correction enabled: false
Boxcar width: 0
XAxis mode: Wavelengths
Number of Pixels in Spectrum: 2048
>>>>>Begin Spectral Data<<<<<
341.393	-7.7
341.776	-7.7
342.16	-7.7
342.543	-59.22
342.927	-51.31
343.31	-61.26
343.693	-65.32
344.077	-72.55
344.46	-49.96
344.843	-56.51
345.226	-62.61
345.61	-16.51
345.993	-12.22
346.376	-2.27
346.759	36.6
347.142	15.8
347.525	38.4
347.908	52.64
348.291	75.24
348.674	87.22
349.057	93.32
349.44	115.24
349.823	143.03
350.206	161.79
350.588	218.06
350.971	225.97
351.354	231.84
351.737	237.95
352.119	237.49
352.502	245.4
352.884	280.2
353.267	286.76
353.65	303.71
354.032	277.94
354.414	278.4
354.797	309.36
355.179	334.21
355.562	318.17
355.944	336.25
356.326	331.5
356.709	321.11
357.091	352.52
357.473	329.47
357.855	334.21
358.238	351.39
358.62	322.01
359.002	335.12
359.384	334.21
359.766	343.48
360.148	329.02
360.53	333.31
360.912	316.36
361.294	332.86
361.676	343.03
362.057	330.82
362.439	343.03
362.821	329.69
363.203	315.23
363.584	318.85
363.966	318.62
364.348	312.97
364.729	343.48
365.111	322.46
365.493	318.17
365.874	326.08
366.256	315.01
366.637	326.98
367.019	331.05
367.4	301.9
367.781	318.62
368.163	318.85
368.544	316.59
368.925	307.77
369.306	337.15
369.688	303.48
370.069	312.07
370.45	304.61
370.831	314.33
371.212	298.06
371.593	306.64
371.974	318.85
372.355	306.19
372.736	333.08
373.117	322.46
373.498	325.18
373.879	305.29
374.26	328.34
374.641	322.46
375.021	312.97
375.402	318.62
375.783	323.59
376.163	350.49
376.544	324.95
376.925	346.87
377.305	316.36
377.686	338.73
378.066	339.86
378.447	353.2
378.827	355.68
379.208	329.92
379.588	332.18
379.968	348.68
380.349	340.32
380.729	346.19
381.109	369.47
381.489	355.68
381.87	343.48
382.25	345.97
382.63	352.07
383.01	361.11
383.39	343.93
383.77	365.85
384.15	366.3
384.53	359.75
384.91	359.75
385.29	375.8
385.67	382.12
386.049	381.67
386.429	360.43
386.809	365.85
387.189	401.11
387.568	380.99
387.948	396.13
388.328	367.21
388.707	413.08
389.087	371.5
389.466	406.3
389.846	384.61
390.225	380.99
390.605	398.62
390.984	412.18
391.363	404.95
391.743	406.98
392.122	390.26
392.501	412.4
392.881	405.85
393.26	422.35
393.639	411.27
394.018	418.28
394.397	430.93
394.776	460.09
395.155	433.42
395.534	433.87
395.913	438.62
396.292	439.3
396.671	446.08
397.05	444.72
397.429	426.42
397.808	434.1
398.186	435.23
398.565	472.29
398.944	440.2
399.323	457.37
399.701	493.53
400.08	465.74
400.458	456.25
400.837	488.33
401.215	482.01
401.594	466.41
401.972	459.86
402.351	484.72
402.729	512.51
403.107	493.53
403.486	524.94
403.864	494.66
404.242	498.73
404.62	506.19
404.999	518.39
405.377	503.7
405.755	509.13
406.133	529.46
406.511	526.07
406.889	519.52
407.267	539.41
407.645	533.31
408.023	555
408.401	560.2
408.779	536.24
409.156	547.09
409.534	554.1
409.912	548.9
410.29	572.17
410.667	565.85
411.045	578.95
411.422	584.6
411.8	581.21
412.178	598.61
412.555	594.09
412.933	603.13
413.31	609.46
413.687	635.9
414.065	628.44
414.442	601.78
414.819	648.33
415.197	633.19
415.574	615.11
415.951	669.35
416.328	650.59
416.705	635.45
417.082	644.71
417.46	641.55
417.837	651.49
418.214	691.95
418.591	657.37
418.967	663.92
419.344	704.83
419.721	695.79
420.098	696.01
420.475	707.09
420.852	694.66
421.228	695.33
421.605	710.02
421.982	721.55
422.358	711.83
422.735	741.21
423.111	718.39
423.488	750.47
423.864	752.28
424.241	754.54
424.617	759.51
424.994	766.07
425.37	746.41
425.746	762.9
426.123	778.95
426.499	758.16
426.875	795.45
427.251	792.51
427.627	788.44
428.003	803.58
428.379	807.2
428.756	818.04
429.132	834.09
429.507	852.17
429.883	827.31
430.259	837.25
430.635	871.6
431.011	885.84
431.387	881.77
431.763	903.24
432.138	887.42
432.514	914.76
432.89	925.61
433.265	943.46
433.641	950.02
434.016	949.79
434.392	966.06
434.767	977.59
435.143	969
435.518	969.45
435.894	1001.99
436.269	996.12
436.644	1031.15
437.02	1041.99
437.395	1032.95
437.77	1053.29
438.145	1071.82
438.52	1076.57
438.895	1094.65
439.271	1107.08
439.646	1106.17
440.021	1118.6
440.395	1101.65
440.77	1119.5
441.145	1150.01
441.52	1153.4
441.895	1155.66
442.27	1159.05
442.645	1171.93
443.019	1177.36
443.394	1183.91
443.769	1175.32
444.143	1156.11
444.518	1190.92
444.892	1201.08
445.267	1193.85
445.641	1225.04
446.016	1210.35
446.39	1217.58
446.764	1226.39
447.139	1235.43
447.513	1260.52
447.887	1245.38
448.262	1262.33
448.636	1252.83
449.01	1257.13
449.384	1299.61
449.758	1289.67
450.132	1309.78
450.506	1309.78
450.88	1334.19
451.254	1315.66
451.628	1347.75
452.002	1328.99
452.376	1357.69
452.75	1366.05
453.123	1401.98
453.497	1376.9
453.871	1405.82
454.244	1427.97
454.618	1422.55
454.992	1451.25
455.365	1455.99
455.739	1490.57
456.112	1507.74
456.486	1533.28
456.859	1524.92
457.232	1553.84
457.606	1565.37
457.979	1538.7
458.352	1580.28
458.725	1615.08
459.099	1638.13
459.472	1663.22
459.845	1676.78
460.218	1689.66
460.591	1694.86
460.964	1710.45
461.337	1744.35
461.71	1775.98
462.083	1813.27
462.456	1826.15
462.829	1815.08
463.201	1840.16
463.574	1859.82
463.947	1861.86
464.32	1926.71
464.692	1928.07
465.065	1925.36
465.438	1975.98
465.81	2012.14
466.183	2039.93
466.555	2110.89
466.928	2065.47
467.3	2084.45
467.672	2141.62
468.045	2189.53
468.417	2185.69
468.789	2215.97
469.161	2264.11
469.534	2299.13
469.906	2310.66
470.278	2360.38
470.65	2373.71
471.022	2424.55
471.394	2504.1
471.766	2526.7
472.138	2534.38
472.51	2588.17
472.882	2619.58
473.253	2670.88
473.625	2722.63
473.997	2813.92
474.369	2805.11
474.74	2860.25
475.112	2902.96
475.484	2992.22
475.855	3031.32
476.227	3080.36
476.598	3141.6
476.97	3160.81
477.341	3271.31
477.713	3331.42
478.084	3366
478.455	3497.3
478.827	3498.65
479.198	3657.74
479.569	3589.5
479.94	3728.02
480.311	3775.25
480.682	3922.14
481.053	3974.34
481.424	4035.13
481.795	4052.53
482.166	4151.29
482.537	4212.3
482.908	4323.71
483.279	4353.77
483.65	4521
484.021	4563.71
484.391	4636.47
484.762	4676.25
485.133	4747.21
485.503	4790.14
485.874	4876.24
486.244	4995.56
486.615	5104.03
486.985	5124.82
487.356	5267.42
487.726	5282.11
488.097	5304.93
488.467	5384.25
488.837	5525.72
489.207	5570.91
489.578	5662.66
489.948	5760.51
490.318	5839.15
490.688	5876.89
491.058	5951.02
491.428	6002.99
491.798	6083.89
492.168	6237.56
492.538	6313.72
492.908	6380.61
493.278	6397.56
493.648	6444.11
494.017	6527.95
494.387	6589.42
494.757	6646.36
495.126	6689.53
495.496	6706.02
495.866	6851.33
496.235	6876.87
496.605	6951.89
496.974	7085
497.344	7073.47
497.713	7108.05
498.082	7155.73
498.452	7285.9
498.821	7331.77
499.19	7327.02
499.559	7408.83
499.928	7522.95
500.298	7529.28
500.667	7579.67
501.036	7516.4
501.405	7700.57
501.774	7685.89
502.143	7739.9
502.512	7811.08
502.88	7906.44
503.249	7933.11
503.618	8030.51
503.987	8064.63
504.356	8164.97
504.724	8197.28
505.093	8193.67
505.462	8216.72
505.83	8315.02
506.199	8387.79
506.567	8510.04
506.936	8526.77
507.304	8622.13
507.672	8724.28
508.041	8698.06
508.409	8800.88
508.777	8863.93
509.145	8890.37
509.514	8912.29
509.882	9075.45
510.25	9091.5
510.618	9177.82
510.986	9252.17
511.354	9286.3
511.722	9353.19
512.09	9435.22
512.458	9442
512.826	9606.51
513.193	9629.79
513.561	9705.27
513.929	9756.34
514.297	9896.45
514.664	9949.55
515.032	9980.06
515.4	10145.03
515.767	10161.07
516.135	10252.37
516.502	10184.35
516.869	10464.34
517.237	10415.76
517.604	10434.74
517.972	10659.59
518.339	10704.79
518.706	10682.42
519.073	10771.23
519.44	10871.56
519.808	10992.24
520.175	11020.71
520.542	11217.09
520.909	11331.89
521.276	11359.91
521.643	11437.65
522.009	11569.17
522.376	11731.65
522.743	11730.52
523.11	11896.17
523.477	11981.59
523.843	11966.22
524.21	12133.68
524.577	12256.39
524.943	12301.13
525.31	12406.21
525.676	12495.93
526.043	12608.02
526.409	12721.69
526.776	12878.74
527.142	12851.63
527.508	12996.71
527.874	13111.73
528.241	13253.42
528.607	13155.12
528.973	13348.11
529.339	13266.3
529.705	13485.73
530.071	13573.41
530.437	13623.36
530.803	13785.84
531.169	13867.87
531.535	13815.67
531.901	13937.02
532.267	13985.38
532.632	14136.56
532.998	14177.69
533.364	14198.48
533.73	14272.15
534.095	14444.35
534.461	14436.22
534.826	14651.8
535.192	14564.57
535.557	14745.59
535.923	14690.9
536.288	14776.55
536.653	14872.14
537.019	14861.06
537.384	14964.79
537.749	15001.4
538.114	15071
538.479	15141.73
538.845	15163.43
539.21	15198
539.575	15146.93
539.94	15236.42
540.305	15440.03
540.67	15339.7
541.034	15452.01
541.399	15491.33
541.764	15623.98
542.129	15652.46
542.494	15716.18
542.858	15804.32
543.223	15812.9
543.587	15947.36
543.952	15948.72
544.316	15980.58
544.681	15933.13
545.045	16074.37
545.41	16143.97
545.774	16223.74
546.138	16257.41
546.503	16180.13
546.867	16303.51
547.231	16483.62
547.595	16577.4
547.959	16654.69
548.324	16548.03
548.688	16714.8
549.052	16894.91
549.416	16807.91
549.779	16882.71
550.143	16954.34
550.507	17157.27
550.871	17190.04
551.235	17147.11
551.599	17359.76
551.962	17344.39
552.326	17409.25
552.689	17529.24
553.053	17636.13
553.417	17727.66
553.78	17906.41
554.143	17854.88
554.507	17993.64
554.87	18123.58
555.234	18371.25
555.597	18275.21
555.96	18269.79
556.323	18505.04
556.686	18626.84
557.05	18847.17
557.413	18856.44
557.776	18909.09
558.139	19069.99
558.502	19213.04
558.865	19288.07
559.228	19447.38
559.59	19579.13
559.953	19625.01
560.316	19875.17
560.679	19912.68
561.041	20128.04
561.404	20156.52
561.767	20457.08
562.129	20382.73
562.492	20633.34
562.854	20733.68
563.217	20857.97
563.579	20996.5
563.941	21168.02
564.304	21372.08
564.666	21505.86
565.028	21634.45
565.39	21713.09
565.753	21904.72
566.115	22081.21
566.477	22193.75
566.839	22324.14
567.201	22429.68
567.563	22643.91
567.925	22731.37
568.287	22900.85
568.648	22967.52
569.01	23314.18
569.372	23401.18
569.734	23473.04
570.095	23668.29
570.457	23880.94
570.819	24066.7
571.18	24194.83
571.542	24319.12
571.903	24393.92
572.265	24677.53
572.626	24685.44
572.987	24825.55
573.349	25076.16
573.71	25181.92
574.071	25358.64
574.432	25538.07
574.794	25708.69
575.155	25738.52
575.516	25801.79
575.877	26145.74
576.238	26205.62
576.599	26385.28
576.96	26383.7
577.32	26501.89
577.681	26657.14
578.042	26849.68
578.403	26906.62
578.763	27057.58
579.124	27094.41
579.485	27157.92
579.845	27396.78
580.206	27522.43
580.566	27660.5
580.927	27585.25
581.287	27779.14
581.648	27750.44
582.008	27994.5
582.368	27976.65
582.728	28108.4
583.089	28083.54
583.449	28205.57
583.809	28325.12
584.169	28318.56
584.529	28218.45
584.889	28488.95
585.249	28384.1
585.609	28331.67
585.969	28628.84
586.329	28631.32
586.688	28721.94
587.048	28710.42
587.408	28638.33
587.768	28677.88
588.127	28838.1
588.487	28843.97
588.846	28972.78
589.206	28825.89
589.565	28829.06
589.925	29124.42
590.284	29034.25
590.643	29238.09
591.003	29206.45
591.362	29281.25
591.721	29217.97
592.08	29329.84
592.44	29316.5
592.799	29379.78
593.158	29239.9
593.517	29269.95
593.876	29392.43
594.235	29308.14
594.593	29309.27
594.952	29435.82
595.311	29207.13
595.67	29578.64
596.029	29728.24
596.387	29569.38
596.746	29784.74
597.104	29580.23
597.463	29523.73
597.822	29804.63
598.18	29748.81
598.538	29564.86
598.897	29874.68
599.255	29580.9
599.613	29914.91
599.972	29918.75
600.33	29872.65
600.688	29816.15
601.046	29933.21
601.404	29862.25
601.762	29858.64
602.12	30112.64
602.478	30072.87
602.836	30121.68
603.194	29964.17
603.552	30121.23
603.91	29855.02
604.268	30097.95
604.625	30019.08
604.983	30200.55
605.341	30122.13
605.698	30203.94
606.056	30349.02
606.413	30363.48
606.771	30245.07
607.128	30366.42
607.485	30219.53
607.843	30163.49
608.2	30516.02
608.557	30452.29
608.914	30362.58
609.272	30658.61
609.629	30584.94
609.986	30756.24
610.343	30604.83
610.7	30732.29
611.057	30697.26
611.414	30626.53
611.771	30896.35
612.127	30800.08
612.484	30793.75
612.841	30873.98
613.198	30779.52
613.554	30836.69
613.911	31104.03
614.267	31085.27
614.624	31061.77
614.98	31039.85
615.337	31252.72
615.693	31287.07
616.05	31067.19
616.406	31270.12
616.762	31236.45
617.118	31222.89
617.475	31321.87
617.831	31431.02
618.187	31410.69
618.543	31300.41
618.899	31659.94
619.255	31624.92
619.611	31459.95
619.967	31585.82
620.323	31719.83
620.678	31420.85
621.034	31537.01
621.39	31501.53
621.746	31433.74
622.101	31837.11
622.457	31503.34
622.812	31657.91
623.168	31702.43
623.523	31690.68
623.879	31804.12
624.234	31544.24
624.589	31662.43
624.945	31685.25
625.3	31779.26
625.655	31642.32
626.01	31704.24
626.365	31736.78
626.72	31580.85
627.075	31728.42
627.43	31561.19
627.785	31512.38
628.14	31615.43
628.495	31703.33
628.85	31756.44
629.205	31516.9
629.559	31644.58
629.914	31555.77
630.269	31457.24
630.623	31552.15
630.978	31369.56
631.332	31512.15
631.687	31535.65
632.041	31364.13
632.396	31483.23
632.75	31374.08
633.104	31361.87
633.459	31276.68
633.813	31277.36
634.167	31241.2
634.521	31320.74
634.875	31260.86
635.229	31170.01
635.583	31048.44
635.937	31147.19
636.291	31022.67
636.645	31018.38
636.999	30857.93
637.352	30998.94
637.706	30739.52
638.06	30962.79
638.413	30688.67
638.767	30882.79
639.121	30845.5
639.474	30657.03
639.828	30682.12
640.181	30801.44
640.534	30703.13
640.888	30730.03
641.241	30537.94
641.594	30535.68
641.947	30686.64
642.301	30497.04
642.654	30549.92
643.007	30670.14
643.36	30531.84
643.713	30396.7
644.066	30546.08
644.419	30326.65
644.771	30170.49
645.124	29857.05
645.477	29860.44
645.83	29707.23
646.182	29716.49
646.535	29549.04
646.888	29511.3
647.24	29347.46
647.593	29513.33
647.945	29450.74
648.298	29301.81
648.65	29302.72
649.002	29328.03
649.355	29353.11
649.707	29384.07
650.059	29452.09
650.411	29859.77
650.763	29929.82
651.115	30143.37
651.467	29929.59
651.819	30094.34
652.171	29963.04
652.523	29962.36
652.875	29864.74
653.227	29881.01
653.578	30081.45
653.93	30017.28
654.282	29889.82
654.633	29742.71
654.985	29929.37
655.337	29969.37
655.688	29980.67
656.039	29867.68
656.391	29613.22
656.742	29774.8
657.094	29857.51
657.445	29801.69
657.796	29713.33
658.147	29791.74
658.498	29824.51
658.849	29866.55
659.2	29748.13
659.551	29535.03
659.902	29808.47
660.253	29801.91
660.604	29766.89
660.955	29412.77
661.306	29565.08
661.656	29613.9
662.007	29700.67
662.358	29646.44
662.708	29648.25
663.059	29730.28
663.409	29524.41
663.76	29695.25
664.11	29659.32
664.461	29698.41
664.811	29656.38
665.161	29632.2
665.511	29590.17
665.862	29683.05
666.212	29674.01
666.562	29706.78
666.912	29618.42
667.262	29570.96
667.612	29612.09
667.962	29603.28
668.312	29588.36
668.662	29581.81
669.011	29533.67
669.361	29552.88
669.711	29503.84
670.06	29432.43
670.41	29453.67
670.76	29462.04
671.109	29521.02
671.459	29469.49
671.808	29317.63
672.157	29433.79
672.507	29223.62
672.856	29332.1
673.205	29302.04
673.554	29312.66
673.904	29190.86
674.253	29307.69
674.602	29342.04
674.951	28852.56
675.3	28756.97
675.649	29147.02
675.998	29100.01
676.346	29151.76
676.695	29099.79
677.044	28991.54
677.393	28994.7
677.741	29092.1
678.09	28951.32
678.438	28966.23
678.787	28916.29
679.135	28931.65
679.484	28820.25
679.832	28823.18
680.181	28670.42
680.529	28709.74
680.877	28725.78
681.225	28564.21
681.573	28771.88
681.922	28562.62
682.27	28561.95
682.618	28555.85
682.966	28433.81
683.314	28432.46
683.661	28454.15
684.009	28089.87
684.357	28179.81
684.705	28212.13
685.053	28076.31
685.4	28143.43
685.748	28102.75
686.095	28000.61
686.443	27805.36
686.79	27804.23
687.138	27812.14
687.485	27860.04
687.832	27658.02
688.18	27707.96
688.527	27576.44
688.874	27540.96
689.221	27363.11
689.568	27426.16
689.915	27232.72
690.262	27180.29
690.609	27091.7
690.956	27051.25
691.303	27011.71
691.65	26927.19
691.997	26889.67
692.344	26730.36
692.69	26734.65
693.037	26737.14
693.383	26590.47
693.73	26542.79
694.077	26359.07
694.423	26488.55
694.769	26293.98
695.116	26215.34
695.462	26121.11
695.808	26067.78
696.155	26057.83
696.501	25840.66
696.847	25773.32
697.193	25627.56
697.539	25759.31
697.885	25565.19
698.231	25406.32
698.577	25431.86
698.923	25313.22
699.269	25243.16
699.614	25205.42
699.96	25147.12
700.306	25056.05
700.651	24922.95
700.997	24810.86
701.342	24763.85
701.688	24805.89
702.033	24716.4
702.379	24735.83
702.724	24504.2
703.069	24544.88
703.415	24254.94
703.76	24247.71
704.105	24254.04
704.45	24200.25
704.795	24077.09
705.14	23926.14
705.485	23898.79
705.83	23851.34
706.175	23827.38
706.52	23831.45
706.865	23727.27
707.209	23631.91
707.554	23511.01
707.899	23595.75
708.243	23441.63
708.588	23377.45
708.932	23260.62
709.277	23291.12
709.621	23251.8
709.966	23075.99
710.31	23226.27
710.654	22937.01
710.998	23006.84
711.342	23029.21
711.687	22878.71
712.031	22916.45
712.375	22774.75
712.719	22749.9
713.063	22781.76
713.407	22844.81
713.75	22579.51
714.094	22672.38
714.438	22480.07
714.782	22554.2
715.125	22405.27
715.469	22434.65
715.812	22384.03
716.156	22328.66
716.499	22214.77
716.843	22238.95
717.186	22237.14
717.53	22333.18
717.873	22266.75
718.216	22138.84
718.559	22139.52
718.902	21988.56
719.246	22076.69
719.589	22073.98
719.932	21943.36
720.275	22068.56
720.617	21874.21
720.96	21971.39
721.303	21819.98
721.646	21869.69
721.989	21801.9
722.331	21779.3
722.674	21747.66
723.016	21770.03
723.359	21778.62
723.701	21765.97
724.044	21564.39
724.386	21447.11
724.729	21661.11
725.071	21544.73
725.413	21520.55
725.755	21547.22
726.097	21379.99
726.439	21481.23
726.782	21438.29
727.124	21548.8
727.465	21478.74
727.807	21437.61
728.149	21489.14
728.491	21303.83
728.833	21403.72
729.175	21255.02
729.516	21318.3
729.858	21273.55
730.199	21308.8
730.541	21275.13
730.882	21242.59
731.224	21224.51
731.565	21094.12
731.906	21173.44
732.248	21169.15
732.589	21123.27
732.93	21077.62
733.271	21073.78
733.612	21069.94
733.953	21131.18
734.294	21058.42
734.635	20963.73
734.976	21217.73
735.317	20997.63
735.658	20996.95
735.999	21108.58
736.339	21076.49
736.68	21113.56
737.021	20952.66
737.361	20944.52
737.702	21051.18
738.042	21031.52
738.383	21029.26
738.723	21060.45
739.063	20960.56
739.404	21061.13
739.744	21060
740.084	20865.2
740.424	20887.12
740.764	20818.42
741.104	20925.99
741.444	20879.21
741.784	20887.12
742.124	20987.46
742.464	20873.34
742.804	20881.02
743.143	20854.8
743.483	20851.64
743.823	20773
744.162	20892.09
744.502	20852.77
744.841	20809.83
745.181	20854.13
745.52	20782.94
745.86	20802.83
746.199	20720.57
746.538	20731.19
746.877	20831.75
747.216	20815.26
747.556	20867.23
747.895	20729.38
748.234	20671.76
748.573	20693.45
748.911	20736.84
749.25	20659.33
749.589	20567.58
749.928	20667.01
750.267	20623.85
750.605	20607.13
750.944	20634.92
751.283	20554.93
751.621	20598.09
751.96	20477.87
752.298	20502.72
752.636	20530.97
752.975	20439.45
753.313	20375.72
753.651	20503.18
753.989	20275.38
754.327	20375.95
754.666	20209.85
755.004	20274.26
755.342	20360.35
755.679	20261.37
756.017	20155.61
756.355	20184.99
756.693	20178.66
757.031	20142.96
757.368	20125.78
757.706	20026.35
758.044	20029.06
758.381	20162.17
758.719	19936.41
759.056	19949.29
759.394	19905.68
759.731	19763.31
760.068	19699.13
760.405	19833.59
760.743	19660.94
761.08	19613.26
761.417	19576.42
761.754	19540.04
762.091	19459.36
762.428	19373.71
762.765	19323.55
763.102	19363.09
763.438	19300.04
763.775	19144.34
764.112	19224.79
764.449	19148.41
764.785	19195.87
765.122	19042.2
765.458	18952.71
765.795	18885.14
766.131	18914.74
766.467	18815.99
766.804	18810.56
767.14	18687.4
767.476	18661.87
767.812	18580.97
768.148	18472.49
768.485	18434.76
768.821	18373.29
769.157	18373.51
769.492	18278.15
769.828	18225.72
770.164	18156.8
770.5	18100.75
770.836	18101.2
771.171	17964.03
771.507	17961.1
771.842	17840.19
772.178	17812.85
772.513	17761.78
772.849	17789.8
773.184	17591.61
773.519	17658.28
773.855	17495.35
774.19	17506.42
774.525	17416.03
774.86	17424.61
775.195	17300.32
775.53	17223.26
775.865	17163.6
776.2	17157.27
776.535	16961.8
776.87	16954.34
777.205	16939.88
777.539	16840.45
777.874	16830.96
778.209	16675.93
778.543	16668.25
778.878	16565.43
779.212	16536.27
779.547	16439.55
779.881	16494.02
780.215	16322.95
780.55	16411.53
780.884	16278.43
781.218	16189.16
781.552	16272.33
781.886	16043.86
782.22	15934.71
782.554	16018.55
782.888	15941.94
783.222	15830.3
783.556	15860.13
783.889	15680.25
784.223	15569.75
784.557	15470.77
784.89	15572.23
785.224	15423.76
785.557	15403.42
785.891	15367.72
786.224	15276.19
786.558	15320.26
786.891	15185.12
787.224	15116.88
787.557	15128.63
787.891	14974.06
788.224	15081.62
788.557	15055.86
788.89	14975.86
789.223	15040.49
789.556	14801.4
789.888	14819.26
790.221	14660.17
790.554	14644.57
790.887	14661.52
791.219	14577.23
791.552	14585.59
791.884	14467.18
792.217	14389.21
792.549	14372.04
792.882	14233.28
793.214	14188.77
793.546	14271.02
793.879	14118.94
794.211	14091.82
794.543	14150.8
794.875	14097.69
795.207	14139.28
795.539	13968.88
795.871	14016.79
796.203	13844.14
796.535	13773.18
796.867	13771.83
797.198	13756.23
797.53	13781.54
797.862	13621.32
798.193	13622.68
798.525	13563.7
798.856	13612.96
799.188	13415.68
799.519	13340.2
799.85	13288
800.182	13353.53
800.513	13316.92
800.844	13165.97
801.175	13241.67
801.506	13154.22
801.837	13196.48
802.168	13087.1
802.499	13059.08
802.83	12972.53
803.161	12957.39
803.491	12929.82
803.822	13001.23
804.153	12897.73
804.483	12848.24
804.814	12818.86
805.145	12678.97
805.475	12726.66
805.805	12590.39
806.136	12660.67
806.466	12702.93
806.796	12696.38
807.126	12471.97
807.457	12562.14
807.787	12498.87
808.117	12501.8
808.447	12391.3
808.777	12418.64
809.107	12332.54
809.436	12351.3
809.766	12315.37
810.096	12298.65
810.426	12272.66
810.755	12181.81
811.085	12165.77
811.414	12162.83
811.744	12114.7
812.073	11995.83
812.403	12010.97
812.732	11900.69
813.061	11975.04
813.39	11793.35
813.719	11881.93
814.049	11819.56
814.378	11853.01
814.707	11791.99
815.036	11745.67
815.365	11702.73
815.693	11679.68
816.022	11679
816.351	11558.78
816.68	11527.59
817.008	11589.96
817.337	11538.67
817.665	11491.21
817.994	11465.22
818.322	11507.03
818.651	11370.08
818.979	11314.72
819.307	11395.39
819.636	11368.73
819.964	11252.8
820.292	11320.37
820.62	11367.6
820.948	11285.79
821.276	11302.74
821.604	11308.62
821.932	11343.87
822.259	11350.42
822.587	11287.6
822.915	11307.94
823.243	11326.92
823.57	11207.15
823.898	11241.05
824.225	11139.58
824.553	11193.14
824.88	11276.3
825.207	11247.15
825.535	11208.28
825.862	11325.34
826.189	11222.74
826.516	11234.94
826.843	11320.37
827.17	11261.61
827.497	11240.82
827.824	11317.88
828.151	11262.06
828.478	11279.24
828.805	11250.99
829.131	11175.96
829.458	11115.85
829.785	11143.87
830.111	11165.57
830.438	11199.24
830.764	11138.68
831.09	11171.22
831.417	11114.95
831.743	11168.51
832.069	11231.33
832.395	11180.26
832.722	11202.63
833.048	11097.77
833.374	11112.91
833.7	11108.85
834.026	11168.51
834.351	11137.32
834.677	11141.39
835.003	11111.33
835.329	11126.92
835.654	11042.41
835.98	11072.24
836.306	11089.64
836.631	11002.41
836.956	11061.84
837.282	11020.71
837.607	10902.98
837.932	10900.26
838.258	10929.19
838.583	10902.07
838.908	10799.25
839.233	10890.55
839.558	10789.98
839.883	10795.41
840.208	10830.21
840.533	10747.27
840.858	10755.18
841.182	10761.06
841.507	10704.34
841.832	10677.22
842.156	10659.82
842.481	10722.42
842.805	10618.01
843.13	10618.24
843.454	10581.18
843.778	10567.62
844.103	10538.92
844.427	10530.56
844.751	10453.04
845.075	10415.76
845.399	10412.59
845.723	10332.82
846.047	10416.21
846.371	10292.37
846.695	10325.14
847.019	10247.63
847.343	10185.25
847.666	10126.95
847.99	10114.97
848.313	10053.96
848.637	10013.28
848.96	9937.58
849.284	9981.19
849.607	9912.95
849.931	9813.51
850.254	9795.89
850.577	9715.66
850.9	9740.97
851.223	9661.43
851.546	9685.15
851.869	9581.88
852.192	9636.57
852.515	9519.28
852.838	9534.65
853.161	9509.79
853.483	9420.3
853.806	9394.54
854.129	9382.79
854.451	9355.67
854.774	9352.28
855.096	9275
855.419	9265.05
855.741	9190.03
856.063	9185.51
856.385	9154.1
856.708	9135.56
857.03	9119.97
857.352	9193.42
857.674	9006.08
857.996	9075.23
858.318	8957.72
858.64	9017.83
858.961	8999.07
859.283	8952.07
859.605	8882.92
859.926	8949.13
860.248	8852.41
860.57	8872.52
860.891	8876.14
861.212	8751.39
861.534	8848.57
861.855	8774.22
862.176	8790.04
862.498	8742.58
862.819	8698.51
863.14	8694.9
863.461	8669.81
863.782	8704.62
864.103	8669.59
864.424	8620.32
864.745	8657.16
865.065	8576.03
865.386	8585.3
865.707	8553.89
866.027	8578.97
866.348	8551.85
866.668	8536.03
866.989	8467.79
867.309	8465.53
867.63	8458.52
867.95	8363.38
868.27	8375.13
868.59	8421.46
868.91	8400.44
869.23	8390.05
869.55	8343.04
869.87	8401.8
870.19	8405.87
870.51	8347.34
870.83	8395.47
871.15	8295.81
871.469	8324.06
871.789	8335.59
872.109	8305.76
872.428	8240.45
872.748	8248.13
873.067	8256.27
873.386	8262.82
873.706	8240.9
874.025	8208.58
874.344	8193.67
874.663	8202.93
874.982	8150.28
875.301	8229.83
875.62	8144.86
875.939	8182.82
876.258	8082.49
876.577	8110.28
876.896	8102.37
877.214	8029.61
877.533	8068.7
877.852	8039.1
878.17	7999.55
878.489	8026.67
878.807	8013.56
879.125	8001.58
879.444	7998.87
879.762	8032.54
880.08	7943.05
880.398	7934.92
880.716	7949.61
881.034	7896.5
881.352	7933.34
881.67	7948.7
881.988	7899.89
882.306	7842.04
882.624	7852.66
882.941	7795.04
883.259	7744.42
883.577	7718.43
883.894	7734.92
884.212	7716.39
884.529	7675.26
884.846	7692.44
885.164	7638.43
885.481	7704.64
885.798	7659.67
886.115	7534.93
886.432	7646.56
886.75	7583.06
887.067	7618.99
887.383	7597.75
887.7	7585.1
888.017	7559.11
888.334	7462.16
888.651	7421.71
888.967	7460.81
889.284	7323.64
889.6	7379.9
889.917	7342.62
890.233	7376.97
890.55	7341.71
890.866	7352.11
891.182	7334.48
891.498	7336.06
891.815	7295.16
892.131	7212.68
892.447	7179.01
892.763	7153.47
893.079	7246.35
893.395	7212.23
893.71	7154.83
894.026	7116.18
894.342	7135.62
894.657	7071.21
894.973	7087.48
895.289	7030.76
895.604	7017.43
895.92	6906.7
896.235	6936.53
896.55	6957.32
896.865	6950.54
897.181	6917.77
897.496	6943.31
897.811	6892.46
898.126	6812.91
898.441	6778.34
898.756	6779.02
899.071	6737.66
899.386	6767.04
899.7	6680.71
900.015	6700.15
900.33	6629.64
900.644	6626.25
900.959	6638.91
901.273	6621.51
901.588	6609.53
901.902	6560.94
902.216	6503.77
902.531	6540.83
902.845	6470.78
903.159	6504.9
903.473	6496.99
903.787	6417.9
904.101	6384.68
904.415	6396.2
904.729	6322.31
905.042	6312.59
905.356	6256.09
905.67	6280.95
905.984	6234.62
906.297	6218.13
906.611	6194.85
906.924	6158.47
907.237	6134.51
907.551	6121.18
907.864	6125.25
908.177	6127.73
908.491	6060.84
908.804	6110.79
909.117	5998.25
909.43	5947.4
909.743	5976.55
910.056	5978.81
910.368	5956.89
910.681	5948.3
910.994	5897.23
911.307	5840.74
911.619	5850.45
911.932	5867.63
912.244	5775.2
912.557	5791.7
912.869	5757.35
913.181	5786.5
913.494	5713.06
913.806	5664.24
914.118	5645.49
914.43	5618.82
914.742	5584.7
915.054	5551.93
915.366	5572.49
915.678	5582.66
915.99	5495.66
916.302	5484.59
916.613	5521.65
916.925	5467.86
917.236	5431.71
917.548	5426.06
917.859	5437.36
918.171	5376.57
918.482	5309
918.794	5316.68
919.105	5277.59
919.416	5261.32
919.727	5247.31
920.038	5278.49
920.349	5225.16
920.66	5203.92
920.971	5213.41
921.282	5181.54
921.593	5207.98
921.903	5101.32
922.214	5036.46
922.525	5055.9
922.835	5013.87
923.146	5039.63
923.456	5006.41
923.767	5014.32
924.077	4994.66
924.387	4941.55
924.697	4905.39
925.008	4914.21
925.318	4893.42
925.628	4883.47
925.938	4825.62
926.248	4836.69
926.558	4836.69
926.867	4787.66
927.177	4791.27
927.487	4744.72
927.796	4705.85
928.106	4708.34
928.416	4723.48
928.725	4706.75
929.034	4633.54
929.344	4642.8
929.653	4605.29
929.962	4492.98
930.271	4589.02
930.581	4538.17
930.89	4481.45
931.199	4494.56
931.508	4492.07
931.817	4473.09
932.125	4443.94
932.434	4473.31
932.743	4438.29
933.051	4391.06
933.36	4370.72
933.669	4346.09
933.977	4315.58
934.286	4349.93
934.594	4280.1
934.902	4305.18
935.21	4304.51
935.519	4294.56
935.827	4230.16
936.135	4223.83
936.443	4198.07
936.751	4205.07
937.059	4182.93
937.367	4153.32
937.674	4148.8
937.982	4110.16
938.29	4116.94
938.597	4098.64
938.905	4049.14
939.213	4042.59
939.52	4015.25
939.827	4026.55
940.135	3970.05
940.442	3967.34
940.749	3965.08
941.056	3958.75
941.363	3924.4
941.67	3912.2
941.977	3877.17
942.284	3923.5
942.591	3838.08
942.898	3835.14
943.205	3861.81
943.511	3821.58
943.818	3772.77
944.125	3782.94
944.431	3761.02
944.738	3761.69
945.044	3738.87
945.35	3722.83
945.657	3682.15
945.963	3713.11
946.269	3625.88
946.575	3687.57
946.881	3627.69
947.187	3622.94
947.493	3597.63
947.799	3633.34
948.105	3598.08
948.41	3548.37
948.716	3565.77
949.022	3531.64
949.327	3552.43
949.633	3494.13
949.938	3486.67
950.244	3482.15
950.549	3451.19
950.854	3451.42
951.16	3452.1
951.465	3402.61
951.77	3409.39
952.075	3360.58
952.38	3384.76
952.685	3382.95
952.99	3304.08
953.294	3313.8
953.599	3301.14
953.904	3321.71
954.209	3270.41
954.513	3300.01
954.818	3263.18
955.122	3258.66
955.426	3239.9
955.731	3213.01
956.035	3159.68
956.339	3209.17
956.643	3169.85
956.948	3163.52
957.252	3135.27
957.556	3153.8
957.86	3140.92
958.163	3103.86
958.467	3082.84
958.771	3070.87
959.075	3068.61
959.378	3058.21
959.682	3069.74
959.985	3013.69
960.289	3012.34
960.592	3044.88
960.896	2990.64
961.199	2991.77
961.502	2984.09
961.805	2926.91
962.108	2932.79
962.411	2952.22
962.714	2914.71
963.017	2926.91
963.32	2890.08
963.623	2888.72
963.926	2886.92
964.228	2899.57
964.531	2823.41
964.833	2868.84
965.136	2826.58
965.438	2826.58
965.741	2803.08
966.043	2811.89
966.345	2767.6
966.648	2771.21
966.95	2747.26
967.252	2730.76
967.554	2730.31
967.856	2773.47
968.158	2654.15
968.46	2715.39
968.761	2713.81
969.063	2642.85
969.365	2681.05
969.666	2679.69
969.968	2642.85
970.269	2660.48
970.571	2596.3
970.872	2599.24
971.174	2597.66
971.475	2603.31
971.776	2594.04
972.077	2567.15
972.378	2556.98
972.679	2513.59
972.98	2575.51
973.281	2509.07
973.582	2519.69
973.883	2538.45
974.183	2495.97
974.484	2483.54
974.785	2436.76
975.085	2459.58
975.386	2450.99
975.686	2452.35
975.986	2417.1
976.287	2456.64
976.587	2379.13
976.887	2414.16
977.187	2402.41
977.487	2385.69
977.787	2335.29
978.087	2372.58
978.387	2364.9
978.687	2340.04
978.987	2316.54
979.286	2301.85
979.586	2312.92
979.885	2293.26
980.185	2291.23
980.484	2292.35
980.784	2288.74
981.083	2265.69
981.382	2237.67
981.682	2252.36
981.981	2267.5
982.28	2255.07
982.579	2225.92
982.878	2187.72
983.177	2202.41
983.475	2186.37
983.774	2161.28
984.073	2175.52
984.372	2141.62
984.67	2178.01
984.969	2121.96
985.267	2131.68
985.566	2091.68
985.864	2102.76
986.162	2120.16
986.461	2093.72
986.759	2067.5
987.057	2076.09
987.355	2061.85
987.653	2075.19
987.951	2004.45
988.249	2036.32
988.547	2036.99
988.844	2027.28
989.142	2024.57
989.44	2018.69
989.737	1978.92
990.035	1965.81
990.332	1931.01
990.63	1959.03
990.927	1971.91
991.224	1934.4
991.521	1951.8
991.819	1925.81
992.116	1949.31
992.413	1900.27
992.71	1898.92
993.006	1887.17
993.303	1925.36
993.6	1886.72
993.897	1866.83
994.193	1856.21
994.49	1855.98
994.787	1830.67
995.083	1822.54
995.379	1810.79
995.676	1812.82
995.972	1822.99
996.268	1777.57
996.565	1789.32
996.861	1786.61
997.157	1785.25
997.453	1796.32
997.749	1753.84
998.044	1769.88
998.34	1785.25
998.636	1744.12
998.932	1745.48
999.227	1702.31
999.523	1736.21
999.818	1720.84
1000.114	1693.5
1000.409	1682.65
1000.704	1715.2
1001	1659.6
1001.295	1646.5
1001.59	1648.08
1001.885	1629.77
1002.18	1640.39
1002.475	1617.57
1002.77	1626.84
1003.065	1582.32
1003.359	1605.14
1003.654	1607.18
1003.949	1574.41
1004.243	1606.5
1004.538	1552.94
1004.832	1558.14
1005.127	1563.11
1005.421	1543
1005.715	1550
1006.009	1542.77
1006.304	1536.89
1006.598	1493.05
1006.892	1481.3
1007.186	1491.25
1007.48	1490.57
1007.773	1521.3
1008.067	1470.46
1008.361	1457.12
1008.655	1440.17
1008.948	1466.84
1009.242	1457.8
1009.535	1419.38
1009.829	1442.43
1010.122	1435.65
1010.415	1407.63
1010.708	1410.57
1011.001	1381.19
1011.295	1399.72
1011.588	1395.66
1011.881	1369.89
1012.173	1359.05
1012.466	1363.11
1012.759	1348.88
1013.052	1352.72
1013.344	1337.8
1013.637	1323.34
1013.93	1348.42
1014.222	1324.47
1014.514	1316.11
1014.807	1292.61
1015.099	1277.92
1015.391	1293.06
1015.683	1272.04
1015.976	1300.29
1016.268	1271.36
1016.56	1237.02
1016.851	1270.91
1017.143	1245.38
1017.435	1236.79
1017.727	1253.06
1018.018	1246.05
1018.31	1199.5
1018.602	1191.82
1018.893	1193.17
1019.185	1192.04
1019.476	1185.04
1019.767	1202.67
1020.058	1163.12
1020.35	1181.2
1020.641	1157.24
1020.932	1162.89
1021.223	1112.05
1021.514	1135.78
1021.804	1133.52
1022.095	1122.89
1022.386	1113.85
1022.677	1095.1
1022.967	1109.34
1023.258	1085.61
1023.548	1087.64
1023.839	1077.7
1024.129	1074.99
1024.419	1075.44
1024.709	1065.95
1025	1051.48
1025.29	1054.87
1025.58	1046.96
1025.87	1049.9
1026.16	1028.66
1026.449	1051.26
1026.739	1013.52
1027.029	1001.77
1027.319	1000.86
1027.608	1006.97
1027.898	990.47
1028.187	985.27
1028.477	995.21
1028.766	989.56
1029.055	973.52
1029.344	986.17
1029.634	942.56
1029.923	946.18
1030.212	953.63
1030.501	933.52
1030.79	954.54
1031.078	927.42
1031.367	922.45
1031.656	919.06
1031.945	934.65
1032.233	887.87
1032.522	883.58
1032.81	900.98
1033.099	864.37
1033.387	898.27
1033.675	876.57
1033.963	869.79
1034.251	881.32
1034.54	866.18
1034.828	864.6
1035.116	850.13
1035.403	862.34
1035.691	835.67
1035.979	854.2
1036.267	844.94
1036.554	830.25
1036.842	823.92
1037.129	828.66
1037.417	838.38
1037.704	830.02
1037.992	818.72
1038.279	804.48
1038.566	801.09
1038.853	801.09
1039.14	801.09
