Data from tablewood_brown_FLMS001491_076.txt Node
Date: Tue Feb 07 11:11:00 GMT 2017
User: dcchb
Spectrometer: FLMS00149
Trigger mode: 0
Integration Time (sec): 2.000000E-2
Scans to average: 10
Electric dark correction enabled: true
Nonlinearity correction enabled: false
Boxcar width: 0
XAxis mode: Wavelengths
Number of Pixels in Spectrum: 2048
>>>>>Begin Spectral Data<<<<<
341.393	-22.89
341.776	-22.89
342.16	-22.89
342.543	-52.95
342.927	-80.75
343.31	-62.67
343.693	-45.95
344.077	-87.75
344.46	-70.13
344.843	-46.17
345.226	-30.8
345.61	-43.46
345.993	-22.44
346.376	-34.87
346.759	14.39
347.142	27.05
347.525	38.35
347.908	84.67
348.291	87.84
348.674	87.16
349.057	104.79
349.44	126.03
349.823	140.26
350.206	160.6
350.588	180.26
350.971	214.84
351.354	225.69
351.737	236.76
352.119	250.09
352.502	240.6
352.884	275.4
353.267	257.78
353.65	311.79
354.032	309.53
354.414	308.4
354.797	289.19
355.179	321.73
355.562	316.08
355.944	325.8
356.326	339.13
356.709	342.29
357.091	345.68
357.473	356.76
357.855	352.69
358.238	332.35
358.62	360.37
359.002	341.16
359.384	334.84
359.766	351.56
360.148	329.41
360.53	335.74
360.912	339.81
361.294	335.06
361.676	323.99
362.057	314.72
362.439	333.71
362.821	309.53
363.203	353.37
363.584	332.58
363.966	319.47
364.348	324.89
364.729	323.76
365.111	338
365.493	323.99
365.874	317.66
366.256	334.84
366.637	326.47
367.019	329.86
367.4	324.21
367.781	323.76
368.163	312.01
368.544	310.88
368.925	313.14
369.306	330.77
369.688	311.56
370.069	330.32
370.45	328.28
370.831	333.48
371.212	309.98
371.593	317.89
371.974	312.01
372.355	319.92
372.736	311.33
373.117	335.06
373.498	328.51
373.879	342.97
374.26	330.54
374.641	311.33
375.021	341.39
375.402	328.96
375.783	329.64
376.163	340.26
376.544	338.23
376.925	330.99
377.305	355.85
377.686	341.39
378.066	354.5
378.447	325.34
378.827	342.75
379.208	337.32
379.588	321.73
379.968	353.82
380.349	343.65
380.729	375.96
381.109	354.95
381.489	351.56
381.87	364.67
382.25	344.78
382.63	355.17
383.01	363.76
383.39	351.78
383.77	371.22
384.15	373.03
384.53	368.96
384.91	362.63
385.29	375.96
385.67	344.55
386.049	372.8
386.429	376.42
386.809	362.18
387.189	390.88
387.568	374.61
387.948	383.65
388.328	377.55
388.707	392.24
389.087	402.63
389.466	378.45
389.846	397.89
390.225	411.22
390.605	426.36
390.984	405.79
391.363	415.74
391.743	412.8
392.122	418.22
392.501	424.1
392.881	412.57
393.26	447.83
393.639	426.81
394.018	424.78
394.397	433.14
394.776	410.77
395.155	428.39
395.534	457.32
395.913	455.06
396.292	459.8
396.671	445.79
397.05	446.92
397.429	450.99
397.808	493.02
398.186	466.58
398.565	466.36
398.944	456.87
399.323	476.08
399.701	454.61
400.08	489.86
400.458	506.36
400.837	498.67
401.215	483.76
401.594	489.63
401.972	477.66
402.351	507.49
402.729	528.05
403.107	514.94
403.486	535.96
403.864	512.23
404.242	518.79
404.62	517.2
404.999	526.24
405.377	535.51
405.755	547.49
406.133	528.5
406.511	509.97
406.889	543.19
407.267	555.4
407.645	554.94
408.023	556.75
408.401	554.49
408.779	549.07
409.156	605.79
409.534	561.5
409.912	594.26
410.29	598.56
410.667	589.52
411.045	616.86
411.422	611.66
411.8	607.82
412.178	606.02
412.555	639.69
412.933	627.94
413.31	632.68
413.687	639.91
414.065	642.62
414.442	638.1
414.819	661.83
415.197	665
415.574	682.17
415.951	678.56
416.328	647.6
416.705	661.61
417.082	686.01
417.46	686.69
417.837	689.85
418.214	709.97
418.591	712.23
418.967	690.08
419.344	714.94
419.721	713.58
420.098	725.56
420.475	722.62
420.852	750.19
421.228	744.99
421.605	769.17
421.982	763.98
422.358	771.21
422.735	784.54
423.111	790.64
423.488	761.27
423.864	771.21
424.241	804.43
424.617	783.41
424.994	791.55
425.37	793.81
425.746	824.09
426.123	813.69
426.499	794.48
426.875	843.97
427.251	860.25
427.627	850.53
428.003	852.34
428.379	845.33
428.756	864.99
429.132	884.43
429.507	905.67
429.883	909.28
430.259	922.17
430.635	917.87
431.011	938.66
431.387	948.61
431.763	964.42
432.138	949.73
432.514	968.72
432.89	957.19
433.265	976.17
433.641	1023.86
434.016	1030.41
434.392	1015.5
434.767	1027.02
435.143	1032.67
435.518	1042.61
435.894	1066.12
436.269	1100.69
436.644	1080.58
437.02	1113.12
437.395	1102.27
437.77	1135.49
438.145	1143.4
438.52	1160.35
438.895	1125.32
439.271	1155.15
439.646	1173.46
440.021	1161.48
440.395	1202.38
440.77	1187.47
441.145	1182.72
441.52	1216.39
441.895	1213.46
442.27	1213.46
442.645	1228.82
443.019	1244.19
443.394	1246.9
443.769	1273.57
444.143	1277.86
444.518	1282.38
444.892	1255.04
445.267	1294.81
445.641	1265.21
446.016	1302.27
446.39	1323.74
446.764	1320.35
447.139	1316.28
447.513	1342.72
447.887	1339.1
448.262	1351.76
448.636	1362.38
449.01	1388.37
449.384	1390.63
449.758	1396.05
450.132	1400.34
450.506	1415.03
450.88	1420.23
451.254	1431.76
451.628	1454.35
452.002	1449.38
452.376	1477.18
452.75	1465.88
453.123	1481.92
453.497	1529.61
453.871	1518.99
454.244	1578.87
454.618	1556.95
454.992	1580.9
455.365	1575.93
455.739	1584.97
456.112	1648.02
456.486	1650.28
456.859	1679.21
457.232	1669.94
457.606	1668.13
457.979	1711.75
458.352	1736.61
458.725	1740.45
459.099	1772.31
459.472	1813.44
459.845	1816.38
460.218	1821.12
460.591	1842.82
460.964	1858.64
461.337	1904.06
461.71	1914
462.083	1951.29
462.456	1974.79
462.829	2014.11
463.201	2028.35
463.574	2015.47
463.947	2061.8
464.32	2101.34
464.692	2124.39
465.065	2085.07
465.438	2158.74
465.81	2203.04
466.183	2200.55
466.555	2240.55
466.928	2301.34
467.3	2272.41
467.672	2305.86
468.045	2370.94
468.417	2384.05
468.789	2431.96
469.161	2466.98
469.534	2469.24
469.906	2562.35
470.278	2544.95
470.65	2643.25
471.022	2666.75
471.394	2711.95
471.766	2714.89
472.138	2711.04
472.51	2838.5
472.882	2912.4
473.253	2937.93
473.625	2994.2
473.997	3012.73
474.369	3054.54
474.74	3097.25
475.112	3181.54
475.484	3236.45
475.855	3312.16
476.227	3348.99
476.598	3453.85
476.97	3495.43
477.341	3565.26
477.713	3595.54
478.084	3649.32
478.455	3746.05
478.827	3835.31
479.198	3951.92
479.569	3976.1
479.94	4054.29
480.311	4125.47
480.682	4194.62
481.053	4347.84
481.424	4420.6
481.795	4457.89
482.166	4521.84
482.537	4598.23
482.908	4698.11
483.279	4781.95
483.65	4873.7
484.021	4958.67
484.391	4999.8
484.762	5103.07
485.133	5157.53
485.503	5262.39
485.874	5335.16
486.244	5425.1
486.615	5496.28
486.985	5623.51
487.356	5685.88
487.726	5784.18
488.097	5854.92
488.467	5897.18
488.837	6040.67
489.207	6136.94
489.578	6214.91
489.948	6265.3
490.318	6329.71
490.688	6373.1
491.058	6502.13
491.428	6578.97
491.798	6658.06
492.168	6815.34
492.538	6852.18
492.908	6908.9
493.278	6981.44
493.648	7006.75
494.017	7083.36
494.387	7149.57
494.757	7251.04
495.126	7303.24
495.496	7397.7
495.866	7469.11
496.235	7515.21
496.605	7589.56
496.974	7699.39
497.344	7714.98
497.713	7732.16
498.082	7830.68
498.452	7917.24
498.821	7995.2
499.19	7975.31
499.559	8105.7
499.928	8137.79
500.298	8176.89
500.667	8263.44
501.036	8354.51
501.405	8411.23
501.774	8379.37
502.143	8475.19
502.512	8472.02
502.88	8653.04
503.249	8604.22
503.618	8692.13
503.987	8806.7
504.356	8823.65
504.724	8814.84
505.093	8892.12
505.462	8990.43
505.83	9088.73
506.199	9175.06
506.567	9263.64
506.936	9281.49
507.304	9431.55
507.672	9455.05
508.041	9500.47
508.409	9541.83
508.777	9659.79
509.145	9742.72
509.514	9780.69
509.882	9825.89
510.25	9872.66
510.618	9992.21
510.986	10051.87
511.354	10164.41
511.722	10188.14
512.09	10345.87
512.458	10294.12
512.826	10352.88
513.193	10505.87
513.561	10587.67
513.929	10687.56
514.297	10716.94
514.664	10866.31
515.032	10872.64
515.4	11047.1
515.767	11047.1
516.135	11179.52
516.502	11094.33
516.869	11288.67
517.237	11398.5
517.604	11402.34
517.972	11546.07
518.339	11637.82
518.706	11721.66
519.073	11807.98
519.44	11845.72
519.808	12020.63
520.175	12036
520.542	12266.73
520.909	12340.62
521.276	12309.66
521.643	12482.99
522.009	12567.51
522.376	12606.15
522.743	12753.72
523.11	12979.25
523.477	12976.54
523.843	13178.79
524.21	13233.48
524.577	13326.81
524.943	13389.18
525.31	13513.47
525.676	13662.17
526.043	13731.77
526.409	13871.43
526.776	13883.18
527.142	14016.51
527.508	14145.55
527.874	14280.46
528.241	14331.53
528.607	14420.12
528.973	14536.04
529.339	14543.95
529.705	14715.7
530.071	14793.21
530.437	14945.07
530.803	14958.63
531.169	15120.89
531.535	15003.6
531.901	15159.53
532.267	15155.46
532.632	15391.16
532.998	15416.7
533.364	15497.15
533.73	15519.97
534.095	15714.32
534.461	15699.4
534.826	15749.12
535.192	15938.49
535.557	15912.51
535.923	15999.96
536.288	16122.44
536.653	16230.69
537.019	16155.66
537.384	16220.52
537.749	16329.9
538.114	16378.26
538.479	16349.1
538.845	16453.96
539.21	16442.89
539.575	16623
539.94	16666.84
540.305	16786.61
540.67	16784.35
541.034	16903.44
541.399	16883.1
541.764	16909.77
542.129	17077.67
542.494	17037.9
542.858	17180.95
543.223	17191.34
543.587	17347.95
543.952	17304.79
544.316	17456.65
544.681	17354.05
545.045	17545.46
545.41	17447.15
545.774	17656.64
546.138	17581.61
546.503	17704.1
546.867	17837.88
547.231	17940.7
547.595	17963.75
547.959	17920.81
548.324	18021.83
548.688	18001.72
549.052	18114.93
549.416	18298.43
549.779	18301.6
550.143	18447.13
550.507	18545.66
550.871	18670.17
551.235	18623.85
551.599	18779.55
551.962	18759.21
552.326	18995.14
552.689	19010.73
553.053	19052.31
553.417	19116.26
553.78	19425.63
554.143	19336.37
554.507	19464.05
554.87	19578.17
555.234	19780.88
555.597	19840.09
555.96	19906.52
556.323	20033.07
556.686	20146.74
557.05	20242.79
557.413	20409.79
557.776	20469.67
558.139	20600.97
558.502	20643.45
558.865	20819.04
559.228	21016.78
559.59	21073.05
559.953	21227.85
560.316	21452.7
560.679	21522.3
561.041	21629.42
561.404	21869.18
561.767	21972.23
562.129	21996.41
562.492	22252.68
562.854	22315.05
563.217	22411.32
563.579	22551.2
563.941	22762.04
564.304	22886.56
564.666	23068.02
565.028	23254.91
565.39	23309.37
565.753	23638.86
566.115	23773.09
566.477	23875.01
566.839	24094.66
567.201	24122.23
567.563	24324.94
567.925	24501.21
568.287	24661.65
568.648	24711.6
569.01	25097.35
569.372	25168.76
569.734	25231.13
570.095	25455.53
570.457	25650.1
570.819	25789.31
571.18	25904.33
571.542	26162.63
571.903	26272.68
572.265	26381.38
572.626	26559.91
572.987	26704.09
573.349	26849.62
573.71	27087.13
574.071	27100.91
574.432	27243.28
574.794	27471.52
575.155	27741.35
575.516	27690.73
575.877	27931.62
576.238	28118.29
576.599	28202.35
576.96	28157.38
577.32	28379.3
577.681	28639.4
578.042	28692.28
578.403	28814.54
578.763	28872.84
579.124	29041.88
579.485	29228.54
579.845	29323.68
580.206	29220.18
580.566	29402.09
580.927	29550.56
581.287	29681.41
581.648	29593.05
582.008	29949.42
582.368	29861.74
582.728	30129.53
583.089	30004.56
583.449	30069.2
583.809	30212.47
584.169	30270.32
584.529	30252.24
584.889	30606.81
585.249	30479.35
585.609	30461.95
585.969	30639.35
586.329	30573.59
586.688	30703.08
587.048	30779.01
587.408	30746.69
587.768	30908.27
588.127	30697.65
588.487	30698.33
588.846	31106.91
589.206	30752.79
589.565	30883.41
589.925	31126.57
590.284	30917.08
590.643	31067.59
591.003	31149.39
591.362	31209.5
591.721	31192.56
592.08	31344.19
592.44	31320.24
592.799	31317.75
593.158	31272.1
593.517	31232.1
593.876	31377.18
594.235	31400.46
594.593	31407.24
594.952	31520.46
595.311	31442.27
595.67	31518.2
596.029	31670.51
596.387	31740.11
596.746	31732.65
597.104	31565.2
597.463	31646.78
597.822	31857.85
598.18	31684.75
598.538	31747.57
598.897	31892.2
599.255	31634.35
599.613	32044.51
599.972	31795.25
600.33	31961.57
600.688	31868.92
601.046	32075.7
601.404	32112.98
601.762	31956.38
602.12	32254.45
602.478	32148.46
602.836	32191.63
603.194	32006.55
603.552	32049.93
603.91	31893.78
604.268	32152.76
604.625	32143.49
604.983	32188.01
605.341	32195.02
605.698	32247.67
606.056	32463.93
606.413	32354.33
606.771	32450.15
607.128	32479.75
607.485	32426.2
607.843	32335.12
608.2	32561.79
608.557	32525.85
608.914	32487.89
609.272	32648.56
609.629	32722.91
609.986	32863.47
610.343	32732.85
610.7	32943.47
611.057	32861.66
611.414	32928.33
611.771	32916.13
612.127	33027.99
612.484	32845.17
612.841	32963.58
613.198	32886.52
613.554	33025.28
613.911	33246.29
614.267	33171.71
614.624	33171.03
614.98	33260.52
615.337	33433.63
615.693	33333.06
616.05	33093.07
616.406	33457.81
616.762	33401.09
617.118	33428.2
617.475	33294.87
617.831	33570.57
618.187	33581.19
618.543	33547.97
618.899	33662.77
619.255	33649.44
619.611	33584.36
619.967	33611.25
620.323	33652.38
620.678	33589.55
621.034	33500.52
621.39	33677.01
621.746	33620.51
622.101	33945.25
622.457	33714.52
622.812	33656.67
623.168	33783.67
623.523	33845.14
623.879	33822.54
624.234	33633.17
624.589	33719.04
624.945	33876.78
625.3	33907.96
625.655	33880.17
626.01	33889.89
626.365	33728.76
626.72	33872.03
627.075	33806.05
627.43	33741.64
627.785	33739.16
628.14	33857.8
628.495	33780.06
628.85	33739.16
629.205	33685.6
629.559	33780.96
629.914	33529.44
630.269	33552.95
630.623	33590.01
630.978	33510.23
631.332	33694.86
631.687	33648.31
632.041	33464.36
632.396	33589.1
632.75	33312.95
633.104	33404.7
633.459	33311.82
633.813	33308.43
634.167	33285.61
634.521	33249.68
634.875	33363.35
635.229	33319.96
635.583	33232.05
635.937	33190.7
636.291	33112.28
636.645	33167.42
636.999	33027.31
637.352	33111.38
637.706	32924.71
638.06	33135.56
638.413	33024.37
638.767	32816.47
639.121	33002
639.474	32715.45
639.828	32679.97
640.181	32833.87
640.534	32877.26
640.888	32719.97
641.241	32518.17
641.594	32617.83
641.947	32647.43
642.301	32574.67
642.654	32664.16
643.007	32647.21
643.36	32586.19
643.713	32507.1
644.066	32593.2
644.419	32295.58
644.771	32228.01
645.124	32059.2
645.477	31947.11
645.83	31699.21
646.182	31637.29
646.535	31483.17
646.888	31545.09
647.24	31437.52
647.593	31556.16
647.945	31467.58
648.298	31303.06
648.65	31223.29
649.002	31055.61
649.355	31335.6
649.707	31306
650.059	31422.83
650.411	31834.8
650.763	31793.22
651.115	32071.63
651.467	31825.76
651.819	31829.83
652.171	31956.15
652.523	31903.5
652.875	31997.96
653.227	31738.3
653.578	32080.44
653.93	31908.92
654.282	31687.46
654.633	31632.09
654.985	31849.49
655.337	31872.76
655.688	31754.8
656.039	31901.24
656.391	31599.32
656.742	31812.65
657.094	31840
657.445	31900.11
657.796	31889.03
658.147	31788.25
658.498	31813.33
658.849	31785.08
659.2	31719.32
659.551	31635.71
659.902	31799.09
660.253	31613.11
660.604	31657.85
660.955	31569.27
661.306	31878.64
661.656	31665.54
662.007	31718.64
662.358	31677.29
662.708	31644.07
663.059	31586.9
663.409	31488.59
663.76	31847
664.11	31745.54
664.461	31637.06
664.811	31744.86
665.161	31670.74
665.511	31582.38
665.862	31554.58
666.212	31703.05
666.562	31635.71
666.912	31534.24
667.262	31524.07
667.612	31647.46
667.962	31570.17
668.312	31571.08
668.662	31697.85
669.011	31544.64
669.361	31476.16
669.711	31569.49
670.06	31484.53
670.41	31491.76
670.76	31547.8
671.109	31454.7
671.459	31410.63
671.808	31343.29
672.157	31389.61
672.507	31166.12
672.856	31234.14
673.205	31176.51
673.554	31214.93
673.904	31170.41
674.253	31266
674.602	31304.42
674.951	30766.13
675.3	30621.05
675.649	31132.9
675.998	30946.01
676.346	31108.04
676.695	31108.94
677.044	30761.61
677.393	31022.84
677.741	31087.47
678.09	30761.83
678.438	30832.57
678.787	30832.57
679.135	30896.52
679.484	30589.63
679.832	30792.79
680.181	30676.64
680.529	30768.16
680.877	30598.67
681.225	30563.19
681.573	30732.23
681.922	30501.73
682.27	30305.12
682.618	30296.76
682.966	30339.02
683.314	30291.79
683.661	30183.99
684.009	30149.87
684.357	29988.29
684.705	30013.6
685.053	29975.86
685.4	29993.49
685.748	29776.1
686.095	29804.34
686.443	29772.25
686.79	29592.82
687.138	29666.27
687.485	29591.47
687.832	29604.35
688.18	29496.55
688.527	29355.32
688.874	29321.19
689.221	29208.88
689.568	29164.13
689.915	29045.95
690.262	29115.77
690.609	29025.15
690.956	28855.44
691.303	28897.02
691.65	28650.7
691.997	28685.95
692.344	28477.82
692.69	28448.45
693.037	28499.29
693.383	28383.59
693.73	28347.88
694.077	28333.87
694.423	28116.03
694.769	28070.83
695.116	27926.88
695.462	27841.23
695.808	27936.14
696.155	27864.73
696.501	27678.52
696.847	27638.75
697.193	27361.02
697.539	27469.94
697.885	27280.57
698.231	27163.28
698.577	27237.86
698.923	27144.07
699.269	27008.71
699.614	26840.81
699.96	26768.27
700.306	26620.47
700.651	26563.75
700.997	26543.64
701.342	26494.83
701.688	26460.25
702.033	26288.05
702.379	26241.95
702.724	26112.46
703.069	26113.59
703.415	25869.53
703.76	25914.5
704.105	25897.1
704.45	25828.85
704.795	25559.71
705.14	25601.29
705.485	25545.25
705.83	25409.66
706.175	25431.8
706.52	25328.08
706.865	25247.18
707.209	25165.6
707.554	25194.97
707.899	25183.45
708.243	24975.54
708.588	24955.21
708.932	24772.61
709.277	24853.51
709.621	24846.06
709.966	24705.95
710.31	24686.06
710.654	24431.38
710.998	24541.66
711.342	24511.38
711.687	24438.16
712.031	24260.53
712.375	24346.41
712.719	24263.02
713.063	24291.04
713.407	24259.63
713.75	24082.91
714.094	24046.53
714.438	24054.66
714.782	23982.12
715.125	23929.92
715.469	23926.98
715.812	23847.66
716.156	23766.76
716.499	23702.81
716.843	23799.08
717.186	23621.68
717.53	23738.74
717.873	23670.95
718.216	23627.56
718.559	23539.88
718.902	23377.62
719.246	23428.01
719.589	23489.03
719.932	23429.82
720.275	23345.08
720.617	23286.77
720.96	23268.92
721.303	23372.65
721.646	23312.76
721.989	23202.71
722.331	23197.96
722.674	23102.15
723.016	23261.01
723.359	23133.56
723.701	23293.33
724.044	22957.52
724.386	22889.05
724.729	23006.78
725.071	22966.78
725.413	22945.54
725.755	22855.83
726.097	22771.76
726.439	22783.96
726.782	22747.58
727.124	22966.78
727.465	22878.65
727.807	22653.12
728.149	22725.89
728.491	22701.71
728.833	22831.87
729.175	22720.01
729.516	22643.18
729.858	22653.57
730.199	22667.81
730.541	22588.26
730.882	22635.94
731.224	22693.12
731.565	22631.88
731.906	22608.6
732.248	22533.57
732.589	22461.94
732.93	22503.29
733.271	22463.97
733.612	22560.01
733.953	22547.36
734.294	22475.5
734.635	22489.96
734.976	22557.3
735.317	22344.65
735.658	22388.49
735.999	22399.57
736.339	22428.49
736.68	22596.85
737.021	22447.02
737.361	22291.55
737.702	22472.78
738.042	22392.33
738.383	22437.31
738.723	22367.25
739.063	22367.02
739.404	22386.46
739.744	22197.76
740.084	22248.38
740.424	22369.51
740.764	22262.85
741.104	22350.98
741.444	22261.26
741.784	22108.95
742.124	22319.34
742.464	22269.17
742.804	22313.69
743.143	22169.52
743.483	22237.99
743.823	22154.6
744.162	22144.43
744.502	22217.65
744.841	22041.84
745.181	22249.97
745.52	22065.34
745.86	22136.97
746.199	22106.69
746.538	22149.4
746.877	22226.46
747.216	22180.59
747.556	22136.97
747.895	22230.53
748.234	22000.71
748.573	22003.87
748.911	21981.05
749.25	22025.79
749.589	21964.55
749.928	21965.68
750.267	22004.32
750.605	21912.35
750.944	22022.4
751.283	21885
751.621	21865.34
751.96	21813.14
752.298	21822.41
752.636	21842.74
752.975	21753.03
753.313	21774.95
753.651	21779.7
753.989	21674.39
754.327	21685.69
754.666	21659.25
755.004	21681.85
755.342	21698.34
755.679	21588.97
756.017	21512.81
756.355	21543.32
756.693	21517.33
757.031	21495.41
757.368	21412.7
757.706	21335.19
758.044	21277.79
758.381	21333.38
758.719	21154.63
759.056	21335.87
759.394	21248.18
759.731	21027.85
760.068	21061.97
760.405	21014.97
760.743	21053.39
761.08	21001.19
761.417	21003.22
761.754	20833.96
762.091	20865.6
762.428	20698.37
762.765	20662.89
763.102	20693.85
763.438	20516
763.775	20445.04
764.112	20493.18
764.449	20496.34
764.785	20442.78
765.122	20278.27
765.458	20169.12
765.795	20210.25
766.131	20170.02
766.467	20031.27
766.804	20020.42
767.14	19836.47
767.476	19925.28
767.812	19739.07
768.148	19794.44
768.485	19694.1
768.821	19548.34
769.157	19564.39
769.492	19558.29
769.828	19525.52
770.164	19267.9
770.5	19252.76
770.836	19243.94
771.171	19121.23
771.507	19138.86
771.842	19003.95
772.178	18933.67
772.513	18987.23
772.849	18945.87
773.184	18834.91
773.519	18815.48
773.855	18656.16
774.19	18620.46
774.525	18591.08
774.86	18611.19
775.195	18557.41
775.53	18369.16
775.865	18369.84
776.2	18215.5
776.535	18110.64
776.87	18066.57
777.205	18095.05
777.539	17903.64
777.874	17899.57
778.209	17779.8
778.543	17835.62
778.878	17611.22
779.212	17662.74
779.547	17533.48
779.881	17575.29
780.215	17410.77
780.55	17402.64
780.884	17225.24
781.218	17318.34
781.552	17273.83
781.886	17205.58
782.22	17074.06
782.554	16996.32
782.888	16927.39
783.222	16848.3
783.556	16777.12
783.889	16790
784.223	16587.06
784.557	16598.59
784.89	16634.97
785.224	16396.11
785.557	16450.8
785.891	16374.41
786.224	16411.25
786.558	16379.61
786.891	16205.83
787.224	16135.32
787.557	16107.75
787.891	16110.92
788.224	16068.43
788.557	16039.96
788.89	15900.53
789.223	15982.11
789.556	15844.71
789.888	15732.4
790.221	15791.38
790.554	15528.79
790.887	15557.49
791.219	15477.04
791.552	15541.67
791.884	15405.17
792.217	15427.77
792.549	15309.13
792.882	15206.31
793.214	15180.32
793.546	15120.66
793.879	15136.93
794.211	14987.56
794.543	15046.09
794.875	15016.26
795.207	15053.09
795.539	14866.43
795.871	14914.34
796.203	14779.88
796.535	14733.55
796.867	14689.26
797.198	14627.79
797.53	14642.71
797.862	14532.43
798.193	14665.31
798.525	14541.69
798.856	14413.79
799.188	14396.84
799.519	14256.28
799.85	14158.88
800.182	14207.92
800.513	14179.67
800.844	14037.98
801.175	14165.21
801.506	14147.13
801.837	14012.22
802.168	13916.85
802.499	13984.65
802.83	13889.96
803.161	13855.61
803.491	13786.91
803.822	13837.31
804.153	13774.03
804.483	13665.33
804.814	13560.25
805.145	13557.09
805.475	13511.89
805.805	13470.99
806.136	13520.7
806.466	13536.3
806.796	13495.85
807.126	13344.21
807.457	13353.7
807.787	13376.07
808.117	13247.26
808.447	13126.59
808.777	13297.66
809.107	13102.41
809.436	13087.72
809.766	13113.48
810.096	13032.13
810.426	13035.29
810.755	12973.37
811.085	12938.12
811.414	13003.2
811.744	12777.45
812.073	12863.32
812.403	12824.9
812.732	12782.64
813.061	12719.82
813.39	12696.77
813.719	12659.48
814.049	12723.66
814.378	12615.42
814.707	12583.1
815.036	12567.73
815.365	12471.24
815.693	12431.01
816.022	12424.69
816.351	12418.81
816.68	12362.54
817.008	12343.33
817.337	12244.81
817.665	12213.85
817.994	12208.42
818.322	12217.46
818.651	12134.3
818.979	12072.61
819.307	12176.56
819.636	12029.22
819.964	12025.6
820.292	12068.54
820.62	12085.26
820.948	12055.88
821.276	12021.53
821.604	12095.43
821.932	12075.54
822.259	11997.81
822.587	12061.53
822.915	11969.56
823.243	12008.43
823.57	11895.21
823.898	11985.83
824.225	11885.27
824.553	12008.65
824.88	11942.21
825.207	11895.89
825.535	11934.3
825.862	12008.65
826.189	11911.71
826.516	11935.66
826.843	11953.74
827.17	12041.19
827.497	11958.94
827.824	11889.33
828.151	11992.38
828.478	11869.9
828.805	12011.14
829.131	11937.02
829.458	11884.14
829.785	11807.98
830.111	11888.2
830.438	11988.09
830.764	11847.3
831.09	11827.87
831.417	11905.83
831.743	11867.64
832.069	11984.02
832.395	11865.15
832.722	11934.76
833.048	11807.98
833.374	11886.62
833.7	11719.4
834.026	11768.43
834.351	11734.99
834.677	11833.97
835.003	11789.22
835.329	11842.78
835.654	11815.66
835.98	11746.74
836.306	11732.73
836.631	11640.53
836.956	11684.37
837.282	11698.15
837.607	11638.49
837.932	11630.81
838.258	11641.88
838.583	11611.83
838.908	11563.02
839.233	11528.89
839.558	11588.33
839.883	11458.84
840.208	11504.49
840.533	11477.82
840.858	11483.24
841.182	11452.96
841.507	11418.16
841.832	11341.78
842.156	11330.7
842.481	11255
842.805	11257.71
843.13	11302.68
843.454	11300.65
843.778	11176.36
844.103	11218.62
844.427	11103.59
844.751	11103.14
845.075	11128.9
845.399	11071.5
845.723	11008.91
846.047	11039.64
846.371	10943.37
846.695	10937.95
847.019	10841
847.343	10833.99
847.666	10684.62
847.99	10655.47
848.313	10684.85
848.637	10690.27
848.96	10615.24
849.284	10638.07
849.607	10531.63
849.931	10512.65
850.254	10465.19
850.577	10268.59
850.9	10311.07
851.223	10270.85
851.546	10280.79
851.869	10207.12
852.192	10251.64
852.515	10148.82
852.838	10142.26
853.161	10112.43
853.483	10063.17
853.806	10042.15
854.129	10001.7
854.451	9919.22
854.774	9955.6
855.096	9908.6
855.419	9822.5
855.741	9838.54
856.063	9745.66
856.385	9847.58
856.708	9707.24
857.03	9673.8
857.352	9757.19
857.674	9646.68
857.996	9551.77
858.318	9568.49
858.64	9619.11
858.961	9557.64
859.283	9520.36
859.605	9493.92
859.926	9519
860.248	9462.73
860.57	9367.14
860.891	9379.8
861.212	9279.23
861.534	9315.62
861.855	9304.77
862.176	9302.28
862.498	9296.86
862.819	9299.57
863.14	9256.41
863.461	9219.35
863.782	9175.51
864.103	9171.67
864.424	9123.31
864.745	9119.24
865.065	9111.55
865.386	9088.28
865.707	9147.71
866.027	9122.85
866.348	9083.31
866.668	9104.77
866.989	9075.17
867.309	9047.15
867.63	9023.19
867.95	8980.48
868.27	8987.72
868.59	8977.32
868.91	8941.16
869.23	8958.79
869.55	8883.09
869.87	8953.14
870.19	8923.31
870.51	8954.04
870.83	8954.95
871.15	8766.93
871.469	8815.29
871.789	8865.46
872.109	8819.58
872.428	8769.19
872.748	8809.64
873.067	8809.19
873.386	8829.08
873.706	8784.33
874.025	8710.43
874.344	8748.17
874.663	8700.49
874.982	8705.92
875.301	8687.38
875.62	8678.8
875.939	8659.14
876.258	8578.23
876.577	8571.68
876.896	8568.97
877.214	8577.1
877.533	8533.04
877.852	8519.93
878.17	8483.77
878.489	8491.46
878.807	8542.53
879.125	8440.16
879.444	8470.22
879.762	8443.78
880.08	8391.12
880.398	8417.56
880.716	8455.3
881.034	8361.07
881.352	8421.4
881.67	8350.22
881.988	8382.08
882.306	8359.71
882.624	8317.9
882.941	8289.2
883.259	8285.59
883.577	8258.7
883.894	8222.31
884.212	8330.33
884.529	8267.96
884.846	8234.06
885.164	8183.44
885.481	8118.13
885.798	8233.84
886.115	8133.73
886.432	8127.63
886.75	8130.11
887.067	8098.93
887.383	8026.61
887.7	8060.51
888.017	7997.69
888.334	8040.17
888.651	7970.12
888.967	7978.25
889.284	7913.17
889.6	7856.22
889.917	7842.66
890.233	7866.39
890.55	7808.54
890.866	7829.33
891.182	7828.42
891.498	7780.74
891.815	7772.83
892.131	7679.28
892.447	7691.7
892.763	7725.15
893.079	7628.66
893.395	7677.02
893.71	7573.29
894.026	7638.15
894.342	7590.01
894.657	7525.16
894.973	7519.28
895.289	7485.83
895.604	7492.16
895.92	7394.54
896.235	7380.53
896.55	7446.51
896.865	7322.67
897.181	7302.56
897.496	7310.7
897.811	7278.61
898.126	7215.56
898.441	7274.09
898.756	7208.33
899.071	7145.96
899.386	7178.05
899.7	7116.35
900.015	7054.21
900.33	7082.91
900.644	7021.21
900.959	7044.26
901.273	7027.32
901.588	6978.05
901.902	6979.18
902.216	6977.15
902.531	6872.07
902.845	6978.73
903.159	6823.25
903.473	6796.59
903.787	6733.76
904.101	6738.51
904.415	6789.13
904.729	6702.35
905.042	6732.18
905.356	6702.58
905.67	6691.96
905.984	6665.52
906.297	6644.5
906.611	6629.13
906.924	6561.56
907.237	6551.4
907.551	6556.82
907.864	6496.48
908.177	6507.33
908.491	6458.29
908.804	6433.66
909.117	6454.45
909.43	6401.34
909.743	6359.54
910.056	6335.81
910.368	6294
910.681	6289.48
910.994	6213.78
911.307	6264.85
911.619	6197.96
911.932	6219.88
912.244	6135.14
912.557	6119.09
912.869	6079.09
913.181	6018.08
913.494	6092.88
913.806	6035.48
914.118	6055.82
914.43	5955.93
914.742	5989.83
915.054	5896.95
915.366	5884.07
915.678	5898.53
915.99	5877.74
916.302	5848.36
916.613	5815.82
916.925	5783.05
917.236	5820.57
917.548	5774.69
917.859	5727.69
918.171	5714.36
918.482	5661.93
918.794	5641.59
919.105	5619.22
919.416	5617.18
919.727	5590.06
920.038	5560.46
920.349	5547.35
920.66	5481.14
920.971	5534.47
921.282	5503.97
921.593	5484.08
921.903	5421.93
922.214	5377.87
922.525	5400.47
922.835	5392.56
923.146	5340.81
923.456	5287.02
923.767	5323.86
924.077	5277.76
924.387	5266.68
924.697	5199.11
925.008	5201.6
925.318	5175.16
925.628	5135.84
925.938	5094.71
926.248	5124.31
926.558	5114.82
926.867	5111.21
927.177	5041.38
927.487	5031.66
927.796	5006.58
928.106	5022.17
928.416	5024.66
928.725	4948.95
929.034	4953.47
929.344	4916.41
929.653	4886.58
929.962	4878.9
930.271	4828.73
930.581	4809.29
930.89	4817.66
931.199	4788.05
931.508	4794.83
931.817	4701.05
932.125	4731.78
932.434	4737.43
932.743	4694.27
933.051	4644.55
933.36	4637.77
933.669	4620.6
933.977	4590.77
934.286	4604.1
934.594	4556.87
934.902	4521.62
935.21	4525.69
935.519	4528.85
935.827	4489.75
936.135	4512.13
936.443	4430.1
936.751	4428.74
937.059	4383.54
937.367	4389.87
937.674	4403.66
937.982	4406.59
938.29	4289.53
938.597	4316.65
938.905	4301.96
939.213	4289.08
939.52	4257.9
939.827	4264.68
940.135	4213.38
940.442	4211.8
940.749	4176.09
941.056	4183.55
941.363	4138.13
941.67	4110.56
941.977	4114.4
942.284	4113.27
942.591	4071.91
942.898	4078.47
943.205	4065.13
943.511	4038.24
943.818	4059.71
944.125	3969.99
944.431	3980.62
944.738	4011.12
945.044	3945.59
945.35	3960.73
945.657	3925.02
945.963	3903.1
946.269	3875.53
946.575	3859.49
946.881	3868.53
947.187	3841.18
947.493	3828.53
947.799	3819.49
948.105	3814.07
948.41	3748.08
948.716	3747.63
949.022	3739.04
949.327	3728.42
949.633	3713.05
949.938	3680.51
950.244	3696.33
950.549	3708.98
950.854	3646.61
951.16	3638.48
951.465	3647.07
951.77	3627.4
952.075	3594.41
952.38	3577.91
952.685	3556.9
952.99	3492.49
953.294	3537.01
953.599	3488.88
953.904	3523
954.209	3473.96
954.513	3459.95
954.818	3455.66
955.122	3489.1
955.426	3464.7
955.731	3422.66
956.035	3393.51
956.339	3401.65
956.643	3391.25
956.948	3354.87
957.252	3308.32
957.556	3328.66
957.86	3318.26
958.163	3251.37
958.467	3300.86
958.771	3242.56
959.075	3252.27
959.378	3218.38
959.682	3232.16
959.985	3210.92
960.289	3181.09
960.592	3170.24
960.896	3182.44
961.199	3165.95
961.502	3173.63
961.805	3151.26
962.108	3114.2
962.411	3115.33
962.714	3105.61
963.017	3098.38
963.32	3064.48
963.623	3059.51
963.926	3029.23
964.228	3040.53
964.531	3005.5
964.833	3031.26
965.136	3010.25
965.438	3011.15
965.741	2987.87
966.043	2985.39
966.345	2946.29
966.648	2906.75
966.95	2923.47
967.252	2934.54
967.554	2868.55
967.856	2887.76
968.158	2867.88
968.46	2860.87
968.761	2818.16
969.063	2828.78
969.365	2837.37
969.666	2804.38
969.968	2817.71
970.269	2754.66
970.571	2774.09
970.872	2740.2
971.174	2753.08
971.475	2756.69
971.776	2735.22
972.077	2698.84
972.378	2726.19
972.679	2730.25
972.98	2685.28
973.281	2677.6
973.582	2660.65
973.883	2648.45
974.183	2619.3
974.484	2613.65
974.785	2629.24
975.085	2584.27
975.386	2579.75
975.686	2550.6
975.986	2580.2
976.287	2571.84
976.587	2552.4
976.887	2530.48
977.187	2530.94
977.487	2536.13
977.787	2485.51
978.087	2472.41
978.387	2489.81
978.687	2469.47
978.987	2459.75
979.286	2444.16
979.586	2461.79
979.885	2377.95
980.185	2421.11
980.484	2397.83
980.784	2408
981.083	2402.58
981.382	2381.11
981.682	2381.11
981.981	2356.93
982.28	2363.26
982.579	2340.66
982.878	2314.22
983.177	2318.96
983.475	2317.16
983.774	2280.32
984.073	2310.38
984.372	2272.19
984.67	2296.14
984.969	2257.72
985.267	2243.26
985.566	2245.75
985.864	2248.01
986.162	2240.77
986.461	2220.44
986.759	2199.65
987.057	2168.69
987.355	2187.67
987.653	2173.43
987.951	2136.82
988.249	2172.75
988.547	2161.68
988.844	2140.21
989.142	2131.62
989.44	2083.26
989.737	2094.34
990.035	2078.97
990.332	2091.17
990.63	2079.87
990.927	2095.92
991.224	2039.2
991.521	2060.67
991.819	2044.17
992.116	2034.45
992.413	2022.7
992.71	2024.96
993.006	2024.73
993.303	2007.11
993.6	1973.44
993.897	1977.5
994.193	1989.03
994.49	1955.36
994.787	1956.94
995.083	1952.42
995.379	1925.53
995.676	1927.11
995.972	1907
996.268	1918.75
996.565	1878.98
996.861	1882.14
997.157	1871.07
997.453	1835.59
997.749	1856.6
998.044	1848.24
998.34	1820.67
998.636	1835.14
998.932	1803.27
999.227	1805.31
999.523	1788.13
999.818	1786.78
1000.114	1771.18
1000.409	1760.11
1000.704	1772.99
1001	1758.08
1001.295	1742.93
1001.59	1737.74
1001.885	1757.62
1002.18	1695.7
1002.475	1708.13
1002.77	1690.28
1003.065	1693.67
1003.359	1697.96
1003.654	1654.8
1003.949	1675.37
1004.243	1673.78
1004.538	1650.73
1004.832	1645.99
1005.127	1612.32
1005.421	1634.46
1005.715	1626.1
1006.009	1609.83
1006.304	1590.62
1006.598	1631.75
1006.892	1577.74
1007.186	1591.53
1007.48	1542.49
1007.773	1587.23
1008.067	1548.36
1008.361	1523.51
1008.655	1525.09
1008.948	1503.39
1009.242	1544.75
1009.535	1509.27
1009.829	1506.56
1010.122	1478.99
1010.415	1492.55
1010.708	1445.54
1011.001	1471.08
1011.295	1485.54
1011.588	1459.78
1011.881	1433.11
1012.173	1407.35
1012.466	1440.12
1012.759	1443.96
1013.052	1408.03
1013.344	1404.19
1013.637	1414.13
1013.93	1388.14
1014.222	1389.27
1014.514	1375.49
1014.807	1368.93
1015.099	1348.82
1015.391	1351.53
1015.683	1321.48
1015.976	1351.31
1016.268	1347.69
1016.56	1321.25
1016.851	1296.17
1017.143	1322.83
1017.435	1282.83
1017.727	1276.51
1018.018	1289.16
1018.31	1274.92
1018.602	1281.25
1018.893	1253.91
1019.185	1267.24
1019.476	1240.35
1019.767	1259.78
1020.058	1218.88
1020.35	1223.4
1020.641	1210.29
1020.932	1220.46
1021.223	1173.91
1021.514	1163.06
1021.804	1170.97
1022.095	1192.67
1022.386	1186.56
1022.677	1186.56
1022.967	1154.48
1023.258	1161.03
1023.548	1170.97
1023.839	1148.37
1024.129	1144.08
1024.419	1111.99
1024.709	1105.21
1025	1098.88
1025.29	1123.06
1025.58	1109.96
1025.87	1083.06
1026.16	1093.23
1026.449	1081.03
1026.739	1056.4
1027.029	1074.93
1027.319	1053.69
1027.608	1054.59
1027.898	1019.79
1028.187	1040.58
1028.477	1052.78
1028.766	1015.5
1029.055	1009.85
1029.344	1016.63
1029.634	991.77
1029.923	1019.79
1030.212	996.29
1030.501	1003.97
1030.79	976.85
1031.078	966.01
1031.367	968.94
1031.656	966.46
1031.945	969.17
1032.233	964.42
1032.522	937.76
1032.81	958.1
1033.099	939.57
1033.387	921.71
1033.675	915.84
1033.963	905.67
1034.251	910.19
1034.54	903.41
1034.828	910.64
1035.116	903.63
1035.403	883.52
1035.691	877.65
1035.979	881.49
1036.267	887.59
1036.554	887.59
1036.842	853.24
1037.129	859.12
1037.417	831.09
1037.704	866.57
1037.992	837.42
1038.279	827.03
1038.566	817.54
1038.853	817.54
1039.14	817.54
