Data from tablewood_brown_FLMS001491_083.txt Node
Date: Tue Feb 07 11:11:07 GMT 2017
User: dcchb
Spectrometer: FLMS00149
Trigger mode: 0
Integration Time (sec): 2.000000E-2
Scans to average: 10
Electric dark correction enabled: true
Nonlinearity correction enabled: false
Boxcar width: 0
XAxis mode: Wavelengths
Number of Pixels in Spectrum: 2048
>>>>>Begin Spectral Data<<<<<
341.393	-22.54
341.776	-22.54
342.16	-22.54
342.543	-74.74
342.927	-78.81
343.31	-58.7
343.693	-60.73
344.077	-79.49
344.46	-60.28
344.843	-52.82
345.226	-58.25
345.61	-34.52
345.993	-6.72
346.376	5.71
346.759	28.98
347.142	11.81
347.525	42.09
347.908	63.56
348.291	80.51
348.674	93.16
349.057	85.7
349.44	120.51
349.823	143.56
350.206	167.28
350.588	204.57
350.971	202.54
351.354	215.42
351.737	219.03
352.119	254.74
352.502	259.94
352.884	270.78
353.267	268.98
353.65	275.98
354.032	310.33
354.414	307.17
354.797	304.68
355.179	325.02
355.562	323.89
355.944	308.75
356.326	355.75
356.709	343.32
357.091	344.68
357.473	356.88
357.855	346.71
358.238	330.44
358.62	340.84
359.002	355.08
359.384	326.38
359.766	340.39
360.148	322.53
360.53	317.34
360.912	340.39
361.294	340.84
361.676	344.45
362.057	342.65
362.439	343.1
362.821	325.02
363.203	311.01
363.584	318.69
363.966	305.81
364.348	322.08
364.729	322.08
365.111	303.1
365.493	330.44
365.874	334.96
366.256	306.49
366.637	334.51
367.019	341.74
367.4	310.56
367.781	332.48
368.163	323.44
368.544	311.69
368.925	309.43
369.306	333.83
369.688	318.69
370.069	323.44
370.45	327.05
370.831	311.23
371.212	319.82
371.593	341.52
371.974	346.04
372.355	323.21
372.736	343.1
373.117	329.54
373.498	322.53
373.879	339.48
374.26	328.64
374.641	325.92
375.021	311.69
375.402	321.18
375.783	351.46
376.163	323.66
376.544	344
376.925	339.48
377.305	346.94
377.686	326.6
378.066	330.9
378.447	353.72
378.827	359.14
379.208	367.96
379.588	347.84
379.968	352.82
380.349	346.94
380.729	361.18
381.109	376.54
381.489	348.07
381.87	348.97
382.25	341.97
382.63	380.84
383.01	362.98
383.39	365.7
383.77	375.19
384.15	379.71
384.53	381.06
384.91	372.48
385.29	377.45
385.67	374.74
386.049	377.9
386.429	377.67
386.809	398.01
387.189	392.59
387.568	391.23
387.948	396.2
388.328	401.18
388.707	392.81
389.087	410.44
389.466	395.53
389.846	388.75
390.225	416.09
390.605	427.16
390.984	433.94
391.363	417.45
391.743	407.28
392.122	413.6
392.501	426.03
392.881	444.11
393.26	435.98
393.639	436.43
394.018	457.22
394.397	428.29
394.776	463.77
395.155	454.28
395.534	442.53
395.913	466.71
396.292	476.65
396.671	453.15
397.05	454.28
397.429	455.64
397.808	461.06
398.186	481.63
398.565	468.74
398.944	464.45
399.323	470.33
399.701	482.53
400.08	479.37
400.458	485.69
400.837	488.41
401.215	505.81
401.594	484.11
401.972	504.22
402.351	521.4
402.729	514.17
403.107	522.53
403.486	513.94
403.864	531.57
404.242	514.85
404.62	551
404.999	554.17
405.377	536.09
405.755	552.81
406.133	553.71
406.511	560.95
406.889	544.45
407.267	565.47
407.645	574.73
408.023	577.22
408.401	582.41
408.779	581.06
409.156	578.35
409.534	584.9
409.912	594.39
410.29	614.5
410.667	593.94
411.045	627.84
411.422	620.15
411.8	618.35
412.178	635.97
412.555	646.14
412.933	643.88
413.31	604.56
413.687	653.37
414.065	645.24
414.442	672.81
414.819	680.04
415.197	688.85
415.574	671.9
415.951	673.03
416.328	699.25
416.705	688.4
417.082	669.19
417.46	702.41
417.837	684.78
418.214	715.07
418.591	720.26
418.967	726.59
419.344	714.84
419.721	757.55
420.098	743.77
420.475	759.58
420.852	748.96
421.228	752.58
421.605	748.96
421.982	793.48
422.358	774.05
422.735	799.81
423.111	811.56
423.488	805.46
423.864	790.32
424.241	815.85
424.617	816.53
424.994	833.03
425.37	825.35
425.746	829.19
426.123	835.97
426.499	847.94
426.875	835.74
427.251	889.07
427.627	903.99
428.003	887.26
428.379	911.44
428.756	908.73
429.132	890.65
429.507	926.13
429.883	921.61
430.259	936.08
430.635	955.06
431.011	943.76
431.387	972.46
431.763	973.59
432.138	997.77
432.514	1016.98
432.89	1004.32
433.265	1038.67
433.641	1038.45
434.016	1039.8
434.392	1034.61
434.767	1078.67
435.143	1070.76
435.518	1067.6
435.894	1084.55
436.269	1114.38
436.644	1114.15
437.02	1135.39
437.395	1106.47
437.77	1141.27
438.145	1192.34
438.52	1157.54
438.895	1169.97
439.271	1187.14
439.646	1198.22
440.021	1217.88
440.395	1219.01
440.77	1215.84
441.145	1212
441.52	1226.24
441.895	1240.7
442.27	1261.94
442.645	1261.27
443.019	1282.51
443.394	1294.03
443.769	1329.97
444.143	1287.03
444.518	1308.5
444.892	1310.98
445.267	1346.46
445.641	1349.17
446.016	1359.34
446.39	1339
446.764	1372.9
447.139	1356.41
447.513	1380.36
447.887	1401.83
448.262	1387.36
448.636	1382.62
449.01	1417.65
449.384	1419
449.758	1442.5
450.132	1439.79
450.506	1468.49
450.88	1507.36
451.254	1482.5
451.628	1500.81
452.002	1526.12
452.376	1511.66
452.75	1530.64
453.123	1529.73
453.497	1585.1
453.871	1559.56
454.244	1613.35
454.618	1599.11
454.992	1638.43
455.365	1630.3
455.739	1619.9
456.112	1677.07
456.486	1709.39
456.859	1686.11
457.232	1706
457.606	1755.72
457.979	1742.38
458.352	1758.88
458.725	1830.97
459.099	1842.27
459.472	1882.49
459.845	1891.53
460.218	1871.65
460.591	1915.49
460.964	1913
461.337	1951.42
461.71	1995.48
462.083	2055.82
462.456	2009.27
462.829	2051.75
463.201	2050.17
463.574	2081.36
463.947	2121.81
464.32	2159.55
464.692	2165.2
465.065	2192.99
465.438	2240.22
465.81	2253.1
466.183	2275.25
466.555	2313.89
466.928	2349.37
467.3	2344.18
467.672	2415.81
468.045	2430.5
468.417	2451.29
468.789	2479.31
469.161	2517.05
469.534	2550.95
469.906	2646.54
470.278	2605.41
470.65	2689.93
471.022	2738.97
471.394	2784.16
471.766	2825.74
472.138	2874.78
472.51	2916.82
472.882	2972.63
473.253	2998.85
473.625	3087.88
473.997	3120.43
474.369	3206.53
474.74	3191.61
475.112	3250.37
475.484	3340.08
475.855	3416.46
476.227	3417.37
476.598	3540.53
476.97	3578.72
477.341	3655.55
477.713	3712.05
478.084	3767.42
478.455	3858.49
478.827	3895.55
479.198	4074.07
479.569	4068.65
479.94	4182.55
480.311	4223.22
480.682	4305.48
481.053	4405.59
481.424	4502.09
481.795	4538.24
482.166	4654.62
482.537	4741.63
482.908	4855.07
483.279	4893.49
483.65	5033.14
484.021	5072.01
484.391	5104.1
484.762	5216.19
485.133	5258.9
485.503	5343.87
485.874	5439.91
486.244	5535.28
486.615	5644.43
486.985	5744.31
487.356	5826.8
487.726	5930.52
488.097	6055.26
488.467	6037.64
488.837	6159.22
489.207	6240.8
489.578	6344.97
489.948	6376.61
490.318	6496.83
490.688	6530.28
491.058	6648.24
491.428	6712.65
491.798	6754.91
492.168	6886.43
492.538	6997.16
492.908	7074.45
493.278	7168.23
493.648	7217.04
494.017	7321.22
494.387	7395.12
494.757	7469.01
495.126	7499.97
495.496	7506.53
495.866	7639.4
496.235	7707.2
496.605	7734.99
496.974	7831.94
497.344	7889.11
497.713	7882.56
498.082	8049.79
498.452	8090.24
498.821	8197.13
499.19	8196.68
499.559	8253.4
499.928	8303.79
500.298	8362.1
500.667	8412.49
501.036	8519.83
501.405	8572.94
501.774	8515.54
502.143	8658.13
502.512	8746.27
502.88	8837.79
503.249	8802.54
503.618	8939.03
503.987	8993.04
504.356	9059.25
504.724	9035.75
505.093	9171.11
505.462	9223.77
505.83	9321.39
506.199	9362.3
506.567	9454.05
506.936	9435.06
507.304	9587.38
507.672	9669.63
508.041	9682.74
508.409	9741.04
508.777	9867.59
509.145	9958.89
509.514	9955.95
509.882	10024.88
510.25	10101.26
510.618	10161.15
510.986	10247.24
511.354	10414.25
511.722	10406.11
512.09	10465.77
512.458	10562.26
512.826	10662.6
513.193	10786.89
513.561	10758.42
513.929	10900.33
514.297	11000.22
514.664	11073.21
515.032	11069.6
515.4	11214.45
515.767	11337.39
516.135	11418.29
516.502	11355.92
516.869	11635.68
517.237	11629.81
517.604	11630.03
517.972	11794.77
518.339	11876.58
518.706	11886.07
519.073	12047.88
519.44	12108.21
519.808	12228.21
520.175	12306.17
520.542	12428.2
520.909	12463.91
521.276	12547.98
521.643	12678.37
522.009	12823.9
522.376	12919.26
522.743	12987.29
523.11	13197.45
523.477	13252.36
523.843	13295.07
524.21	13553.6
524.577	13672.24
524.943	13721.05
525.31	13751.33
525.676	13894.83
526.043	14028.39
526.409	14112.45
526.776	14218.44
527.142	14304.99
527.508	14309.28
527.874	14575.72
528.241	14621.59
528.607	14711.31
528.973	14829.5
529.339	14806.67
529.705	14940.23
530.071	15082.15
530.437	15134.57
530.803	15298.64
531.169	15375.02
531.535	15374.34
531.901	15424.96
532.267	15538.4
532.632	15639.19
532.998	15685.97
533.364	15745.18
533.73	15863.59
534.095	16028.34
534.461	16040.54
534.826	16150.82
535.192	16210.48
535.557	16297.48
535.923	16333.19
536.288	16361.66
536.653	16582.22
537.019	16566.85
537.384	16529.79
537.749	16701.99
538.114	16751.03
538.479	16792.38
538.845	16823.79
539.21	16918.71
539.575	17049.55
539.94	17081.64
540.305	17122.77
540.67	17134.75
541.034	17259.72
541.399	17295.42
541.764	17327.51
542.129	17419.71
542.494	17425.14
542.858	17508.3
543.223	17603.44
543.587	17638.46
543.952	17667.84
544.316	17677.33
544.681	17823.99
545.045	17849.3
545.41	17998.91
545.774	18094.72
546.138	18202.52
546.503	18172.46
546.867	18179.47
547.231	18328.39
547.595	18331.55
547.959	18460.14
548.324	18505.33
548.688	18552.79
549.052	18607.25
549.416	18683.63
549.779	18788.26
550.143	18757.76
550.507	18953
550.871	18952.1
551.235	19053.11
551.599	19218.76
551.962	19244.52
552.326	19395.25
552.689	19544.4
553.053	19470.28
553.417	19561.58
553.78	19843.38
554.143	19788.01
554.507	19931.06
554.87	20066.42
555.234	20258.51
555.597	20246.98
555.96	20475.68
556.323	20511.61
556.686	20568.1
557.05	20802.22
557.413	20827.53
557.776	21023.46
558.139	21142.33
558.502	21215.54
558.865	21296.22
559.228	21528.53
559.59	21692.82
559.953	21732.59
560.316	22048.06
560.679	22019.82
561.041	22285.57
561.404	22350.43
561.767	22585.23
562.129	22460.26
562.492	22869.96
562.854	22872.22
563.217	23004.88
563.579	23155.83
563.941	23334.13
564.304	23492.55
564.666	23807.34
565.028	23810.05
565.39	23950.39
565.753	24162.13
566.115	24304.95
566.477	24387.66
566.839	24633.99
567.201	24838.27
567.563	24931.6
567.925	25124.37
568.287	25264.02
568.648	25339.96
569.01	25652.26
569.372	25810.68
569.734	25891.13
570.095	26029.65
570.457	26294.96
570.819	26398.68
571.18	26516.2
571.542	26762.29
571.903	26822.63
572.265	27114.6
572.626	27223.3
572.987	27261.49
573.349	27500.12
573.71	27832.32
574.071	27857.63
574.432	28025.53
574.794	28333.55
575.155	28390.5
575.516	28457.61
575.877	28622.81
576.238	28725.85
576.599	28856.25
576.96	28908.45
577.32	29205.62
577.681	29251.26
578.042	29436.8
578.403	29519.28
578.763	29595.44
579.124	29872.27
579.485	29968.31
579.845	30062.77
580.206	30094.86
580.566	30241.3
580.927	30350.22
581.287	30500.72
581.648	30524.45
582.008	30670.66
582.368	30744.56
582.728	30789.53
583.089	30855.06
583.449	30841.05
583.809	30985.68
584.169	31133.93
584.529	31103.65
584.889	31381.6
585.249	31159.46
585.609	31280.82
585.969	31566.91
586.329	31399.68
586.688	31516.52
587.048	31567.59
587.408	31556.29
587.768	31574.59
588.127	31543.18
588.487	31573.69
588.846	31822.72
589.206	31656.4
589.565	31737.08
589.925	31935.26
590.284	31817.52
590.643	31899.78
591.003	32133.67
591.362	32095.03
591.721	32164.41
592.08	32169.38
592.44	32219.1
592.799	32215.93
593.158	32113.56
593.517	32288.25
593.876	32320.79
594.235	32215.71
594.593	32229.27
594.952	32408.24
595.311	32251.86
595.67	32468.36
596.029	32653.44
596.387	32707.45
596.746	32690.5
597.104	32570.95
597.463	32511.29
597.822	32688.24
598.18	32550.61
598.538	32475.36
598.897	32787.67
599.255	32461.35
599.613	32948.34
599.972	32672.42
600.33	32896.82
600.688	32716.71
601.046	32922.13
601.404	33062.46
601.762	32949.47
602.12	33190.37
602.478	33086.64
602.836	33178.39
603.194	32974.33
603.552	33025.4
603.91	32930.72
604.268	33130.71
604.625	32964.61
604.983	33259.75
605.341	33024.05
605.698	33193.53
606.056	33312.4
606.413	33280.54
606.771	33382.91
607.128	33435.11
607.485	33278.73
607.843	33297.49
608.2	33541.77
608.557	33595.11
608.914	33383.13
609.272	33695.89
609.629	33677.14
609.986	33652.96
610.343	33618.61
610.7	33861.77
611.057	33869.22
611.414	33827.42
611.771	33722.33
612.127	33922.55
612.484	33933.18
612.841	34148.99
613.198	33871.93
613.554	33926.4
613.911	34184.92
614.267	34095.88
614.624	34154.41
614.98	34158.71
615.337	34209.1
615.693	34292.71
616.05	34248.42
616.406	34379.94
616.762	34330
617.118	34327.52
617.475	34467.4
617.831	34471.24
618.187	34531.8
618.543	34542.88
618.899	34794.17
619.255	34613.16
619.611	34533.84
619.967	34703.1
620.323	34793.04
620.678	34676.88
621.034	34508.3
621.39	34659.71
621.746	34526.61
622.101	34989.87
622.457	34743.55
622.812	34786.71
623.168	34805.47
623.523	34863.09
623.879	35008.85
624.234	34621.29
624.589	34834.39
624.945	34846.37
625.3	34998.91
625.655	34911.23
626.01	34868.52
626.365	34930.44
626.72	34826.71
627.075	34848.63
627.43	34812.93
627.785	34761.18
628.14	34747.39
628.495	34758.46
628.85	34796.2
629.205	34757.79
629.559	34844.34
629.914	34718.69
630.269	34768.41
630.623	34678.01
630.978	34611.35
631.332	34687.05
631.687	34825.36
632.041	34588.98
632.396	34739.93
632.75	34419.49
633.104	34504.01
633.459	34351.47
633.813	34360.06
634.167	34370.68
634.521	34334.29
634.875	34354.18
635.229	34339.72
635.583	34258.82
635.937	34214.98
636.291	34195.77
636.645	34217.46
636.999	34037.35
637.352	34285.03
637.706	34009.11
638.06	34167.29
638.413	33927.53
638.767	33922.33
639.121	33901.31
639.474	33802.78
639.828	33796.23
640.181	34001.2
640.534	33861.09
640.888	33742.22
641.241	33439.18
641.594	33574.77
641.947	33705.16
642.301	33646.86
642.654	33699.74
643.007	33801.65
643.36	33840.3
643.713	33561.43
644.066	33663.8
644.419	33520.53
644.771	33470.59
645.124	32990.83
645.477	33017.72
645.83	32705.19
646.182	32669.71
646.535	32463.16
646.888	32575.02
647.24	32286.44
647.593	32544.06
647.945	32450.5
648.298	32164.86
648.65	32231.53
649.002	32196.27
649.355	32311.98
649.707	32318.53
650.059	32564.17
650.411	32797.84
650.763	32900.89
651.115	33332.29
651.467	33056.14
651.819	33132.07
652.171	32903.6
652.523	33017.72
652.875	32888.91
653.227	32865.18
653.578	33114.67
653.93	32844.84
654.282	32803.49
654.633	32837.39
654.985	32831.06
655.337	32926.87
655.688	32981.34
656.039	33071.96
656.391	32752.64
656.742	32784.28
657.094	32981.79
657.445	32942.92
657.796	32974.33
658.147	32875.35
658.498	32858.4
658.849	32949.25
659.2	32828.12
659.551	32760.33
659.902	32906.31
660.253	32683.72
660.604	32946.31
660.955	32742.47
661.306	32862.92
661.656	32708.8
662.007	32799.65
662.358	32672.64
662.708	32723.26
663.059	32650.27
663.409	32538.41
663.76	32807.56
664.11	32709.25
664.461	32721.23
664.811	32885.52
665.161	32782.7
665.511	32592.19
665.862	32690.72
666.212	32777.73
666.562	32866.99
666.912	32754.45
667.262	32729.37
667.612	32794
667.962	32757.16
668.312	32698.41
668.662	32794.22
669.011	32746.77
669.361	32720.1
669.711	32476.94
670.06	32559.88
670.41	32572.53
670.76	32391.52
671.109	32504.74
671.459	32551.52
671.808	32463.38
672.157	32512.2
672.507	32318.75
672.856	32399.2
673.205	32375.7
673.554	32560.33
673.904	32423.84
674.253	32460.9
674.602	32327.57
674.951	32004.86
675.3	31730.3
675.649	32295.93
675.998	32164.18
676.346	32225.65
676.695	32454.57
677.044	31984.98
677.393	32132.77
677.741	32120.34
678.09	32045.77
678.438	31958.76
678.787	31928.48
679.135	32121.25
679.484	31740.92
679.832	31940.46
680.181	31729.17
680.529	31812.78
680.877	31697.08
681.225	31591.54
681.573	31798.09
681.922	31554.48
682.27	31539.79
682.618	31481.04
682.966	31295.5
683.314	31429.06
683.661	31224.55
684.009	31171.89
684.357	31089.63
684.705	31170.76
685.053	31177.99
685.4	30988.62
685.748	30993.59
686.095	30944.1
686.443	30903.2
686.79	30728.51
687.138	30818
687.485	30806.48
687.832	30568.29
688.18	30602.42
688.527	30500.05
688.874	30460.72
689.221	30438.58
689.568	30196.78
689.915	30162.43
690.262	30203.1
690.609	30059.15
690.956	29979.61
691.303	29935.09
691.65	29791.82
691.997	29768.09
692.344	29518.6
692.69	29687.86
693.037	29595.21
693.383	29380.75
693.73	29446.06
694.077	29325.61
694.423	29329
694.769	29198.16
695.116	29059.41
695.462	28831.84
695.808	28871.39
696.155	28944.61
696.501	28666.2
696.847	28666.42
697.193	28418.07
697.539	28473.21
697.885	28301.46
698.231	28254.23
698.577	28133.1
698.923	28208.35
699.269	27948.25
699.614	27862.6
699.96	27870.51
700.306	27856.27
700.651	27753.45
700.997	27623.51
701.342	27442.27
701.688	27479.11
702.033	27295.61
702.379	27240.92
702.724	27155.73
703.069	27284.54
703.415	26925.68
703.76	26847.49
704.105	26948.05
704.45	26784.89
704.795	26675.74
705.14	26560.94
705.485	26590.09
705.83	26383.54
706.175	26416.09
706.52	26292.92
706.865	26317.78
707.209	26343.77
707.554	26154.4
707.899	26198.24
708.243	26037.34
708.588	25961.41
708.932	25873.95
709.277	25770.45
709.621	25900.84
709.966	25668.99
710.31	25653.17
710.654	25499.95
710.998	25505.37
711.342	25520.52
711.687	25357.58
712.031	25231.48
712.375	25135.89
712.719	25216.57
713.063	25151.71
713.407	25158.72
713.75	25082.33
714.094	25052.05
714.438	24887.09
714.782	25039.17
715.125	24929.12
715.469	24990.59
715.812	24781.1
716.156	24720.54
716.499	24671.5
716.843	24684.15
717.186	24573.65
717.53	24709.92
717.873	24617.26
718.216	24557.83
718.559	24465.18
718.902	24272.86
719.246	24396.03
719.589	24367.55
719.932	24301.56
720.275	24203.94
720.617	24125.07
720.96	24229.48
721.303	24180.44
721.646	24158.52
721.989	24042.59
722.331	24102.93
722.674	24062.93
723.016	24080.1
723.359	24109.03
723.701	24018.86
724.044	24029.03
724.386	23776.15
724.729	23939.09
725.071	23985.19
725.413	23954.91
725.755	23922.82
726.097	23810.05
726.439	23713.11
726.782	23818.87
727.124	23730.73
727.465	23610.74
727.807	23591.07
728.149	23660
728.491	23612.99
728.833	23572.09
729.175	23587.01
729.516	23538.87
729.858	23570.51
730.199	23596.27
730.541	23565.31
730.882	23482.38
731.224	23768.92
731.565	23499.78
731.906	23464.3
732.248	23493.22
732.589	23463.17
732.93	23422.27
733.271	23330.74
733.612	23444.41
733.953	23544.97
734.294	23408.48
734.635	23438.99
734.976	23373
735.317	23240.8
735.658	23412.77
735.999	23503.39
736.339	23391.76
736.68	23381.59
737.021	23342.04
737.361	23292.55
737.702	23379.33
738.042	23417.75
738.383	23276.96
738.723	23387.69
739.063	23378.65
739.404	23397.63
739.744	23262.95
740.084	23202.84
740.424	23343.4
740.764	23209.39
741.104	23288.48
741.444	23125.32
741.784	23241.71
742.124	23320.8
742.464	23298.88
742.804	23215.49
743.143	23157.19
743.483	23221.59
743.823	23005.33
744.162	23089.39
744.502	23159.45
744.841	23053.91
745.181	23262.95
745.52	23063.86
745.86	23190.41
746.199	23041.26
746.538	23035.83
746.877	23224.98
747.216	23128.71
747.556	23079.9
747.895	23094.82
748.234	22994.71
748.573	23042.61
748.911	23009.17
749.25	23043.97
749.589	23020.02
749.928	22918.55
750.267	23000.36
750.605	22910.41
750.944	22981.83
751.283	23020.24
751.621	22956.97
751.96	22879
752.298	22909.28
752.636	22849.85
752.975	22843.3
753.313	22744.09
753.651	22748.84
753.989	22710.19
754.327	22585.68
754.666	22563.08
755.004	22682.85
755.342	22559.69
755.679	22618.67
756.017	22414.38
756.355	22550.42
756.693	22370.77
757.031	22401.5
757.368	22380.48
757.706	22271.11
758.044	22229.08
758.381	22246.03
758.719	22262.3
759.056	22285.8
759.394	22160.83
759.731	22056.43
760.068	21986.15
760.405	22016.88
760.743	21903.21
761.08	22032.92
761.417	21742.31
761.754	21774.85
762.091	21766.94
762.428	21655.98
762.765	21566.04
763.102	21700.05
763.438	21513.39
763.775	21351.81
764.112	21389.78
764.449	21522.2
764.785	21315.88
765.122	21146.17
765.458	21207.18
765.795	21156.11
766.131	21038.6
766.467	21025.04
766.804	20805.39
767.14	20834.31
767.476	20772.17
767.812	20714.54
768.148	20825.5
768.485	20705.95
768.821	20661.21
769.157	20570.14
769.492	20467.31
769.828	20381.22
770.164	20223.93
770.5	20144.39
770.836	20196.59
771.171	20020.55
771.507	19936.71
771.842	19897.84
772.178	19895.58
772.513	19828.46
772.849	19703.27
773.184	19577.85
773.519	19633.66
773.855	19489.49
774.19	19468.25
774.525	19435.25
774.86	19444.97
775.195	19426.66
775.53	19308.48
775.865	19200
776.2	19098.09
776.535	19057.86
776.87	18865.78
777.205	18871.88
777.539	18717.08
777.874	18757.98
778.209	18678.44
778.543	18618.55
778.878	18504.88
779.212	18503.75
779.547	18396.86
779.881	18476.86
780.215	18187.6
780.55	18267.37
780.884	18223.53
781.218	18107.38
781.552	18055.17
781.886	17923.88
782.22	17894.28
782.554	17801.4
782.888	17730.66
783.222	17655.86
783.556	17568.18
783.889	17544
784.223	17417.9
784.557	17351.92
784.89	17508.97
785.224	17364.12
785.557	17213.84
785.891	17247.74
786.224	17259.49
786.558	17167.97
786.891	16914.41
787.224	16901.08
787.557	16904.47
787.891	16807.3
788.224	16845.72
788.557	16805.04
788.89	16707.87
789.223	16724.36
789.556	16574.08
789.888	16635.1
790.221	16477.36
790.554	16409.12
790.887	16428.33
791.219	16301.32
791.552	16310.59
791.884	16155.56
792.217	16119.41
792.549	16103.36
792.882	15954.44
793.214	16007.09
793.546	16052.97
793.879	15911.95
794.211	15782.69
794.543	15781.56
794.875	15763.48
795.207	15723.71
795.539	15643.49
795.871	15630.61
796.203	15594
796.535	15478.97
796.867	15369.82
797.198	15345.42
797.53	15372.76
797.862	15156.95
798.193	15370.5
798.525	15161.69
798.856	15159.66
799.188	14998.08
799.519	14956.05
799.85	14907.69
800.182	14940.45
800.513	14856.16
800.844	14808.71
801.175	14845.54
801.506	14793.34
801.837	14660.91
802.168	14633.8
802.499	14693.91
802.83	14536.62
803.161	14516.06
803.491	14546.34
803.822	14503.86
804.153	14449.17
804.483	14322.17
804.814	14296.4
805.145	14241.72
805.475	14245.11
805.805	14173.92
806.136	14191.1
806.466	14160.81
806.796	14130.98
807.126	14009.63
807.457	14142.06
807.787	14071.78
808.117	13934.38
808.447	13778
808.777	13919.01
809.107	13781.16
809.436	13723.54
809.766	13767.6
810.096	13681.28
810.426	13670.66
810.755	13667.04
811.085	13633.14
811.414	13633.82
811.744	13473.37
812.073	13509.53
812.403	13480.15
812.732	13362.42
813.061	13449.87
813.39	13205.81
813.719	13287.39
814.049	13381.63
814.378	13276.09
814.707	13207.39
815.036	13210.78
815.365	13175.3
815.693	13006.27
816.022	13015.53
816.351	13029.54
816.68	12948.42
817.008	13000.62
817.337	12825.71
817.665	12865.03
817.994	12886.05
818.322	12815.99
818.651	12801.98
818.979	12735.09
819.307	12764.01
819.636	12717.24
819.964	12649.22
820.292	12705.94
820.62	12703.68
820.948	12583
821.276	12672.49
821.604	12587.3
821.932	12648.99
822.259	12578.93
822.587	12598.82
822.915	12628.65
823.243	12592.95
823.57	12551.59
823.898	12604.24
824.225	12510.24
824.553	12489.9
824.88	12528.09
825.207	12618.03
825.535	12535.32
825.862	12601.76
826.189	12518.37
826.516	12608.31
826.843	12641.08
827.17	12575.32
827.497	12646.96
827.824	12601.99
828.151	12579.16
828.478	12541.87
828.805	12560.18
829.131	12559.95
829.458	12495.32
829.785	12439.5
830.111	12445.6
830.438	12558.6
830.764	12493.29
831.09	12506.62
831.417	12421.65
831.743	12488.77
832.069	12493.29
832.395	12434.53
832.722	12524.02
833.048	12447.86
833.374	12519.05
833.7	12411.48
834.026	12370.58
834.351	12492.61
834.677	12425.04
835.003	12451.25
835.329	12408.77
835.654	12454.42
835.98	12336
836.306	12354.08
836.631	12343.91
836.956	12282.9
837.282	12325.83
837.607	12289.22
837.932	12173.07
838.258	12289.22
838.583	12214.65
838.908	12156.35
839.233	12153.86
839.558	12145.27
839.883	12088.55
840.208	12062.56
840.533	12078.61
840.858	12030.7
841.182	12042.9
841.507	12000.64
841.832	11951.61
842.156	11920.65
842.481	11973.98
842.805	11923.58
843.13	11851.72
843.454	11872.96
843.778	11900.31
844.103	11751.16
844.427	11724.49
844.751	11739.63
845.075	11690.37
845.399	11740.54
845.723	11642.46
846.047	11633.42
846.371	11494.9
846.695	11443.37
847.019	11416.93
847.343	11346.88
847.666	11340.78
847.99	11289.03
848.313	11252.64
848.637	11198.86
848.96	11135.81
849.284	11137.84
849.607	11058.07
849.931	11035.02
850.254	10991.41
850.577	10915.93
850.9	10922.71
851.223	10854.01
851.546	10853.1
851.869	10771.3
852.192	10831.86
852.515	10688.14
852.838	10654.92
853.161	10603.85
853.483	10574.24
853.806	10507.35
854.129	10578.08
854.451	10488.82
854.774	10429.39
855.096	10437.97
855.419	10402.95
855.741	10361.59
856.063	10319.11
856.385	10330.86
856.708	10290.86
857.03	10217.87
857.352	10206.57
857.674	10116.4
857.996	10123.18
858.318	10048.38
858.64	10158.66
858.961	10005.44
859.283	10074.14
859.605	10065.1
859.926	10002.96
860.248	10002.96
860.57	9965.22
860.891	9903.52
861.212	9920.47
861.534	9879.34
861.855	9868.27
862.176	9848.16
862.498	9841.83
862.819	9830.53
863.14	9701.27
863.461	9784.21
863.782	9705.11
864.103	9730.65
864.424	9689.07
864.745	9709.86
865.065	9582.18
865.386	9626.7
865.707	9611.1
866.027	9557.32
866.348	9537.21
866.668	9582.4
866.989	9531.11
867.309	9548.73
867.63	9496.53
867.95	9497.89
868.27	9458.34
868.59	9391.67
868.91	9402.52
869.23	9359.58
869.55	9369.08
869.87	9453.82
870.19	9410.66
870.51	9362.07
870.83	9383.76
871.15	9313.03
871.469	9400.49
871.789	9325.01
872.109	9242.75
872.428	9254.73
872.748	9258.57
873.067	9304.44
873.386	9233.49
873.706	9265.35
874.025	9116.43
874.344	9156.43
874.663	9156.2
874.982	9106.26
875.301	9095.64
875.62	9102.87
875.939	9076.2
876.258	9078.69
876.577	9050.89
876.896	9109.87
877.214	9025.13
877.533	9087.73
877.852	8995.75
878.17	9018.8
878.489	8967.28
878.807	8982.65
879.125	8913.27
879.444	8942.19
879.762	8972.25
880.08	8907.39
880.398	8849.32
880.716	8893.61
881.034	8841.18
881.352	8808.86
881.67	8811.12
881.988	8837.34
882.306	8815.64
882.624	8804.57
882.941	8791.24
883.259	8711.24
883.577	8690.22
883.894	8689.55
884.212	8651.13
884.529	8672.82
884.846	8637.57
885.164	8631.02
885.481	8542.66
885.798	8602.54
886.115	8541.75
886.432	8570.23
886.75	8523.9
887.067	8443.9
887.383	8483
887.7	8463.34
888.017	8427.41
888.334	8475.77
888.651	8443.22
888.967	8450.91
889.284	8325.04
889.6	8350.57
889.917	8281.65
890.233	8291.59
890.55	8247.75
890.866	8226.05
891.182	8183.12
891.498	8167.53
891.815	8137.02
892.131	8108.77
892.447	8095.44
892.763	8102.44
893.079	8083.01
893.395	8065.61
893.71	8025.38
894.026	8022.9
894.342	7978.38
894.657	7922.33
894.973	7937.47
895.289	7924.59
895.604	7914.42
895.92	7849.12
896.235	7801.43
896.55	7767.31
896.865	7725.05
897.181	7728.89
897.496	7689.35
897.811	7686.41
898.126	7745.16
898.441	7613.87
898.756	7558.95
899.071	7579.07
899.386	7495.9
899.7	7488.22
900.015	7515.11
900.33	7459.07
900.644	7421.78
900.959	7453.65
901.273	7365.51
901.588	7327.55
901.902	7322.12
902.216	7332.52
902.531	7326.87
902.845	7209.36
903.159	7224.27
903.473	7201.68
903.787	7166.42
904.101	7102.69
904.415	7135.24
904.729	7116.25
905.042	7088.91
905.356	7026.99
905.67	7014.79
905.984	7060.21
906.297	6986.77
906.611	6980.66
906.924	6940.89
907.237	6958.52
907.551	6821.35
907.864	6839.42
908.177	6860.22
908.491	6831.52
908.804	6770.27
909.117	6783.83
909.43	6740.22
909.743	6674.68
910.056	6663.38
910.368	6651.41
910.681	6662.71
910.994	6633.33
911.307	6587.68
911.619	6495.93
911.932	6569.83
912.244	6498.42
912.557	6460
912.869	6460.9
913.181	6459.77
913.494	6402.15
913.806	6349.04
914.118	6329.83
914.43	6274.69
914.742	6265.65
915.054	6245.77
915.366	6214.13
915.678	6260.46
915.99	6159.22
916.302	6111.76
916.613	6092.55
916.925	6118.77
917.236	6065.43
917.548	6076.73
917.859	6040.12
918.171	5991.54
918.482	5987.47
918.794	5976.85
919.105	5921.26
919.416	5895.95
919.727	5862.73
920.038	5853.91
920.349	5837.87
920.66	5826.8
920.971	5821.37
921.282	5775.5
921.593	5763.97
921.903	5696.4
922.214	5695.95
922.525	5679.46
922.835	5650.98
923.146	5629.29
923.456	5631.55
923.767	5566.92
924.077	5569.18
924.387	5544.54
924.697	5477.2
925.008	5430.87
925.318	5437.2
925.628	5459.12
925.938	5374.83
926.248	5369.41
926.558	5379.35
926.867	5358.79
927.177	5395.17
927.487	5311.56
927.796	5281.05
928.106	5237.21
928.416	5240.82
928.725	5234.72
929.034	5159.02
929.344	5232.24
929.653	5147.04
929.962	5138.9
930.271	5118.34
930.581	5097.1
930.89	5090.32
931.199	5033.14
931.508	5030.88
931.817	5049.64
932.125	5002.41
932.434	5011.22
932.743	4940.72
933.051	4909.08
933.36	4871.79
933.669	4875.86
933.977	4864.79
934.286	4804.68
934.594	4815.98
934.902	4763.32
935.21	4782.3
935.519	4748.86
935.827	4730.55
936.135	4690.33
936.443	4675.87
936.751	4665.7
937.059	4682.19
937.367	4603.33
937.674	4653.04
937.982	4614.17
938.29	4563.1
938.597	4560.61
938.905	4492.37
939.213	4535.98
939.52	4481.07
939.827	4489.43
940.135	4418.92
940.442	4430.22
940.749	4444.01
941.056	4446.49
941.363	4400.39
941.67	4391.35
941.977	4333.5
942.284	4329.89
942.591	4326.72
942.898	4303.22
943.205	4272.49
943.511	4312.26
943.818	4234.75
944.125	4206.5
944.431	4194.97
944.738	4218.7
945.044	4178.25
945.35	4160.4
945.657	4147.74
945.963	4121.3
946.269	4094.64
946.575	4073.17
946.881	4033.62
947.187	4058.71
947.493	4042.44
947.799	4020.52
948.105	3994.75
948.41	3962.89
948.716	3976.22
949.022	3965.83
949.327	3924.7
949.633	3886.28
949.938	3922.44
950.244	3929.67
950.549	3908.65
950.854	3846.96
951.16	3825.49
951.465	3848.99
951.77	3825.49
952.075	3796.57
952.38	3745.27
952.685	3771.48
952.99	3751.37
953.294	3707.76
953.599	3704.14
953.904	3674.99
954.209	3649.9
954.513	3683.8
954.818	3633.86
955.122	3659.85
955.426	3567.19
955.731	3588.89
956.035	3543.92
956.339	3570.81
956.643	3533.3
956.948	3503.92
957.252	3510.47
957.556	3511.6
957.86	3484.26
958.163	3478.61
958.467	3491.04
958.771	3447.42
959.075	3464.82
959.378	3465.73
959.682	3389.57
959.985	3440.19
960.289	3369.23
960.592	3371.95
960.896	3338.95
961.199	3310.03
961.502	3331.27
961.805	3272.96
962.108	3269.8
962.411	3281.33
962.714	3288.56
963.017	3262.12
963.32	3263.47
963.623	3210.37
963.926	3196.36
964.228	3177.15
964.531	3180.09
964.833	3166.98
965.136	3172.85
965.438	3128.11
965.741	3119.97
966.043	3090.37
966.345	3094.89
966.648	3097.38
966.95	3090.14
967.252	3070.94
967.554	3022.12
967.856	3040.65
968.158	3033.42
968.46	3031.16
968.761	3014.89
969.063	2970.37
969.365	2948.23
969.666	2958.4
969.968	2960.88
970.269	2931.28
970.571	2906.65
970.872	2872.98
971.174	2870.26
971.475	2841.34
971.776	2823.49
972.077	2864.39
972.378	2825.52
972.679	2828.46
972.98	2803.6
973.281	2796.14
973.582	2818.06
973.883	2758.18
974.183	2767.89
974.484	2758.85
974.785	2745.07
975.085	2747.33
975.386	2739.65
975.686	2706.43
975.986	2725.41
976.287	2689.48
976.587	2680.44
976.887	2685.18
977.187	2669.82
977.487	2672.98
977.787	2631.17
978.087	2646.77
978.387	2629.59
978.687	2589.14
978.987	2600.89
979.286	2558.86
979.586	2565.86
979.885	2547.56
980.185	2505.08
980.484	2550.05
980.784	2501.23
981.083	2539.88
981.382	2529.48
981.682	2503.49
981.981	2461.01
982.28	2509.37
982.579	2460.1
982.878	2440.44
983.177	2448.81
983.475	2421.46
983.774	2397.73
984.073	2398.64
984.372	2375.14
984.67	2385.76
984.969	2377.62
985.267	2363.61
985.566	2349.37
985.864	2338.07
986.162	2357.51
986.461	2287.23
986.759	2318.41
987.057	2252.88
987.355	2294.23
987.653	2254.23
987.951	2304.18
988.249	2245.2
988.547	2255.36
988.844	2239.09
989.142	2261.92
989.44	2229.6
989.737	2205.42
990.035	2220.11
990.332	2149.6
990.63	2171.07
990.927	2204.29
991.224	2155.93
991.521	2170.85
991.819	2159.1
992.116	2135.59
992.413	2133.33
992.71	2115.26
993.006	2086.78
993.303	2077.74
993.6	2098.98
993.897	2081.36
994.193	2071.19
994.49	2059.21
994.787	2059.21
995.083	2033.45
995.379	2026.44
995.676	2003.39
995.972	1991.19
996.268	1990.06
996.565	1978.76
996.861	2003.39
997.157	1959.55
997.453	1953.23
997.749	1936.5
998.044	1941.7
998.34	1921.14
998.636	1901.7
998.932	1946.45
999.227	1898.54
999.523	1907.58
999.818	1876.84
1000.114	1840.23
1000.409	1845.66
1000.704	1840.01
1001	1836.62
1001.295	1857.41
1001.59	1826.9
1001.885	1808.82
1002.18	1808.82
1002.475	1817.86
1002.77	1795.72
1003.065	1780.8
1003.359	1767.92
1003.654	1743.29
1003.949	1751.42
1004.243	1756.17
1004.538	1731.08
1004.832	1718.2
1005.127	1709.16
1005.421	1697.64
1005.715	1668.49
1006.009	1694.25
1006.304	1663.52
1006.598	1672.55
1006.892	1659.45
1007.186	1631.65
1007.48	1665.78
1007.773	1640.92
1008.067	1626.45
1008.361	1620.8
1008.655	1605.89
1008.948	1607.02
1009.242	1597.08
1009.535	1588.49
1009.829	1582.39
1010.122	1532.9
1010.415	1535.16
1010.708	1537.87
1011.001	1536.97
1011.295	1510.98
1011.588	1509.85
1011.881	1523.86
1012.173	1467.81
1012.466	1479.57
1012.759	1497.87
1013.052	1460.58
1013.344	1475.5
1013.637	1473.01
1013.93	1428.95
1014.222	1454.26
1014.514	1454.48
1014.807	1432.34
1015.099	1420.13
1015.391	1413.58
1015.683	1399.79
1015.976	1393.47
1016.268	1373.13
1016.56	1376.07
1016.851	1372.45
1017.143	1364.99
1017.435	1373.35
1017.727	1327.93
1018.018	1340.36
1018.31	1337.65
1018.602	1347.82
1018.893	1321.83
1019.185	1333.81
1019.476	1282.51
1019.767	1297.88
1020.058	1291.1
1020.35	1273.02
1020.641	1279.8
1020.932	1283.86
1021.223	1275.96
1021.514	1246.13
1021.804	1250.65
1022.095	1213.36
1022.386	1232.34
1022.677	1177.88
1022.967	1214.94
1023.258	1198.22
1023.548	1199.8
1023.839	1194.38
1024.129	1183.3
1024.419	1161.61
1024.709	1169.97
1025	1154.15
1025.29	1123.42
1025.58	1148.95
1025.87	1138.11
1026.16	1113.02
1026.449	1145.34
1026.739	1116.64
1027.029	1100.37
1027.319	1090.42
1027.608	1108.28
1027.898	1075.28
1028.187	1075.28
1028.477	1083.87
1028.766	1063.53
1029.055	1058.33
1029.344	1063.98
1029.634	1026.02
1029.923	1034.61
1030.212	1050.88
1030.501	1018.11
1030.79	1018.33
1031.078	1032.12
1031.367	1007.49
1031.656	1005.23
1031.945	997.54
1032.233	975.85
1032.522	991.44
1032.81	983.31
1033.099	979.47
1033.387	953.93
1033.675	964.1
1033.963	959.13
1034.251	939.24
1034.54	934.72
1034.828	932.69
1035.116	939.01
1035.403	940.14
1035.691	923.2
1035.979	923.2
1036.267	925.23
1036.554	897.43
1036.842	882.75
1037.129	906.02
1037.417	874.61
1037.704	884.1
1037.992	886.13
1038.279	871.9
1038.566	854.95
1038.853	854.95
1039.14	854.95
