Data from tablewood_dark_bookshelf_FLMS001491_00077.txt Node
Date: Wed Feb 08 14:15:37 GMT 2017
User: dcchb
Spectrometer: FLMS00149
Trigger mode: 0
Integration Time (sec): 2.000000E-2
Scans to average: 10
Electric dark correction enabled: true
Nonlinearity correction enabled: false
Boxcar width: 0
XAxis mode: Wavelengths
Number of Pixels in Spectrum: 2048
>>>>>Begin Spectral Data<<<<<
341.393	-18.47
341.776	-18.47
342.16	-18.47
342.543	-51.24
342.927	-67.51
343.31	-44.46
343.693	-67.29
344.077	-60.96
344.46	-81.3
344.843	-46.72
345.226	-55.99
345.61	-31.58
345.993	-11.69
346.376	-5.82
346.759	19.94
347.142	18.36
347.525	51.13
347.908	52.03
348.291	65.14
348.674	107.17
349.057	92.03
349.44	110.11
349.823	127.28
350.206	158.02
350.588	188.3
350.971	215.19
351.354	218.13
351.737	235.53
352.119	235.53
352.502	253.61
352.884	282.08
353.267	270.78
353.65	287.28
354.032	289.54
354.414	308.3
354.797	299.03
355.179	307.17
355.562	322.31
355.944	337.45
356.326	317.56
356.709	311.46
357.091	344.23
357.473	361.18
357.855	345.81
358.238	350.78
358.62	345.58
359.002	344.23
359.384	352.14
359.766	355.53
360.148	325.02
360.53	341.52
360.912	330.9
361.294	321.63
361.676	353.72
362.057	344.91
362.439	322.31
362.821	318.92
363.203	334.28
363.584	341.06
363.966	326.15
364.348	324.79
364.729	336.09
365.111	328.41
365.493	327.96
365.874	324.57
366.256	329.77
366.637	301.97
367.019	307.85
367.4	328.18
367.781	332.03
368.163	311.69
368.544	325.47
368.925	329.09
369.306	327.28
369.688	314.17
370.069	322.53
370.45	310.33
370.831	333.61
371.212	313.95
371.593	310.56
371.974	317.79
372.355	333.38
372.736	324.79
373.117	308.97
373.498	326.6
373.879	322.08
374.26	326.83
374.641	306.26
375.021	330.44
375.402	327.96
375.783	359.82
376.163	332.25
376.544	334.96
376.925	354.17
377.305	360.72
377.686	347.62
378.066	327.96
378.447	334.51
378.827	352.14
379.208	330.22
379.588	354.62
379.968	346.71
380.349	365.47
380.729	360.95
381.109	355.3
381.489	364.34
381.87	354.17
382.25	367.28
382.63	356.21
383.01	381.29
383.39	341.29
383.77	368.86
384.15	364.34
384.53	382.65
384.91	382.42
385.29	376.54
385.67	384.45
386.049	387.62
386.429	393.04
386.809	382.65
387.189	393.49
387.568	383.1
387.948	391.01
388.328	384
388.707	397.11
389.087	398.92
389.466	398.01
389.846	391.91
390.225	426.03
390.605	423.1
390.984	417.9
391.363	423.32
391.743	451.57
392.122	416.09
392.501	440.27
392.881	427.62
393.26	449.08
393.639	439.59
394.018	436.88
394.397	422.64
394.776	443.43
395.155	443.21
395.534	461.74
395.913	458.12
396.292	432.14
396.671	447.73
397.05	471.23
397.429	451.12
397.808	465.35
398.186	461.97
398.565	481.63
398.944	456.09
399.323	480.04
399.701	486.6
400.08	450.89
400.458	494.28
400.837	507.16
401.215	491.12
401.594	479.37
401.972	504
402.351	494.51
402.729	494.51
403.107	499.93
403.486	515.98
403.864	504
404.242	491.79
404.62	515.75
404.999	525.01
405.377	522.75
405.755	541.74
406.133	531.34
406.511	534.73
406.889	551.45
407.267	560.04
407.645	547.61
408.023	576.99
408.401	579.93
408.779	579.93
409.156	583.54
409.534	576.99
409.912	567.05
410.29	596.88
410.667	599.81
411.045	616.09
411.422	603.66
411.8	626.48
412.178	611.79
412.555	627.16
412.933	628.29
413.31	620.15
413.687	644.56
414.065	641.85
414.442	638.91
414.819	649.53
415.197	678.46
415.574	638.23
415.951	661.73
416.328	664.45
416.705	657.44
417.082	673.94
417.46	690.66
417.837	690.21
418.214	687.5
418.591	691.56
418.967	710.09
419.344	706.48
419.721	704.9
420.098	716.2
420.475	725.91
420.852	743.31
421.228	734.73
421.605	766.59
421.982	773.82
422.358	741.96
422.735	754.39
423.111	733.82
423.488	783.54
423.864	777.44
424.241	782.63
424.617	806.59
424.994	817.66
425.37	798.45
425.746	814.27
426.123	792.8
426.499	805.69
426.875	828.74
427.251	866.25
427.627	851.79
428.003	853.82
428.379	877.32
428.756	872.58
429.132	876.64
429.507	875.29
429.883	900.15
430.259	923.87
430.635	913.7
431.011	936.76
431.387	945.12
431.763	965.23
432.138	962.97
432.514	964.78
432.89	1002.74
433.265	992.8
433.641	995.06
434.016	1000.48
434.392	1028.5
434.767	1061.5
435.143	1028.96
435.518	1058.11
435.894	1066.92
436.269	1066.7
436.644	1046.81
437.02	1085
437.395	1085.68
437.77	1115.51
438.145	1129.29
438.52	1128.16
438.895	1159.12
439.271	1156.41
439.646	1132.91
440.021	1157.31
440.395	1170.42
440.77	1173.36
441.145	1170.87
441.52	1205.22
441.895	1185.79
442.27	1213.81
442.645	1235.5
443.019	1220.59
443.394	1202.96
443.769	1224.88
444.143	1249.06
444.518	1263.3
444.892	1250.42
445.267	1246.8
445.641	1258.1
446.016	1289.74
446.39	1297.88
446.764	1330.42
447.139	1294.94
447.513	1313.69
447.887	1342.85
448.262	1297.88
448.636	1357.08
449.01	1348.72
449.384	1361.6
449.758	1361.6
450.132	1393.92
450.506	1375.61
450.88	1400.47
451.254	1383.75
451.628	1437.08
452.002	1416.06
452.376	1444.76
452.75	1454.48
453.123	1457.19
453.497	1473.24
453.871	1486.57
454.244	1503.97
454.618	1499.9
454.992	1546.91
455.365	1534.93
455.739	1599.34
456.112	1601.37
456.486	1590.52
456.859	1616.96
457.232	1654.02
457.606	1677.98
457.979	1659.45
458.352	1709.16
458.725	1743.51
459.099	1724.53
459.472	1722.95
459.845	1775.15
460.218	1807.92
460.591	1814.47
460.964	1830.06
461.337	1857.86
461.71	1875.04
462.083	1913
462.456	1920.91
462.829	1908.93
463.201	1958.42
463.574	1963.39
463.947	1993
464.32	2027.12
464.692	2021.92
465.065	2054.01
465.438	2072.77
465.81	2098.98
466.183	2135.37
466.555	2166.1
466.928	2191.86
467.3	2189.6
467.672	2211.52
468.045	2270.96
468.417	2259.88
468.789	2283.39
469.161	2351.18
469.534	2325.87
469.906	2356.83
470.278	2420.33
470.65	2441.12
471.022	2472.99
471.394	2486.77
471.766	2557.96
472.138	2571.97
472.51	2617.61
472.882	2667.56
473.253	2687.22
473.625	2717.95
473.997	2752.53
474.369	2792.53
474.74	2827.1
475.112	2857.38
475.484	2920.43
475.855	2929.25
476.227	3003.14
476.598	3064.83
476.97	3124.27
477.341	3141.67
477.713	3188.9
478.084	3218.5
478.455	3302.79
478.827	3308.22
479.198	3392.28
479.569	3440.64
479.94	3517.25
480.311	3564.48
480.682	3624.82
481.053	3661.43
481.424	3748.43
481.795	3786.4
482.166	3810.35
482.537	3860.97
482.908	3957.47
483.279	3990.69
483.65	4090.57
484.021	4117.69
484.391	4186.16
484.762	4170.79
485.133	4263.45
485.503	4266.16
485.874	4365.59
486.244	4413.5
486.615	4481.29
486.985	4550.67
487.356	4626.83
487.726	4666.37
488.097	4751.12
488.467	4787.05
488.837	4847.84
489.207	4911.79
489.578	5008.51
489.948	5015.07
490.318	5098.68
490.688	5138.68
491.058	5242.4
491.428	5249.86
491.798	5317.2
492.168	5417.32
492.538	5420.48
492.908	5528.05
493.278	5560.14
493.648	5616.86
494.017	5651.66
494.387	5697.76
494.757	5755.61
495.126	5853.01
495.496	5797.19
495.866	5833.58
496.235	5939.34
496.605	5988.6
496.974	6039.22
497.344	6100.24
497.713	6130.74
498.082	6190.4
498.452	6201.93
498.821	6321.92
499.19	6211.64
499.559	6332.09
499.928	6354.92
500.298	6415.03
500.667	6490.28
501.036	6531.86
501.405	6622.03
501.774	6552.2
502.143	6587.91
502.512	6701.8
502.88	6772.99
503.249	6718.07
503.618	6791.06
503.987	6862.25
504.356	6896.37
504.724	6894.34
505.093	6954.22
505.462	6958.74
505.83	7051.17
506.199	7104.95
506.567	7195.12
506.936	7283.25
507.304	7282.8
507.672	7358.73
508.041	7372.74
508.409	7440.99
508.777	7482.12
509.145	7537.49
509.514	7574.32
509.882	7666.97
510.25	7646.64
510.618	7759.85
510.986	7758.5
511.354	7815.22
511.722	7897.25
512.09	7948.77
512.458	7924.82
512.826	8056.79
513.193	8098.83
513.561	8132.05
513.929	8258.6
514.297	8250.69
514.664	8355.77
515.032	8403.9
515.4	8439.16
515.767	8492.26
516.135	8484.58
516.502	8558.25
516.869	8692.48
517.237	8674.18
517.604	8665.37
517.972	8821.29
518.339	8864.46
518.706	8887.05
519.073	8944
519.44	8998.92
519.808	9113.72
520.175	9139.03
520.542	9296.54
520.909	9317.1
521.276	9335.63
521.643	9405.01
522.009	9540.14
522.376	9486.13
522.743	9613.59
523.11	9722.29
523.477	9841.83
523.843	9873.47
524.21	9991.66
524.577	10060.81
524.943	10067.81
525.31	10182.84
525.676	10252.22
526.043	10350.29
526.409	10408.14
526.776	10457.63
527.142	10461.7
527.508	10568.82
527.874	10780.79
528.241	10798.42
528.607	10838.64
528.973	10930.62
529.339	10926.55
529.705	11052.2
530.071	11122.48
530.437	11131.29
530.803	11218.29
531.169	11294.9
531.535	11313.88
531.901	11361.79
532.267	11408.8
532.632	11489.47
532.998	11560.66
533.364	11666.87
533.73	11672.97
534.095	11802.46
534.461	11778.28
534.826	11897.6
535.192	11929.23
535.557	12018.72
535.923	12031.6
536.288	12042
536.653	12220.53
537.019	12130.81
537.384	12192.73
537.749	12317.02
538.114	12277.25
538.479	12337.59
538.845	12392.05
539.21	12426.85
539.575	12569.44
539.94	12562.44
540.305	12587.52
540.67	12628.43
541.034	12614.64
541.399	12757.01
541.764	12790.45
542.129	12890.79
542.494	12853.05
542.858	12884.92
543.223	12874.75
543.587	13132.59
543.952	13009.88
544.316	13107.96
544.681	13090.33
545.045	13118.81
545.41	13230.44
545.774	13320.84
546.138	13340.95
546.503	13342.08
546.867	13361.74
547.231	13591.34
547.595	13476.09
547.959	13551.11
548.324	13652.58
548.688	13673.37
549.052	13621.85
549.416	13733.71
549.779	13753.37
550.143	13851.67
550.507	13911.56
550.871	13969.63
551.235	13973.02
551.599	14061.61
551.962	14105.45
552.326	14154.03
552.689	14242.85
553.053	14231.32
553.417	14326.69
553.78	14428.83
554.143	14469.28
554.507	14535.04
554.87	14594.48
555.234	14762.83
555.597	14609.39
555.96	14769.16
556.323	14836.73
556.686	14813.23
557.05	14923.05
557.413	15031.98
557.776	15095.03
558.139	15138.64
558.502	15154.01
558.865	15260.67
559.228	15358.3
559.59	15379.77
559.953	15461.8
560.316	15637.16
560.679	15581.34
561.041	15685.97
561.404	15881.45
561.767	15939.98
562.129	15864.5
562.492	16040.54
562.854	16109.46
563.217	16194.43
563.579	16209.35
563.941	16272.62
564.304	16398.27
564.666	16485.27
565.028	16508.55
565.39	16653.86
565.753	16706.06
566.115	16782.21
566.477	16831.93
566.839	17007.52
567.201	17046.61
567.563	17123.67
567.925	17183.11
568.287	17256.33
568.648	17247.29
569.01	17440.73
569.372	17533.15
569.734	17475.76
570.095	17662.64
570.457	17772.47
570.819	17716.43
571.18	17782.87
571.542	17900.6
571.903	18002.97
572.265	18058.11
572.626	18146.02
572.987	18204.1
573.349	18258.11
573.71	18347.6
574.071	18429.4
574.432	18562.05
574.794	18602.73
575.155	18717.98
575.516	18608.38
575.877	18732.22
576.238	18830.97
576.599	18956.39
576.96	18951.2
577.32	18899.9
577.681	19056.73
578.042	19196.61
578.403	19219.89
578.763	19300.79
579.124	19293.33
579.485	19361.36
579.845	19396.38
580.206	19417.63
580.566	19352.09
580.927	19504.4
581.287	19574.23
581.648	19555.93
582.008	19642.48
582.368	19676.83
582.728	19733.32
583.089	19718.41
583.449	19729.71
583.809	19863.94
584.169	19977.16
584.529	19906.65
584.889	20047.89
585.249	20044.73
585.609	19910.27
585.969	20034.56
586.329	20044.5
586.688	20107.78
587.048	19981.68
587.408	20110.94
587.768	20086.31
588.127	20119.98
588.487	20219.64
588.846	20348.67
589.206	20180.77
589.565	20240.65
589.925	20308.68
590.284	20375.79
590.643	20418.05
591.003	20391.61
591.362	20480.65
591.721	20520.42
592.08	20569.46
592.44	20587.99
592.799	20574.2
593.158	20552.28
593.517	20745.95
593.876	20645.39
594.235	20604.71
594.593	20701.21
594.952	20820.07
595.311	20651.04
595.67	20809.45
596.029	20914.53
596.387	20933.74
596.746	20945.95
597.104	20884.03
597.463	20987.53
597.822	21094.19
598.18	20893.97
598.538	20992.5
598.897	21073.4
599.255	20966.96
599.613	21287.63
599.972	21203.57
600.33	21250.57
600.688	21176.67
601.046	21292.83
601.404	21325.15
601.762	21340.96
602.12	21508.87
602.478	21472.71
602.836	21499.6
603.194	21474.29
603.552	21485.14
603.91	21420.74
604.268	21542.09
604.625	21429.32
604.983	21557
605.341	21469.55
605.698	21657.57
606.056	21725.36
606.413	21655.76
606.771	21786.83
607.128	21786.15
607.485	21689.2
607.843	21790.44
608.2	21851.69
608.557	21958.8
608.914	21836.77
609.272	21975.3
609.629	22084.45
609.986	22090.55
610.343	21997.22
610.7	22313.82
611.057	22212.81
611.414	22213.71
611.771	22146.82
612.127	22223.88
612.484	22228.17
612.841	22239.92
613.198	22301.39
613.554	22328.28
613.911	22449.18
614.267	22385.68
614.624	22357.66
614.98	22460.03
615.337	22540.25
615.693	22522.18
616.05	22500.93
616.406	22627.26
616.762	22583.87
617.118	22531.44
617.475	22636.98
617.831	22626.81
618.187	22740.7
618.543	22833.81
618.899	22865.9
619.255	22861.6
619.611	22800.36
619.967	22889.85
620.323	23045.1
620.678	22905.44
621.034	22763.3
621.39	22926.46
621.746	22787.93
622.101	23043.97
622.457	22845.78
622.812	22914.48
623.168	22865.22
623.523	22950.19
623.879	23137.98
624.234	22856.86
624.589	22943.18
624.945	23017.3
625.3	23017.76
625.655	22943.86
626.01	22973.24
626.365	22981.6
626.72	22872.9
627.075	22913.8
627.43	22982.28
627.785	22987.7
628.14	23056.85
628.495	23062.05
628.85	22928.49
629.205	22832.9
629.559	22939.79
629.914	22936.63
630.269	22945.89
630.623	22883.75
630.978	22897.99
631.332	22941.6
631.687	22923.3
632.041	22905.67
632.396	23048.94
632.75	22789.74
633.104	22831.32
633.459	22786.35
633.813	22785.45
634.167	22641.95
634.521	22725.56
634.875	22778.67
635.229	22783.64
635.583	22603.08
635.937	22623.64
636.291	22470.43
636.645	22546.58
636.999	22540.03
637.352	22676.97
637.706	22425.91
638.06	22596.75
638.413	22451.67
638.767	22459.58
639.121	22479.01
639.474	22322.18
639.828	22315.18
640.181	22274.27
640.534	22205.12
640.888	22333.03
641.241	22234.27
641.594	22271.11
641.947	22365.34
642.301	22216.42
642.654	22144.33
643.007	22211
643.36	22355.4
643.713	22138.46
644.066	22274.95
644.419	22125.35
644.771	21915.64
645.124	21712.25
645.477	21664.35
645.83	21675.87
646.182	21427.29
646.535	21335.99
646.888	21356.78
647.24	21400.62
647.593	21494.63
647.945	21377.8
648.298	21331.25
648.65	21332.38
649.002	21332.38
649.355	21363.79
649.707	21199.5
650.059	21316.56
650.411	21751.8
650.763	21700.73
651.115	21886.03
651.467	21823.89
651.819	21854.85
652.171	21631.35
652.523	21603.33
652.875	21756.55
653.227	21674.74
653.578	21787.51
653.93	21792.93
654.282	21634.29
654.633	21580.28
654.985	21663.89
655.337	21664.35
655.688	21683.1
656.039	21724.68
656.391	21517.91
656.742	21548.87
657.094	21653.95
657.445	21696.89
657.796	21626.83
658.147	21529.43
658.498	21549.55
658.849	21627.74
659.2	21444.01
659.551	21444.69
659.902	21546.61
660.253	21613.73
660.604	21584.57
660.955	21429.32
661.306	21594.97
661.656	21415.99
662.007	21521.75
662.358	21531.69
662.708	21491.47
663.059	21482.88
663.409	21414.18
663.76	21541.19
664.11	21481.75
664.461	21432.04
664.811	21519.04
665.161	21524.24
665.511	21423.67
665.862	21510
666.212	21488.08
666.562	21459.61
666.912	21429.32
667.262	21492.6
667.612	21376.67
667.962	21429.55
668.312	21387.06
668.662	21575.08
669.011	21531.24
669.361	21446.95
669.711	21440.4
670.06	21393.62
670.41	21305.94
670.76	21319.5
671.109	21408.53
671.459	21348.87
671.808	21349.1
672.157	21369.44
672.507	21273.4
672.856	21319.5
673.205	21270.46
673.554	21375.09
673.904	21305.94
674.253	21384.35
674.602	21323.34
674.951	21080.41
675.3	20902.56
675.649	21240.18
675.998	21294.41
676.346	21179.39
676.695	21236.79
677.044	21157.47
677.393	21096.22
677.741	21296.67
678.09	20968.77
678.438	21014.65
678.787	21137.81
679.135	21198.37
679.484	20951.37
679.832	20908.89
680.181	20900.52
680.529	21026.4
680.877	20853.07
681.225	20853.52
681.573	21074.53
681.922	20914.08
682.27	20823.01
682.618	20952.5
682.966	20765.39
683.314	20813.29
683.661	20739.4
684.009	20721.77
684.357	20756.12
684.705	20695.33
685.053	20629.8
685.4	20668.89
685.748	20570.82
686.095	20660.3
686.443	20381.89
686.79	20455.79
687.138	20480.65
687.485	20450.59
687.832	20416.47
688.18	20317.04
688.527	20219.19
688.874	20295.34
689.221	20152.75
689.568	20208.11
689.915	20155.46
690.262	20101
690.609	20034.11
690.956	19861.23
691.303	19985.52
691.65	19882.47
691.997	19882.92
692.344	19671.86
692.69	19781.68
693.037	19647.22
693.383	19632.53
693.73	19626.21
694.077	19574.91
694.423	19553.44
694.769	19418.3
695.116	19525.64
695.462	19377.85
695.808	19458.75
696.155	19373.78
696.501	19188.03
696.847	19264.18
697.193	19018.77
697.539	19107.8
697.885	19016.96
698.231	18981.03
698.577	18899.22
698.923	18977.64
699.269	18913.91
699.614	18832.33
699.96	18716.17
700.306	18822.84
700.651	18677.98
700.997	18603.18
701.342	18645.67
701.688	18619.91
702.033	18622.17
702.379	18496.07
702.724	18385.34
703.069	18464.2
703.415	18173.14
703.76	18200.48
704.105	18227.6
704.45	18268.05
704.795	18063.31
705.14	18077.77
705.485	17974.5
705.83	17864.9
706.175	17963.43
706.52	17958.23
706.865	17864.45
707.209	17858.34
707.554	17699.93
707.899	17869.42
708.243	17794.84
708.588	17718.69
708.932	17583.55
709.277	17608.18
709.621	17604.79
709.966	17458.81
710.31	17565.92
710.654	17355.08
710.998	17464
711.342	17410.45
711.687	17369.54
712.031	17414.97
712.375	17277.34
712.719	17243.44
713.063	17239.83
713.407	17237.8
713.75	17193.05
714.094	17112.15
714.438	17157.35
714.782	17019.72
715.125	17079.83
715.469	17045.71
715.812	16910.35
716.156	16885.94
716.499	16966.84
716.843	16940.85
717.186	16867.18
717.53	16829.22
717.873	16904.02
718.216	16908.99
718.559	16737.24
718.902	16625.83
719.246	16748.32
719.589	16712.39
719.932	16546.51
720.275	16667.41
720.617	16554.65
720.96	16498.61
721.303	16519.85
721.646	16508.1
721.989	16538.15
722.331	16575.44
722.674	16502.67
723.016	16436.01
723.359	16485.27
723.701	16368.21
724.044	16333.19
724.386	16269.01
724.729	16395.11
725.071	16273.53
725.413	16263.58
725.755	16262.23
726.097	16259.06
726.439	16179.07
726.782	16188.11
727.124	16233.53
727.465	16110.82
727.807	16092.97
728.149	16012.97
728.491	16059.97
728.833	16112.63
729.175	16118.28
729.516	16018.17
729.858	16027.43
730.199	16022.91
730.541	15975.91
730.882	15986.08
731.224	15966.19
731.565	15920.54
731.906	15943.14
732.248	15910.6
732.589	15913.08
732.93	15824.95
733.271	15828.57
733.612	15903.14
733.953	15819.98
734.294	15808.68
734.635	15829.7
734.976	15776.59
735.317	15810.71
735.658	15705.18
735.999	15794.9
736.339	15741.56
736.68	15784.27
737.021	15678.29
737.361	15706.76
737.702	15650.49
738.042	15632.64
738.383	15676.48
738.723	15735.69
739.063	15447.33
739.404	15661.79
739.744	15584.51
740.084	15473.55
740.424	15570.72
740.764	15546.31
741.104	15644.62
741.444	15481.46
741.784	15461.12
742.124	15530.04
742.464	15480.55
742.804	15464.51
743.143	15358.75
743.483	15414.34
743.823	15314.23
744.162	15325.53
744.502	15368.01
744.841	15296.6
745.181	15318.75
745.52	15312.87
745.86	15269.49
746.199	15151.75
746.538	15249.6
746.877	15211.86
747.216	15294.57
747.556	15212.09
747.895	15220.45
748.234	15228.58
748.573	15210.96
748.911	15142.71
749.25	15200.56
749.589	15040.11
749.928	15097.29
750.267	15130.05
750.605	15060.23
750.944	15046.44
751.283	14993.56
751.621	15004.41
751.96	14976.39
752.298	14868.14
752.636	14939.55
752.975	14830.63
753.313	14746.11
753.651	14794.24
753.989	14763.74
754.327	14719.67
754.666	14683.29
755.004	14681.03
755.342	14642.61
755.679	14691.42
756.017	14631.08
756.355	14696.39
756.693	14545.44
757.031	14589.28
757.368	14516.28
757.706	14577.53
758.044	14481.94
758.381	14434.93
758.719	14377.76
759.056	14438.09
759.394	14377.76
759.731	14262.73
760.068	14276.29
760.405	14166.01
760.743	14205.56
761.08	14155.62
761.417	14206.01
761.754	14076.97
762.091	14023.64
762.428	14010.76
762.765	13883.99
763.102	13942.06
763.438	13808.06
763.775	13758.11
764.112	13820.94
764.449	13787.26
764.785	13780.03
765.122	13616.2
765.458	13582.07
765.795	13611.68
766.131	13582.3
766.467	13559.7
766.804	13461.4
767.14	13379.59
767.476	13405.58
767.812	13372.81
768.148	13294.62
768.485	13252.36
768.821	13241.29
769.157	13140.95
769.492	13137.11
769.828	13049.88
770.164	12986.61
770.5	13016.21
770.836	12950.22
771.171	12834.52
771.507	12755.65
771.842	12698.25
772.178	12715.65
772.513	12737.57
772.849	12627.3
773.184	12651.02
773.519	12603.34
773.855	12566.05
774.19	12476.56
774.525	12440.86
774.86	12446.51
775.195	12438.83
775.53	12348.43
775.865	12248.1
776.2	12175.33
776.535	12164.03
776.87	12108.89
777.205	12039.97
777.539	12039.51
777.874	11997.48
778.209	11978.05
778.543	11859.18
778.878	11826.64
779.212	11793.19
779.547	11734.21
779.881	11783.93
780.215	11662.35
780.55	11657.83
780.884	11463.94
781.218	11625.06
781.552	11582.8
781.886	11459.64
782.22	11461.9
782.554	11395.46
782.888	11290.16
783.222	11210.38
783.556	11254.68
783.889	11256.94
784.223	11126.32
784.557	11085.41
784.89	11143.72
785.224	10993.67
785.557	10955.47
785.891	10973.1
786.224	10909.37
786.558	10876.38
786.891	10796.61
787.224	10756.38
787.557	10726.55
787.891	10658.99
788.224	10690.17
788.557	10723.39
788.89	10666.22
789.223	10666.44
789.556	10572.21
789.888	10548.03
790.221	10504.41
790.554	10405.21
790.887	10384.42
791.219	10404.3
791.552	10368.37
791.884	10275.94
792.217	10275.94
792.549	10246.11
792.882	10167.02
793.214	10138.55
793.546	10088.83
793.879	10106.68
794.211	10040.92
794.543	9983.07
794.875	9998.89
795.207	10030.98
795.539	9948.72
795.871	9980.13
796.203	9833.24
796.535	9798.22
796.867	9750.31
797.198	9809.97
797.53	9725.9
797.862	9630.54
798.193	9661.05
798.525	9619.69
798.856	9618.33
799.188	9482.52
799.519	9486.59
799.85	9393.71
800.182	9448.62
800.513	9393.93
800.844	9363.2
801.175	9397.78
801.506	9319.36
801.837	9282.75
802.168	9315.97
802.499	9289.98
802.83	9222.64
803.161	9130.66
803.491	9155.97
803.822	9114.17
804.153	9089.99
804.483	9052.47
804.814	9024.23
805.145	8991.68
805.475	9016.77
805.805	9046.82
806.136	8965.47
806.466	8976.77
806.796	8847.73
807.126	8868.3
807.457	8827.17
807.787	8810.45
808.117	8784.01
808.447	8788.07
808.777	8724.12
809.107	8728.19
809.436	8693.84
809.766	8679.38
810.096	8726.83
810.426	8622.43
810.755	8603.22
811.085	8552.37
811.414	8616.1
811.744	8528.42
812.073	8496.33
812.403	8518.25
812.732	8467.4
813.061	8472.83
813.39	8424.02
813.719	8360.51
814.049	8464.47
814.378	8422.21
814.707	8370.68
815.036	8321.65
815.365	8256.11
815.693	8314.87
816.022	8167.3
816.351	8144.02
816.68	8158.03
817.008	8172.72
817.337	8154.64
817.665	8103.12
817.994	8091.6
818.322	8086.4
818.651	8091.37
818.979	8116
819.307	8070.13
819.636	7995.78
819.964	7921.43
820.292	7964.37
820.62	7991.26
820.948	7951.49
821.276	7963.24
821.604	7938.15
821.932	7964.14
822.259	7907.87
822.587	7929.79
822.915	7926.18
823.243	7932.96
823.57	8003.69
823.898	7908.78
824.225	7897.93
824.553	7911.71
824.88	7862
825.207	7919.4
825.535	7851.38
825.862	7885.27
826.189	7836.46
826.516	7904.26
826.843	7919.85
827.17	7828.1
827.497	7930.47
827.824	7952.62
828.151	7928.44
828.478	7934.76
828.805	7917.59
829.131	7869.91
829.458	7872.39
829.785	7830.36
830.111	7829.68
830.438	7843.92
830.764	7886.85
831.09	7891.37
831.417	7814.99
831.743	7876.91
832.069	7852.96
832.395	7834.43
832.722	7868.78
833.048	7882.79
833.374	7777.93
833.7	7784.03
834.026	7794.65
834.351	7827.65
834.677	7816.12
835.003	7787.42
835.329	7767.76
835.654	7736.35
835.98	7784.26
836.306	7776.12
836.631	7683.24
836.956	7706.75
837.282	7688.22
837.607	7600.53
837.932	7679.18
838.258	7737.25
838.583	7675.56
838.908	7637.14
839.233	7629.91
839.558	7625.39
839.883	7568.9
840.208	7586.52
840.533	7509.69
840.858	7612.06
841.182	7519.18
841.507	7563.47
841.832	7499.75
842.156	7506.07
842.481	7526.64
842.805	7480.54
843.13	7363.7
843.454	7423.59
843.778	7429.92
844.103	7408.22
844.427	7331.39
844.751	7336.13
845.075	7285.97
845.399	7284.38
845.723	7225.4
846.047	7248
846.371	7227.44
846.695	7190.15
847.019	7171.62
847.343	7152.18
847.666	7136.82
847.99	7084.16
848.313	7100.21
848.637	7008.91
848.96	7092.75
849.284	7015.24
849.607	6929.14
849.931	6918.29
850.254	6858.86
850.577	6906.77
850.9	6805.53
851.223	6820.67
851.546	6812.76
851.869	6733.44
852.192	6761.91
852.515	6771.63
852.838	6615.25
853.161	6699.32
853.483	6597.17
853.806	6619.32
854.129	6520.34
854.451	6582.93
854.774	6547
855.096	6613.22
855.419	6564.63
855.741	6550.62
856.063	6452.99
856.385	6466.1
856.708	6428.36
857.03	6363.96
857.352	6448.02
857.674	6383.62
857.996	6392.2
858.318	6312.21
858.64	6383.39
858.961	6318.53
859.283	6322.38
859.605	6218.42
859.926	6266.56
860.248	6274.69
860.57	6222.49
860.891	6264.52
861.212	6208.03
861.534	6167.13
861.855	6133
862.176	6174.81
862.498	6174.36
862.819	6151.99
863.14	6111.99
863.461	6105.43
863.782	6078.54
864.103	6108.14
864.424	6116.28
864.745	6096.85
865.065	6024.3
865.386	6028.82
865.707	6007.13
866.027	6041.25
866.348	6013.91
866.668	6029.05
866.989	6029.95
867.309	5957.87
867.63	5983.4
867.95	5970.97
868.27	5870.64
868.59	6004.87
868.91	5933.23
869.23	5954.25
869.55	5915.61
869.87	5936.4
870.19	5907.02
870.51	5897.3
870.83	5912.67
871.15	5891.88
871.469	5850.98
871.789	5817.3
872.109	5873.8
872.428	5834.93
872.748	5871.54
873.067	5893.69
873.386	5831.54
873.706	5819.11
874.025	5769.62
874.344	5790.41
874.663	5791.77
874.982	5777.53
875.301	5802.16
875.62	5709.74
875.939	5773.92
876.258	5697.31
876.577	5714.26
876.896	5727.14
877.214	5692.56
877.533	5681.26
877.852	5702.05
878.17	5682.62
878.489	5731.43
878.807	5740.24
879.125	5716.29
879.444	5650.98
879.762	5647.59
880.08	5653.92
880.398	5628.38
880.716	5611.89
881.034	5649.17
881.352	5603.75
881.67	5570.53
881.988	5625.22
882.306	5569.4
882.624	5529.4
882.941	5525.11
883.259	5548.61
883.577	5508.39
883.894	5496.86
884.212	5515.39
884.529	5493.92
884.846	5481.04
885.164	5474.94
885.481	5435.17
885.798	5503.19
886.115	5392.01
886.432	5427.48
886.75	5384.1
887.067	5378.67
887.383	5321.27
887.7	5367.82
888.017	5390.2
888.334	5366.7
888.651	5345
888.967	5368.73
889.284	5253.93
889.6	5276.08
889.917	5301.16
890.233	5268.84
890.55	5261.39
890.866	5257.32
891.182	5212.12
891.498	5177.55
891.815	5193.82
892.131	5148.85
892.447	5197.43
892.763	5122.41
893.079	5144.33
893.395	5120.6
893.71	5069.3
894.026	5099.13
894.342	5083.99
894.657	5044.22
894.973	5054.84
895.289	5042.64
895.604	5029.08
895.92	4983.88
896.235	4994.28
896.55	4997.44
896.865	4984.33
897.181	4936.65
897.496	4920.15
897.811	4919.48
898.126	4922.41
898.441	4888.97
898.756	4924.22
899.071	4862.53
899.386	4884.67
899.7	4829.99
900.015	4828.18
900.33	4820.04
900.644	4775.98
900.959	4778.01
901.273	4781.17
901.588	4695.07
901.902	4720.16
902.216	4712.7
902.531	4712.25
902.845	4729.2
903.159	4656.43
903.473	4622.99
903.787	4634.74
904.101	4613.27
904.415	4652.82
904.729	4615.53
905.042	4530.11
905.356	4548.86
905.67	4528.75
905.984	4554.06
906.297	4504.8
906.611	4484.01
906.924	4529.43
907.237	4494.63
907.551	4497.11
907.864	4465.7
908.177	4444.91
908.491	4399.26
908.804	4381.18
909.117	4319.04
909.43	4335.54
909.743	4313.84
910.056	4297.8
910.368	4321.3
910.681	4295.31
910.994	4290.11
911.307	4238.36
911.619	4207.86
911.932	4203.56
912.244	4220.74
912.557	4215.76
912.869	4190
913.181	4197.46
913.494	4183.22
913.806	4171.7
914.118	4145.03
914.43	4122.21
914.742	4103.68
915.054	4104.58
915.366	4070.91
915.678	4085.6
915.99	4031.14
916.302	4048.54
916.613	3986.62
916.925	3984.81
917.236	3992.27
917.548	4001.99
917.859	3931.03
918.171	3923.57
918.482	3903.68
918.794	3932.61
919.105	3878.6
919.416	3876.11
919.727	3877.24
920.038	3839.05
920.349	3842.89
920.66	3773.52
920.971	3778.26
921.282	3792.27
921.593	3836.34
921.903	3757.7
922.214	3780.75
922.525	3742.1
922.835	3716.12
923.146	3663.69
923.456	3718.15
923.767	3703.46
924.077	3674.54
924.387	3679.73
924.697	3630.47
925.008	3650.36
925.318	3562.9
925.628	3641.54
925.938	3566.97
926.248	3548.66
926.558	3519.51
926.867	3548.44
927.177	3558.38
927.487	3542.56
927.796	3482.9
928.106	3478.61
928.416	3465.05
928.725	3457.14
929.034	3430.47
929.344	3418.27
929.653	3419.85
929.962	3382.79
930.271	3377.37
930.581	3368.33
930.89	3341.21
931.199	3324.94
931.508	3369.01
931.817	3323.36
932.125	3291.72
932.434	3331.49
932.743	3312.06
933.051	3282.68
933.36	3253.98
933.669	3239.07
933.977	3255.11
934.286	3226.41
934.594	3205.62
934.902	3168.79
935.21	3144.83
935.519	3184.38
935.827	3184.61
936.135	3171.5
936.443	3139.86
936.751	3084.72
937.059	3092.4
937.367	3079.07
937.674	3103.03
937.982	3136.47
938.29	3125.85
938.597	3049.47
938.905	3029.13
939.213	3050.15
939.52	3046.08
939.827	3023.93
940.135	2965.85
940.442	2973.99
940.749	2988.68
941.056	2962.01
941.363	2948
941.67	2961.11
941.977	2950.49
942.284	2920.43
942.591	2919.98
942.898	2880.66
943.205	2909.81
943.511	2858.96
943.818	2893.77
944.125	2856.48
944.431	2840.66
944.738	2845.63
945.044	2820.77
945.35	2821.68
945.657	2834.78
945.963	2803.15
946.269	2767.44
946.575	2798.18
946.881	2757.95
947.187	2754.79
947.493	2745.97
947.799	2714.56
948.105	2747.1
948.41	2675.01
948.716	2692.87
949.022	2689.48
949.327	2669.59
949.633	2691.51
949.938	2625.07
950.244	2626.65
950.549	2612.19
950.854	2615.35
951.16	2620.1
951.465	2607.45
951.77	2613.55
952.075	2586.43
952.38	2543.49
952.685	2581.91
952.99	2580.1
953.294	2558.86
953.599	2567.9
953.904	2515.47
954.209	2509.37
954.513	2505.98
954.818	2458.52
955.122	2511.4
955.426	2483.38
955.731	2449.71
956.035	2442.7
956.339	2430.95
956.643	2435.25
956.948	2439.54
957.252	2395.93
957.556	2407.22
957.86	2393.21
958.163	2391.86
958.467	2385.76
958.771	2391.41
959.075	2388.69
959.378	2359.54
959.682	2378.53
959.985	2335.14
960.289	2347.79
960.592	2305.76
960.896	2328.13
961.199	2316.15
961.502	2306.66
961.805	2272.09
962.108	2255.59
962.411	2260.79
962.714	2258.3
963.017	2247.46
963.32	2267.79
963.623	2221.69
963.926	2238.64
964.228	2208.13
964.531	2206.1
964.833	2216.72
965.136	2186.67
965.438	2204.97
965.741	2175.59
966.043	2176.04
966.345	2164.52
966.648	2158.19
966.95	2139.89
967.252	2107.35
967.554	2148.7
967.856	2109.61
968.158	2103.28
968.46	2085.2
968.761	2134.92
969.063	2071.41
969.365	2055.6
969.666	2059.44
969.968	2014.47
970.269	2048.59
970.571	2049.27
970.872	2045.43
971.174	2041.13
971.475	1994.13
971.776	2024.86
972.077	1982.83
972.378	1984.41
972.679	1997.29
972.98	2003.17
973.281	1983.28
973.582	1959.55
973.883	1977.86
974.183	1932.44
974.484	1937.41
974.785	1955.49
975.085	1986.9
975.386	1914.81
975.686	1910.51
975.986	1933.56
976.287	1915.26
976.587	1883.17
976.887	1858.09
977.187	1860.8
977.487	1891.08
977.787	1864.41
978.087	1882.72
978.387	1840.01
978.687	1865.54
978.987	1842.27
979.286	1785.09
979.586	1825.32
979.885	1827.81
980.185	1789.39
980.484	1799.11
980.784	1793
981.083	1797.75
981.382	1746.9
981.682	1769.05
981.981	1770.18
982.28	1778.09
982.579	1764.3
982.878	1761.14
983.177	1696.74
983.475	1733.12
983.774	1758.65
984.073	1719.33
984.372	1706
984.67	1710.75
984.969	1717.3
985.267	1720.24
985.566	1672.78
985.864	1664.65
986.162	1686.57
986.461	1651.76
986.759	1653.8
987.057	1624.19
987.355	1630.07
987.653	1639.34
987.951	1628.49
988.249	1619.67
988.547	1609.73
988.844	1600.69
989.142	1587.81
989.44	1619.22
989.737	1614.25
990.035	1562.28
990.332	1599.56
990.63	1598.88
990.927	1574.93
991.224	1528.83
991.521	1554.37
991.819	1546.23
992.116	1519.34
992.413	1518.21
992.71	1543.52
993.006	1524.54
993.303	1508.04
993.6	1505.78
993.897	1505.33
994.193	1503.52
994.49	1493.8
994.787	1488.15
995.083	1473.01
995.379	1482.5
995.676	1458.55
995.972	1477.76
996.268	1456.52
996.565	1457.65
996.861	1447.25
997.157	1456.06
997.453	1430.75
997.749	1415.61
998.044	1440.47
998.34	1415.16
998.636	1395.5
998.932	1403.64
999.227	1392.34
999.523	1367.25
999.818	1368.16
1000.114	1369.06
1000.409	1338.33
1000.704	1356.63
1001	1360.92
1001.295	1332.22
1001.59	1323.86
1001.885	1328.61
1002.18	1335.16
1002.475	1346.91
1002.77	1297.2
1003.065	1283.86
1003.359	1317.54
1003.654	1261.27
1003.949	1285.9
1004.243	1262.62
1004.538	1268.27
1004.832	1279.12
1005.127	1265.56
1005.421	1242.51
1005.715	1276.41
1006.009	1252.45
1006.304	1227.14
1006.598	1209.97
1006.892	1250.87
1007.186	1227.59
1007.48	1202.06
1007.773	1186.01
1008.067	1200.02
1008.361	1223.08
1008.655	1184.21
1008.948	1185.34
1009.242	1209.52
1009.535	1173.81
1009.829	1174.04
1010.122	1162.96
1010.415	1146.24
1010.708	1170.2
1011.001	1116.86
1011.295	1114.38
1011.588	1127.71
1011.881	1131.1
1012.173	1126.13
1012.466	1127.94
1012.759	1122.06
1013.052	1108.05
1013.344	1101.04
1013.637	1089.97
1013.93	1069.86
1014.222	1079.8
1014.514	1082.74
1014.807	1057.2
1015.099	1055.62
1015.391	1064.44
1015.683	1066.47
1015.976	1067.83
1016.268	1042.06
1016.56	1026.7
1016.851	1061.5
1017.143	1011.1
1017.435	1000.03
1017.727	1016.98
1018.018	1025.79
1018.31	1042.74
1018.602	1002.74
1018.893	988.96
1019.185	984.21
1019.476	986.02
1019.767	977.66
1020.058	980.6
1020.35	982.18
1020.641	976.53
1020.932	969.3
1021.223	965.23
1021.514	943.31
1021.804	939.69
1022.095	927.04
1022.386	932.69
1022.677	910.32
1022.967	913.7
1023.258	925
1023.548	942.4
1023.839	920.48
1024.129	897.66
1024.419	915.29
1024.709	900.82
1025	898.11
1025.29	881.39
1025.58	897.66
1025.87	857.21
1026.16	868.96
1026.449	862.18
1026.739	856.53
1027.029	863.76
1027.319	836.87
1027.608	832.58
1027.898	852.46
1028.187	847.94
1028.477	842.07
1028.766	833.48
1029.055	814.27
1029.344	832.58
1029.634	804.33
1029.923	812.92
1030.212	791.22
1030.501	790.54
1030.79	802.07
1031.078	786.93
1031.367	790.32
1031.656	803.88
1031.945	795.74
1032.233	776.99
1032.522	775.63
1032.81	752.58
1033.099	741.73
1033.387	769.75
1033.675	778.57
1033.963	753.71
1034.251	749.64
1034.54	739.92
1034.828	730.66
1035.116	748.74
1035.403	729.53
1035.691	746.48
1035.979	710.09
1036.267	724.33
1036.554	736.31
1036.842	697.89
1037.129	725.69
1037.417	699.7
1037.704	736.76
1037.992	718
1038.279	691.11
1038.566	707.83
1038.853	707.83
1039.14	707.83
