Data from tablewood_brown_FLMS001491_006.txt Node
Date: Tue Feb 07 11:09:56 GMT 2017
User: dcchb
Spectrometer: FLMS00149
Trigger mode: 0
Integration Time (sec): 2.000000E-2
Scans to average: 10
Electric dark correction enabled: true
Nonlinearity correction enabled: false
Boxcar width: 0
XAxis mode: Wavelengths
Number of Pixels in Spectrum: 2048
>>>>>Begin Spectral Data<<<<<
341.393	-7.32
341.776	-7.32
342.16	-7.32
342.543	-52.06
342.927	-69.01
343.31	-86.18
343.693	-82.12
344.077	-67.43
344.46	-51.61
344.843	-36.24
345.226	-42.57
345.61	-28.33
345.993	-25.17
346.376	-1.89
346.759	12.57
347.142	22.97
347.525	36.98
347.908	52.34
348.291	83.75
348.674	100.48
349.057	112.45
349.44	109.52
349.823	144.77
350.206	173.47
350.588	189.29
350.971	210.31
351.354	224.32
351.737	246.69
352.119	261.6
352.502	275.16
352.884	284.65
353.267	282.85
353.65	287.59
354.032	301.38
354.414	317.2
354.797	301.6
355.179	328.04
355.562	345.67
355.944	324.65
356.326	346.8
356.709	348.38
357.091	326.23
357.473	332.34
357.855	355.39
358.238	335.05
358.62	330.08
359.002	348.83
359.384	347.7
359.766	350.19
360.148	335.5
360.53	354.71
360.912	349.74
361.294	341.38
361.676	352.22
362.057	344.31
362.439	333.24
362.821	340.47
363.203	334.6
363.584	332.34
363.966	326.91
364.348	329.62
364.729	349.74
365.111	349.06
365.493	316.74
365.874	316.52
366.256	327.59
366.637	311.32
367.019	333.24
367.4	337.08
367.781	349.96
368.163	317.65
368.544	318.55
368.925	326.23
369.306	335.5
369.688	344.09
370.069	338.89
370.45	343.64
370.831	346.35
371.212	311.55
371.593	337.99
371.974	354.03
372.355	336.4
372.736	358.55
373.117	337.08
373.498	329.17
373.879	348.83
374.26	317.65
374.641	347.48
375.021	335.95
375.402	326.01
375.783	354.48
376.163	350.64
376.544	351.54
376.925	340.02
377.305	368.72
377.686	337.53
378.066	350.19
378.447	359.45
378.827	368.95
379.208	364.88
379.588	383.63
379.968	373.24
380.349	379.34
380.729	369.4
381.109	372.79
381.489	374.59
381.87	371.66
382.25	364.65
382.63	364.88
383.01	381.83
383.39	373.24
383.77	373.24
384.15	390.41
384.53	395.84
384.91	382.73
385.29	393.8
385.67	392.45
386.049	401.03
386.429	405.33
386.809	378.66
387.189	383.63
387.568	418.89
387.948	413.46
388.328	424.31
388.707	382.05
389.087	408.49
389.466	438.55
389.846	419.34
390.225	441.71
390.605	442.16
390.984	429.28
391.363	456.4
391.743	428.15
392.122	448.27
392.501	440.36
392.881	442.16
393.26	449.39
393.639	453.69
394.018	449.17
394.397	450.52
394.776	464.08
395.155	449.62
395.534	467.25
395.913	484.65
396.292	474.25
396.671	486.91
397.05	508.83
397.429	483.29
397.808	498.43
398.186	467.25
398.565	483.52
398.944	493.24
399.323	507.25
399.701	512.44
400.08	519.45
400.458	532.1
400.837	504.31
401.215	529.84
401.594	521.03
401.972	534.59
402.351	529.62
402.729	540.92
403.107	537.08
403.486	536.17
403.864	557.87
404.242	518.77
404.62	542.27
404.999	553.12
405.377	587.47
405.755	566.45
406.133	575.27
406.511	576.85
406.889	579.79
407.267	601.93
407.645	585.21
408.023	597.19
408.401	622.05
408.779	610.29
409.156	624.76
409.534	622.5
409.912	599.67
410.29	650.52
410.667	628.6
411.045	663.17
411.422	647.58
411.8	652.1
412.178	682.84
412.555	663.85
412.933	653.01
413.31	681.03
413.687	707.92
414.065	717.64
414.442	679.45
414.819	694.59
415.197	714.92
415.574	702.95
415.951	709.05
416.328	734.36
416.705	729.39
417.082	703.17
417.46	740.46
417.837	762.16
418.214	763.74
418.591	749.5
418.967	749.27
419.344	746.11
419.721	761.48
420.098	764.87
420.475	778.65
420.852	805.09
421.228	802.83
421.605	808.26
421.982	798.54
422.358	802.38
422.735	808.48
423.111	831.98
423.488	855.26
423.864	842.15
424.241	864.3
424.617	831.31
424.994	869.5
425.37	872.43
425.746	870.4
426.123	866.79
426.499	874.69
426.875	885.09
427.251	898.42
427.627	933.9
428.003	909.72
428.379	930.96
428.756	954.69
429.132	977.06
429.507	956.05
429.883	982.04
430.259	985.2
430.635	960.57
431.011	986.56
431.387	1005.31
431.763	1023.84
432.138	1003.28
432.514	1030.4
432.89	1030.17
433.265	1091.86
433.641	1082.15
434.016	1100.45
434.392	1104.74
434.767	1123.28
435.143	1128.02
435.518	1127.34
435.894	1140
436.269	1164.18
436.644	1196.49
437.02	1194.69
437.395	1190.17
437.77	1198.53
438.145	1228.81
438.52	1219.54
438.895	1219.09
439.271	1237.17
439.646	1266.32
440.021	1275.59
440.395	1246.21
440.77	1279.88
441.145	1283.27
441.52	1296.83
441.895	1292.08
442.27	1328.24
442.645	1307.9
443.019	1318.52
443.394	1351.07
443.769	1345.19
444.143	1343.38
444.518	1365.98
444.892	1349.71
445.267	1389.94
445.641	1397.84
446.016	1398.75
446.39	1426.77
446.764	1412.08
447.139	1417.73
447.513	1438.52
447.887	1416.83
448.262	1449.14
448.636	1458.18
449.01	1467.67
449.384	1471.74
449.758	1488.01
450.132	1498.86
450.506	1511.29
450.88	1507.67
451.254	1518.52
451.628	1553.77
452.002	1528.91
452.376	1580.21
452.75	1606.43
453.123	1574.34
453.497	1604.17
453.871	1619.76
454.244	1644.17
454.618	1661.34
454.992	1666.31
455.365	1712.64
455.739	1729.36
456.112	1770.72
456.486	1765.29
456.859	1796.93
457.232	1788.34
457.606	1822.01
457.979	1820.21
458.352	1832.41
458.725	1873.76
459.099	1881
459.472	1925.74
459.845	1941.79
460.218	1957.6
460.591	1956.47
460.964	1980.88
461.337	2007.55
461.71	2013.65
462.083	2064.04
462.456	2081.22
462.829	2101.1
463.201	2132.06
463.574	2142.68
463.947	2173.42
464.32	2205.73
464.692	2234.43
465.065	2253.42
465.438	2271.72
465.81	2316.24
466.183	2343.36
466.555	2391.26
466.928	2392.17
467.3	2413.41
467.672	2418.83
468.045	2526.85
468.417	2534.99
468.789	2544.26
469.161	2554.88
469.534	2636.68
469.906	2680.97
470.278	2680.3
470.65	2727.75
471.022	2826.51
471.394	2831.93
471.766	2849.33
472.138	2909.9
472.51	2972.72
472.882	2997.58
473.253	3054.52
473.625	3109.21
473.997	3207.74
474.369	3191.92
474.74	3243.22
475.112	3304.01
475.484	3439.15
475.855	3431.01
476.227	3475.3
476.598	3575.19
476.97	3626.03
477.341	3685.02
477.713	3803.88
478.084	3778.35
478.455	3921.17
478.827	3944.22
479.198	4062.86
479.569	4091.56
479.94	4233.25
480.311	4294.04
480.682	4358.67
481.053	4491.77
481.424	4533.36
481.795	4607.03
482.166	4700.13
482.537	4739.9
482.908	4859.9
483.279	4896.74
483.65	5058.99
484.021	5113.45
484.391	5212.21
484.762	5261.02
485.133	5309.61
485.503	5393.9
485.874	5486.1
486.244	5509.15
486.615	5636.38
486.985	5724.96
487.356	5929.7
487.726	5844.51
488.097	6038.17
488.467	6021
488.837	6129.7
489.207	6254.44
489.578	6353.65
489.948	6349.13
490.318	6512.06
490.688	6549.57
491.058	6612.17
491.428	6675.67
491.798	6813.97
492.168	6980.3
492.538	6939.62
492.908	6983.91
493.278	7042.67
493.648	7150.69
494.017	7231.59
494.387	7363.79
494.757	7434.75
495.126	7509.32
495.496	7578.47
495.866	7594.29
496.235	7654.18
496.605	7717.9
496.974	7800.16
497.344	7889.88
497.713	7934.4
498.082	7925.58
498.452	7997.67
498.821	8066.14
499.19	8077.67
499.559	8263.88
499.928	8305.91
500.298	8342.75
500.667	8385.01
501.036	8388.62
501.405	8546.36
501.774	8557.2
502.143	8660.7
502.512	8667.71
502.88	8760.81
503.249	8788.84
503.618	8858.21
503.987	8894.37
504.356	9010.3
504.724	8958.78
505.093	9035.16
505.462	9074.48
505.83	9235.15
506.199	9257.98
506.567	9358.77
506.936	9309.05
507.304	9454.13
507.672	9595.82
508.041	9620
508.409	9718.08
508.777	9745.87
509.145	9864.29
509.514	9846.89
509.882	9934.34
510.25	10086.2
510.618	10108.12
510.986	10169.14
511.354	10279.87
511.722	10320.1
512.09	10409.59
512.458	10426.08
512.826	10569.13
513.193	10577.72
513.561	10698.17
513.929	10810.48
514.297	10898.84
514.664	10972.06
515.032	11001.66
515.4	11057.48
515.767	11210.02
516.135	11322.78
516.502	11207.98
516.869	11483.23
517.237	11519.61
517.604	11458.82
517.972	11681.19
518.339	11817.23
518.706	11782.43
519.073	11838.25
519.44	12036.66
519.808	12090.67
520.175	12120.5
520.542	12306.48
520.909	12370.89
521.276	12437.33
521.643	12606.82
522.009	12711.22
522.376	12825.34
522.743	12860.37
523.11	13020.36
523.477	13142.85
523.843	13256.97
524.21	13316.63
524.577	13520.24
524.943	13547.13
525.31	13689.05
525.676	13815.82
526.043	13851.98
526.409	13905.09
526.776	14179.66
527.142	14126.55
527.508	14273.89
527.874	14382.59
528.241	14504.84
528.607	14537.61
528.973	14757.72
529.339	14691.73
529.705	14911.16
530.071	14903.7
530.437	15007.88
530.803	15060.99
531.169	15199.29
531.535	15250.59
531.901	15287.2
532.267	15384.37
532.632	15470.92
532.998	15480.41
533.364	15648.54
533.73	15716.34
534.095	15907.29
534.461	15914.3
534.826	16046.72
535.192	16042.88
535.557	16247.85
535.923	16181.41
536.288	16248.75
536.653	16328.53
537.019	16326.04
537.384	16381.41
537.749	16534.17
538.114	16535.75
538.479	16626.37
538.845	16746.59
539.21	16757.67
539.575	16702.07
539.94	16814.84
540.305	16999.69
540.67	17030.88
541.034	17033.59
541.399	17084.66
541.764	17184.32
542.129	17296.18
542.494	17314.94
542.858	17304.54
543.223	17477.65
543.587	17592.45
543.952	17581.15
544.316	17630.64
544.681	17611.2
545.045	17788.15
545.41	17773.46
545.774	17888.03
546.138	17892.55
546.503	18005.54
546.867	18058.42
547.231	18146.56
547.595	18125.54
547.959	18301.13
548.324	18348.36
548.688	18358.3
549.052	18511.29
549.416	18599.88
549.779	18552.65
550.143	18727.78
550.507	18894.33
550.871	18915.8
551.235	18981.11
551.599	19186.53
551.962	19263.82
552.326	19278.05
552.689	19427.2
553.053	19280.54
553.417	19500.65
553.78	19741.77
554.143	19699.51
554.507	19848.43
554.87	19930.01
555.234	20203.9
555.597	20116
555.96	20241.87
556.323	20383.11
556.686	20513.05
557.05	20658.58
557.413	20778.13
557.776	20870.55
558.139	21065.8
558.502	21094.95
558.865	21161.39
559.228	21441.16
559.59	21548.28
559.953	21564.77
560.316	21849.06
560.679	21980.81
561.041	22178.54
561.404	22289.05
561.767	22406.78
562.129	22415.37
562.492	22783.5
562.854	22791.18
563.217	22890.84
563.579	22929.26
563.941	23313.88
564.304	23360.2
564.666	23506.19
565.028	23615.79
565.39	23838.16
565.753	24009.91
566.115	24206.06
566.477	24328.09
566.839	24407.41
567.201	24693.05
567.563	24841.52
567.925	24992.25
568.287	25120.16
568.648	25269.53
569.01	25538.45
569.372	25617.77
569.734	25785.45
570.095	26001.72
570.457	26151.77
570.819	26331.43
571.18	26412.55
571.542	26744.52
571.903	26815.48
572.265	27022.48
572.626	27134.57
572.987	27378.86
573.349	27309.48
573.71	27619.53
574.071	27830.37
574.432	27871.05
574.794	28330.92
575.155	28265.39
575.516	28292.28
575.877	28542.67
576.238	28696.34
576.599	28737.46
576.96	29049.09
577.32	29136.55
577.681	29212.25
578.042	29481.85
578.403	29585.13
578.763	29673.94
579.124	29740.83
579.485	30002.29
579.845	30082.06
580.206	30097.65
580.566	30204.54
580.927	30360.25
581.287	30459.45
581.648	30353.24
582.008	30714.81
582.368	30681.59
582.728	30971.08
583.089	30738.09
583.449	30927.24
583.809	31007.46
584.169	31166.1
584.529	31089.95
584.889	31413.33
585.249	31254.91
585.609	31245.2
585.969	31468.92
586.329	31400.22
586.688	31540.78
587.048	31489.93
587.408	31527.45
587.768	31649.48
588.127	31506.43
588.487	31635.24
588.846	31936.25
589.206	31816.93
589.565	31818.97
589.925	32012.18
590.284	31873.88
590.643	31973.54
591.003	32082.24
591.362	32176.24
591.721	32128.79
592.08	32136.25
592.44	32342.34
592.799	32362.23
593.158	32329.01
593.517	32300.53
593.876	32396.13
594.235	32411.27
594.593	32450.81
594.952	32507.99
595.311	32253.08
595.67	32479.06
596.029	32652.62
596.387	32741.2
596.746	32674.76
597.104	32554.31
597.463	32602
597.822	32716.57
598.18	32644.71
598.538	32565.61
598.897	32825.94
599.255	32499.17
599.613	32979.84
599.972	32901.2
600.33	32930.57
600.688	32798.6
601.046	32894.87
601.404	33126.28
601.762	32989.1
602.12	33140.06
602.478	33102.77
602.836	33206.73
603.194	33076.79
603.552	33190
603.91	32967.86
604.268	33238.59
604.625	33176.22
604.983	33236.1
605.341	33150
605.698	33319.72
606.056	33402.2
606.413	33347.74
606.771	33387.29
607.128	33423.9
607.485	33279.04
607.843	33420.96
608.2	33590.9
608.557	33432.93
608.914	33492.59
609.272	33526.04
609.629	33773.49
609.986	33745.92
610.343	33591.12
610.7	33796.09
611.057	33714.51
611.414	33850.55
611.771	33797.9
612.127	34053.48
612.484	33913.15
612.841	34112.46
613.198	33959.02
613.554	34033.82
613.911	34219.13
614.267	34116.98
614.624	34164.89
614.98	34316.08
615.337	34338.67
615.693	34192.01
616.05	34392.68
616.406	34653.92
616.762	34370.08
617.118	34381.84
617.475	34450.99
617.831	34634.94
618.187	34537.09
618.543	34602.17
618.899	34811.66
619.255	34713.8
619.611	34676.74
619.967	34966.45
620.323	34826.12
620.678	34669.96
621.034	34616.18
621.39	34720.58
621.746	34689.4
622.101	35052.55
622.457	34752.67
622.812	34876.29
623.168	34849.17
623.523	34788.83
623.879	34883.07
624.234	34763.29
624.589	34863.86
624.945	34843.07
625.3	35008.03
625.655	34886.46
626.01	34964.42
626.365	34799
626.72	34974.14
627.075	34897.3
627.43	34815.05
627.785	34796.74
628.14	34798.1
628.495	34801.49
628.85	34788.38
629.205	34721.71
629.559	34970.52
629.914	34658.44
630.269	34797.87
630.623	34632.22
630.978	34489.63
631.332	34829.06
631.687	34933.01
632.041	34530.31
632.396	34738.21
632.75	34554.49
633.104	34582.96
633.459	34390.65
633.813	34474.49
634.167	34367.37
634.521	34298.9
634.875	34459.12
635.229	34391.33
635.583	34262.97
635.937	34218.22
636.291	34058.91
636.645	34138.68
636.999	34117.21
637.352	34178.68
637.706	34046.03
638.06	34107.94
638.413	34114.72
638.767	34098.45
639.121	34072.01
639.474	33821.4
639.828	33889.42
640.181	33889.87
640.534	33939.81
640.888	33739.59
641.241	33534.63
641.594	33734.4
641.947	33754.73
642.301	33668.86
642.654	33756.99
643.007	33704.11
643.36	33635.19
643.713	33596.09
644.066	33732.36
644.419	33540.05
644.771	33209.89
645.124	32947.52
645.477	32972.83
645.83	32805.83
646.182	32528.78
646.535	32529.46
646.888	32663.46
647.24	32396.58
647.593	32664.82
647.945	32534.88
648.298	32432.28
648.65	32329.46
649.002	32277.26
649.355	32393.19
649.707	32384.6
650.059	32406.07
650.411	32835.44
650.763	32921.31
651.115	33202.66
651.467	33078.14
651.819	33142.09
652.171	32954.53
652.523	33025.49
652.875	32956.34
653.227	32879.28
653.578	33192.94
653.93	33039.05
654.282	32864.36
654.633	32928.54
654.985	33027.75
655.337	33063.9
655.688	32933.29
656.039	33146.84
656.391	32820.97
656.742	32916.79
657.094	32928.31
657.445	32997.24
657.796	32929.9
658.147	32920.18
658.498	32787.75
658.849	32864.59
659.2	32928.09
659.551	32738.94
659.902	32985.49
660.253	32578.95
660.604	32848.09
660.955	32813.52
661.306	32891.71
661.656	32710.69
662.007	32832.72
662.358	32880.63
662.708	32760.41
663.059	32848.77
663.409	32605.61
663.76	32823.46
664.11	32690.58
664.461	32851.03
664.811	32764.25
665.161	32853.06
665.511	32733.29
665.862	32689.45
666.212	32834.76
666.562	32809.9
666.912	32713.18
667.262	32733.29
667.612	32724.93
667.962	32756.12
668.312	32642.22
668.662	32834.31
669.011	32748.66
669.361	32603.13
669.711	32646.74
670.06	32577.59
670.41	32484.71
670.76	32530.59
671.109	32784.14
671.459	32480.42
671.808	32546.18
672.157	32503.24
672.507	32357.26
672.856	32313.19
673.205	32438.84
673.554	32614.2
673.904	32368.33
674.253	32472.73
674.602	32309.57
674.951	31934.89
675.3	31735.35
675.649	32406.07
675.998	32341.21
676.346	32317.03
676.695	32296.47
677.044	32052.86
677.393	32169.24
677.741	32251.27
678.09	32068
678.438	32047.21
678.787	32025.06
679.135	32130.6
679.484	31810.6
679.832	31930.38
680.181	31732.41
680.529	31831.85
680.877	31918.62
681.225	31565.19
681.573	32018.73
681.922	31617.39
682.27	31640.44
682.618	31494.45
682.966	31474.34
683.314	31494.23
683.661	31404.97
684.009	31230.51
684.357	31231.64
684.705	31068.25
685.053	31155.03
685.4	31164.52
685.748	30947.8
686.095	30916.39
686.443	30883.17
686.79	30745.77
687.138	30848.37
687.485	30747.58
687.832	30583.74
688.18	30686.79
688.527	30550.3
688.874	30444.09
689.221	30360.25
689.568	30395.05
689.915	30196.64
690.262	30171.55
690.609	30076.41
690.956	29979.69
691.303	30115.06
691.65	29818.34
691.997	29809.98
692.344	29646.37
692.69	29673.03
693.037	29641.62
693.383	29271.46
693.73	29540.16
694.077	29312.59
694.423	29244.12
694.769	29141.3
695.116	29155.98
695.462	28896.78
695.808	28874.18
696.155	28867.86
696.501	28670.57
696.847	28664.92
697.193	28356.23
697.539	28506.74
697.885	28336.35
698.231	28227.65
698.577	28178.38
698.923	28161.21
699.269	28048.67
699.614	27787.66
699.96	27758.51
700.306	27733.42
700.651	27601
700.997	27488.01
701.342	27518.51
701.688	27422.25
702.033	27375.47
702.379	27335.69
702.724	27248.01
703.069	27162.14
703.415	26808.93
703.76	26893.22
704.105	26946.55
704.45	26857.29
704.795	26662.94
705.14	26576.84
705.485	26624.07
705.83	26450.75
706.175	26491.42
706.52	26377.07
706.865	26119.23
707.209	26127.14
707.554	26042.85
707.899	26173.69
708.243	25839.46
708.588	25941.38
708.932	25589.3
709.277	25762.85
709.621	25564.67
709.966	25560.37
710.31	25564.44
710.654	25312.02
710.998	25403.99
711.342	25408.29
711.687	25349.98
712.031	25150.67
712.375	25084
712.719	25213.49
713.063	25126.26
713.407	25137.79
713.75	25107.28
714.094	25076.32
714.438	24887.85
714.782	25028.18
715.125	24754.52
715.469	24848.98
715.812	24700.28
716.156	24669.55
716.499	24770.11
716.843	24673.62
717.186	24467.52
717.53	24560.4
717.873	24610.57
718.216	24506.62
718.559	24351.59
718.902	24213.97
719.246	24390.01
719.589	24181.43
719.932	24185.95
720.275	24261.2
720.617	24170.35
720.96	24165.38
721.303	24122.44
721.646	24117.25
721.989	23904.15
722.331	24011.71
722.674	24072.73
723.016	24004.93
723.359	23977.59
723.701	24021.2
724.044	23874.09
724.386	23842.68
724.729	23926.74
725.071	23816.92
725.413	23804.04
725.755	23831.15
726.097	23808.78
726.439	23602.46
726.782	23724.72
727.124	23817.14
727.465	23708.9
727.807	23748.67
728.149	23708.22
728.491	23615.57
728.833	23733.3
729.175	23563.59
729.516	23607.2
729.858	23580.99
730.199	23644.94
730.541	23456.7
730.882	23421.22
731.224	23600.88
731.565	23516.59
731.906	23610.14
732.248	23590.03
732.589	23447.89
732.93	23397.27
733.271	23526.08
733.612	23453.08
733.953	23498.28
734.294	23397.72
734.635	23402.69
734.976	23417.6
735.317	23209.47
735.658	23351.84
735.999	23328.12
736.339	23339.64
736.68	23365.85
737.021	23405.85
737.361	23360.43
737.702	23411.96
738.042	23389.81
738.383	23309.58
738.723	23443.37
739.063	23344.39
739.404	23466.64
739.744	23300.77
740.084	23335.57
740.424	23346.42
740.764	23283.82
741.104	23358.4
741.444	23295.12
741.784	23195.92
742.124	23265.74
742.464	23322.69
742.804	23312.3
743.143	23249.02
743.483	23176.93
743.823	23099.19
744.162	23183.26
744.502	23210.83
744.841	23160.66
745.181	23260.09
745.52	23186.65
745.86	23133.32
746.199	23233.2
746.538	23186.65
746.877	23098.52
747.216	23299.64
747.556	23179.42
747.895	23295.8
748.234	23169.48
748.573	23127.44
748.911	23179.87
749.25	23157.27
749.589	23120.44
749.928	23171.51
750.267	23159.98
750.605	23166.99
750.944	23120.66
751.283	23088.57
751.621	23200.66
751.96	22995.24
752.298	22989.37
752.636	23096.03
752.975	23096.71
753.313	23045.64
753.651	23058.29
753.989	22921.12
754.327	22964.06
754.666	22807.23
755.004	22903.04
755.342	22857.17
755.679	22808.58
756.017	22766.55
756.355	22805.19
756.693	22636.83
757.031	22792.08
757.368	22627.12
757.706	22616.5
758.044	22522.94
758.381	22579.21
758.719	22475.93
759.056	22513.22
759.394	22462.15
759.731	22285.43
760.068	22319.78
760.405	22276.39
760.743	22136.73
761.08	22159.33
761.417	22066.68
761.754	22065.78
762.091	21933.8
762.428	21950.3
762.765	21855.16
763.102	21887.02
763.438	21725.67
763.775	21696.29
764.112	21702.17
764.449	21741.72
764.785	21632.57
765.122	21540.82
765.458	21437.54
765.795	21375.85
766.131	21377.21
766.467	21215.63
766.804	21161.17
767.14	21127.95
767.476	21160.26
767.812	20969.08
768.148	21127.27
768.485	20880.5
768.821	20767.5
769.157	20816.77
769.492	20730.9
769.828	20706.72
770.164	20514.86
770.5	20392.15
770.836	20448.42
771.171	20299.04
771.507	20196.67
771.842	20128.65
772.178	20173.62
772.513	20135.66
772.849	20065.15
773.184	19999.16
773.519	20032.16
773.855	19916.91
774.19	19804.82
774.525	19672.62
774.86	19690.7
775.195	19627.2
775.53	19562.34
775.865	19516.46
776.2	19332.51
776.535	19201.9
776.87	19252.06
777.205	19085.06
777.539	19040.09
777.874	19149.69
778.209	18879.42
778.543	18891.62
778.878	18737.05
779.212	18853.66
779.547	18798.52
779.881	18747.22
780.215	18523.27
780.55	18544.29
780.884	18539.31
781.218	18386.1
781.552	18420.45
781.886	18299.1
782.22	18277.4
782.554	18177.74
782.888	17996.5
783.222	17905.89
783.556	17902.04
783.889	17846.68
784.223	17735.72
784.557	17640.13
784.89	17705.44
785.224	17675.38
785.557	17559
785.891	17501.38
786.224	17503.41
786.558	17422.06
786.891	17182.51
787.224	17268.16
787.557	17117.43
787.891	17124.44
788.224	17101.61
788.557	17048.96
788.89	17011.67
789.223	16963.09
789.556	16786.37
789.888	16798.34
790.221	16733.03
790.554	16584.11
790.887	16601.29
791.219	16544.56
791.552	16459.14
791.884	16478.58
792.217	16378.69
792.549	16352.48
792.882	16083.56
793.214	16187.96
793.546	16234.06
793.879	16116.33
794.211	15927.18
794.543	16090.79
794.875	16030.45
795.207	16054.18
795.539	15878.82
795.871	15827.3
796.203	15758.14
796.535	15599.96
796.867	15615.55
797.198	15596.57
797.53	15568.09
797.862	15523.12
798.193	15459.62
798.525	15348.89
798.856	15389.34
799.188	15301.21
799.519	15195.22
799.85	15075.9
800.182	15139.63
800.513	15123.36
800.844	15021.67
801.175	15020.99
801.506	15056.92
801.837	14888.34
802.168	14837.27
802.499	14816.47
802.83	14847.21
803.161	14686.53
803.491	14745.06
803.822	14726.08
804.153	14720.88
804.483	14426.2
804.814	14461
805.145	14459.65
805.475	14500.1
805.805	14514.56
806.136	14454
806.466	14407.22
806.796	14367.67
807.126	14192.54
807.457	14227.79
807.787	14169.71
808.117	14169.26
808.447	14049.72
808.777	14076.16
809.107	13998.42
809.436	13976.95
809.766	13975.37
810.096	13828.93
810.426	13884.3
810.755	13917.97
811.085	13869.16
811.414	13864.18
811.744	13703.51
812.073	13649.27
812.403	13781.93
812.732	13659.22
813.061	13605.43
813.39	13512.33
813.719	13448.6
814.049	13636.39
814.378	13514.14
814.707	13340.36
815.036	13453.35
815.365	13352.78
815.693	13241.37
816.022	13316.4
816.351	13123.41
816.68	13079.57
817.008	13160.93
817.337	13111.21
817.665	13046.58
817.994	13015.84
818.322	13045.67
818.651	13019.23
818.979	12975.39
819.307	12906.24
819.636	12900.14
819.964	12806.58
820.292	12839.58
820.62	12833.02
820.948	12797.54
821.276	12901.27
821.604	12913.25
821.932	12811.33
822.259	12770.88
822.587	12797.09
822.915	12839.13
823.243	12810.65
823.57	12781.05
823.898	12770.88
824.225	12718.9
824.553	12743.76
824.88	12757.32
825.207	12806.58
825.535	12715.29
825.862	12838.9
826.189	12704.67
826.516	12818.56
826.843	12736.3
827.17	12828.96
827.497	12830.31
827.824	12830.31
828.151	12785.79
828.478	12852.91
828.805	12844.32
829.131	12777.88
829.458	12800.93
829.785	12635.74
830.111	12716.87
830.438	12784.44
830.764	12683.42
831.09	12704.89
831.417	12677.77
831.743	12673.03
832.069	12713.03
832.395	12590.54
832.722	12765.91
833.048	12619.24
833.374	12694.72
833.7	12631
834.026	12640.71
834.351	12686.36
834.677	12684.55
835.003	12564.78
835.329	12541.51
835.654	12578.34
835.98	12507.83
836.306	12509.42
836.631	12495.63
836.956	12509.87
837.282	12557.55
837.607	12424.9
837.932	12464.22
838.258	12444.33
838.583	12348.74
838.908	12352.36
839.233	12409.76
839.558	12266.03
839.883	12261.29
840.208	12274.39
840.533	12285.24
840.858	12277.56
841.182	12310.1
841.507	12212.93
841.832	12093.16
842.156	12134.96
842.481	12142.87
842.805	12123.21
843.13	12074.4
843.454	12028.75
843.778	12044.12
844.103	12047.96
844.427	11931.35
844.751	11969.32
845.075	11905.36
845.399	11833.28
845.723	11775.88
846.047	11771.81
846.371	11746.95
846.695	11671.7
847.019	11548.99
847.343	11591.47
847.666	11516.9
847.99	11381.08
848.313	11461.08
848.637	11355.77
848.96	11340.86
849.284	11299.96
849.607	11186.29
849.931	11136.8
850.254	11097.25
850.577	11101.54
850.9	11116.23
851.223	10971.38
851.546	10963.69
851.869	10967.76
852.192	10915.79
852.515	10908.33
852.838	10862.68
853.161	10790.14
853.483	10811.61
853.806	10723.25
854.129	10730.71
854.451	10656.13
854.774	10622.01
855.096	10586.76
855.419	10552.41
855.741	10579.98
856.063	10485.74
856.385	10476.02
856.708	10513.76
857.03	10351.28
857.352	10372.98
857.674	10291.62
857.996	10322.36
858.318	10264.05
858.64	10204.17
858.961	10228.35
859.283	10208.69
859.605	10046.66
859.926	10181.79
860.248	10074
860.57	10043.27
860.891	10095.92
861.212	10048.92
861.534	9951.07
861.855	9969.14
862.176	9972.53
862.498	9957.62
862.819	9969.14
863.14	9887.11
863.461	9894.57
863.782	9860.45
864.103	9892.08
864.424	9840.33
864.745	9920.56
865.065	9851.63
865.386	9775.7
865.707	9814.8
866.027	9784.29
866.348	9822.48
866.668	9708.13
866.989	9705.65
867.309	9630.17
867.63	9704.97
867.95	9623.39
868.27	9614.58
868.59	9594.01
868.91	9578.42
869.23	9564.64
869.55	9568.03
869.87	9627.01
870.19	9486.45
870.51	9574.35
870.83	9539.55
871.15	9448.48
871.469	9423.17
871.789	9471.53
872.109	9413
872.428	9360.35
872.748	9454.36
873.067	9473.34
873.386	9360.12
873.706	9358.09
874.025	9358.99
874.344	9292.33
874.663	9266.79
874.982	9295.26
875.301	9282.38
875.62	9245.77
875.939	9236.73
876.258	9268.82
876.577	9206
876.896	9205.55
877.214	9219.79
877.533	9190.86
877.852	9170.3
878.17	9156.51
878.489	9163.97
878.807	9110.18
879.125	9064.54
879.444	9078.32
879.762	8999.68
880.08	9063.63
880.398	9031.54
880.716	9043.52
881.034	9036.74
881.352	8971.2
881.67	9012.79
881.988	8960.81
882.306	8938.21
882.624	8895.95
882.941	8904.09
883.259	8869.96
883.577	8874.94
883.894	8874.03
884.212	8787.48
884.529	8819.57
884.846	8779.12
885.164	8741.15
885.481	8681.72
885.798	8801.27
886.115	8688.05
886.432	8685.79
886.75	8659.57
887.067	8643.98
887.383	8622.97
887.7	8627.71
888.017	8535.28
888.334	8578.22
888.651	8498
888.967	8488.05
889.284	8467.26
889.6	8401.05
889.917	8389.75
890.233	8394.5
890.55	8346.36
890.866	8370.77
891.182	8350.88
891.498	8280.38
891.815	8296.42
892.131	8261.84
892.447	8246.7
892.763	8276.53
893.079	8195.41
893.395	8153.6
893.71	8107.27
894.026	8219.81
894.342	8121.51
894.657	8060.72
894.973	8062.08
895.289	8066.82
895.604	8008.52
895.92	7959.03
896.235	8011.91
896.55	7965.36
896.865	7971.68
897.181	7891.91
897.496	7912.25
897.811	7825.47
898.126	7766.04
898.441	7815.08
898.756	7752.93
899.071	7743.67
899.386	7714.51
899.7	7664.12
900.015	7626.16
900.33	7581.41
900.644	7563.56
900.959	7517.68
901.273	7523.11
901.588	7507.74
901.902	7427.74
902.216	7384.35
902.531	7394.98
902.845	7343.22
903.159	7297.8
903.473	7337.58
903.787	7313.85
904.101	7246.73
904.415	7250.8
904.729	7205.6
905.042	7185.26
905.356	7156.56
905.67	7154.98
905.984	7102.55
906.297	7045.61
906.611	6998.6
906.924	7088.32
907.237	7053.29
907.551	7041.54
907.864	6986.62
908.177	6979.39
908.491	6968.32
908.804	6858.72
909.117	6844.26
909.43	6797.02
909.743	6808.55
910.056	6782.11
910.368	6760.64
910.681	6754.31
910.994	6652.62
911.307	6649.46
911.619	6599.97
911.932	6678.38
912.244	6619.4
912.557	6605.17
912.869	6529.24
913.181	6571.04
913.494	6491.27
913.806	6448.11
914.118	6457.37
914.43	6433.87
914.742	6360.2
915.054	6324.27
915.366	6328.56
915.678	6333.08
915.99	6286.98
916.302	6253.54
916.613	6183.93
916.925	6188.68
917.236	6198.62
917.548	6159.98
917.859	6173.31
918.171	6174.44
918.482	6115.91
918.794	6100.77
919.105	6077.95
919.416	6038.17
919.727	5977.39
920.038	5973.32
920.349	5981.45
920.66	5913.43
920.971	5893.09
921.282	5885.18
921.593	5799.99
921.903	5814.9
922.214	5819.65
922.525	5764.51
922.835	5737.17
923.146	5709.37
923.456	5681.35
923.767	5655.36
924.077	5658.98
924.387	5651.52
924.697	5603.16
925.008	5609.26
925.318	5563.61
925.628	5599.32
925.938	5462.37
926.248	5468.92
926.558	5447.23
926.867	5496.27
927.177	5413.56
927.487	5402.71
927.796	5291.53
928.106	5298.08
928.416	5342.37
928.725	5336.5
929.034	5270.06
929.344	5285.2
929.653	5208.59
929.962	5211.3
930.271	5214.92
930.581	5142.6
930.89	5142.83
931.199	5131.76
931.508	5109.84
931.817	5065.32
932.125	5059.67
932.434	4991.42
932.743	5000.24
933.051	5016.73
933.36	4974.25
933.669	4929.28
933.977	4951.2
934.286	4943.97
934.594	4954.14
934.902	4857.64
935.21	4884.76
935.519	4854.02
935.827	4781.03
936.135	4782.61
936.443	4757.53
936.751	4781.03
937.059	4716.63
937.367	4678.44
937.674	4707.59
937.982	4672.11
938.29	4659.23
938.597	4601.83
938.905	4627.59
939.213	4588.95
939.52	4514.37
939.827	4573.58
940.135	4569.96
940.442	4474.6
940.749	4513.47
941.056	4517.54
941.363	4503.53
941.67	4432.12
941.977	4429.86
942.284	4371.78
942.591	4404.32
942.898	4330.87
943.205	4390.31
943.511	4286.58
943.818	4282.97
944.125	4319.12
944.431	4271.44
944.738	4227.6
945.044	4239.35
945.35	4236.87
945.657	4233.48
945.963	4152.57
946.269	4162.07
946.575	4174.72
946.881	4148.73
947.187	4131.11
947.493	4100.82
947.799	4077.32
948.105	4104.44
948.41	4038.45
948.716	4044.78
949.022	4041.84
949.327	4013.37
949.633	3976.08
949.938	3968.4
950.244	3970.88
950.549	3919.59
950.854	3884.56
951.16	3896.31
951.465	3853.83
951.77	3856.99
952.075	3856.09
952.38	3839.14
952.685	3878.01
952.99	3795.52
953.294	3787.61
953.599	3735.41
953.904	3783.32
954.209	3729.08
954.513	3730.66
954.818	3670.55
955.122	3672.81
955.426	3690.89
955.731	3686.15
956.035	3614.74
956.339	3615.41
956.643	3617.45
956.948	3578.8
957.252	3562.53
957.556	3554.17
957.86	3554.85
958.163	3525.7
958.467	3516.88
958.771	3484.34
959.075	3521.63
959.378	3464.68
959.682	3458.58
959.985	3448.64
960.289	3464.68
960.592	3383.56
960.896	3387.4
961.199	3387.85
961.502	3397.34
961.805	3352.6
962.108	3320.28
962.411	3306.95
962.714	3313.27
963.017	3321.18
963.32	3343.33
963.623	3292.48
963.926	3244.35
964.228	3237.57
964.531	3238.02
964.833	3231.02
965.136	3204.8
965.438	3174.75
965.741	3187.4
966.043	3171.81
966.345	3156.67
966.648	3155.09
966.95	3140.85
967.252	3091.59
967.554	3093.17
967.856	3087.97
968.158	3043
968.46	3094.3
968.761	3043
969.063	3056.78
969.365	3024.24
969.666	2986.28
969.968	2980.63
970.269	2964.13
970.571	2988.09
970.872	2937.01
971.174	2925.04
971.475	2891.14
971.776	2898.82
972.077	2876
972.378	2920.06
972.679	2873.74
972.98	2884.13
973.281	2845.94
973.582	2835.55
973.883	2852.95
974.183	2813.63
974.484	2825.83
974.785	2791.25
975.085	2780.41
975.386	2788.09
975.686	2753.74
975.986	2776.11
976.287	2738.37
976.587	2704.93
976.887	2689.34
977.187	2711.48
977.487	2664.7
977.787	2696.34
978.087	2663.35
978.387	2633.52
978.687	2637.59
978.987	2625.61
979.286	2600.07
979.586	2598.49
979.885	2536.57
980.185	2584.71
980.484	2607.08
980.784	2561.2
981.083	2554.42
981.382	2522.33
981.682	2519.62
981.981	2524.14
982.28	2496.8
982.579	2504.26
982.878	2510.81
983.177	2480.08
983.475	2492.73
983.774	2460.87
984.073	2446.63
984.372	2431.04
984.67	2424.26
984.969	2427.2
985.267	2414.99
985.566	2438.72
985.864	2361.66
986.162	2390.81
986.461	2374.32
986.759	2372.51
987.057	2345.39
987.355	2342.45
987.653	2320.53
987.951	2294.54
988.249	2301.55
988.547	2295.67
988.844	2302.68
989.142	2261.78
989.44	2266.52
989.737	2261.32
990.035	2229.46
990.332	2248.9
990.63	2217.94
990.927	2208.22
991.224	2213.42
991.521	2164.6
991.819	2169.35
992.116	2170.48
992.413	2169.58
992.71	2138.62
993.006	2102.46
993.303	2126.64
993.6	2103.36
993.897	2118.28
994.193	2093.19
994.49	2074.44
994.787	2052.29
995.083	2066.53
995.379	2094.1
995.676	2029.47
995.972	2045.06
996.268	2054.1
996.565	2012.97
996.861	2056.13
997.157	2005.51
997.453	1995.12
997.749	1986.3
998.044	1982.01
998.34	1962.12
998.636	1928.23
998.932	1928.23
999.227	1911.05
999.523	1911.28
999.818	1903.82
1000.114	1897.04
1000.409	1902.01
1000.704	1871.28
1001	1870.83
1001.295	1873.54
1001.59	1855.01
1001.885	1854.78
1002.18	1834.44
1002.475	1829.92
1002.77	1850.26
1003.065	1774.78
1003.359	1796.03
1003.654	1764.84
1003.949	1744.95
1004.243	1762.13
1004.538	1740.21
1004.832	1766.87
1005.127	1760.77
1005.421	1732.07
1005.715	1733.43
1006.009	1710.6
1006.304	1698.18
1006.598	1709.93
1006.892	1703.83
1007.186	1661.57
1007.48	1670.15
1007.773	1640.32
1008.067	1642.13
1008.361	1649.59
1008.655	1620.21
1008.948	1622.47
1009.242	1634.9
1009.535	1610.95
1009.829	1593.77
1010.122	1612.75
1010.415	1576.6
1010.708	1568.46
1011.001	1578.18
1011.295	1545.19
1011.588	1555.35
1011.881	1535.47
1012.173	1530.5
1012.466	1509.25
1012.759	1516.49
1013.052	1543.6
1013.344	1508.8
1013.637	1493.89
1013.93	1468.13
1014.222	1467
1014.514	1422.93
1014.807	1474.23
1015.099	1419.99
1015.391	1438.07
1015.683	1437.17
1015.976	1451.18
1016.268	1416.83
1016.56	1381.8
1016.851	1372.76
1017.143	1370.5
1017.435	1411.86
1017.727	1356.26
1018.018	1366.43
1018.31	1371.63
1018.602	1328.24
1018.893	1359.2
1019.185	1337.06
1019.476	1323.04
1019.767	1316.72
1020.058	1320.33
1020.35	1303.61
1020.641	1323.72
1020.932	1299.99
1021.223	1297.96
1021.514	1268.36
1021.804	1244.63
1022.095	1255.25
1022.386	1247.11
1022.677	1238.98
1022.967	1195.36
1023.258	1225.65
1023.548	1228.36
1023.839	1209.83
1024.129	1165.08
1024.419	1182.03
1024.709	1189.26
1025	1186.1
1025.29	1147.68
1025.58	1143.84
1025.87	1146.55
1026.16	1130.96
1026.449	1134.57
1026.739	1142.71
1027.029	1114.01
1027.319	1139.55
1027.608	1114.01
1027.898	1098.19
1028.187	1112.2
1028.477	1097.29
1028.766	1086.67
1029.055	1065.2
1029.344	1035.82
1029.634	1081.47
1029.923	1076.95
1030.212	1046.89
1030.501	1038.31
1030.79	1027.68
1031.078	1025.43
1031.367	1020.45
1031.656	1014.8
1031.945	1008.7
1032.233	987.46
1032.522	977.74
1032.81	990.17
1033.099	993.34
1033.387	990.62
1033.675	980.45
1033.963	984.75
1034.251	971.42
1034.54	964.86
1034.828	955.14
1035.116	942.26
1035.403	949.72
1035.691	938.42
1035.979	914.69
1036.267	925.31
1036.554	921.47
1036.842	879.44
1037.129	888.25
1037.417	913.34
1037.704	894.81
1037.992	882.6
1038.279	883.73
1038.566	881.47
1038.853	881.47
1039.14	881.47
