Data from tablewood_brown_FLMS001491_068.txt Node
Date: Tue Feb 07 11:10:50 GMT 2017
User: dcchb
Spectrometer: FLMS00149
Trigger mode: 0
Integration Time (sec): 2.000000E-2
Scans to average: 10
Electric dark correction enabled: true
Nonlinearity correction enabled: false
Boxcar width: 0
XAxis mode: Wavelengths
Number of Pixels in Spectrum: 2048
>>>>>Begin Spectral Data<<<<<
341.393	-8.69
341.776	-8.69
342.16	-8.69
342.543	-82.36
342.927	-68.35
343.31	-71.51
343.693	-75.8
344.077	-79.87
344.46	-45.3
344.843	-54.79
345.226	-28.8
345.61	-26.31
345.993	-20.89
346.376	2.16
346.759	3.06
347.142	20.01
347.525	40.58
347.908	47.81
348.291	94.81
348.674	88.71
349.057	106.11
349.44	144.98
349.823	144.08
350.206	168.26
350.588	202.16
350.971	245.77
351.354	229.27
351.737	250.06
352.119	248.26
352.502	272.21
352.884	281.02
353.267	298.42
353.65	297.75
354.032	303.62
354.414	316.73
354.797	336.39
355.179	340.23
355.562	348.14
355.944	322.6
356.326	334.36
356.709	334.13
357.091	336.39
357.473	356.05
357.855	371.42
358.238	352.21
358.62	372.09
359.002	349.04
359.384	370.06
359.766	355.6
360.148	356.5
360.53	349.5
360.912	352.89
361.294	353.56
361.676	330.29
362.057	353.11
362.439	354.69
362.821	347.69
363.203	323.73
363.584	364.64
363.966	339.1
364.348	344.98
364.729	323.51
365.111	342.94
365.493	328.71
365.874	324.41
366.256	323.28
366.637	317.63
367.019	325.09
367.4	327.35
367.781	345.88
368.163	341.81
368.544	348.14
368.925	318.31
369.306	329.84
369.688	323.73
370.069	339.1
370.45	319.21
370.831	341.81
371.212	343.62
371.593	343.85
371.974	352.43
372.355	318.08
372.736	339.78
373.117	330.74
373.498	341.81
373.879	344.75
374.26	332.55
374.641	363.51
375.021	339.1
375.402	345.88
375.783	337.07
376.163	366.67
376.544	359.67
376.925	342.94
377.305	341.59
377.686	347.24
378.066	352.89
378.447	356.05
378.827	362.15
379.208	364.19
379.588	360.12
379.968	376.61
380.349	375.26
380.729	356.28
381.109	356.05
381.489	365.99
381.87	372.55
382.25	361.02
382.63	379.55
383.01	375.03
383.39	351.3
383.77	373
384.15	390.63
384.53	370.06
384.91	387.46
385.29	391.3
385.67	401.92
386.049	395.14
386.429	382.26
386.809	381.81
387.189	399.44
387.568	400.34
387.948	411.64
388.328	396.73
388.707	404.18
389.087	405.99
389.466	412.77
389.846	388.37
390.225	415.26
390.605	417.97
390.984	413
391.363	415.94
391.743	423.62
392.122	421.81
392.501	415.48
392.881	448.48
393.26	431.98
393.639	447.57
394.018	442.6
394.397	427.46
394.776	439.21
395.155	452.54
395.534	466.1
395.913	432.43
396.292	441.47
396.671	471.75
397.05	488.7
397.429	454.8
397.808	458.87
398.186	456.39
398.565	460.68
398.944	487.8
399.323	490.06
399.701	504.97
400.08	492.32
400.458	499.55
400.837	493.9
401.215	495.71
401.594	499.1
401.972	496.16
402.351	493
402.729	501.13
403.107	546.1
403.486	535.93
403.864	518.08
404.242	541.81
404.62	540.23
404.999	537.06
405.377	532.09
405.755	552.43
406.133	543.39
406.511	537.06
406.889	566.21
407.267	556.72
407.645	576.84
408.023	563.05
408.401	588.81
408.779	586.1
409.156	615.7
409.534	612.54
409.912	594.69
410.29	624.52
410.667	604.18
411.045	611.64
411.422	630.17
411.8	633.1
412.178	624.74
412.555	631.07
412.933	643.73
413.31	645.76
413.687	644.63
414.065	655.25
414.442	662.48
414.819	665.19
415.197	674.46
415.574	690.73
415.951	695.93
416.328	713.1
416.705	701.35
417.082	708.81
417.46	690.73
417.837	709.71
418.214	717.62
418.591	744.51
418.967	715.59
419.344	716.49
419.721	744.06
420.098	753.33
420.475	728.02
420.852	752.42
421.228	755.81
421.605	750.39
421.982	727.11
422.358	778.41
422.735	794
423.111	767.11
423.488	784.74
423.864	804.63
424.241	785.87
424.617	792.42
424.994	821.8
425.37	815.02
425.746	807.34
426.123	835.81
426.499	822.25
426.875	838.3
427.251	845.98
427.627	860.22
428.003	850.5
428.379	908.13
428.756	888.24
429.132	892.76
429.507	900.89
429.883	911.29
430.259	925.07
430.635	925.07
431.011	926.66
431.387	966.88
431.763	967.11
432.138	960.1
432.514	1008.46
432.89	987.45
433.265	1000.55
433.641	1007.56
434.016	1007.78
434.392	1032.19
434.767	1046.2
435.143	1033.32
435.518	1089.82
435.894	1066.99
436.269	1085.07
436.644	1079.42
437.02	1104.5
437.395	1101.57
437.77	1102.7
438.145	1132.98
438.52	1145.41
438.895	1141.79
439.271	1181.79
439.646	1186.99
440.021	1178.63
440.395	1198.06
440.77	1161.9
441.145	1184.05
441.52	1215.46
441.895	1233.77
442.27	1251.39
442.645	1223.82
443.019	1240.32
443.394	1238.51
443.769	1281.9
444.143	1255.46
444.518	1295.01
444.892	1290.26
445.267	1267.21
445.641	1290.04
446.016	1313.99
446.39	1307.89
446.764	1323.71
447.139	1307.66
447.513	1301.56
447.887	1340.88
448.262	1336.59
448.636	1346.76
449.01	1364.16
449.384	1386.08
449.758	1392.63
450.132	1405.97
450.506	1398.73
450.88	1453.2
451.254	1429.24
451.628	1431.5
452.002	1442.35
452.376	1481.22
452.75	1484.16
453.123	1477.6
453.497	1515.79
453.871	1511.27
454.244	1546.75
454.618	1543.82
454.992	1545.4
455.365	1579.97
455.739	1619.75
456.112	1644.6
456.486	1629.24
456.859	1631.5
457.232	1650.71
457.606	1680.53
457.979	1706.75
458.352	1716.24
458.725	1738.16
459.099	1753.98
459.472	1793.53
459.845	1811.6
460.218	1861.1
460.591	1805.05
460.964	1838.72
461.337	1894.99
461.71	1896.57
462.083	1901.77
462.456	1947.87
462.829	1962.34
463.201	1974.76
463.574	2007.31
463.947	2003.92
464.32	2109.9
464.692	2087.08
465.065	2122.78
465.438	2120.3
465.81	2180.86
466.183	2204.36
466.555	2237.58
466.928	2273.06
467.3	2278.49
467.672	2273.29
468.045	2380.18
468.417	2347.86
468.789	2346.73
469.161	2422.44
469.534	2481.19
469.906	2516.22
470.278	2569.1
470.65	2578.82
471.022	2621.08
471.394	2640.51
471.766	2697.91
472.138	2728.87
472.51	2781.75
472.882	2840.73
473.253	2892.48
473.625	2961.63
473.997	2997.11
474.369	3027.39
474.74	3058.58
475.112	3156.43
475.484	3235.52
475.855	3267.61
476.227	3315.97
476.598	3423.31
476.97	3500.6
477.341	3545.34
477.713	3600.71
478.084	3642.29
478.455	3700.37
478.827	3803.64
479.198	3877.31
479.569	3920.7
479.94	4011.32
480.311	4084.54
480.682	4187.59
481.053	4273.69
481.424	4354.14
481.795	4429.16
482.166	4510.52
482.537	4605.66
482.908	4643.62
483.279	4695.14
483.65	4842.49
484.021	4936.95
484.391	4990.5
484.762	5068.92
485.133	5099.2
485.503	5200.89
485.874	5310.72
486.244	5392.53
486.615	5468.68
486.985	5533.31
487.356	5631.39
487.726	5697.6
488.097	5764.04
488.467	5854.44
488.837	6000.42
489.207	6111.15
489.578	6156.35
489.948	6184.82
490.318	6283.58
490.688	6309.11
491.058	6446.51
491.428	6573.06
491.798	6528.54
492.168	6751.81
492.538	6798.14
492.908	6863
493.278	6946.61
493.648	6950.45
494.017	7060.51
494.387	7102.54
494.757	7197.68
495.126	7261.41
495.496	7308.86
495.866	7338.24
496.235	7472.92
496.605	7527.61
496.974	7587.5
497.344	7700.04
497.713	7707.27
498.082	7809.87
498.452	7892.35
498.821	7928.73
499.19	7928.28
499.559	8051.44
499.928	8096.19
500.298	8148.61
500.667	8212.11
501.036	8175.96
501.405	8390.19
501.774	8401.49
502.143	8427.25
502.512	8430.41
502.88	8587.7
503.249	8609.17
503.618	8687.81
503.987	8712.89
504.356	8840.8
504.724	8819.1
505.093	8914.24
505.462	8932.77
505.83	9051.19
506.199	9088.48
506.567	9216.61
506.936	9203.73
507.304	9277.85
507.672	9342.48
508.041	9462.93
508.409	9545.19
508.777	9608.46
509.145	9695.24
509.514	9715.13
509.882	9801.68
510.25	9891.17
510.618	9930.94
510.986	10033.08
511.354	10129.58
511.722	10236.24
512.09	10381.55
512.458	10318.05
512.826	10436.91
513.193	10502.45
513.561	10611.83
513.929	10628.55
514.297	10771.82
514.664	10855.21
515.032	10869.9
515.4	11053.17
515.767	11063.34
516.135	11106.73
516.502	11081.87
516.869	11287.51
517.237	11378.58
517.604	11432.82
517.972	11557.34
518.339	11668.97
518.706	11668.97
519.073	11739.71
519.44	11875.52
519.808	12054.05
520.175	12082.75
520.542	12197.09
520.909	12348.5
521.276	12318
521.643	12529.29
522.009	12569.51
522.376	12596.63
522.743	12778.1
523.11	12879.11
523.477	13097.18
523.843	13060.57
524.21	13251.98
524.577	13410.4
524.943	13534.01
525.31	13592.09
525.676	13682.93
526.043	13822.36
526.409	13899.87
526.776	14008.8
527.142	14114.11
527.508	14189.81
527.874	14283.37
528.241	14418.51
528.607	14390.71
528.973	14592.74
529.339	14608.56
529.705	14778.27
530.071	14881.77
530.437	14964.25
530.803	15052.39
531.169	15091.48
531.535	15093.52
531.901	15176.9
532.267	15259.16
532.632	15380.74
532.998	15429.33
533.364	15530.57
533.73	15608.98
534.095	15753.16
534.461	15822.31
534.826	15915.87
535.192	16037.67
535.557	16071.12
535.923	16107.73
536.288	16183.66
536.653	16278.12
537.019	16245.12
537.384	16372.13
537.749	16391.11
538.114	16454.38
538.479	16539.13
538.845	16566.02
539.21	16598.79
539.575	16733.92
539.94	16730.53
540.305	16863.19
540.67	16898.67
541.034	16923.98
541.399	16929.4
541.764	17053.46
542.129	17187.92
542.494	17151.77
542.858	17236.96
543.223	17331.2
543.587	17385.88
543.952	17394.47
544.316	17476.05
544.681	17551.08
545.045	17656.84
545.41	17735.93
545.774	17805.08
546.138	17835.36
546.503	17912.42
546.867	18010.28
547.231	17946.77
547.595	18064.96
547.959	18196.03
548.324	18184.73
548.688	18243.72
549.052	18348.8
549.416	18451.62
549.779	18512.63
550.143	18529.13
550.507	18663.37
550.871	18836.92
551.235	18881.21
551.599	19053.41
551.962	19121.43
552.326	19045.95
552.689	19246.17
553.053	19316.68
553.417	19302.9
553.78	19596.22
554.143	19594.41
554.507	19800.74
554.87	19891.36
555.234	20146.04
555.597	19967.06
555.96	20066.72
556.323	20322.76
556.686	20319.14
557.05	20529.08
557.413	20683.43
557.776	20809.75
558.139	20845.45
558.502	21039.12
558.865	21130.42
559.228	21315.05
559.59	21441.6
559.953	21618.09
560.316	21896.5
560.679	21899.21
561.041	22041.81
561.404	22156.38
561.767	22454.68
562.129	22329.94
562.492	22604.28
562.854	22657.84
563.217	22715.01
563.579	22914.1
563.941	23112.97
564.304	23217.82
564.666	23484.03
565.028	23662.56
565.39	23803.12
565.753	24007.63
566.115	24153.39
566.477	24335.98
566.839	24432.03
567.201	24662.76
567.563	24784.11
567.925	24974.16
568.287	25040.37
568.648	25175.96
569.01	25566.91
569.372	25683.75
569.734	25787.25
570.095	25912.67
570.457	26198.99
570.819	26391.3
571.18	26441.69
571.542	26717.62
571.903	26747.22
572.265	26988.8
572.626	27180.2
572.987	27211.39
573.349	27310.82
573.71	27517.14
574.071	27812.5
574.432	27986.06
574.794	28021.76
575.155	28249.1
575.516	28153.51
575.877	28581.52
576.238	28619.49
576.599	28839.37
576.96	28874.85
577.32	29052.92
577.681	29169.98
578.042	29348.28
578.403	29380.82
578.763	29525.68
579.124	29642.74
579.485	29938.32
579.845	30007.93
580.206	30021.03
580.566	30134.48
580.927	30240.91
581.287	30524.97
581.648	30478.87
582.008	30665.76
582.368	30692.88
582.728	30670.51
583.089	30812.2
583.449	30868.92
583.809	30977.39
584.169	31119.76
584.529	31033.44
584.889	31347.33
585.249	31124.51
585.609	31301
585.969	31460.54
586.329	31276.14
586.688	31417.83
587.048	31504.38
587.408	31374.67
587.768	31509.13
588.127	31495.12
588.487	31550.26
588.846	31770.59
589.206	31611.73
589.565	31662.35
589.925	31937.14
590.284	31778.27
590.643	32054.65
591.003	32052.84
591.362	32038.61
591.721	31959.29
592.08	32048.55
592.44	32206.51
592.799	32195.89
593.158	32119.96
593.517	32175.78
593.876	32256.45
594.235	32249.67
594.593	32334.19
594.952	32450.12
595.311	32186.17
595.67	32456.45
596.029	32644.69
596.387	32520.85
596.746	32596.33
597.104	32479.05
597.463	32423.91
597.822	32627.07
598.18	32571.93
598.538	32535.54
598.897	32757.46
599.255	32620.06
599.613	32921.07
599.972	32828.64
600.33	32839.94
600.688	32628.87
601.046	32972.59
601.404	32995.64
601.762	32860.96
602.12	33001.07
602.478	32933.5
602.836	33020.28
603.194	32906.83
603.552	33009.88
603.91	32915.42
604.268	33053.27
604.625	32929.43
604.983	33201.06
605.341	33007.62
605.698	33279.93
606.056	33266.6
606.413	33103.66
606.771	33321.28
607.128	33330.78
607.485	33172.36
607.843	33246.26
608.2	33529.19
608.557	33612.8
608.914	33416.65
609.272	33616.42
609.629	33634.5
609.986	33750.88
610.343	33547.27
610.7	33738.9
611.057	33880.37
611.414	33604.89
611.771	33925.34
612.127	33885.56
612.484	33923.08
612.841	33960.14
613.198	33837.2
613.554	33930.53
613.911	34164.43
614.267	34148.83
614.624	34030.42
614.98	34162.62
615.337	34319.45
615.693	34341.6
616.05	34140.02
616.406	34383.4
616.762	34288.27
617.118	34248.49
617.475	34441.03
617.831	34488.26
618.187	34356.96
618.543	34514.25
618.899	34606.22
619.255	34501.82
619.611	34495.49
619.967	34585.43
620.323	34752.43
620.678	34562.16
621.034	34603.74
621.39	34539.33
621.746	34497.53
622.101	35082.14
622.457	34697.29
622.812	34858.19
623.168	34827.23
623.523	34934.8
623.879	35104.97
624.234	34683.96
624.589	34922.82
624.945	34947.68
625.3	34949.26
625.655	34738.65
626.01	34793.56
626.365	34944.52
626.72	34839.21
627.075	34785.65
627.43	34777.52
627.785	34761.02
628.14	34916.27
628.495	34718.31
628.85	34724.19
629.205	34827.69
629.559	34700.91
629.914	34732.77
630.269	34726.9
630.623	34709.95
630.978	34577.97
631.332	34752.66
631.687	34787.69
632.041	34555.38
632.396	34623.85
632.75	34567.13
633.104	34467.24
633.459	34485.55
633.813	34428.37
634.167	34356.74
634.521	34399.67
634.875	34402.39
635.229	34381.14
635.583	34223.18
635.937	34113.35
636.291	34226.35
636.645	34110.42
636.999	34097.08
637.352	34318.77
637.706	33999.91
638.06	34056.86
638.413	33963.75
638.767	33892.12
639.121	33962.85
639.474	33782.97
639.828	33707.94
640.181	33865.23
640.534	33779.35
640.888	33809.18
641.241	33613.48
641.594	33825.9
641.947	33873.13
642.301	33538.45
642.654	33679.24
643.007	33698.9
643.36	33625.01
643.713	33651.22
644.066	33698.68
644.419	33419.36
644.771	33261.85
645.124	32936.21
645.477	32882.43
645.83	32730.34
646.182	32693.5
646.535	32578.25
646.888	32559.5
647.24	32477.69
647.593	32599.95
647.945	32458.71
648.298	32343.01
648.65	32277.47
649.002	32236.34
649.355	32394.98
649.707	32408.31
650.059	32499.84
650.411	32856.21
650.763	32746.38
651.115	33192.93
651.467	33006.49
651.819	33089.43
652.171	33008.3
652.523	32971.46
652.875	33016.89
653.227	32893.5
653.578	33044
653.93	33090.1
654.282	32897.57
654.633	32779.6
654.985	32916.78
655.337	32892.14
655.688	32882.65
656.039	33058.01
656.391	32810.11
656.742	32794.52
657.094	32865.48
657.445	33002.65
657.796	32862.31
658.147	32841.3
658.498	32701.41
658.849	32909.54
659.2	32799.72
659.551	32794.07
659.902	32826.38
660.253	32739.15
660.604	32735.09
660.955	32727.18
661.306	32790.68
661.656	32750.23
662.007	32866.38
662.358	32793.62
662.708	32861.64
663.059	32702.77
663.409	32579.84
663.76	32767.63
664.11	32776.21
664.461	32786.38
664.811	32757.91
665.161	32691.02
665.511	32573.51
665.862	32665.93
666.212	32773.05
666.562	32856.66
666.912	32786.38
667.262	32539.16
667.612	32717.23
667.962	32760.62
668.312	32679.95
668.662	32714.3
669.011	32635.88
669.361	32644.69
669.711	32579.84
670.06	32611.7
670.41	32473.85
670.76	32370.58
671.109	32589.78
671.459	32552.27
671.808	32476.11
672.157	32415.77
672.507	32290.8
672.856	32284.93
673.205	32365.15
673.554	32400.18
673.904	32292.61
674.253	32414.64
674.602	32224.82
674.951	31787.77
675.3	31619.18
675.649	32092.16
675.998	32150.69
676.346	32228.43
676.695	32183.91
677.044	32021.66
677.393	31962.68
677.741	32126.74
678.09	32057.82
678.438	31954.32
678.787	31988.44
679.135	31983.92
679.484	31744.83
679.832	32039.74
680.181	31839.74
680.529	31809.69
680.877	31611.73
681.225	31727.88
681.573	31722
681.922	31714.55
682.27	31524.5
682.618	31442.69
682.966	31308.91
683.314	31602.01
683.661	31378.96
684.009	31257.84
684.357	31220.78
684.705	31139.65
685.053	31161.57
685.4	31108.91
685.748	31071.17
686.095	30962.02
686.443	30799.09
686.79	30981.01
687.138	30831.41
687.485	30829.15
687.832	30590.28
688.18	30663.28
688.527	30561.81
688.874	30431.42
689.221	30319.1
689.568	30256.51
689.915	30254.02
690.262	30242.72
690.609	29997.08
690.956	29976.29
691.303	29854.94
691.65	29810.19
691.997	29781.94
692.344	29636.41
692.69	29691.78
693.037	29591.67
693.383	29274.39
693.73	29492.68
694.077	29269.41
694.423	29256.31
694.769	29047.27
695.116	29011.34
695.462	29106.71
695.808	28837.56
696.155	28992.81
696.501	28672.37
696.847	28645.7
697.193	28532.26
697.539	28553.95
697.885	28216.11
698.231	28255.43
698.577	28264.24
698.923	28130.69
699.269	28005.72
699.614	27934.53
699.96	27871.94
700.306	27830.58
700.651	27642.56
700.997	27611.38
701.342	27584.94
701.688	27535
702.033	27412.51
702.379	27440.31
702.724	27224.04
703.069	27234.44
703.415	27079.42
703.76	27017.95
704.105	27022.92
704.45	26906.54
704.795	26732.31
705.14	26632.87
705.485	26641.23
705.83	26456.38
706.175	26437.17
706.52	26334.58
706.865	26328.93
707.209	26277.85
707.554	26110.18
707.899	26284.63
708.243	26024.08
708.588	25998.09
708.932	25897.75
709.277	25821.6
709.621	25865.44
709.966	25718.09
710.31	25720.81
710.654	25515.16
710.998	25604.88
711.342	25647.59
711.687	25455.05
712.031	25325.11
712.375	25345.22
712.719	25342.06
713.063	25169.41
713.407	25366.24
713.75	25150.88
714.094	25114.95
714.438	24942.07
714.782	24870.43
715.125	24893.94
715.469	24896.42
715.812	24801.73
716.156	24681.74
716.499	24773.94
716.843	24626.6
717.186	24623.21
717.53	24799.93
717.873	24667.28
718.216	24564.23
718.559	24511.57
718.902	24376.21
719.246	24504.12
719.589	24441.74
719.932	24313.84
720.275	24254.18
720.617	24284.69
720.96	24287.4
721.303	24184.58
721.646	24118.81
721.989	24004.92
722.331	24126.5
722.674	24084.69
723.016	24140.74
723.359	23943.23
723.701	24201.98
724.044	23921.98
724.386	23792.04
724.729	24057.35
725.071	23911.81
725.413	23913.4
725.755	23969.67
726.097	23832.95
726.439	23741.65
726.782	23776
727.124	23895.54
727.465	23811.7
727.807	23841.08
728.149	23787.52
728.491	23784.81
728.833	23683.35
729.175	23655.78
729.516	23670.24
729.858	23759.5
730.199	23616.68
730.541	23677.24
730.882	23641.54
731.224	23576.91
731.565	23526.06
731.906	23519.96
732.248	23538.27
732.589	23491.03
732.93	23557.02
733.271	23432.05
733.612	23571.48
733.953	23518.83
734.294	23484.26
734.635	23446.74
734.976	23562.67
735.317	23417.59
735.658	23489.9
735.999	23477.48
736.339	23385.5
736.68	23467.98
737.021	23402.45
737.361	23322
737.702	23465.27
738.042	23299.85
738.383	23375.56
738.723	23418.04
739.063	23232.51
739.404	23346.63
739.744	23421.88
740.084	23265.96
740.424	23220.53
740.764	23296.92
741.104	23333.07
741.444	23239.74
741.784	23220.31
742.124	23220.08
742.464	23140.08
742.804	23117.26
743.143	23191.38
743.483	23270.48
743.823	23103.02
744.162	23157.94
744.502	23071.38
744.841	23075.68
745.181	23182.12
745.52	23091.27
745.86	23181.44
746.199	23064.83
746.538	23228.67
746.877	23173.08
747.216	23089.69
747.556	22941.22
747.895	23065.51
748.234	23036.36
748.573	23032.74
748.911	23138.95
749.25	23091.5
749.589	22889.69
749.928	22968.56
750.267	22968.79
750.605	22959.07
750.944	22940.54
751.283	22859.19
751.621	22879.75
751.96	22746.2
752.298	22835.68
752.636	22814.44
752.975	22722.92
753.313	22622.13
753.651	22811.73
753.989	22703.94
754.327	22694.22
754.666	22416.94
755.004	22529.48
755.342	22605.41
755.679	22533.09
756.017	22463.72
756.355	22517.95
756.693	22385.3
757.031	22428.01
757.368	22273.21
757.706	22298.75
758.044	22220.11
758.381	22228.47
758.719	22132.88
759.056	22172.65
759.394	22077.51
759.731	21994.35
760.068	21951.64
760.405	21902.83
760.743	21795.71
761.08	21832.1
761.417	21748.48
761.754	21733.79
762.091	21741.48
762.428	21677.52
762.765	21584.64
763.102	21579.45
763.438	21423.29
763.775	21354.14
764.112	21412.67
764.449	21475.95
764.785	21276.86
765.122	21136.75
765.458	21013.13
765.795	21016.75
766.131	20975.62
766.467	20960.25
766.804	20906.92
767.14	20786.47
767.476	20716.64
767.812	20733.59
768.148	20602.98
768.485	20439.82
768.821	20361.17
769.157	20397.56
769.492	20278.01
769.828	20338.8
770.164	20158.92
770.5	20155.53
770.836	20136.09
771.171	19951.47
771.507	19918.93
771.842	19792.6
772.178	19793.28
772.513	19756.9
772.849	19766.61
773.184	19633.51
773.519	19638.93
773.855	19447.07
774.19	19530.24
774.525	19400.29
774.86	19377.47
775.195	19320.3
775.53	19287.53
775.865	19125.5
776.2	19123.47
776.535	18941.55
776.87	18910.14
777.205	18926.64
777.539	18814.77
777.874	18752.85
778.209	18575.91
778.543	18609.13
778.878	18558.74
779.212	18455.01
779.547	18266.09
779.881	18427.21
780.215	18308.8
780.55	18401.45
780.884	18198.74
781.218	18087.56
781.552	18079.65
781.886	17970.05
782.22	17901.35
782.554	17842.37
782.888	17746.1
783.222	17620.91
783.556	17623.17
783.889	17565.77
784.223	17373.23
784.557	17431.99
784.89	17372.78
785.224	17269.5
785.557	17194.03
785.891	17135.27
786.224	17168.94
786.558	17097.53
786.891	16882.17
787.224	16883.07
787.557	16741.83
787.891	16790.65
788.224	16708.39
788.557	16728.27
788.89	16738.44
789.223	16681.04
789.556	16564.44
789.888	16533.7
790.221	16474.27
790.554	16347.27
790.887	16274.73
791.219	16282.41
791.552	16293.71
791.884	16077.67
792.217	16106.14
792.549	15935.08
792.882	15945.92
793.214	15827.96
793.546	15912.48
793.879	15845.59
794.211	15673.61
794.543	15720.39
794.875	15719.71
795.207	15779.6
795.539	15638.13
795.871	15601.3
796.203	15442.88
796.535	15390.46
796.867	15398.14
797.198	15339.16
797.53	15362.44
797.862	15225.04
798.193	15361.31
798.525	15167.19
798.856	15173.51
799.188	14939.17
799.519	15030.92
799.85	14821.43
800.182	14898.72
800.513	14862.56
800.844	14686.07
801.175	14875.89
801.506	14810.13
801.837	14737.59
802.168	14700.31
802.499	14613.53
802.83	14521.1
803.161	14495.79
803.491	14433.87
803.822	14472.74
804.153	14312.52
804.483	14246.08
804.814	14263.93
805.145	14207.44
805.475	14206.53
805.805	14131.51
806.136	14155.46
806.466	14167.66
806.796	14198.17
807.126	13935.35
807.457	13927.44
807.787	13960.89
808.117	13906.2
808.447	13795.02
808.777	13856.71
809.107	13795.7
809.436	13713.66
809.766	13752.76
810.096	13675.93
810.426	13682.03
810.755	13654.01
811.085	13593.67
811.414	13647.23
811.744	13512.54
812.073	13465.76
812.403	13506.21
812.732	13287.91
813.061	13341.47
813.39	13315.71
813.719	13250.63
814.049	13361.13
814.378	13201.36
814.707	13224.19
815.036	13221.7
815.365	13058.77
815.693	12988.94
816.022	12987.36
816.351	12946.23
816.68	12861.03
817.008	12900.35
817.337	12867.81
817.665	12822.16
817.994	12813.35
818.322	12816.74
818.651	12777.42
818.979	12685.67
819.307	12793.69
819.636	12661.72
819.964	12652.68
820.292	12678.89
820.62	12703.52
820.948	12583.3
821.276	12652
821.604	12613.81
821.932	12618.55
822.259	12637.99
822.587	12660.59
822.915	12552.57
823.243	12571.1
823.57	12494.94
823.898	12579.46
824.225	12491.1
824.553	12518.67
824.88	12534.71
825.207	12583.75
825.535	12567.25
825.862	12579.01
826.189	12544.88
826.516	12522.51
826.843	12584.43
827.17	12521.15
827.497	12516.18
827.824	12508.72
828.151	12575.16
828.478	12543.53
828.805	12602.28
829.131	12537.88
829.458	12561.38
829.785	12399.35
830.111	12414.94
830.438	12522.51
830.764	12482.96
831.09	12503.75
831.417	12402.74
831.743	12407.94
832.069	12554.15
832.395	12516.18
832.722	12473.47
833.048	12426.69
833.374	12440.7
833.7	12376.98
834.026	12454.26
834.351	12462.17
834.677	12400.03
835.003	12451.78
835.329	12357.32
835.654	12312.57
835.98	12306.92
836.306	12326.13
836.631	12316.19
836.956	12313.7
837.282	12276.19
837.607	12230.09
837.932	12212.01
838.258	12250.2
838.583	12209.75
838.908	12069.64
839.233	12134.05
839.558	12091.79
839.883	12016.76
840.208	12049.3
840.533	12042.97
840.858	11986.7
841.182	12042.07
841.507	12049.53
841.832	11949.42
842.156	11903.99
842.481	11938.57
842.805	11976.31
843.13	11918.46
843.454	11870.78
843.778	11814.73
844.103	11770.44
844.427	11741.74
844.751	11718.69
845.075	11722.53
845.399	11660.84
845.723	11598.69
846.047	11560.28
846.371	11541.74
846.695	11487.06
847.019	11354.63
847.343	11426.72
847.666	11315.76
847.99	11306.04
848.313	11275.99
848.637	11214.3
848.96	11188.08
849.284	11137.91
849.607	11075.99
849.931	11082.77
850.254	11027.86
850.577	10985.37
850.9	10823.8
851.223	10812.05
851.546	10803.01
851.869	10749.67
852.192	10778.37
852.515	10664.48
852.838	10615.89
853.161	10679.39
853.483	10591.49
853.806	10510.36
854.129	10537.03
854.451	10443.69
854.774	10405.96
855.096	10341.55
855.419	10386.75
855.741	10380.42
856.063	10250.03
856.385	10256.13
856.708	10243.25
857.03	10195.79
857.352	10262
857.674	10134.55
857.996	10127.09
858.318	10017.94
858.64	10052.74
858.961	10021.78
859.283	10019.75
859.605	9992.18
859.926	10005.51
860.248	10000.54
860.57	9917.61
860.891	9891.39
861.212	9788.57
861.534	9855.91
861.855	9896.14
862.176	9767.1
862.498	9787.67
862.819	9791.06
863.14	9739.98
863.461	9784.05
863.782	9677.16
864.103	9751.96
864.424	9662.02
864.745	9702.02
865.065	9684.17
865.386	9606.43
865.707	9622.7
866.027	9651.62
866.348	9602.36
866.668	9556.26
866.989	9497.5
867.309	9418.64
867.63	9455.92
867.95	9518.52
868.27	9436.49
868.59	9465.19
868.91	9489.6
869.23	9428.13
869.55	9395.36
869.87	9421.8
870.19	9368.24
870.51	9405.3
870.83	9392.65
871.15	9286.66
871.469	9335.7
871.789	9284.63
872.109	9296.38
872.428	9272.88
872.748	9278.98
873.067	9259.77
873.386	9239.43
873.706	9224.52
874.025	9195.59
874.344	9172.77
874.663	9156.27
874.982	9146.55
875.301	9148.36
875.62	9092.77
875.939	9090.74
876.258	9071.53
876.577	9022.71
876.896	9031.98
877.214	8998.76
877.533	8999.89
877.852	8991.98
878.17	9020.91
878.489	8970.06
878.807	8942.04
879.125	8943.62
879.444	8936.62
879.762	8878.99
880.08	8906.33
880.398	8859.78
880.716	8873.57
881.034	8829.95
881.352	8895.26
881.67	8798.31
881.988	8863.17
882.306	8794.7
882.624	8855.94
882.941	8739.78
883.259	8673.57
883.577	8722.38
883.894	8693.91
884.212	8577.75
884.529	8631.31
884.846	8538.21
885.164	8588.6
885.481	8587.7
885.798	8563.07
886.115	8543.41
886.432	8477.42
886.75	8507.02
887.067	8515.16
887.383	8485.55
887.7	8467.02
888.017	8422.73
888.334	8481.26
888.651	8419.34
888.967	8407.59
889.284	8320.36
889.6	8384.54
889.917	8290.3
890.233	8321.49
890.55	8271.55
890.866	8232.68
891.182	8183.19
891.498	8230.42
891.815	8202.85
892.131	8128.05
892.447	8102.51
892.763	8097.77
893.079	8053.47
893.395	8021.39
893.71	8006.02
894.026	7971.44
894.342	7940.03
894.657	7987.26
894.973	7880.15
895.289	7978.22
895.604	7889.19
895.92	7805.12
896.235	7813.48
896.55	7790.43
896.865	7754.95
897.181	7721.51
897.496	7729.87
897.811	7647.38
898.126	7687.38
898.441	7633.15
898.756	7606.93
899.071	7600.15
899.386	7561.28
899.7	7503.21
900.015	7509.76
900.33	7398.8
900.644	7363.32
900.959	7397.45
901.273	7375.07
901.588	7295.3
901.902	7296.43
902.216	7343.66
902.531	7336.66
902.845	7246.26
903.159	7250.11
903.473	7174.18
903.787	7158.58
904.101	7126.27
904.415	7132.37
904.729	7132.82
905.042	7045.82
905.356	7074.52
905.67	7006.95
905.984	7065.48
906.297	7004.91
906.611	6959.94
906.924	6914.07
907.237	6921.53
907.551	6903.45
907.864	6865.48
908.177	6855.54
908.491	6796.78
908.804	6777.8
909.117	6762.44
909.43	6714.98
909.743	6705.26
910.056	6655.55
910.368	6681.08
910.681	6688.99
910.994	6619.39
911.307	6611.03
911.619	6506.85
911.932	6527.19
912.244	6501.43
912.557	6459.17
912.869	6432.95
913.181	6399.28
913.494	6387.53
913.806	6382.56
914.118	6327.64
914.43	6252.39
914.742	6305.05
915.054	6237.93
915.366	6199.06
915.678	6217.59
915.99	6199.96
916.302	6175.56
916.613	6152.28
916.925	6133.3
917.236	6073.87
917.548	6058.95
917.859	6070.25
918.171	6003.81
918.482	5962.23
918.794	5931.04
919.105	5976.47
919.416	5851.27
919.727	5889.69
920.038	5874.1
920.349	5908.67
920.66	5808.34
920.971	5810.14
921.282	5732.63
921.593	5737.83
921.903	5649.7
922.214	5681.56
922.525	5702.58
922.835	5602.92
923.146	5634.1
923.456	5601.79
923.767	5590.04
924.077	5612.86
924.387	5506.87
924.697	5485.18
925.008	5532.41
925.318	5461.9
925.628	5474.56
925.938	5416.48
926.248	5374.9
926.558	5370.83
926.867	5384.39
927.177	5314.11
927.487	5333.09
927.796	5247.9
928.106	5275.02
928.416	5261.23
928.725	5242.25
929.034	5179.88
929.344	5179.88
929.653	5192.31
929.962	5136.94
930.271	5107.56
930.581	5106.43
930.89	5080.45
931.199	5050.16
931.508	5016.72
931.817	5060.11
932.125	5014.68
932.434	4990.73
932.743	4925.65
933.051	4891.75
933.36	4917.06
933.669	4881.58
933.977	4896.27
934.286	4796.39
934.594	4783.5
934.902	4768.36
935.21	4733.34
935.519	4734.47
935.827	4721.81
936.135	4703.51
936.443	4674.81
936.751	4702.15
937.059	4684.98
937.367	4620.34
937.674	4559.33
937.982	4641.14
938.29	4565.43
938.597	4536.28
938.905	4548.71
939.213	4494.92
939.52	4520.69
939.827	4503.29
940.135	4498.77
940.442	4444.76
940.749	4460.35
941.056	4492.44
941.363	4401.14
941.67	4352.78
941.977	4329.5
942.284	4349.39
942.591	4293.57
942.898	4306.68
943.205	4324.31
943.511	4226.91
943.818	4299.9
944.125	4230.07
944.431	4207.7
944.738	4228.49
945.044	4185.33
945.35	4166.12
945.657	4138.32
945.963	4129.96
946.269	4150.07
946.575	4099.91
946.881	4084.54
947.187	4035.95
947.493	4067.59
947.799	4039.57
948.105	4014.94
948.41	3992.11
948.716	4009.06
949.022	3982.85
949.327	3912.57
949.633	3927.71
949.938	3953.47
950.244	3899.69
950.549	3864.21
950.854	3841.83
951.16	3857.2
951.465	3809.52
951.77	3779.69
952.075	3790.99
952.38	3785.34
952.685	3768.16
952.99	3765.9
953.294	3734.49
953.599	3705.34
953.904	3681.39
954.209	3670.54
954.513	3690.43
954.818	3636.64
955.122	3622.86
955.426	3638.9
955.731	3579.92
956.035	3566.36
956.339	3592.58
956.643	3565.46
956.948	3520.94
957.252	3539.47
957.556	3509.87
957.86	3491.33
958.163	3477.78
958.467	3463.54
958.771	3455.4
959.075	3443.2
959.378	3447.27
959.682	3427.83
959.985	3431.45
960.289	3354.39
960.592	3357.55
960.896	3365.91
961.199	3321.4
961.502	3350.77
961.805	3332.02
962.108	3292.92
962.411	3266.03
962.714	3268.97
963.017	3262.87
963.32	3237.78
963.623	3221.29
963.926	3209.99
964.228	3207.5
964.531	3185.58
964.833	3161.17
965.136	3129.99
965.438	3131.8
965.741	3154.85
966.043	3126.6
966.345	3080.95
966.648	3067.39
966.95	3099.25
967.252	3046.83
967.554	3082.31
967.856	3042.08
968.158	3000.5
968.46	3024.91
968.761	2979.26
969.063	3002.53
969.365	2949.65
969.666	2973.61
969.968	2975.87
970.269	2936.55
970.571	2924.12
970.872	2926.83
971.174	2860.39
971.475	2889.77
971.776	2866.49
972.077	2854.06
972.378	2858.13
972.679	2812.71
972.98	2805.93
973.281	2808.19
973.582	2800.51
973.883	2765.25
974.183	2769.09
974.484	2751.24
974.785	2781.52
975.085	2763.67
975.386	2730.68
975.686	2703.78
975.986	2707.85
976.287	2727.74
976.587	2663.33
976.887	2686.38
977.187	2672.15
977.487	2674.41
977.787	2634.63
978.087	2629.89
978.387	2600.28
978.687	2604.58
978.987	2579.27
979.286	2610.45
979.586	2568.2
979.885	2535.65
980.185	2526.84
980.484	2505.6
980.784	2536.56
981.083	2502.43
981.382	2527.29
981.682	2507.86
981.981	2508.08
982.28	2480.29
982.579	2446.16
982.878	2475.99
983.177	2445.26
983.475	2434.41
983.774	2413.85
984.073	2413.17
984.372	2370.23
984.67	2374.3
984.969	2381.76
985.267	2351.25
985.566	2358.26
985.864	2346.73
986.162	2311.03
986.461	2301.54
986.759	2318.94
987.057	2291.59
987.355	2321.2
987.653	2290.01
987.951	2280.97
988.249	2239.62
988.547	2243.68
988.844	2287.75
989.142	2239.16
989.44	2203.68
989.737	2208.43
990.035	2184.25
990.332	2184.48
990.63	2181.99
990.927	2178.83
991.224	2209.79
991.521	2180.41
991.819	2150.81
992.116	2124.37
992.413	2113.97
992.71	2106.96
993.006	2091.37
993.303	2099.51
993.6	2088.43
993.897	2070.13
994.193	2108.32
994.49	2065.61
994.787	2076.91
995.083	2045.72
995.379	2044.59
995.676	2017.48
995.972	2000.53
996.268	2024.93
996.565	1982.9
996.861	1986.97
997.157	1978.38
997.453	1952.84
997.749	1970.47
998.044	1965.27
998.34	1943.35
998.636	1931.15
998.932	1913.98
999.227	1897.7
999.523	1889.57
999.818	1905.39
1000.114	1853.86
1000.409	1845.28
1000.704	1850.93
1001	1845.05
1001.295	1873.3
1001.59	1848.67
1001.885	1825.62
1002.18	1817.93
1002.475	1778.84
1002.77	1799.85
1003.065	1751.49
1003.359	1769.35
1003.654	1746.3
1003.949	1754.21
1004.243	1703.59
1004.538	1734.54
1004.832	1738.16
1005.127	1740.42
1005.421	1721.21
1005.715	1704.72
1006.009	1719.18
1006.304	1700.65
1006.598	1665.85
1006.892	1669.91
1007.186	1689.12
1007.48	1686.86
1007.773	1631.95
1008.067	1633.76
1008.361	1627.43
1008.655	1585.62
1008.948	1567.54
1009.242	1572.74
1009.535	1579.97
1009.829	1579.07
1010.122	1557.6
1010.415	1555.57
1010.708	1549.01
1011.001	1551.95
1011.295	1558.05
1011.588	1556.24
1011.881	1503.82
1012.173	1531.61
1012.466	1528.45
1012.759	1499.75
1013.052	1533.87
1013.344	1483.25
1013.637	1470.82
1013.93	1449.58
1014.222	1464.72
1014.514	1431.5
1014.807	1444.16
1015.099	1415.23
1015.391	1402.12
1015.683	1401.45
1015.976	1412.07
1016.268	1375.01
1016.56	1391.73
1016.851	1372.97
1017.143	1386.31
1017.435	1368.68
1017.727	1371.39
1018.018	1363.48
1018.31	1311.28
1018.602	1345.63
1018.893	1317.61
1019.185	1306.99
1019.476	1322.8
1019.767	1334.56
1020.058	1301.56
1020.35	1274.67
1020.641	1297.95
1020.932	1244.16
1021.223	1255.91
1021.514	1253.88
1021.804	1249.59
1022.095	1224.05
1022.386	1241.9
1022.677	1229.25
1022.967	1218.63
1023.258	1219.98
1023.548	1203.94
1023.839	1230.15
1024.129	1201
1024.419	1157.61
1024.709	1156.93
1025	1180.44
1025.29	1162.58
1025.58	1157.16
1025.87	1156.25
1026.16	1111.51
1026.449	1112.19
1026.739	1106.54
1027.029	1135.69
1027.319	1103.6
1027.608	1098.86
1027.898	1106.99
1028.187	1091.4
1028.477	1056.82
1028.766	1067.67
1029.055	1070.16
1029.344	1038.97
1029.634	1043.26
1029.923	1045.3
1030.212	1059.53
1030.501	1042.59
1030.79	1024.28
1031.078	1034.45
1031.367	1030.61
1031.656	1020.44
1031.945	1016.6
1032.233	974.11
1032.522	995.13
1032.81	1026.09
1033.099	961.23
1033.387	981.8
1033.675	980.67
1033.963	958.52
1034.251	970.95
1034.54	940.89
1034.828	937.28
1035.116	924.62
1035.403	954
1035.691	952.87
1035.979	931.85
1036.267	915.13
1036.554	906.77
1036.842	899.99
1037.129	911.29
1037.417	894.11
1037.704	885.08
1037.992	845.75
1038.279	858.41
1038.566	865.87
1038.853	865.87
1039.14	865.87
