Data from tablewood_dark_bookshelf_FLMS001491_00029.txt Node
Date: Wed Feb 08 14:14:06 GMT 2017
User: dcchb
Spectrometer: FLMS00149
Trigger mode: 0
Integration Time (sec): 2.000000E-2
Scans to average: 10
Electric dark correction enabled: true
Nonlinearity correction enabled: false
Boxcar width: 0
XAxis mode: Wavelengths
Number of Pixels in Spectrum: 2048
>>>>>Begin Spectral Data<<<<<
341.393	-14.27
341.776	-14.27
342.16	-14.27
342.543	-48.39
342.927	-54.04
343.31	-81.38
343.693	-80.93
344.077	-59.46
344.46	-71.44
344.843	-29.18
345.226	-34.6
345.61	-17.65
345.993	-15.62
346.376	-22.17
346.759	5.85
347.142	25.73
347.525	48.78
347.908	47.88
348.291	72.74
348.674	103.47
349.057	107.99
349.44	135.56
349.823	109.35
350.206	149.35
350.588	161.78
350.971	203.58
351.354	208.78
351.737	225.05
352.119	234.54
352.502	235.45
352.884	261.66
353.267	269.57
353.65	280.19
354.032	294.65
354.414	280.19
354.797	290.36
355.179	288.33
355.562	320.19
355.944	312.28
356.326	321.32
356.709	310.92
357.091	325.39
357.473	327.19
357.855	316.8
358.238	321.32
358.62	326.52
359.002	337.59
359.384	322.9
359.766	341.43
360.148	305.95
360.53	338.27
360.912	328.55
361.294	318.61
361.676	318.38
362.057	326.29
362.439	297.37
362.821	295.78
363.203	296.69
363.584	309.12
363.966	301.66
364.348	297.59
364.729	312.28
365.111	316.57
365.493	325.84
365.874	324.48
366.256	300.98
366.637	294.65
367.019	300.75
367.4	300.53
367.781	298.49
368.163	289.23
368.544	330.36
368.925	302.79
369.306	302.56
369.688	301.88
370.069	312.73
370.45	305.95
370.831	327.19
371.212	282
371.593	314.77
371.974	295.56
372.355	308.21
372.736	290.59
373.117	313.64
373.498	298.72
373.879	313.41
374.26	297.37
374.641	311.15
375.021	300.08
375.402	295.78
375.783	315.44
376.163	323.35
376.544	334.2
376.925	311.38
377.305	317.48
377.686	323.81
378.066	317.7
378.447	311.83
378.827	345.95
379.208	347.53
379.588	317.7
379.968	333.75
380.349	324.48
380.729	337.14
381.109	326.52
381.489	340.75
381.87	334.88
382.25	334.2
382.63	336.69
383.01	366.74
383.39	358.15
383.77	330.13
384.15	340.53
384.53	342.34
384.91	326.29
385.29	337.14
385.67	353.41
386.049	345.73
386.429	338.04
386.809	336.46
387.189	348.89
387.568	365.61
387.948	366.52
388.328	357.48
388.707	371.94
389.087	360.19
389.466	376.46
389.846	355.67
390.225	377.81
390.605	390.02
390.984	354.76
391.363	383.92
391.743	382.79
392.122	367.65
392.501	404.03
392.881	379.62
393.26	395.67
393.639	399.74
394.018	377.14
394.397	382.79
394.776	388.21
395.155	391.6
395.534	362.45
395.913	385.05
396.292	379.4
396.671	374.65
397.05	408.55
397.429	399.96
397.808	396.8
398.186	376.46
398.565	403.12
398.944	417.14
399.323	389.11
399.701	425.5
400.08	417.59
400.458	419.17
400.837	421.88
401.215	419.4
401.594	410.36
401.972	432.73
402.351	424.59
402.729	429.56
403.107	449.45
403.486	432.05
403.864	431.15
404.242	434.76
404.62	441.09
404.999	428.89
405.377	455.1
405.755	439.06
406.133	464.59
406.511	454.2
406.889	464.14
407.267	477.25
407.645	446.51
408.023	461.2
408.401	495.78
408.779	470.24
409.156	479.06
409.534	476.34
409.912	483.35
410.29	488.09
410.667	477.93
411.045	468.89
411.422	502.11
411.8	502.33
412.178	494.2
412.555	494.2
412.933	505.27
413.31	520.64
413.687	503.91
414.065	523.57
414.442	523.35
414.819	516.12
415.197	507.3
415.574	554.53
415.951	526.51
416.328	554.76
416.705	555.44
417.082	571.48
417.46	558.83
417.837	572.61
418.214	563.12
418.591	569.9
418.967	560.63
419.344	563.12
419.721	580.3
420.098	578.49
420.475	591.59
420.852	574.65
421.228	572.84
421.605	583.23
421.982	599.05
422.358	601.76
422.735	594.76
423.111	600.63
423.488	607.41
423.864	616.9
424.241	641.76
424.617	609.22
424.994	644.02
425.37	627.98
425.746	625.94
426.123	638.6
426.499	636.11
426.875	637.02
427.251	665.04
427.627	669.33
428.003	667.98
428.379	664.14
428.756	705.04
429.132	687.19
429.507	690.35
429.883	711.59
430.259	725.38
430.635	709.11
431.011	705.72
431.387	726.96
431.763	752.72
432.138	748.43
432.514	731.25
432.89	756.56
433.265	734.87
433.641	774.41
434.016	780.52
434.392	788.2
434.767	778.71
435.143	793.4
435.518	790.23
435.894	799.27
436.269	805.6
436.644	796.79
437.02	837.01
437.395	836.79
437.77	844.7
438.145	850.8
438.52	865.26
438.895	854.86
439.271	851.93
439.646	879.72
440.021	861.19
440.395	883.79
440.77	858.48
441.145	895.99
441.52	904.81
441.895	927.63
442.27	900.74
442.645	931.47
443.019	900.06
443.394	922.66
443.769	940.74
444.143	912.72
444.518	952.26
444.892	928.08
445.267	932.15
445.641	941.87
446.016	950.91
446.39	995.43
446.764	952.72
447.139	984.13
447.513	975.54
447.887	968.53
448.262	982.09
448.636	1004.01
449.01	1013.28
449.384	993.84
449.758	1004.92
450.132	1025.48
450.506	1020.28
450.88	1015.99
451.254	1025.48
451.628	1037.46
452.002	1036.1
452.376	1076.1
452.75	1056.89
453.123	1062.09
453.497	1093.73
453.871	1093.28
454.244	1100.73
454.618	1116.78
454.992	1123.11
455.365	1121.52
455.739	1135.31
456.112	1166.49
456.486	1151.35
456.859	1186.83
457.232	1217.11
457.606	1194.06
457.979	1212.6
458.352	1260.05
458.725	1248.98
459.099	1259.37
459.472	1266.38
459.845	1279.49
460.218	1280.16
460.591	1285.81
460.964	1299.37
461.337	1319.49
461.71	1338.69
462.083	1387.28
462.456	1390.44
462.829	1349.54
463.201	1389.77
463.574	1400.61
463.947	1403.78
464.32	1425.92
464.692	1469.76
465.065	1481.97
465.438	1481.97
465.81	1485.81
466.183	1510.44
466.555	1532.59
466.928	1516.99
467.3	1569.87
467.672	1557.9
468.045	1618.69
468.417	1613.49
468.789	1623.88
469.161	1621.62
469.534	1636.99
469.906	1648.29
470.278	1668.85
470.65	1685.35
471.022	1738.23
471.394	1765.12
471.766	1789.53
472.138	1813.71
472.51	1818.68
472.882	1862.07
473.253	1891.45
473.625	1862.52
473.997	1934.61
474.369	1927.6
474.74	1973.71
475.112	2030.65
475.484	2035.85
475.855	2040.14
476.227	2047.38
476.598	2120.37
476.97	2123.31
477.341	2180.93
477.713	2219.12
478.084	2227.71
478.455	2271.78
478.827	2300.02
479.198	2357.42
479.569	2377.76
479.94	2394.71
480.311	2426.57
480.682	2457.53
481.053	2511.32
481.424	2559.9
481.795	2584.76
482.166	2633.35
482.537	2660.69
482.908	2719.9
483.279	2736.85
483.65	2815.94
484.021	2822.5
484.391	2854.59
484.762	2866.34
485.133	2921.48
485.503	2942.49
485.874	3029.72
486.244	3024.98
486.615	3075.15
486.985	3103.62
487.356	3154.24
487.726	3149.95
488.097	3225.42
488.467	3259.55
488.837	3299.55
489.207	3307.91
489.578	3396.04
489.948	3343.84
490.318	3490.5
490.688	3484.63
491.058	3512.2
491.428	3587.22
491.798	3623.61
492.168	3669.93
492.538	3665.19
492.908	3702.25
493.278	3756.26
493.648	3780.89
494.017	3816.14
494.387	3883.71
494.757	3913.77
495.126	3940.43
495.496	3911.73
495.866	3946.76
496.235	4007.78
496.605	4049.58
496.974	4087.1
497.344	4071.05
497.713	4130.48
498.082	4169.81
498.452	4208.67
498.821	4234.89
499.19	4208
499.559	4274.21
499.928	4317.37
500.298	4363.25
500.667	4388.33
501.036	4361.89
501.405	4448.22
501.774	4481.21
502.143	4480.76
502.512	4469.01
502.88	4501.1
503.249	4529.12
503.618	4579.74
503.987	4572.51
504.356	4632.17
504.724	4661.54
505.093	4689.34
505.462	4720.3
505.83	4754.2
506.199	4793.52
506.567	4796
506.936	4813.86
507.304	4881.43
507.672	4907.41
508.041	4941.99
508.409	4989.9
508.777	5021.53
509.145	5043.68
509.514	5053.4
509.882	5087.07
510.25	5122.55
510.618	5146.96
510.986	5161.42
511.354	5268.08
511.722	5272.15
512.09	5314.18
512.458	5336.33
512.826	5364.8
513.193	5429.21
513.561	5424.91
513.929	5472.82
514.297	5510.56
514.664	5495.65
515.032	5544.23
515.4	5622.2
515.767	5665.13
516.135	5678.24
516.502	5648.18
516.869	5748.75
517.237	5842.08
517.604	5780.84
517.972	5892.25
518.339	5868.97
518.706	5904.45
519.073	5968.4
519.44	6037.78
519.808	6060.38
520.175	6129.98
520.542	6146.25
520.909	6172.01
521.276	6217.44
521.643	6265.12
522.009	6282.74
522.376	6356.87
522.743	6386.92
523.11	6435.96
523.477	6514.15
523.843	6524.55
524.21	6598.44
524.577	6612
524.943	6683.64
525.31	6743.98
525.676	6773.8
526.043	6863.29
526.409	6931.99
526.776	6955.04
527.142	6897.64
527.508	6971.31
527.874	7051.09
528.241	7074.36
528.607	7125.21
528.973	7118.88
529.339	7185.09
529.705	7315.94
530.071	7333.11
530.437	7333.79
530.803	7480.68
531.169	7484.97
531.535	7512.54
531.901	7477.06
532.267	7595.93
532.632	7653.33
532.998	7687.45
533.364	7635.48
533.73	7669.83
534.095	7799.31
534.461	7792.31
534.826	7851.52
535.192	7796.83
535.557	7915.24
535.923	7905.53
536.288	8001.12
536.653	7990.95
537.019	8023.26
537.384	8033.21
537.749	8098.29
538.114	8115.92
538.479	8082.47
538.845	8219.64
539.21	8190.94
539.575	8209.25
539.94	8242.92
540.305	8295.57
540.67	8329.02
541.034	8332.18
541.399	8325.4
541.764	8384.61
542.129	8482.69
542.494	8476.59
542.858	8513.19
543.223	8539.63
543.587	8570.59
543.952	8571.72
544.316	8583.25
544.681	8625.96
545.045	8662.12
545.41	8682.68
545.774	8741.21
546.138	8744.15
546.503	8783.02
546.867	8779.18
547.231	8871.15
547.595	8930.13
547.959	8940.53
548.324	8917.93
548.688	8891.94
549.052	8997.02
549.416	9060.52
549.779	9076.34
550.143	9057.81
550.507	9160.63
550.871	9143.46
551.235	9169
551.599	9254.42
551.962	9277.24
552.326	9243.34
552.689	9429.55
553.053	9364.25
553.417	9354.3
553.78	9499.83
554.143	9446.28
554.507	9496.22
554.87	9590.23
555.234	9714.07
555.597	9610.34
555.96	9630.9
556.323	9748.19
556.686	9692.15
557.05	9817.11
557.413	9818.24
557.776	9914.29
558.139	9862.54
558.502	10013.04
558.865	9915.42
559.228	10022.76
559.59	10132.81
559.953	10133.94
560.316	10263.43
560.679	10245.8
561.041	10326.25
561.404	10300.49
561.767	10474.05
562.129	10419.81
562.492	10533.48
562.854	10575.06
563.217	10587.94
563.579	10601.95
563.941	10760.82
564.304	10687.83
564.666	10823.64
565.028	10814.15
565.39	10897.31
565.753	10996.07
566.115	11050.3
566.477	11079.91
566.839	11058.89
567.201	11151.99
567.563	11189.28
567.925	11293.46
568.287	11329.17
568.648	11262.05
569.01	11424.53
569.372	11540.91
569.734	11504.75
570.095	11560.8
570.457	11654.58
570.819	11664.07
571.18	11650.74
571.542	11724.64
571.903	11792.66
572.265	11874.01
572.626	11960.56
572.987	11982.03
573.349	12018.41
573.71	12157.62
574.071	12160.78
574.432	12176.37
574.794	12375.24
575.155	12232.87
575.516	12245.07
575.877	12377.95
576.238	12357.16
576.599	12458.85
576.96	12467.44
577.32	12558.06
577.681	12580.43
578.042	12574.33
578.403	12625.85
578.763	12666.53
579.124	12699.3
579.485	12775.23
579.845	12824.72
580.206	12889.12
580.566	12892.29
580.927	12868.33
581.287	12914.66
581.648	12928.9
582.008	12976.13
582.368	12987.43
582.728	13102.23
583.089	13071.94
583.449	13146.74
583.809	13082.11
584.169	13146.74
584.529	13137.71
584.889	13299.51
585.249	13154.2
585.609	13205.05
585.969	13317.36
586.329	13341.09
586.688	13376.57
587.048	13298.83
587.408	13356.68
587.768	13369.11
588.127	13433.74
588.487	13392.16
588.846	13524.81
589.206	13442.56
589.565	13462.67
589.925	13541.99
590.284	13589.22
590.643	13639.61
591.003	13616.79
591.362	13640.97
591.721	13630.57
592.08	13618.37
592.44	13667.86
592.799	13694.07
593.158	13723.23
593.517	13770.91
593.876	13767.52
594.235	13731.81
594.593	13833.96
594.952	13891.13
595.311	13796.9
595.67	13893.17
596.029	13868.31
596.387	13982.65
596.746	13931.13
597.104	13897.23
597.463	13999.15
597.822	14058.81
598.18	13991.69
598.538	13978.14
598.897	14068.98
599.255	14000.73
599.613	14336.32
599.972	14084.35
600.33	14230.33
600.688	14134.97
601.046	14105.82
601.404	14341.74
601.762	14264.23
602.12	14355.3
602.478	14292.25
602.836	14309.43
603.194	14360.72
603.552	14346.71
603.91	14329.31
604.268	14375.64
604.625	14357.11
604.983	14405.47
605.341	14400.72
605.698	14498.8
606.056	14397.79
606.413	14506.03
606.771	14599.59
607.128	14592.13
607.485	14555.3
607.843	14585.35
608.2	14632.36
608.557	14686.37
608.914	14689.08
609.272	14656.54
609.629	14794.61
609.986	14845.68
610.343	14757.32
610.7	14858.34
611.057	14898.56
611.414	14838.23
611.771	14897.66
612.127	14961.84
612.484	14937.43
612.841	15025.79
613.198	14910.09
613.554	14942.18
613.911	15064.89
614.267	14997.09
614.624	15071.67
614.98	15070.76
615.337	15093.36
615.693	15062.85
616.05	15154.83
616.406	15228.95
616.762	15136.52
617.118	15123.42
617.475	15151.44
617.831	15225.56
618.187	15204.09
618.543	15256.97
618.899	15355.5
619.255	15310.3
619.611	15245.67
619.967	15405.67
620.323	15379.68
620.678	15310.98
621.034	15368.83
621.39	15325.9
621.746	15316.41
622.101	15544.65
622.457	15381.04
622.812	15419.68
623.168	15411.54
623.523	15445.67
623.879	15540.35
624.234	15303.98
624.589	15441.37
624.945	15460.13
625.3	15446.12
625.655	15454.03
626.01	15398.66
626.365	15429.85
626.72	15423.52
627.075	15458.1
627.43	15556.17
627.785	15404.76
628.14	15488.6
628.495	15440.7
628.85	15437.53
629.205	15447.7
629.559	15474.37
629.914	15412.9
630.269	15441.83
630.623	15376.97
630.978	15347.59
631.332	15374.48
631.687	15553.91
632.041	15379.45
632.396	15398.21
632.75	15329.06
633.104	15363.41
633.459	15182.4
633.813	15239.8
634.167	15266.91
634.521	15256.29
634.875	15215.62
635.229	15268.95
635.583	15148.27
635.937	15229.18
636.291	15143.75
636.645	15165
636.999	15139.23
637.352	15205.22
637.706	15119.8
638.06	15189.18
638.413	15172.23
638.767	15082.29
639.121	15124.09
639.474	15003.65
639.828	15058.33
640.181	15088.16
640.534	15099.46
640.888	15009.07
641.241	14934.04
641.594	15033.02
641.947	15011.78
642.301	15019.46
642.654	14978.79
643.007	15038.45
643.36	15007.94
643.713	15019.69
644.066	15023.31
644.419	14854.72
644.771	14762.52
645.124	14725.46
645.477	14600.27
645.83	14495.18
646.182	14508.97
646.535	14545.13
646.888	14525.24
647.24	14427.16
647.593	14525.24
647.945	14526.37
648.298	14345.36
648.65	14422.64
649.002	14425.81
649.355	14468.74
649.707	14417.22
650.059	14471
650.411	14650.89
650.763	14638.23
651.115	14811.11
651.467	14731.11
651.819	14727.95
652.171	14716.42
652.523	14624.22
652.875	14718.68
653.227	14536.54
653.578	14664.67
653.93	14684.33
654.282	14618.8
654.633	14665.12
654.985	14692.92
655.337	14659.02
655.688	14686.37
656.039	14723.65
656.391	14648.17
656.742	14594.16
657.094	14734.95
657.445	14641.39
657.796	14640.49
658.147	14576.31
658.498	14564.56
658.849	14623.99
659.2	14585.12
659.551	14541.74
659.902	14670.09
660.253	14618.12
660.604	14651.11
660.955	14505.35
661.306	14656.08
661.656	14555.07
662.007	14600.72
662.358	14522.53
662.708	14499.03
663.059	14632.36
663.409	14541.51
663.76	14613.82
664.11	14584.9
664.461	14624.67
664.811	14585.35
665.161	14648.17
665.511	14502.87
665.862	14490.44
666.212	14539.7
666.562	14517.33
666.912	14534.05
667.262	14583.32
667.612	14586.25
667.962	14591.68
668.312	14575.86
668.662	14614.5
669.011	14527.5
669.361	14654.28
669.711	14458.35
670.06	14521.4
670.41	14504.45
670.76	14539.7
671.109	14621.06
671.459	14617.89
671.808	14493.15
672.157	14602.07
672.507	14486.37
672.856	14534.28
673.205	14473.04
673.554	14616.99
673.904	14517.56
674.253	14518.91
674.602	14563.43
674.951	14313.04
675.3	14216.32
675.649	14501.51
675.998	14462.19
676.346	14440.5
676.695	14551
677.044	14387.62
677.393	14478.91
677.741	14448.63
678.09	14383.55
678.438	14356.2
678.787	14355.07
679.135	14454.28
679.484	14386.03
679.832	14366.6
680.181	14325.92
680.529	14319.14
680.877	14391.23
681.225	14223.33
681.573	14303.78
681.922	14306.71
682.27	14211.8
682.618	14239.37
682.966	14143.55
683.314	14213.38
683.661	14137.91
684.009	14136.1
684.357	14069.88
684.705	14107.62
685.053	14083.67
685.4	14069.43
685.748	14010
686.095	13995.76
686.443	13907.4
686.79	13956.44
687.138	13931.36
687.485	13904.92
687.832	13917.8
688.18	13904.24
688.527	13830.34
688.874	13793.96
689.221	13772.26
689.568	13812.94
689.915	13802.32
690.262	13764.36
690.609	13754.19
690.956	13747.63
691.303	13568.2
691.65	13609.33
691.997	13646.84
692.344	13502.89
692.69	13567.52
693.037	13485.27
693.383	13392.61
693.73	13466.06
694.077	13305.61
694.423	13415.44
694.769	13366.63
695.116	13311.49
695.462	13259.51
695.808	13280.98
696.155	13282.33
696.501	13124.6
696.847	13140.42
697.193	13116.24
697.539	13125.73
697.885	13088.67
698.231	13115.11
698.577	13027.43
698.923	12946.52
699.269	12866.3
699.614	12844.83
699.96	12873.98
700.306	12876.7
700.651	12781.33
700.997	12772.52
701.342	12800.31
701.688	12746.08
702.033	12708.56
702.379	12673.99
702.724	12595.35
703.069	12679.41
703.415	12469.02
703.76	12557.16
704.105	12554.9
704.45	12512.19
704.795	12461.79
705.14	12371.85
705.485	12388.12
705.83	12361.45
706.175	12329.37
706.52	12314.9
706.865	12217.28
707.209	12272.19
707.554	12174.79
707.899	12257.73
708.243	12126.88
708.588	12125.08
708.932	12137.96
709.277	12081.46
709.621	12097.05
709.966	12016.6
710.31	11994.01
710.654	11959.66
710.998	12006.66
711.342	11981.8
711.687	11989.49
712.031	11942.48
712.375	11866.78
712.719	11912.88
713.063	11858.42
713.407	11958.53
713.75	11823.39
714.094	11803.96
714.438	11848.7
714.782	11765.31
715.125	11745.2
715.469	11726.44
715.812	11728.7
716.156	11653.45
716.499	11577.97
716.843	11664.07
717.186	11577.52
717.53	11650.51
717.873	11596.28
718.216	11604.19
718.559	11572.1
718.902	11479.44
719.246	11576.16
719.589	11499.78
719.932	11473.34
720.275	11537.07
720.617	11492.1
720.96	11436.06
721.303	11472.66
721.646	11407.81
721.989	11432.89
722.331	11448.94
722.674	11391.31
723.016	11418.2
723.359	11349.28
723.701	11393.57
724.044	11317.87
724.386	11316.74
724.729	11336.17
725.071	11337.75
725.413	11313.57
725.755	11212.33
726.097	11201.26
726.439	11172.79
726.782	11194.25
727.124	11281.03
727.465	11250.52
727.807	11196.74
728.149	11142.28
728.491	11166.91
728.833	11189.06
729.175	11150.19
729.516	11152.67
729.858	11062.96
730.199	11106.35
730.541	11176.85
730.882	11082.39
731.224	11145.44
731.565	11049.62
731.906	11107.02
732.248	11059.57
732.589	11052.79
732.93	10984.09
733.271	10996.29
733.612	10971.43
733.953	11043.07
734.294	11043.3
734.635	10952.68
734.976	11031.09
735.317	11036.74
735.658	10999.91
735.999	11022.05
736.339	10978.21
736.68	10963.53
737.021	10968.95
737.361	10978.21
737.702	10947.48
738.042	10993.36
738.383	10947.93
738.723	10966.24
739.063	10884.43
739.404	10971.21
739.744	10975.05
740.084	10859.8
740.424	10866.13
740.764	10947.93
741.104	10862.06
741.444	10846.92
741.784	10880.14
742.124	10784.55
742.464	10831.55
742.804	10828.84
743.143	10843.75
743.483	10815.05
743.823	10762.4
744.162	10801.27
744.502	10742.06
744.841	10783.42
745.181	10823.87
745.52	10814.15
745.86	10802.85
746.199	10758.33
746.538	10767.6
746.877	10790.42
747.216	10842.4
747.556	10744.32
747.895	10745.68
748.234	10688.96
748.573	10717.43
748.911	10698.67
749.25	10703.42
749.589	10686.92
749.928	10650.99
750.267	10755.62
750.605	10728.28
750.944	10647.15
751.283	10627.04
751.621	10636.53
751.96	10602.86
752.298	10610.99
752.636	10589.07
752.975	10576.64
753.313	10540.26
753.651	10555.17
753.989	10490.54
754.327	10568.96
754.666	10494.61
755.004	10463.65
755.342	10495.51
755.679	10450.09
756.017	10462.3
756.355	10432.24
756.693	10335.97
757.031	10343.88
757.368	10292.81
757.706	10347.95
758.044	10304.11
758.381	10329.42
758.719	10306.37
759.056	10277.22
759.394	10303.43
759.731	10164
760.068	10210.32
760.405	10230.66
760.743	10098.46
761.08	10190.89
761.417	10052.81
761.754	10039.26
762.091	10058.01
762.428	9961.52
762.765	9952.03
763.102	10026.15
763.438	9874.51
763.775	9924.68
764.112	9845.81
764.449	9850.11
764.785	9853.95
765.122	9779.83
765.458	9712.71
765.795	9676.1
766.131	9731.69
766.467	9701.19
766.804	9611.7
767.14	9540.51
767.476	9559.04
767.812	9528.76
768.148	9573.96
768.485	9561.3
768.821	9510.91
769.157	9436.11
769.492	9458.71
769.828	9343.45
770.164	9314.53
770.5	9300.74
770.836	9283.57
771.171	9198.15
771.507	9163.12
771.842	9201.99
772.178	9134.42
772.513	9088.09
772.849	9104.37
773.184	9034.08
773.519	9062.56
773.855	8990.7
774.19	8981.66
774.525	8875.22
774.86	8972.62
775.195	8893.07
775.53	8892.39
775.865	8825.95
776.2	8742.57
776.535	8671.83
776.87	8746.86
777.205	8733.98
777.539	8645.17
777.874	8664.38
778.209	8644.94
778.543	8525.62
778.878	8527.88
779.212	8550.03
779.547	8469.81
779.881	8488.34
780.215	8364.95
780.55	8429.58
780.884	8339.41
781.218	8410.37
781.552	8316.14
781.886	8279.3
782.22	8238.85
782.554	8270.04
782.888	8178.29
783.222	8138.74
783.556	8106.88
783.889	8098.74
784.223	7959.99
784.557	8016.03
784.89	8015.58
785.224	7942.14
785.557	7983.49
785.891	7938.52
786.224	7912.53
786.558	7875.47
786.891	7782.59
787.224	7782.14
787.557	7756.38
787.891	7752.54
788.224	7719.77
788.557	7703.05
788.89	7738.07
789.223	7630.05
789.556	7674.57
789.888	7654.91
790.221	7572.88
790.554	7530.85
790.887	7545.08
791.219	7465.54
791.552	7477.52
791.884	7379.21
792.217	7417.63
792.549	7354.13
792.882	7358.42
793.214	7345.99
793.546	7349.16
793.879	7240.01
794.211	7217.41
794.543	7213.57
794.875	7228.03
795.207	7273.23
795.539	7193.91
795.871	7216.05
796.203	7092.67
796.535	7128.15
796.867	7045.21
797.198	7054.7
797.53	7005.66
797.862	7027.58
798.193	6982.39
798.525	6966.79
798.856	6993.69
799.188	6880.69
799.519	6853.58
799.85	6886.12
800.182	6825.55
800.513	6831.2
800.844	6775.39
801.175	6750.08
801.506	6823.07
801.837	6738.33
802.168	6702.39
802.499	6701.94
802.83	6632.79
803.161	6654.03
803.491	6656.75
803.822	6600.25
804.153	6617.2
804.483	6592.34
804.814	6549.86
805.145	6561.16
805.475	6549.4
805.805	6470.31
806.136	6482.51
806.466	6492.91
806.796	6477.32
807.126	6426.02
807.457	6390.31
807.787	6362.52
808.117	6374.04
808.447	6353.25
808.777	6286.36
809.107	6359.58
809.436	6268.96
809.766	6312.12
810.096	6243.65
810.426	6180.15
810.755	6252.01
811.085	6200.49
811.414	6201.16
811.744	6204.78
812.073	6155.52
812.403	6150.32
812.732	6201.39
813.061	6168.85
813.39	6109.19
813.719	6068.06
814.049	6134.73
814.378	6037.78
814.707	6046.82
815.036	6023.32
815.365	6050.89
815.693	5935.63
816.022	5940.38
816.351	5901.29
816.68	5921.85
817.008	6022.41
817.337	5910.55
817.665	5926.82
817.994	5856.99
818.322	5939.93
818.651	5837.33
818.979	5831
819.307	5820.61
819.636	5839.59
819.964	5812.02
820.292	5812.47
820.62	5794.62
820.948	5785.58
821.276	5795.3
821.604	5799.14
821.932	5781.06
822.259	5815.64
822.587	5778.8
822.915	5750.78
823.243	5824.68
823.57	5739.93
823.898	5812.02
824.225	5727.05
824.553	5744.23
824.88	5728.63
825.207	5786.49
825.535	5734.96
825.862	5706.04
826.189	5712.14
826.516	5764.79
826.843	5762.53
827.17	5766.6
827.497	5740.84
827.824	5800.27
828.151	5753.72
828.478	5762.08
828.805	5744
829.131	5715.53
829.458	5725.47
829.785	5729.54
830.111	5691.57
830.438	5742.65
830.764	5743.55
831.09	5696.32
831.417	5708.3
831.743	5760.05
832.069	5739.71
832.395	5722.53
832.722	5699.48
833.048	5678.92
833.374	5647.05
833.7	5646.38
834.026	5695.64
834.351	5668.75
834.677	5664.46
835.003	5656.55
835.329	5638.92
835.654	5656.77
835.98	5664.23
836.306	5688.64
836.631	5630.11
836.956	5608.86
837.282	5650.9
837.607	5617.45
837.932	5613.38
838.258	5586.04
838.583	5566.83
838.908	5588.75
839.233	5599.82
839.558	5597.79
839.883	5576.32
840.208	5498.36
840.533	5475.08
840.858	5510.56
841.182	5483.67
841.507	5512.6
841.832	5453.39
842.156	5454.07
842.481	5460.62
842.805	5479.6
843.13	5438.92
843.454	5450.22
843.778	5442.09
844.103	5374.07
844.427	5412.48
844.751	5402.32
845.075	5384.24
845.399	5332.49
845.723	5304.24
846.047	5297.23
846.371	5291.81
846.695	5264.24
847.019	5236.22
847.343	5253.84
847.666	5210
847.99	5199.16
848.313	5170.23
848.637	5134.75
848.96	5101.08
849.284	5083
849.607	5088.65
849.931	5066.51
850.254	5073.51
850.577	5009.11
850.9	5011.82
851.223	5037.35
851.546	4983.57
851.869	4931.82
852.192	4952.84
852.515	4905.15
852.838	4924.14
853.161	4919.39
853.483	4893.4
853.806	4859.73
854.129	4816.57
854.451	4850.01
854.774	4768.21
855.096	4782.22
855.419	4783.57
855.741	4786.96
856.063	4762.33
856.385	4771.82
856.708	4739.28
857.03	4679.85
857.352	4727.53
857.674	4737.02
857.996	4679.62
858.318	4686.85
858.64	4700.19
858.961	4667.42
859.283	4637.14
859.605	4582.68
859.926	4607.76
860.248	4618.61
860.57	4555.78
860.891	4596.69
861.212	4566.86
861.534	4567.99
861.855	4526.63
862.176	4554.88
862.498	4534.09
862.819	4554.2
863.14	4504.26
863.461	4506.97
863.782	4513.98
864.103	4513.07
864.424	4490.7
864.745	4483.47
865.065	4473.3
865.386	4490.7
865.707	4513.07
866.027	4471.72
866.348	4469.91
866.668	4445.5
866.989	4461.78
867.309	4422
867.63	4421.32
867.95	4422.68
868.27	4401.89
868.59	4391.72
868.91	4417.03
869.23	4425.39
869.55	4330.25
869.87	4384.04
870.19	4351.95
870.51	4398.5
870.83	4384.49
871.15	4354.43
871.469	4340.65
871.789	4321.89
872.109	4312.63
872.428	4310.37
872.748	4294.32
873.067	4305.62
873.386	4331.16
873.706	4332.29
874.025	4280.54
874.344	4262.91
874.663	4265.85
874.982	4258.62
875.301	4283.93
875.62	4285.73
875.939	4261.78
876.258	4247.54
876.577	4253.87
876.896	4237.15
877.214	4224.27
877.533	4214.1
877.852	4192.4
878.17	4195.79
878.489	4201.44
878.807	4215.68
879.125	4218.39
879.444	4175.68
879.762	4188.34
880.08	4203.48
880.398	4182.91
880.716	4186.08
881.034	4146.08
881.352	4153.08
881.67	4150.37
881.988	4164.16
882.306	4132.52
882.624	4093.88
882.941	4134.1
883.259	4134.33
883.577	4099.98
883.894	4052.07
884.212	4047.1
884.529	4092.97
884.846	4060.43
885.164	4063.59
885.481	4039.64
885.798	4087.32
886.115	4026.98
886.432	4019.75
886.75	4014.56
887.067	4047.32
887.383	4026.08
887.7	4027.89
888.017	3995.35
888.334	3947.89
888.651	3979.53
888.967	3979.08
889.284	3903.37
889.6	3939.76
889.917	3945.86
890.233	3953.77
890.55	3930.04
890.866	3951.73
891.182	3919.87
891.498	3883.49
891.815	3886.2
892.131	3878.06
892.447	3858.85
892.763	3842.36
893.079	3851.62
893.395	3831.28
893.71	3828.12
894.026	3785.18
894.342	3806.88
894.657	3784.96
894.973	3782.47
895.289	3753.09
895.604	3764.39
895.92	3739.99
896.235	3685.98
896.55	3725.52
896.865	3718.52
897.181	3697.73
897.496	3711.29
897.811	3677.62
898.126	3702.47
898.441	3653.66
898.756	3653.66
899.071	3663.83
899.386	3664.28
899.7	3623.38
900.015	3610.05
900.33	3567.79
900.644	3571.18
900.959	3585.87
901.273	3585.87
901.588	3539.54
901.902	3545.19
902.216	3528.01
902.531	3521.46
902.845	3530.27
903.159	3488.92
903.473	3487.79
903.787	3461.8
904.101	3475.13
904.415	3467.68
904.729	3438.3
905.042	3448.69
905.356	3394.01
905.67	3414.57
905.984	3412.99
906.297	3385.42
906.611	3424.51
906.924	3375.7
907.237	3375.48
907.551	3325.76
907.864	3347.91
908.177	3343.16
908.491	3354.01
908.804	3310.62
909.117	3311.07
909.43	3292.09
909.743	3276.27
910.056	3305.42
910.368	3231.3
910.681	3238.08
910.994	3267
911.307	3221.81
911.619	3193.11
911.932	3200.11
912.244	3170.51
912.557	3180.23
912.869	3154.24
913.181	3138.87
913.494	3182.26
913.806	3142.71
914.118	3107.23
914.43	3102.04
914.742	3088.48
915.054	3062.26
915.366	3055.03
915.678	3050.51
915.99	3041.7
916.302	3038.99
916.613	3046.67
916.925	2987.24
917.236	2986.79
917.548	2994.47
917.859	3028.14
918.171	2994.24
918.482	3003.06
918.794	2926.45
919.105	2951.53
919.416	2922.15
919.727	2955.15
920.038	2948.14
920.349	2896.84
920.66	2860.24
920.971	2895.26
921.282	2895.04
921.593	2884.87
921.903	2845.32
922.214	2794.02
922.525	2850.52
922.835	2833.12
923.146	2798.77
923.456	2801.03
923.767	2763.51
924.077	2789.28
924.387	2795.6
924.697	2743.63
925.008	2754.93
925.318	2744.31
925.628	2712.67
925.938	2732.78
926.248	2687.81
926.558	2686.68
926.867	2713.8
927.177	2694.14
927.487	2654.82
927.796	2625.44
928.106	2649.39
928.416	2640.13
928.725	2625.67
929.034	2631.54
929.344	2615.04
929.653	2613.24
929.962	2603.52
930.271	2596.74
930.581	2594.25
930.89	2577.98
931.199	2543.63
931.508	2576.18
931.817	2559.45
932.125	2548.38
932.434	2541.6
932.743	2487.59
933.051	2518.78
933.36	2478.78
933.669	2455.95
933.977	2463.18
934.286	2450.3
934.594	2505.89
934.902	2450.08
935.21	2476.06
935.519	2448.04
935.827	2411.89
936.135	2462.96
936.443	2388.38
936.751	2413.92
937.059	2401.04
937.367	2326.69
937.674	2374.37
937.982	2415.05
938.29	2375.5
938.597	2344.32
938.905	2351.77
939.213	2359.46
939.52	2343.41
939.827	2348.61
940.135	2336.18
940.442	2293.7
940.749	2302.74
941.056	2259.35
941.363	2274.49
941.67	2283.75
941.977	2264.32
942.284	2229.07
942.591	2231.1
942.898	2275.17
943.205	2221.83
943.511	2216.18
943.818	2220.48
944.125	2210.76
944.431	2192.23
944.738	2165.34
945.044	2182.51
945.35	2169.18
945.657	2132.35
945.963	2153.36
946.269	2133.7
946.575	2177.54
946.881	2145.68
947.187	2154.94
947.493	2116.75
947.799	2126.47
948.105	2105.91
948.41	2092.57
948.716	2074.95
949.022	2105
949.327	2057.09
949.633	2059.58
949.938	2066.36
950.244	2077.21
950.549	2037.43
950.854	2005.57
951.16	2027.94
951.465	2062.29
951.77	1996.53
952.075	2009.86
952.38	2004.44
952.685	2000.15
952.99	1978.9
953.294	1973.71
953.599	1999.92
953.904	1953.37
954.209	1953.59
954.513	1950.43
954.818	1942.75
955.122	1931.45
955.426	1956.98
955.731	1938.45
956.035	1906.14
956.339	1905.01
956.643	1932.35
956.948	1917.44
957.252	1889.64
957.556	1869.08
957.86	1890.09
958.163	1854.84
958.467	1858
958.771	1853.93
959.075	1833.14
959.378	1834.95
959.682	1849.19
959.985	1819.58
960.289	1825.69
960.592	1799.92
960.896	1804.9
961.199	1784.56
961.502	1797.21
961.805	1800.6
962.108	1787.72
962.411	1751.11
962.714	1753.15
963.017	1758.57
963.32	1777.78
963.623	1758.57
963.926	1752.69
964.228	1762.19
964.531	1733.49
964.833	1763.99
965.136	1700.94
965.438	1687.61
965.741	1735.07
966.043	1696.65
966.345	1659.82
966.648	1685.8
966.95	1683.77
967.252	1675.86
967.554	1689.19
967.856	1679.93
968.158	1662.3
968.46	1618.69
968.761	1652.36
969.063	1657.78
969.365	1640.61
969.666	1633.6
969.968	1611.23
970.269	1621.62
970.571	1636.99
970.872	1605.13
971.174	1594.28
971.475	1633.83
971.776	1612.36
972.077	1607.84
972.378	1575.98
972.679	1564.9
972.98	1585.24
973.281	1571.91
973.582	1571.68
973.883	1563.09
974.183	1534.17
974.484	1544.11
974.785	1552.47
975.085	1534.85
975.386	1539.82
975.686	1532.13
975.986	1529.65
976.287	1509.31
976.587	1529.88
976.887	1499.14
977.187	1490.78
977.487	1490.78
977.787	1453.72
978.087	1474.28
978.387	1445.36
978.687	1459.37
978.987	1481.06
979.286	1439.48
979.586	1462.08
979.885	1458.46
980.185	1464.79
980.484	1432.7
980.784	1411.23
981.083	1417.79
981.382	1394.51
981.682	1413.04
981.981	1427.5
982.28	1419.6
982.579	1435.19
982.878	1415.3
983.177	1399.26
983.475	1386.38
983.774	1401.97
984.073	1359.71
984.372	1350.67
984.67	1364.23
984.969	1352.48
985.267	1377.34
985.566	1362.65
985.864	1343.67
986.162	1322.87
986.461	1335.98
986.759	1328.3
987.057	1332.37
987.355	1316.77
987.653	1339.6
987.951	1312.71
988.249	1314.29
988.547	1287.4
988.844	1305.02
989.142	1304.34
989.44	1288.53
989.737	1273.61
990.035	1312.93
990.332	1276.55
990.63	1291.01
990.927	1267.28
991.224	1257.57
991.521	1266.38
991.819	1276.77
992.116	1272.48
992.413	1254.4
992.71	1230
993.006	1237
993.303	1223.44
993.6	1218.47
993.897	1233.16
994.193	1225.25
994.49	1205.14
994.787	1187.06
995.083	1188.42
995.379	1226.61
995.676	1177.79
995.972	1173.05
996.268	1211.47
996.565	1160.17
996.861	1194.74
997.157	1197.45
997.453	1135.31
997.749	1166.04
998.044	1138.25
998.34	1136.21
998.636	1157.91
998.932	1145.03
999.227	1116.1
999.523	1142.77
999.818	1090.79
1000.114	1097.57
1000.409	1077.23
1000.704	1092.82
1001	1094.41
1001.295	1124.46
1001.59	1061.41
1001.885	1107.97
1002.18	1068.19
1002.475	1107.74
1002.77	1058.7
1003.065	1044.92
1003.359	1070.68
1003.654	1070.68
1003.949	1047.18
1004.243	1070
1004.538	1056.67
1004.832	1052.15
1005.127	1071.13
1005.421	1029.55
1005.715	1059.15
1006.009	1009.44
1006.304	1005.14
1006.598	1029.1
1006.892	1021.87
1007.186	1002.66
1007.48	1014.18
1007.773	994.07
1008.067	962.88
1008.361	976.67
1008.655	970.12
1008.948	954.75
1009.242	981.19
1009.535	964.69
1009.829	956.78
1010.122	934.86
1010.415	961.75
1010.708	943.9
1011.001	951.36
1011.295	951.81
1011.588	933.51
1011.881	935.99
1012.173	914.07
1012.466	933.05
1012.759	923.34
1013.052	913.62
1013.344	904.58
1013.637	900.97
1013.93	907.07
1014.222	896.45
1014.514	931.47
1014.807	899.38
1015.099	909.78
1015.391	908.87
1015.683	898.93
1015.976	877.69
1016.268	840.85
1016.56	847.18
1016.851	864.81
1017.143	839.95
1017.435	849.44
1017.727	851.47
1018.018	832.49
1018.31	839.72
1018.602	848.54
1018.893	874.98
1019.185	843.34
1019.476	822.1
1019.767	802.21
1020.058	816
1020.35	795.21
1020.641	804.92
1020.932	803.34
1021.223	789.56
1021.514	791.59
1021.804	808.54
1022.095	811.7
1022.386	774.19
1022.677	770.8
1022.967	781.19
1023.258	751.36
1023.548	776
1023.839	762.89
1024.129	772.61
1024.419	767.64
1024.709	765.83
1025	759.05
1025.29	742.1
1025.58	733.51
1025.87	748.65
1026.16	750.23
1026.449	735.09
1026.739	719.73
1027.029	711.37
1027.319	717.69
1027.608	709.78
1027.898	712.5
1028.187	711.59
1028.477	729.44
1028.766	707.52
1029.055	693.96
1029.344	713.85
1029.634	701.2
1029.923	690.35
1030.212	692.16
1030.501	678.37
1030.79	688.54
1031.078	670.46
1031.367	664.36
1031.656	664.14
1031.945	693.96
1032.233	667.98
1032.522	672.04
1032.81	670.01
1033.099	667.98
1033.387	662.55
1033.675	648.32
1033.963	648.09
1034.251	618.03
1034.54	650.12
1034.828	643.8
1035.116	644.93
1035.403	656.23
1035.691	633.85
1035.979	637.7
1036.267	622.33
1036.554	621.88
1036.842	628.43
1037.129	617.81
1037.417	622.78
1037.704	595.66
1037.992	611.03
1038.279	606.06
1038.566	591.14
1038.853	591.14
1039.14	591.14
