Data from tablewood_dark_bookshelf_FLMS001491_00067.txt Node
Date: Wed Feb 08 14:15:23 GMT 2017
User: dcchb
Spectrometer: FLMS00149
Trigger mode: 0
Integration Time (sec): 2.000000E-2
Scans to average: 10
Electric dark correction enabled: true
Nonlinearity correction enabled: false
Boxcar width: 0
XAxis mode: Wavelengths
Number of Pixels in Spectrum: 2048
>>>>>Begin Spectral Data<<<<<
341.393	-18.49
341.776	-18.49
342.16	-18.49
342.543	-68.43
342.927	-55.1
343.31	-61.2
343.693	-80.41
344.077	-61.88
344.46	-62.1
344.843	-29.56
345.226	-64.36
345.61	-61.88
345.993	-21.65
346.376	-5.83
346.759	31.91
347.142	23.09
347.525	61.74
347.908	65.35
348.291	82.98
348.674	87.05
349.057	96.76
349.44	124.56
349.823	133.82
350.206	147.84
350.588	181.51
350.971	196.65
351.354	197.78
351.737	226.03
352.119	230.09
352.502	262.41
352.884	252.01
353.267	274.39
353.65	284.78
354.032	290.2
354.414	282.52
354.797	293.37
355.179	323.65
355.562	295.4
355.944	327.27
356.326	342.86
356.709	318.68
357.091	323.88
357.473	313.71
357.855	350.54
358.238	314.16
358.62	342.86
359.002	331.56
359.384	336.08
359.766	319.58
360.148	329.98
360.53	334.27
360.912	307.15
361.294	326.36
361.676	317.1
362.057	322.75
362.439	320.49
362.821	321.16
363.203	337.89
363.584	321.62
363.966	306.47
364.348	303.09
364.729	316.87
365.111	292.92
365.493	318.68
365.874	330.43
366.256	295.63
366.637	337.21
367.019	325.46
367.4	305.8
367.781	310.09
368.163	315.97
368.544	297.44
368.925	299.02
369.306	308.73
369.688	322.07
370.069	296.31
370.45	322.75
370.831	287.72
371.212	319.81
371.593	306.47
371.974	317.32
372.355	316.42
372.736	310.32
373.117	316.42
373.498	301.73
373.879	320.49
374.26	326.14
374.641	312.12
375.021	310.77
375.402	300.37
375.783	312.8
376.163	335.63
376.544	334.72
376.925	340.37
377.305	335.85
377.686	310.32
378.066	319.58
378.447	332.91
378.827	334.27
379.208	331.56
379.588	336.08
379.968	323.42
380.349	322.75
380.729	349.41
381.109	347.15
381.489	339.69
381.87	326.36
382.25	347.15
382.63	326.36
383.01	335.17
383.39	348.51
383.77	356.42
384.15	350.77
384.53	365
384.91	361.39
385.29	371.78
385.67	356.19
386.049	357.77
386.429	365.91
386.809	376.98
387.189	377.21
387.568	352.58
387.948	361.84
388.328	376.3
388.707	373.82
389.087	379.69
389.466	373.82
389.846	394.16
390.225	399.35
390.605	381.73
390.984	370.65
391.363	371.11
391.743	380.82
392.122	368.85
392.501	386.47
392.881	403.65
393.26	398.45
393.639	386.92
394.018	402.29
394.397	386.7
394.776	377.21
395.155	409.75
395.534	420.14
395.913	410.43
396.292	411.33
396.671	403.42
397.05	424.66
397.429	408.17
397.808	415.4
398.186	424.66
398.565	430.31
398.944	424.44
399.323	429.64
399.701	427.15
400.08	435.51
400.458	425.57
400.837	421.5
401.215	456.98
401.594	420.37
401.972	443.65
402.351	461.73
402.729	446.81
403.107	448.84
403.486	458.34
403.864	449.07
404.242	460.14
404.62	481.39
404.999	453.14
405.377	474.15
405.755	476.19
406.133	459.24
406.511	481.16
406.889	470.31
407.267	480.71
407.645	487.49
408.023	481.61
408.401	503.53
408.779	501.05
409.156	506.24
409.534	508.05
409.912	498.11
410.29	515.96
410.667	520.25
411.045	540.59
411.422	521.61
411.8	545.56
412.178	534.04
412.555	539.92
412.933	556.64
413.31	551.21
413.687	546.24
414.065	570.42
414.442	577.2
414.819	560.03
415.197	553.02
415.574	601.16
415.951	568.39
416.328	574.26
416.705	588.05
417.082	571.1
417.46	588.05
417.837	592.34
418.214	592.57
418.591	612.91
418.967	609.07
419.344	620.37
419.721	618.78
420.098	609.52
420.475	601.61
420.852	645.9
421.228	640.48
421.605	649.74
421.982	624.43
422.358	628.73
422.735	659.46
423.111	657.65
423.488	673.47
423.864	658.78
424.241	681.61
424.617	673.7
424.994	683.64
425.37	703.98
425.746	689.29
426.123	697.43
426.499	708.72
426.875	691.78
427.251	717.99
427.627	722.74
428.003	723.41
428.379	744.2
428.756	741.72
429.132	755.5
429.507	772.9
429.883	753.02
430.259	749.4
430.635	777.65
431.011	782.85
431.387	806.35
431.763	812
432.138	811.32
432.514	798.89
432.89	820.81
433.265	847.25
433.641	868.72
434.016	858.78
434.392	856.52
434.767	865.56
435.143	884.09
435.518	879.12
435.894	892.9
436.269	896.97
436.644	914.59
437.02	886.12
437.395	929.96
437.77	930.19
438.145	929.96
438.52	927.02
438.895	955.95
439.271	948.04
439.646	962.5
440.021	981.94
440.395	977.87
440.77	973.12
441.145	983.52
441.52	1002.05
441.895	996.63
442.27	1030.75
442.645	1011.99
443.019	993.69
443.394	1027.59
443.769	1036.63
444.143	1026
444.518	1028.26
444.892	1032.78
445.267	1047.47
445.641	1055.61
446.016	1081.6
446.39	1069.17
446.764	1083.86
447.139	1079.11
447.513	1115.72
447.887	1092.44
448.262	1092.89
448.636	1096.74
449.01	1122.27
449.384	1154.36
449.758	1130.86
450.132	1152.78
450.506	1154.81
450.88	1168.6
451.254	1119.11
451.628	1163.63
452.002	1165.66
452.376	1212.21
452.75	1200.91
453.123	1208.6
453.497	1223.51
453.871	1232.55
454.244	1270.29
454.618	1281.14
454.992	1273.23
455.365	1295.38
455.739	1304.19
456.112	1315.49
456.486	1322.04
456.859	1343.96
457.232	1346.67
457.606	1368.82
457.979	1425.09
458.352	1403.85
458.725	1436.16
459.099	1434.13
459.472	1450.4
459.845	1457.63
460.218	1487.91
460.591	1479.55
460.964	1510.51
461.337	1507.12
461.71	1546.44
462.083	1555.03
462.456	1560.68
462.829	1553.9
463.201	1598.42
463.574	1615.82
463.947	1677.06
464.32	1665.54
464.692	1689.72
465.065	1703.73
465.438	1692.43
465.81	1738.3
466.183	1749.6
466.555	1795.25
466.928	1784.63
467.3	1788.7
467.672	1821.24
468.045	1833.21
468.417	1903.04
468.789	1896.04
469.161	1886.77
469.534	1913.66
469.906	1958.18
470.278	2005.41
470.65	2002.7
471.022	2054.23
471.394	2062.14
471.766	2090.61
472.138	2106.65
472.51	2147.78
472.882	2162.7
473.253	2224.84
473.625	2236.37
473.997	2275.24
474.369	2268.91
474.74	2293.32
475.112	2337.61
475.484	2398.17
475.855	2432.07
476.227	2431.16
476.598	2497.38
476.97	2535.12
477.341	2601.56
477.713	2657.6
478.084	2629.13
478.455	2694.21
478.827	2751.83
479.198	2759.74
479.569	2775.11
479.94	2851.04
480.311	2871.61
480.682	2992.96
481.053	2967.2
481.424	3062.11
481.795	3080.87
482.166	3144.59
482.537	3110.92
482.908	3216
483.279	3277.02
483.65	3319.5
484.021	3360.63
484.391	3396.34
484.762	3428.2
485.133	3445.6
485.503	3520.63
485.874	3534.41
486.244	3607.86
486.615	3688.31
486.985	3722.43
487.356	3767.4
487.726	3872.26
488.097	3852.14
488.467	3925.81
488.837	3970.79
489.207	4053.5
489.578	4067.73
489.948	4066.83
490.318	4179.82
490.688	4160.16
491.058	4270.89
491.428	4321.96
491.798	4356.54
492.168	4421.85
492.538	4439.93
492.908	4509.75
493.278	4571
493.648	4586.81
494.017	4638.34
494.387	4683.54
494.757	4680.37
495.126	4746.81
495.496	4748.62
495.866	4845.79
496.235	4898.22
496.605	4864.1
496.974	4951.1
497.344	4955.84
497.713	4988.61
498.082	5095.05
498.452	5071.1
498.821	5112.22
499.19	5121.26
499.559	5138.44
499.928	5227.02
500.298	5294.14
500.667	5295.95
501.036	5350.64
501.405	5367.81
501.774	5377.75
502.143	5456.17
502.512	5453.23
502.88	5524.64
503.249	5521.93
503.618	5548.6
503.987	5620.46
504.356	5640.35
504.724	5668.14
505.093	5732.55
505.462	5719.67
505.83	5771.64
506.199	5824.52
506.567	5883.5
506.936	5939.32
507.304	5989.26
507.672	6020.9
508.041	6044.86
508.409	6087.57
508.777	6151.29
509.145	6144.97
509.514	6200.33
509.882	6264.06
510.25	6236.26
510.618	6342.25
510.986	6339.99
511.354	6399.42
511.722	6415.47
512.09	6535.24
512.458	6543.83
512.826	6565.75
513.193	6632.86
513.561	6678.28
513.929	6718.74
514.297	6826.98
514.664	6876.7
515.032	6849.81
515.4	6954.89
515.767	6931.16
516.135	7024.49
516.502	6978.39
516.869	7099.97
517.237	7106.75
517.604	7083.7
517.972	7223.81
518.339	7236.24
518.706	7356.01
519.073	7355.1
519.44	7361.43
519.808	7443.69
520.175	7497.92
520.542	7620.63
520.909	7625.6
521.276	7698.6
521.643	7698.37
522.009	7792.83
522.376	7887.29
522.743	7894.3
523.11	7965.26
523.477	8057.46
523.843	8105.59
524.21	8152.14
524.577	8243.67
524.943	8314.85
525.31	8339.03
525.676	8446.15
526.043	8503.55
526.409	8530.44
526.776	8604.56
527.142	8650.21
527.508	8711.9
527.874	8744.9
528.241	8765.69
528.607	8812.47
528.973	8956.64
529.339	8962.74
529.705	9049.97
530.071	9159.8
530.437	9157.77
530.803	9221.49
531.169	9277.54
531.535	9312.79
531.901	9303.3
532.267	9406.8
532.632	9430.53
532.998	9419.68
533.364	9534.71
533.73	9522.73
534.095	9597.53
534.461	9644.99
534.826	9715.04
535.192	9748.49
535.557	9828.94
535.923	9864.19
536.288	9950.52
536.653	9926.11
537.019	9984.86
537.384	9915.04
537.749	9986.67
538.114	10015.15
538.479	10147.57
538.845	10166.55
539.21	10165.65
539.575	10276.16
539.94	10293.78
540.305	10273.44
540.67	10301.24
541.034	10335.59
541.399	10414.91
541.764	10487.68
542.129	10424.18
542.494	10443.84
542.858	10565.64
543.223	10569.03
543.587	10665.3
543.952	10703.26
544.316	10676.6
544.681	10671.63
545.045	10821.68
545.41	10861.23
545.774	10812.19
546.138	10866.42
546.503	10927.21
546.867	10940.09
547.231	11019.19
547.595	11034.33
547.959	11114.33
548.324	11117.94
548.688	11105.74
549.052	11243.14
549.416	11267.77
549.779	11285.62
550.143	11245.62
550.507	11392.96
550.871	11450.59
551.235	11399.06
551.599	11514.54
551.962	11460.53
552.326	11589.12
552.689	11583.69
553.053	11608.55
553.417	11633.63
553.78	11779.39
554.143	11726.51
554.507	11849
554.87	11835.89
555.234	11972.83
555.597	11972.83
555.96	12069.33
556.323	12109.55
556.686	12088.99
557.05	12174.86
557.413	12239.27
557.776	12191.13
558.139	12296.22
558.502	12460.51
558.865	12376.89
559.228	12524.01
559.59	12582.99
559.953	12571.24
560.316	12744.57
560.679	12786.37
561.041	12832.25
561.404	12894.17
561.767	12964
562.129	12926.03
562.492	13069.98
562.854	13122.18
563.217	13132.13
563.579	13186.36
563.941	13254.84
564.304	13296.42
564.666	13509.52
565.028	13483.08
565.39	13522.62
565.753	13651.43
566.115	13614.15
566.477	13742.96
566.839	13815.5
567.201	13821.83
567.563	13947.47
567.925	14052.33
568.287	13966.45
568.648	14044.19
569.01	14137.52
569.372	14205.54
569.734	14276.96
570.095	14426.33
570.457	14394.47
570.819	14513.33
571.18	14544.07
571.542	14667.68
571.903	14644.63
572.265	14746.32
572.626	14729.82
572.987	14768.69
573.349	14897.28
573.71	14955.81
574.071	15006.43
574.432	15016.14
574.794	15181.79
575.155	15082.13
575.516	15188.34
575.877	15180.89
576.238	15175.01
576.599	15368.45
576.96	15333.42
577.32	15414.55
577.681	15501.33
578.042	15510.82
578.403	15604.38
578.763	15668.56
579.124	15696.35
579.485	15755.11
579.845	15803.92
580.206	15891.15
580.566	15859.06
580.927	15854.09
581.287	15938.38
581.648	15914.88
582.008	15932.96
582.368	16010.24
582.728	16064.03
583.089	16154.19
583.449	16114.65
583.809	16094.31
584.169	16180.41
584.529	16208.43
584.889	16316.9
585.249	16243.46
585.609	16199.62
585.969	16337.69
586.329	16271.48
586.688	16397.58
587.048	16393.28
587.408	16436.67
587.768	16428.08
588.127	16460.4
588.487	16424.24
588.846	16533.62
589.206	16400.97
589.565	16544.69
589.925	16629.66
590.284	16544.92
590.643	16671.02
591.003	16652.26
591.362	16784.01
591.721	16710.34
592.08	16667.4
592.44	16805.02
592.799	16818.58
593.158	16764.35
593.517	16786.95
593.876	16873.5
594.235	16814.74
594.593	16915.98
594.952	17019.48
595.311	16857.9
595.67	16984
596.029	17042.76
596.387	17046.83
596.746	17085.24
597.104	17050.44
597.463	17128.18
597.822	17132.7
598.18	17125.02
598.538	17192.81
598.897	17257.22
599.255	17131.12
599.613	17387.83
599.972	17339.7
600.33	17403.43
600.688	17283.2
601.046	17400.26
601.404	17410.43
601.762	17446.36
602.12	17477.55
602.478	17563.87
602.836	17498.57
603.194	17510.09
603.552	17510.54
603.91	17520.49
604.268	17630.09
604.625	17574.5
604.983	17685.68
605.341	17593.93
605.698	17688.39
606.056	17787.82
606.413	17685.23
606.771	17811.1
607.128	17792.12
607.485	17808.39
607.843	17732.46
608.2	17882.96
608.557	18011.77
608.914	17929.29
609.272	18080.47
609.629	17953.69
609.986	18101.49
610.343	17923.64
610.7	18136.06
611.057	18106.01
611.414	18113.24
611.771	18201.6
612.127	18209.28
612.484	18193.01
612.841	18297.41
613.198	18150.75
613.554	18196.85
613.911	18366.34
614.267	18365.44
614.624	18336.28
614.98	18403.63
615.337	18478.65
615.693	18468.03
616.05	18472.1
616.406	18581.02
616.762	18542.83
617.118	18515.04
617.475	18572.21
617.831	18517.3
618.187	18491.53
618.543	18569.05
618.899	18701.7
619.255	18616.95
619.611	18729.27
619.967	18739.89
620.323	18785.54
620.678	18774.92
621.034	18687.91
621.39	18715.03
621.746	18743.5
622.101	18845.42
622.457	18731.3
622.812	18819.43
623.168	18893.56
623.523	18845.2
623.879	18825.76
624.234	18729.49
624.589	18799.55
624.945	18775.37
625.3	18813.56
625.655	18835.71
626.01	18844.52
626.365	18771.3
626.72	18773.56
627.075	18869.15
627.43	18813.56
627.785	18802.71
628.14	18811.53
628.495	18830.06
628.85	18836.84
629.205	18790.73
629.559	18837.06
629.914	18667.57
630.269	18847.23
630.623	18796.16
630.978	18730.85
631.332	18725.65
631.687	18875.7
632.041	18644.75
632.396	18767.68
632.75	18689.27
633.104	18674.58
633.459	18563.4
633.813	18566.56
634.167	18560.91
634.521	18615.6
634.875	18619.67
635.229	18672.09
635.583	18560.01
635.937	18510.74
636.291	18668.48
636.645	18541.93
636.999	18540.35
637.352	18583.51
637.706	18362.05
638.06	18468.94
638.413	18441.59
638.767	18435.94
639.121	18432.78
639.474	18331.54
639.828	18309.17
640.181	18346.9
640.534	18287.02
640.888	18290.41
641.241	18188.26
641.594	18266.23
641.947	18358.43
642.301	18288.83
642.654	18219.22
643.007	18282.27
643.36	18225.78
643.713	18206.34
644.066	18235.27
644.419	18157.98
644.771	18057.87
645.124	17983.98
645.477	17857.43
645.83	17698.33
646.182	17598
646.535	17648.84
646.888	17594.38
647.24	17495.18
647.593	17650.65
647.945	17555.96
648.298	17541.73
648.65	17394.84
649.002	17462.86
649.355	17450.66
649.707	17426.02
650.059	17584.21
650.411	17767.03
650.763	17777.65
651.115	17987.37
651.467	17975.16
651.819	17946.46
652.171	17845.67
652.523	17872.57
652.875	17723.64
653.227	17800.48
653.578	17867.6
653.93	17797.77
654.282	17840.48
654.633	17681.16
654.985	17741.04
655.337	17692.91
655.688	17757.99
656.039	17875.5
656.391	17748.5
656.742	17684.32
657.094	17692.23
657.445	17760.25
657.796	17725.68
658.147	17676.64
658.498	17705.57
658.849	17723.19
659.2	17732.01
659.551	17710.31
659.902	17798.44
660.253	17710.09
660.604	17774.26
660.955	17670.76
661.306	17714.15
661.656	17682.52
662.007	17719.8
662.358	17675.06
662.708	17776.3
663.059	17658.34
663.409	17540.6
663.76	17673.25
664.11	17723.19
664.461	17581.73
664.811	17713.47
665.161	17733.14
665.511	17648.84
665.862	17681.84
666.212	17733.59
666.562	17598.22
666.912	17586.02
667.262	17690.42
667.612	17633.93
667.962	17659.24
668.312	17570.2
668.662	17750.99
669.011	17673.93
669.361	17557.77
669.711	17638
670.06	17568.39
670.41	17548.51
670.76	17503.99
671.109	17633.48
671.459	17614.27
671.808	17573.37
672.157	17561.39
672.507	17501.28
672.856	17508.96
673.205	17633.03
673.554	17686.13
673.904	17500.37
674.253	17643.19
674.602	17579.02
674.951	17278.68
675.3	17237.78
675.649	17452.01
675.998	17439.81
676.346	17515.29
676.695	17636.64
677.044	17366.82
677.393	17494.5
677.741	17417.89
678.09	17461.28
678.438	17445.01
678.787	17493.14
679.135	17388.51
679.484	17253.83
679.832	17388.06
680.181	17282.07
680.529	17365.01
680.877	17350.09
681.225	17273.03
681.573	17384.67
681.922	17334.73
682.27	17129.76
682.618	17254.28
682.966	17113.49
683.314	17276.65
683.661	17138.57
684.009	17107.62
684.357	17076.66
684.705	17069.88
685.053	17124.79
685.4	16957.56
685.748	16859.49
686.095	16846.61
686.443	16890.45
686.79	16794.86
687.138	16851.8
687.485	16786.95
687.832	16765.7
688.18	16811.58
688.527	16738.81
688.874	16737
689.221	16672.15
689.568	16653.39
689.915	16600.51
690.262	16596.67
690.609	16620.17
690.956	16528.2
691.303	16440.51
691.65	16377.69
691.997	16455.2
692.344	16393.06
692.69	16336.56
693.037	16262.67
693.383	16212.95
693.73	16306.51
694.077	16174.53
694.423	16242.55
694.769	16151.48
695.116	16030.58
695.462	16086.4
695.808	15936.57
696.155	16004.14
696.501	15823.36
696.847	15982.9
697.193	15748.1
697.539	15829.91
697.885	15720.53
698.231	15680.53
698.577	15701.55
698.923	15624.04
699.269	15551.27
699.614	15440.09
699.96	15547.43
700.306	15546.98
700.651	15466.08
700.997	15365.06
701.342	15310.37
701.688	15339.98
702.033	15280.09
702.379	15273.09
702.724	15199.19
703.069	15257.04
703.415	15078.52
703.76	15117.38
704.105	15146.08
704.45	15124.62
704.795	14956.94
705.14	14912.64
705.485	14974.56
705.83	14942.02
706.175	14879.88
706.52	14867.9
706.865	14690.5
707.209	14735.02
707.554	14667.68
707.899	14692.54
708.243	14559.66
708.588	14546.1
708.932	14554.24
709.277	14508.81
709.621	14572.09
709.966	14429.49
710.31	14459.78
710.654	14346.11
710.998	14418.65
711.342	14373.22
711.687	14349.04
712.031	14361.47
712.375	14285.09
712.719	14291.64
713.063	14196.96
713.407	14317.63
713.75	14184.53
714.094	14166.22
714.438	14217.52
714.782	14160.12
715.125	14108.82
715.469	14110.86
715.812	14110.63
716.156	13952.44
716.499	13970.52
716.843	13968.94
717.186	13904.31
717.53	14015.27
717.873	13919.22
718.216	13859.79
718.559	13909.96
718.902	13869.06
719.246	13841.49
719.589	13757.42
719.932	13733.69
720.275	13763.52
720.617	13715.61
720.96	13723.75
721.303	13782.96
721.646	13708.38
721.989	13617.31
722.331	13748.61
722.674	13638.33
723.016	13707.48
723.359	13561.72
723.701	13669.06
724.044	13564.43
724.386	13514.26
724.729	13514.72
725.071	13531.66
725.413	13479.69
725.755	13498.44
726.097	13553.36
726.439	13453.02
726.782	13373.7
727.124	13511.1
727.465	13419.8
727.807	13394.04
728.149	13399.92
728.491	13452.12
728.833	13339.13
729.175	13368.96
729.516	13370.09
729.858	13323.31
730.199	13288.96
730.541	13304.1
730.882	13224.1
731.224	13287.15
731.565	13254.84
731.906	13216.64
732.248	13269.3
732.589	13193.37
732.93	13239.92
733.271	13173.26
733.612	13247.38
733.953	13227.49
734.294	13101.39
734.635	13111.11
734.976	13134.61
735.317	13087.83
735.658	13111.34
735.999	13041.06
736.339	13088.96
736.68	13199.24
737.021	13109.3
737.361	13008.29
737.702	13139.36
738.042	13097.33
738.383	13007.61
738.723	13088.29
739.063	13108.62
739.404	13017.1
739.744	12997.67
740.084	12938.69
740.424	12985.92
740.764	12910.89
741.104	13034.28
741.444	12934.84
741.784	12918.8
742.124	12954.73
742.464	12899.14
742.804	12923.32
743.143	12851.23
743.483	12967.16
743.823	12813.26
744.162	12840.38
744.502	12830.67
744.841	12791.57
745.181	12884.22
745.52	12779.82
745.86	12839.48
746.199	12776.43
746.538	12722.19
746.877	12748.41
747.216	12786.6
747.556	12777.33
747.895	12774.17
748.234	12649.88
748.573	12597.68
748.911	12752.48
749.25	12668.64
749.589	12572.14
749.928	12691.91
750.267	12675.19
750.605	12609.65
750.944	12626.15
751.283	12629.31
751.621	12617.34
751.96	12597
752.298	12491.69
752.636	12584.8
752.975	12469.77
753.313	12448.3
753.651	12539.83
753.989	12505.93
754.327	12420.96
754.666	12391.13
755.004	12388.64
755.342	12385.48
755.679	12433.16
756.017	12350.45
756.355	12299.61
756.693	12227.07
757.031	12196.33
757.368	12222.77
757.706	12209.89
758.044	12126.05
758.381	12161.98
758.719	12152.94
759.056	12136.45
759.394	12228.42
759.731	12017.81
760.068	12034.75
760.405	11997.92
760.743	11877.92
761.08	11978.94
761.417	11872.05
761.754	11846.51
762.091	11846.28
762.428	11846.96
762.765	11743.46
763.102	11737.81
763.438	11702.33
763.775	11646.97
764.112	11575.11
764.449	11647.87
764.785	11621.66
765.122	11471.15
765.458	11448.78
765.795	11459.63
766.131	11372.17
766.467	11341.44
766.804	11343.7
767.14	11297.6
767.476	11292.63
767.812	11196.36
768.148	11214.66
768.485	11165.85
768.821	11092.18
769.157	11089.47
769.492	11046.53
769.828	11047.89
770.164	10916.14
770.5	10945.07
770.836	10955.91
771.171	10855.8
771.507	10817.61
771.842	10768.12
772.178	10736.71
772.513	10630.95
772.849	10713.88
773.184	10668.24
773.519	10654.45
773.855	10614.45
774.19	10568.8
774.525	10479.09
774.86	10418.98
775.195	10460.11
775.53	10410.62
775.865	10341.92
776.2	10288.13
776.535	10213.79
776.87	10247.68
777.205	10162.71
777.539	10137.18
777.874	10172.88
778.209	10020.57
778.543	10046.78
778.878	9963.4
779.212	9968.59
779.547	9904.41
779.881	9915.94
780.215	9893.79
780.55	9864.64
780.884	9794.36
781.218	9774.93
781.552	9780.8
781.886	9700.8
782.22	9673.46
782.554	9648.15
782.888	9574.93
783.222	9546.91
783.556	9509.4
783.889	9475.95
784.223	9333.58
784.557	9419
784.89	9416.29
785.224	9357.08
785.557	9316.86
785.891	9272.79
786.224	9244.09
786.558	9310.31
786.891	9123.64
787.224	9116.86
787.557	9103.53
787.891	9134.04
788.224	9041.39
788.557	9050.88
788.89	9005.46
789.223	8976.76
789.556	8947.15
789.888	8952.58
790.221	8903.76
790.554	8833.03
790.887	8774.27
791.219	8775.18
791.552	8751.68
791.884	8706.48
792.217	8710.55
792.549	8619.7
792.882	8667.16
793.214	8489.31
793.546	8560.5
793.879	8511.01
794.211	8468.29
794.543	8525.02
794.875	8461.74
795.207	8501.29
795.539	8427.62
795.871	8385.36
796.203	8371.35
796.535	8255.42
796.867	8277.34
797.198	8259.49
797.53	8247.06
797.862	8215.87
798.193	8219.04
798.525	8158.47
798.856	8113.05
799.188	8086.38
799.519	8050.23
799.85	8018.59
800.182	8059.27
800.513	8056.33
800.844	7966.61
801.175	8012.49
801.506	8008.87
801.837	7897.24
802.168	7899.27
802.499	7911.02
802.83	7792.83
803.161	7811.59
803.491	7845.26
803.822	7801.65
804.153	7760.97
804.483	7650.91
804.814	7717.35
805.145	7728.43
805.475	7589.45
805.805	7609.56
806.136	7576.34
806.466	7541.09
806.796	7545.15
807.126	7488.43
807.457	7529.11
807.787	7474.2
808.117	7471.26
808.447	7387.87
808.777	7378.15
809.107	7404.59
809.436	7415.44
809.766	7372.05
810.096	7350.13
810.426	7277.37
810.755	7361.66
811.085	7280.75
811.414	7323.92
811.744	7231.72
812.073	7234.65
812.403	7202.34
812.732	7144.04
813.061	7165.5
813.39	7135.67
813.719	7116.92
814.049	7095
814.378	7086.86
814.707	7080.08
815.036	7106.07
815.365	7001.67
815.693	6935.45
816.022	6982.01
816.351	6986.53
816.68	6949.69
817.008	6951.27
817.337	6864.49
817.665	6874.44
817.994	6856.13
818.322	6886.19
818.651	6829.02
818.979	6787.66
819.307	6895
819.636	6752.63
819.964	6791.05
820.292	6791.5
820.62	6770.49
820.948	6734.55
821.276	6815
821.604	6782.46
821.932	6758.28
822.259	6791.28
822.587	6779.07
822.915	6720.09
823.243	6813.87
823.57	6696.36
823.898	6691.39
824.225	6748.57
824.553	6701.56
824.88	6665.18
825.207	6804.84
825.535	6716.93
825.862	6719.87
826.189	6702.24
826.516	6753.31
826.843	6717.83
827.17	6776.81
827.497	6763.03
827.824	6710.37
828.151	6703.82
828.478	6690.71
828.805	6720.77
829.131	6712.63
829.458	6712.18
829.785	6722.58
830.111	6762.8
830.438	6692.07
830.764	6728.23
831.09	6682.8
831.417	6685.06
831.743	6676.93
832.069	6706.53
832.395	6684.61
832.722	6652.75
833.048	6701.56
833.374	6640.55
833.7	6604.61
834.026	6621.79
834.351	6622.47
834.677	6606.87
835.003	6621.79
835.329	6621.79
835.654	6611.62
835.98	6624.27
836.306	6612.3
836.631	6556.25
836.956	6614.33
837.282	6584.5
837.607	6561.68
837.932	6497.5
838.258	6545.63
838.583	6499.76
838.908	6492.98
839.233	6533.66
839.558	6454.34
839.883	6470.38
840.208	6434.45
840.533	6423.83
840.858	6406.2
841.182	6393.55
841.507	6413.66
841.832	6413.66
842.156	6380.21
842.481	6330.27
842.805	6333.89
843.13	6298.63
843.454	6286.2
843.778	6249.37
844.103	6328.24
844.427	6297.73
844.751	6259.99
845.075	6227.22
845.399	6227
845.723	6166.43
846.047	6208.47
846.371	6085.76
846.695	6152.2
847.019	6140.67
847.343	6086.66
847.666	6002.6
847.99	6037.62
848.313	5999.43
848.637	5984.97
848.96	6027.91
849.284	5975.93
849.607	5898.19
849.931	5894.12
850.254	5882.37
850.577	5828.59
850.9	5826.56
851.223	5857.06
851.546	5789.72
851.869	5756.73
852.192	5809.16
852.515	5701.59
852.838	5659.33
853.161	5664.98
853.483	5658.2
853.806	5636.96
854.129	5610.52
854.451	5666.56
854.774	5624.53
855.096	5587.92
855.419	5569.39
855.741	5568.94
856.063	5547.92
856.385	5500.24
856.708	5515.6
857.03	5529.16
857.352	5481.25
857.674	5441.48
857.996	5448.94
858.318	5391.77
858.64	5431.99
858.961	5376.62
859.283	5403.52
859.605	5389.51
859.926	5379.34
860.248	5291.88
860.57	5304.99
860.891	5351.31
861.212	5271.77
861.534	5255.05
861.855	5228.83
862.176	5306.8
862.498	5269.73
862.819	5262.05
863.14	5213.46
863.461	5257.53
863.782	5260.7
864.103	5236.06
864.424	5192.45
864.745	5244.42
865.065	5205.78
865.386	5196.06
865.707	5178.44
866.027	5173.92
866.348	5132.79
866.668	5102.06
866.989	5144.09
867.309	5085.33
867.63	5096.63
867.95	5166.69
868.27	5122.17
868.59	5086.01
868.91	5053.69
869.23	5121.72
869.55	5044.88
869.87	5083.3
870.19	5037.65
870.51	5113.81
870.83	5093.92
871.15	5031.1
871.469	4985.9
871.789	5032.45
872.109	5033.36
872.428	5005.79
872.748	4998.56
873.067	5001.94
873.386	4999.46
873.706	5034.26
874.025	4972.34
874.344	4995.84
874.663	4988.16
874.982	4961.49
875.301	4937.77
875.62	4922.85
875.939	4922.17
876.258	4904.55
876.577	4914.94
876.896	4885.34
877.214	4909.52
877.533	4898.9
877.852	4874.94
878.17	4864.55
878.489	4847.15
878.807	4819.12
879.125	4868.84
879.444	4868.39
879.762	4848.05
880.08	4851.44
880.398	4813.25
880.716	4862.06
881.034	4808.5
881.352	4794.27
881.67	4819.58
881.988	4800.14
882.306	4765.11
882.624	4770.09
882.941	4759.01
883.259	4733.48
883.577	4757.43
883.894	4709.98
884.212	4753.14
884.529	4705.46
884.846	4691.22
885.164	4660.26
885.481	4692.35
885.798	4687.38
886.115	4650.32
886.432	4649.64
886.75	4623.88
887.067	4617.32
887.383	4615.29
887.7	4688.05
888.017	4572.8
888.334	4595.4
888.651	4652.35
888.967	4571.67
889.284	4529.64
889.6	4561.28
889.917	4519.47
890.233	4540.71
890.55	4530.77
890.866	4499.36
891.182	4483.54
891.498	4493.26
891.815	4504.78
892.131	4418.01
892.447	4424.56
892.763	4415.29
893.079	4397.89
893.395	4377.78
893.71	4409.87
894.026	4381.62
894.342	4385.69
894.657	4352.7
894.973	4375.07
895.289	4383.43
895.604	4358.57
895.92	4294.17
896.235	4265.69
896.55	4278.8
896.865	4317.67
897.181	4305.47
897.496	4264.79
897.811	4256.2
898.126	4282.42
898.441	4222.53
898.756	4253.72
899.071	4159.26
899.386	4228.86
899.7	4171.91
900.015	4197.45
900.33	4136.88
900.644	4081.97
900.959	4170.1
901.273	4129.65
901.588	4104.34
901.902	4089.88
902.216	4058.47
902.531	4025.47
902.845	4059.37
903.159	4040.61
903.473	4041.97
903.787	3970.79
904.101	3973.05
904.415	3947.74
904.729	3926.94
905.042	3969.88
905.356	3915.87
905.67	3930.33
905.984	3953.38
906.297	3910.67
906.611	3895.31
906.924	3905.02
907.237	3888.75
907.551	3896.21
907.864	3829.55
908.177	3850.11
908.491	3826.38
908.804	3809.21
909.117	3814.63
909.43	3782.09
909.743	3758.59
910.056	3731.92
910.368	3737.8
910.681	3727.18
910.994	3688.08
911.307	3684.01
911.619	3700.06
911.932	3658.48
912.244	3702.54
912.557	3697.12
912.869	3629.78
913.181	3608.54
913.494	3599.04
913.806	3582.1
914.118	3619.38
914.43	3593.85
914.742	3570.34
915.054	3555.66
915.366	3530.8
915.678	3494.87
915.99	3519.5
916.302	3503.91
916.613	3453.28
916.925	3436.56
917.236	3474.08
917.548	3478.82
917.859	3438.37
918.171	3393.17
918.482	3409.9
918.794	3363.57
919.105	3416.22
919.416	3336.45
919.727	3350.01
920.038	3367.41
920.349	3339.84
920.66	3316.57
920.971	3318.6
921.282	3293.52
921.593	3282.44
921.903	3272.5
922.214	3280.86
922.525	3275.21
922.835	3260.75
923.146	3223.91
923.456	3227.3
923.767	3189.11
924.077	3231.37
924.387	3191.37
924.697	3164.48
925.008	3172.16
925.318	3132.62
925.628	3133.07
925.938	3101.66
926.248	3104.59
926.558	3077.7
926.867	3076.8
927.177	3077.48
927.487	3078.15
927.796	3031.6
928.106	3074.31
928.416	3013.3
928.725	3040.64
929.034	3023.47
929.344	2995.9
929.653	2978.72
929.962	2970.59
930.271	2956.57
930.581	2963.58
930.89	2946.86
931.199	2912.51
931.508	2964.03
931.817	2945.73
932.125	2899.63
932.434	2907.99
932.743	2875.22
933.051	2867.99
933.36	2851.04
933.669	2812.4
933.977	2837.71
934.286	2802
934.594	2796.58
934.902	2792.96
935.21	2764.72
935.519	2774.43
935.827	2775.56
936.135	2782.34
936.443	2737.37
936.751	2698.5
937.059	2737.82
937.367	2729.01
937.674	2701.89
937.982	2700.08
938.29	2693.98
938.597	2728.56
938.905	2642.23
939.213	2673.64
939.52	2647.43
939.827	2640.2
940.135	2675
940.442	2626.19
940.749	2636.13
941.056	2616.02
941.363	2603.59
941.67	2604.95
941.977	2596.13
942.284	2556.59
942.591	2536.47
942.898	2554.78
943.205	2529.47
943.511	2501.22
943.818	2551.84
944.125	2515.68
944.431	2509.35
944.738	2509.35
945.044	2482.69
945.35	2464.38
945.657	2440.43
945.963	2510.94
946.269	2450.15
946.575	2431.16
946.881	2404.72
947.187	2425.52
947.493	2415.57
947.799	2389.58
948.105	2397.95
948.41	2378.51
948.716	2356.82
949.022	2398.85
949.327	2352.07
949.633	2334.9
949.938	2324.73
950.244	2326.53
950.549	2349.81
950.854	2309.59
951.16	2292.19
951.465	2298.51
951.77	2298.51
952.075	2277.95
952.38	2260.77
952.685	2288.34
952.99	2246.31
953.294	2235.01
953.599	2257.84
953.904	2224.62
954.209	2226.42
954.513	2230.49
954.818	2190.95
955.122	2204.5
955.426	2189.82
955.731	2200.44
956.035	2165.86
956.339	2177.16
956.643	2156.14
956.948	2156.37
957.252	2121.79
957.556	2113.43
957.86	2155.69
958.163	2122.02
958.467	2092.64
958.771	2132.42
959.075	2098.52
959.378	2071.4
959.682	2098.29
959.985	2068.46
960.289	2065.07
960.592	2055.81
960.896	2069.37
961.199	2035.24
961.502	2046.99
961.805	2017.62
962.108	2023.72
962.411	2020.55
962.714	2007.22
963.017	1999.31
963.32	1986.2
963.623	2010.61
963.926	1967
964.228	1949.82
964.531	1953.44
964.833	1962.93
965.136	1936.49
965.438	1923.61
965.741	1936.94
966.043	1897.62
966.345	1906.88
966.648	1940.33
966.95	1907.11
967.252	1878.19
967.554	1882.7
967.856	1901.69
968.158	1864.85
968.46	1861.24
968.761	1857.62
969.063	1862.59
969.365	1857.39
969.666	1841.12
969.968	1820.79
970.269	1820.56
970.571	1841.35
970.872	1807
971.174	1795.25
971.475	1817.62
971.776	1794.35
972.077	1818.53
972.378	1803.38
972.679	1785.08
972.98	1781.46
973.281	1784.4
973.582	1717.74
973.883	1737.85
974.183	1752.31
974.484	1724.06
974.785	1727.91
975.085	1712.54
975.386	1711.18
975.686	1712.77
975.986	1722.93
976.287	1694.01
976.587	1720.68
976.887	1656.5
977.187	1671.86
977.487	1683.16
977.787	1671.18
978.087	1680
978.387	1656.27
978.687	1680.45
978.987	1617.17
979.286	1636.16
979.586	1633.67
979.885	1630.06
980.185	1634.58
980.484	1617.63
980.784	1592.09
981.083	1607.46
981.382	1587.57
981.682	1595.71
981.981	1574.69
982.28	1584.63
982.579	1522.49
982.878	1560
983.177	1540.79
983.475	1568.59
983.774	1548.7
984.073	1542.83
984.372	1540.79
984.67	1522.49
984.969	1532.66
985.267	1533.56
985.566	1530.62
985.864	1531.3
986.162	1495.6
986.461	1497.4
986.759	1481.59
987.057	1504.18
987.355	1462.83
987.653	1461.92
987.951	1455.82
988.249	1468.25
988.547	1456.28
988.844	1464.41
989.142	1481.81
989.44	1438.65
989.737	1442.94
990.035	1445.65
990.332	1433.45
990.63	1418.31
990.927	1421.47
991.224	1413.11
991.521	1416.5
991.819	1387.8
992.116	1388.71
992.413	1362.49
992.71	1388.71
993.006	1386.67
993.303	1377.86
993.6	1377.41
993.897	1370.85
994.193	1354.58
994.49	1332.21
994.787	1329.95
995.083	1334.24
995.379	1335.37
995.676	1340.8
995.972	1315.04
996.268	1303.96
996.565	1325.43
996.861	1310.29
997.157	1298.09
997.453	1269.61
997.749	1291.53
998.044	1258.09
998.34	1270.97
998.636	1276.62
998.932	1276.39
999.227	1231.42
999.523	1261.93
999.818	1255.83
1000.114	1209.73
1000.409	1209.73
1000.704	1226.68
1001	1233.23
1001.295	1215.38
1001.59	1226
1001.885	1209.73
1002.18	1196.17
1002.475	1205.89
1002.77	1181.48
1003.065	1203.85
1003.359	1174.7
1003.654	1174.47
1003.949	1167.92
1004.243	1164.76
1004.538	1173.34
1004.832	1167.24
1005.127	1161.37
1005.421	1154.36
1005.715	1176.96
1006.009	1138.09
1006.304	1132.67
1006.598	1124.76
1006.892	1122.72
1007.186	1127.7
1007.48	1121.14
1007.773	1089.28
1008.067	1091.09
1008.361	1063.74
1008.655	1064.87
1008.948	1105.1
1009.242	1087.02
1009.535	1073.23
1009.829	1083.63
1010.122	1029.62
1010.415	1084.76
1010.708	1069.62
1011.001	1072.56
1011.295	1029.62
1011.588	1049.05
1011.881	1042.95
1012.173	1019.22
1012.466	1027.36
1012.759	1014.93
1013.052	1033.69
1013.344	1031.2
1013.637	997.76
1013.93	987.81
1014.222	987.36
1014.514	976.97
1014.807	986.01
1015.099	929.51
1015.391	955.72
1015.683	963.18
1015.976	951.88
1016.268	969.51
1016.56	966.57
1016.851	941.03
1017.143	932.67
1017.435	945.33
1017.727	952.11
1018.018	939.23
1018.31	956.4
1018.602	933.13
1018.893	911.88
1019.185	895.61
1019.476	911.88
1019.767	881.83
1020.058	891.54
1020.35	878.66
1020.641	882.96
1020.932	896.52
1021.223	875.27
1021.514	883.86
1021.804	899.68
1022.095	870.53
1022.386	887.7
1022.677	860.58
1022.967	844.31
1023.258	830.98
1023.548	846.57
1023.839	829.63
1024.129	846.57
1024.419	825.33
1024.709	834.37
1025	840.47
1025.29	841.6
1025.58	822.17
1025.87	815.16
1026.16	800.93
1026.449	831.43
1026.739	795.5
1027.029	820.81
1027.319	779.91
1027.608	793.24
1027.898	787.59
1028.187	795.28
1028.477	751.66
1028.766	762.96
1029.055	781.04
1029.344	764.09
1029.634	757.08
1029.923	755.95
1030.212	761.15
1030.501	739.91
1030.79	729.74
1031.078	748.05
1031.367	748.05
1031.656	749.63
1031.945	725.67
1032.233	726.58
1032.522	727.03
1032.81	714.15
1033.099	718.67
1033.387	699.46
1033.675	710.76
1033.963	713.47
1034.251	728.61
1034.54	688.61
1034.828	706.24
1035.116	689.74
1035.403	696.52
1035.691	673.47
1035.979	689.97
1036.267	660.36
1036.554	684.32
1036.842	671.89
1037.129	661.04
1037.417	665.11
1037.704	654.71
1037.992	666.01
1038.279	643.64
1038.566	633.25
1038.853	633.25
1039.14	633.25
