Data from tablewood_brown_FLMS001491_024.txt Node
Date: Tue Feb 07 11:10:14 GMT 2017
User: dcchb
Spectrometer: FLMS00149
Trigger mode: 0
Integration Time (sec): 2.000000E-2
Scans to average: 10
Electric dark correction enabled: true
Nonlinearity correction enabled: false
Boxcar width: 0
XAxis mode: Wavelengths
Number of Pixels in Spectrum: 2048
>>>>>Begin Spectral Data<<<<<
341.393	-10.32
341.776	-10.32
342.16	-10.32
342.543	-63.2
342.927	-68.85
343.31	-66.59
343.693	-75.63
344.077	-67.5
344.46	-63.66
344.843	-59.81
345.226	-27.27
345.61	-26.37
345.993	-18.23
346.376	-6.48
346.759	-3.32
347.142	30.35
347.525	60.63
347.908	57.24
348.291	71.48
348.674	92.05
349.057	103.12
349.44	124.14
349.823	136.79
350.206	147.86
350.588	190.12
350.971	197.81
351.354	199.16
351.737	215.43
352.119	246.39
352.502	257.46
352.884	278.48
353.267	290.91
353.65	288.2
354.032	297.01
354.414	324.36
354.797	314.41
355.179	297.24
355.562	319.16
355.944	306.96
356.326	337.01
356.709	332.04
357.091	337.69
357.473	343.56
357.855	331.81
358.238	352.83
358.62	338.82
359.002	332.94
359.384	350.57
359.766	348.08
360.148	341.98
360.53	333.17
360.912	324.36
361.294	336.33
361.676	338.14
362.057	332.94
362.439	339.72
362.821	309.44
363.203	318.93
363.584	327.75
363.966	337.69
364.348	315.99
364.729	314.86
365.111	330.91
365.493	333.85
365.874	321.87
366.256	299.27
366.637	332.72
367.019	306.96
367.4	318.25
367.781	319.84
368.163	330.01
368.544	319.38
368.925	309.67
369.306	337.24
369.688	301.98
370.069	310.8
370.45	323.9
370.831	305.15
371.212	322.32
371.593	327.97
371.974	322.32
372.355	335.88
372.736	315.99
373.117	337.69
373.498	332.49
373.879	309.67
374.26	310.57
374.641	344.69
375.021	318.71
375.402	312.15
375.783	341.53
376.163	334.98
376.544	336.11
376.925	329.1
377.305	326.39
377.686	332.49
378.066	347.18
378.447	338.59
378.827	332.27
379.208	333.85
379.588	337.69
379.968	333.4
380.349	354.19
380.729	349.21
381.109	336.78
381.489	343.34
381.87	331.81
382.25	358.25
382.63	359.61
383.01	380.85
383.39	362.32
383.77	363.45
384.15	366.39
384.53	373.17
384.91	381.3
385.29	362.55
385.67	380.4
386.049	393.51
386.429	376.33
386.809	382.21
387.189	368.42
387.568	385.15
387.948	393.96
388.328	376.56
388.707	384.02
389.087	366.16
389.466	404.58
389.846	389.44
390.225	396.44
390.605	381.53
390.984	406.16
391.363	369.78
391.743	417.01
392.122	409.1
392.501	411.59
392.881	426.95
393.26	435.31
393.639	413.17
394.018	427.86
394.397	423.79
394.776	415.88
395.155	435.54
395.534	433.96
395.913	419.04
396.292	452.26
396.671	435.09
397.05	440.74
397.429	431.25
397.808	443.67
398.186	450
398.565	441.41
398.944	436.9
399.323	447.29
399.701	413.39
400.08	441.64
400.458	471.02
400.837	485.48
401.215	478.48
401.594	504.24
401.972	493.16
402.351	476.22
402.729	490.45
403.107	502.88
403.486	486.16
403.864	486.84
404.242	484.8
404.62	503.33
404.999	507.18
405.377	531.36
405.755	525.25
406.133	525.93
406.511	502.2
406.889	517.57
407.267	531.81
407.645	522.77
408.023	534.97
408.401	533.84
408.779	565.48
409.156	544.24
409.534	551.92
409.912	560.51
410.29	594.63
410.667	585.59
411.045	574.97
411.422	585.37
411.8	583.78
412.178	601.86
412.555	619.94
412.933	602.31
413.31	605.48
413.687	587.85
414.065	615.65
414.442	628.75
414.819	627.85
415.197	610.9
415.574	645.7
415.951	644.12
416.328	669.88
416.705	652.26
417.082	675.76
417.46	681.18
417.837	683.67
418.214	643.9
418.591	671.24
418.967	667.17
419.344	692.71
419.721	673.05
420.098	671.01
420.475	689.32
420.852	682.09
421.228	693.61
421.605	700.39
421.982	718.92
422.358	726.83
422.735	715.98
423.111	727.74
423.488	731.35
423.864	746.27
424.241	755.98
424.617	744.01
424.994	758.92
425.37	769.54
425.746	762.76
426.123	749.88
426.499	793.72
426.875	792.14
427.251	807.28
427.627	801.18
428.003	808.41
428.379	828.07
428.756	833.04
429.132	816.09
429.507	833.27
429.883	841.63
430.259	847.51
430.635	859.26
431.011	888.18
431.387	899.48
431.763	906.04
432.138	908.75
432.514	904.45
432.89	912.36
433.265	936.32
433.641	933.61
434.016	946.49
434.392	941.74
434.767	987.62
435.143	990.55
435.518	992.81
435.894	1013.38
436.269	1027.16
436.644	1018.12
437.02	1035.52
437.395	1038.91
437.77	1046.82
438.145	1068.29
438.52	1053.6
438.895	1077.56
439.271	1069.2
439.646	1101.28
440.021	1104.67
440.395	1109.19
440.77	1077.78
441.145	1117.56
441.52	1132.47
441.895	1129.53
442.27	1153.94
442.645	1167.72
443.019	1180.6
443.394	1172.47
443.769	1194.84
444.143	1181.28
444.518	1193.94
444.892	1168.18
445.267	1210.66
445.641	1179.02
446.016	1226.25
446.39	1235.29
446.764	1211.34
447.139	1207.04
447.513	1243.2
447.887	1231.68
448.262	1254.05
448.636	1268.74
449.01	1274.39
449.384	1297.66
449.758	1279.58
450.132	1309.87
450.506	1324.78
450.88	1348.96
451.254	1324.56
451.628	1329.98
452.002	1325.91
452.376	1355.52
452.75	1358.23
453.123	1388.28
453.497	1402.29
453.871	1420.82
454.244	1430.54
454.618	1463.99
454.992	1437.77
455.365	1460.37
455.739	1499.24
456.112	1527.49
456.486	1515.29
456.859	1536.75
457.232	1599.58
457.606	1551.67
457.979	1561.39
458.352	1605
458.725	1614.27
459.099	1636.19
459.472	1632.57
459.845	1661.95
460.218	1669.41
460.591	1717.99
460.964	1666.02
461.337	1764.32
461.71	1738.78
462.083	1797.54
462.456	1814.26
462.829	1822.85
463.201	1889.29
463.574	1847.48
463.947	1905.33
464.32	1925.44
464.692	1920.02
465.065	1933.35
465.438	1956.18
465.81	1996.4
466.183	2005.89
466.555	2058.1
466.928	2089.06
467.3	2101.26
467.672	2135.38
468.045	2192.56
468.417	2184.87
468.789	2209.05
469.161	2270.07
469.534	2262.38
469.906	2323.4
470.278	2354.13
470.65	2371.53
471.022	2445.88
471.394	2498.31
471.766	2489.95
472.138	2539.21
472.51	2615.37
472.882	2649.49
473.253	2656.95
473.625	2728.81
473.997	2782.6
474.369	2833.89
474.74	2856.04
475.112	2898.75
475.484	2971.07
475.855	3075.47
476.227	3034.34
476.598	3171.74
476.97	3207.44
477.341	3308.01
477.713	3308.91
478.084	3337.61
478.455	3442.01
478.827	3508.68
479.198	3631.39
479.569	3616.47
479.94	3700.99
480.311	3799.74
480.682	3890.36
481.053	3971.27
481.424	4049.68
481.795	4114.54
482.166	4161.77
482.537	4207.42
482.908	4324.48
483.279	4411.48
483.65	4463.68
484.021	4546.39
484.391	4642.89
484.762	4665.03
485.133	4729.21
485.503	4848.3
485.874	4888.08
486.244	4992.26
486.615	5032.25
486.985	5149.54
487.356	5262.98
487.726	5320.38
488.097	5448.97
488.467	5394.28
488.837	5541.85
489.207	5603.31
489.578	5714.95
489.948	5713.59
490.318	5782.52
490.688	5864.1
491.058	5945.68
491.428	6017.09
491.798	6114.94
492.168	6228.83
492.538	6241.94
492.908	6276.06
493.278	6455.95
493.648	6408.04
494.017	6549.95
494.387	6533.46
494.757	6642.83
495.126	6685.09
495.496	6721.93
495.866	6847.35
496.235	6938.65
496.605	6997.85
496.974	6996.72
497.344	7028.59
497.713	7123.05
498.082	7176.15
498.452	7289.82
498.821	7300.9
499.19	7285.75
499.559	7409.82
499.928	7425.64
500.298	7462.93
500.667	7589.48
501.036	7615.24
501.405	7617.95
501.774	7690.72
502.143	7782.24
502.512	7877.38
502.88	7950.14
503.249	7929.13
503.618	7990.14
503.987	8026.53
504.356	8115.79
504.724	8144.04
505.093	8192.85
505.462	8242.79
505.83	8353.52
506.199	8375.67
506.567	8498.15
506.936	8508.32
507.304	8641.65
507.672	8596.91
508.041	8673.06
508.409	8778.82
508.777	8802.55
509.145	8912.83
509.514	8910.34
509.882	9067.63
510.25	9121.64
510.618	9215.42
510.986	9189.21
511.354	9192.82
511.722	9404.12
512.09	9442.31
512.458	9435.08
512.826	9553.72
513.193	9651.57
513.561	9756.42
513.929	9827.61
514.297	9852.01
514.664	9953.48
515.032	10066.25
515.4	10031.9
515.767	10172.91
516.135	10201.84
516.502	10233.93
516.869	10452.45
517.237	10479.8
517.604	10490.42
517.972	10588.72
518.339	10753.01
518.706	10756.62
519.073	10796.85
519.44	10948.48
519.808	11085.88
520.175	11088.82
520.542	11227.12
520.909	11298.08
521.276	11335.59
521.643	11454.46
522.009	11515.47
522.376	11630.5
522.743	11802.47
523.11	11856.71
523.477	11965.63
523.843	12038.62
524.21	12115.23
524.577	12289.24
524.943	12345.51
525.31	12414.43
525.676	12494.66
526.043	12549.8
526.409	12653.3
526.776	12847.87
527.142	12912.27
527.508	12941.2
527.874	13110.69
528.241	13119.5
528.607	13225.49
528.973	13319.49
529.339	13353.17
529.705	13462.09
530.071	13667.28
530.437	13688.3
530.803	13814.62
531.169	13880.16
531.535	13847.39
531.901	13894.39
532.267	13988.63
532.632	14036.99
532.998	14181.62
533.364	14264.78
533.73	14265.01
534.095	14405.34
534.461	14450.76
534.826	14567.37
535.192	14648.05
535.557	14669.29
535.923	14689.85
536.288	14778.44
536.653	14885.33
537.019	14883.97
537.384	14970.3
537.749	14997.19
538.114	15091.2
538.479	15052.33
538.845	15217.07
539.21	15163.74
539.575	15230.63
539.94	15279.22
540.305	15339.55
540.67	15389.95
541.034	15542.26
541.399	15542.49
541.764	15557.63
542.129	15711.07
542.494	15724.85
542.858	15763.05
543.223	15812.76
543.587	15881.23
543.952	15839.43
544.316	15929.6
544.681	15929.37
545.045	16025.41
545.41	16094.56
545.774	16283.48
546.138	16236.03
546.503	16306.08
546.867	16385.18
547.231	16480.09
547.595	16466.53
547.959	16556.92
548.324	16661.1
548.688	16658.62
549.052	16800.31
549.416	16831.94
549.779	16918.72
550.143	16969.57
550.507	17122.78
550.871	17140.86
551.235	17099.51
551.599	17352.16
551.962	17379.73
552.326	17398.03
552.689	17591.02
553.053	17478.93
553.417	17681.19
553.78	17988.3
554.143	18007.05
554.507	18007.51
554.87	18124.11
555.234	18264.22
555.597	18296.76
555.96	18387.16
556.323	18512.58
556.686	18586.02
557.05	18704.21
557.413	18835.51
557.776	18983.98
558.139	19040.02
558.502	19055.84
558.865	19199.11
559.228	19428.26
559.59	19547.13
559.953	19778.08
560.316	19888.81
560.679	19979.21
561.041	20117.51
561.404	20235.47
561.767	20398.86
562.129	20404.05
562.492	20705.29
562.854	20794.55
563.217	20811.05
563.579	20945.73
563.941	21089.01
564.304	21310.7
564.666	21538.71
565.028	21558.83
565.39	21815.09
565.753	21950.68
566.115	22040.4
566.477	22164.01
566.839	22333.72
567.201	22529.42
567.563	22633.83
567.925	22854.84
568.287	22973.7
568.648	22973.7
569.01	23134.15
569.372	23446.46
569.734	23397.42
570.095	23695.04
570.457	23830.86
570.819	24018.42
571.18	24073.56
571.542	24334.57
571.903	24534.11
572.265	24681.91
572.626	24683.94
572.987	24845.97
573.349	25028.79
573.71	25152.4
574.071	25332.29
574.432	25525.5
574.794	25730.02
575.155	25815.66
575.516	25864.7
575.877	26072.38
576.238	26140.63
576.599	26410.9
576.96	26412.26
577.32	26559.6
577.681	26703.55
578.042	26920.27
578.403	26873.49
578.763	26962.75
579.124	27112.58
579.485	27137.44
579.845	27508.73
580.206	27430.99
580.566	27553.92
580.927	27586.46
581.287	27853.35
581.648	27644.09
582.008	28102.61
582.368	27949.84
582.728	28092.21
583.089	28185.09
583.449	28082.5
583.809	28281.36
584.169	28333.11
584.529	28311.19
584.889	28521.13
585.249	28472.77
585.609	28423.73
585.969	28606.55
586.329	28551.64
586.688	28693.55
587.048	28664.18
587.408	28761.57
587.768	28722.25
588.127	28769.03
588.487	28835.92
588.846	28983.49
589.206	28837.28
589.565	28880.67
589.925	29162.47
590.284	29012.64
590.643	29140.1
591.003	29159.08
591.362	29207.44
591.721	29226.42
592.08	29262.58
592.44	29284.05
592.799	29291.05
593.158	29250.6
593.517	29338.73
593.876	29402.46
594.235	29306.42
594.593	29359.98
594.952	29508.9
595.311	29388.68
595.67	29417.15
596.029	29655.56
596.387	29595.22
596.746	29763.58
597.104	29565.17
597.463	29653.75
597.822	29764.49
598.18	29722.9
598.538	29640.2
598.897	29873.18
599.255	29519.07
599.613	30092.61
599.972	29826.41
600.33	29925.16
600.688	29761.77
601.046	29978.04
601.404	30056.91
601.762	30016
602.12	30143.91
602.478	30102.56
602.836	30118.15
603.194	30090.35
603.552	30053.97
603.91	30057.13
604.268	30265.72
604.625	30081.99
604.983	30123.8
605.341	30053.97
605.698	30317.69
606.056	30373.74
606.413	30295.09
606.771	30279.05
607.128	30281.08
607.485	30057.36
607.843	30271.82
608.2	30458.03
608.557	30508.87
608.914	30472.49
609.272	30590.9
609.629	30647.85
609.986	30786.83
610.343	30459.61
610.7	30850.56
611.057	30683.56
611.414	30696.21
611.771	30863.67
612.127	30889.88
612.484	30875.87
612.841	30967.84
613.198	30890.11
613.554	30818.7
613.911	31117.67
614.267	31016.2
614.624	31028.41
614.98	31074.28
615.337	31188.18
615.693	31154.73
616.05	31156.31
616.406	31370.32
616.762	31071.57
617.118	31229.31
617.475	31253.03
617.831	31328.51
618.187	31411.22
618.543	31322.18
618.899	31618.22
619.255	31459.13
619.611	31556.98
619.967	31589.75
620.323	31690.99
620.678	31402.63
621.034	31520.15
621.39	31548.62
621.746	31414.84
622.101	31729.63
622.457	31480.6
622.812	31671.78
623.168	31705
623.523	31678.33
623.879	31806.69
624.234	31627.94
624.589	31691.67
624.945	31755.17
625.3	31819.35
625.655	31740.7
626.01	31763.76
626.365	31754.49
626.72	31603.99
627.075	31730.54
627.43	31705.45
627.785	31669.07
628.14	31709.29
628.495	31714.04
628.85	31599.92
629.205	31491.45
629.559	31758.11
629.914	31534.61
630.269	31490.32
630.623	31434.27
630.978	31418.91
631.332	31578.45
631.687	31546.81
632.041	31463.65
632.396	31541.84
632.75	31305.69
633.104	31450.54
633.459	31286.03
633.813	31225.69
634.167	31222.75
634.521	31180.27
634.875	31314.05
635.229	31191.57
635.583	31163.77
635.937	31051.23
636.291	31138.46
636.645	31161.96
636.999	31015.53
637.352	31020.72
637.706	30801.07
638.06	30841.29
638.413	30832.71
638.767	30808.98
639.121	30796.77
639.474	30604.69
639.828	30784.57
640.181	30573.5
640.534	30658.7
640.888	30690.56
641.241	30553.62
641.594	30631.36
641.947	30712.26
642.301	30610.11
642.654	30571.02
643.007	30506.61
643.36	30515.43
643.713	30454.86
644.066	30484.24
644.419	30304.13
644.771	30127.87
645.124	29903.92
645.477	29917.02
645.83	29749.8
646.182	29597.26
646.535	29532.4
646.888	29529.24
647.24	29478.62
647.593	29531.27
647.945	29447.66
648.298	29439.75
648.65	29345.97
649.002	29250.15
649.355	29420.31
649.707	29241.56
650.059	29453.53
650.411	29727.65
650.763	29800.19
651.115	30166.96
651.467	30014.42
651.819	30134.87
652.171	29972.62
652.523	29909.79
652.875	29929.45
653.227	29688.33
653.578	30016.91
653.93	29920.19
654.282	29883.8
654.633	29738.72
654.985	29789.57
655.337	29936.91
655.688	29892.17
656.039	29958.38
656.391	29668.22
656.742	29575.56
657.094	29815.11
657.445	29837.7
657.796	29727.88
658.147	29690.36
658.498	29678.61
658.849	29762
659.2	29802.68
659.551	29717.26
659.902	29839.06
660.253	29662.57
660.604	29747.99
660.955	29589.12
661.306	29733.3
661.656	29613.76
662.007	29601.1
662.358	29642.23
662.708	29765.39
663.059	29646.75
663.409	29465.06
663.76	29675.67
664.11	29625.05
664.461	29626.41
664.811	29720.19
665.161	29692.62
665.511	29666.86
665.862	29635.68
666.212	29627.99
666.562	29712.74
666.912	29738.5
667.262	29607.43
667.612	29560.42
667.962	29650.59
668.312	29512.29
668.662	29750.47
669.011	29630.48
669.361	29504.15
669.711	29436.58
670.06	29489.46
670.41	29413.99
670.76	29458.96
671.109	29360.43
671.459	29525.62
671.808	29413.76
672.157	29413.76
672.507	29298.28
672.856	29330.82
673.205	29333.08
673.554	29273.2
673.904	29281.79
674.253	29254.89
674.602	29180.77
674.951	28861.23
675.3	28578.98
675.649	29247.21
675.998	29061
676.346	29075.46
676.695	29089.02
677.044	28909.37
677.393	29063.71
677.741	29036.82
678.09	28933.1
678.438	28953.43
678.787	29041.11
679.135	28984.39
679.484	28903.94
679.832	28784.17
680.181	28586.66
680.529	28775.36
680.877	28714.8
681.225	28786.66
681.573	28814.23
681.922	28528.36
682.27	28461.7
682.618	28411.53
682.966	28350.51
683.314	28542.82
683.661	28338.99
684.009	28338.76
684.357	28197.52
684.705	28146.22
685.053	28077.3
685.4	28161.14
685.748	27919.79
686.095	28082.27
686.443	27887.7
686.79	27837.08
687.138	27870.07
687.485	27800.47
687.832	27733.35
688.18	27740.36
688.527	27427.6
688.874	27487.26
689.221	27475.28
689.568	27243.65
689.915	27187.38
690.262	27256.53
690.609	27167.72
690.956	27030.32
691.303	26958.46
691.65	26843.88
691.997	26913.49
692.344	26729.31
692.69	26716.2
693.037	26662.42
693.383	26422.2
693.73	26627.39
694.077	26367.96
694.423	26344.91
694.769	26281.41
695.116	26157.8
695.462	26172.94
695.808	26085.03
696.155	25985.15
696.501	25883.68
696.847	25789.22
697.193	25651.15
697.539	25754.87
697.885	25586.97
698.231	25422
698.577	25402.79
698.923	25317.82
699.269	25320.53
699.614	25090.94
699.96	25101.56
700.306	25081.45
700.651	25013.65
700.997	24892.07
701.342	24883.94
701.688	24888.91
702.033	24636.48
702.379	24594.68
702.724	24566.43
703.069	24638.97
703.415	24254.8
703.76	24368.02
704.105	24335.93
704.45	24260.68
704.795	24054.81
705.14	23940.46
705.485	23888.71
705.83	23789.05
706.175	23746.11
706.52	23784.3
706.865	23649.17
707.209	23685.1
707.554	23593.12
707.899	23648.49
708.243	23488.04
708.588	23355.84
708.932	23276.07
709.277	23238.1
709.621	23283.53
709.966	23088.96
710.31	23124.89
710.654	22870.43
710.998	23069.07
711.342	23045.11
711.687	22868.17
712.031	22909.52
712.375	22728.74
712.719	22929.86
713.063	22721.51
713.407	22813.71
713.75	22612.58
714.094	22680.38
714.438	22565.8
714.782	22587.27
715.125	22520.83
715.469	22484.9
715.812	22385.7
716.156	22383.89
716.499	22294.4
716.843	22349.99
717.186	22170.56
717.53	22280.84
717.873	22340.73
718.216	22259.15
718.559	22090.56
718.902	22010.34
719.246	22096.89
719.589	22010.57
719.932	21907.07
720.275	21862.55
720.617	21935.09
720.96	21880.85
721.303	21873.62
721.646	21851.02
721.989	21720.63
722.331	21837.01
722.674	21704.13
723.016	21713.62
723.359	21588.43
723.701	21743.91
724.044	21546.62
724.386	21489.45
724.729	21740.29
725.071	21521.54
725.413	21550.69
725.755	21451.03
726.097	21388.66
726.439	21368.32
726.782	21406.74
727.124	21571.25
727.465	21416.46
727.807	21419.62
728.149	21442.9
728.491	21286.97
728.833	21276.35
729.175	21409.45
729.516	21300.3
729.858	21225.95
730.199	21343.01
730.541	21242.45
730.882	21159.97
731.224	21276.12
731.565	21147.09
731.906	21104.83
732.248	21278.83
732.589	21164.71
732.93	21009.24
733.271	21162.68
733.612	21095.34
733.953	21092.85
734.294	21039.29
734.635	21025.73
734.976	21076.58
735.317	21075.67
735.658	20999.07
735.999	20959.97
736.339	21009.46
736.68	21096.24
737.021	21024.6
737.361	20904.38
737.702	21075.9
738.042	21058.27
738.383	21014.43
738.723	21077.71
739.063	21065.05
739.404	21051.49
739.744	20959.75
740.084	20935.79
740.424	20952.29
740.764	20936.24
741.104	21047.65
741.444	20863.02
741.784	20842.69
742.124	20948.45
742.464	20946.64
742.804	20886.75
743.143	20902.8
743.483	20877.04
743.823	20785.96
744.162	20898.73
744.502	20906.41
744.841	20769.69
745.181	20891.95
745.52	20797.26
745.86	20811.27
746.199	20790.71
746.538	20762.69
746.877	20756.36
747.216	20757.72
747.556	20750.49
747.895	20810.82
748.234	20695.8
748.573	20710.49
748.911	20708.23
749.25	20686.76
749.589	20609.25
749.928	20607.21
750.267	20683.37
750.605	20642.01
750.944	20644.73
751.283	20515.46
751.621	20519.53
751.96	20470.27
752.298	20462.13
752.636	20519.08
752.975	20406.31
753.313	20387.56
753.651	20463.94
753.989	20462.81
754.327	20331.74
754.666	20202.7
755.004	20290.84
755.342	20250.39
755.679	20380.33
756.017	20176.26
756.355	20224.4
756.693	20071.18
757.031	20159.77
757.368	20089.94
757.706	20037.06
758.044	20058.75
758.381	20011.52
758.719	19860.34
759.056	19866.44
759.394	19866.89
759.731	19788.7
760.068	19752.55
760.405	19613.57
760.743	19606.11
761.08	19626.9
761.417	19511.2
761.754	19541.7
762.091	19428.49
762.428	19396.62
762.765	19223.29
763.102	19358.43
763.438	19270.52
763.775	19186.01
764.112	19172.22
764.449	19247.02
764.785	19110.53
765.122	19077.99
765.458	19002.96
765.795	18980.81
766.131	18907.37
766.467	18813.14
766.804	18714.38
767.14	18607.94
767.476	18653.37
767.812	18567.27
768.148	18605.46
768.485	18496.53
768.821	18390.1
769.157	18420.83
769.492	18333.83
769.828	18282.53
770.164	18116.2
770.5	18143.55
770.836	18059.93
771.171	17835.99
771.507	17993.04
771.842	17794.18
772.178	17749.89
772.513	17680.96
772.849	17701.53
773.184	17731.81
773.519	17664.69
773.855	17544.24
774.19	17400.29
774.525	17464.92
774.86	17428.76
775.195	17305.83
775.53	17234.42
775.865	17138.83
776.2	17112.16
776.535	16921.21
776.87	16952.62
777.205	16881.66
777.539	16758.27
777.874	16808.89
778.209	16605.28
778.543	16621.33
778.878	16477.15
779.212	16511.05
779.547	16432.18
779.881	16559.64
780.215	16323.94
780.55	16413.88
780.884	16258.85
781.218	16232.19
781.552	16180.89
781.886	16134.56
782.22	16094.11
782.554	15991.74
782.888	15820.9
783.222	15835.13
783.556	15803.5
783.889	15709.26
784.223	15571.86
784.557	15512.21
784.89	15507.01
785.224	15484.64
785.557	15457.74
785.891	15415.48
786.224	15326
786.558	15448.7
786.891	15184.3
787.224	15083.52
787.557	15165.1
787.891	15089.84
788.224	15059.56
788.557	14995.16
788.89	14941.15
789.223	14867.7
789.556	14822.73
789.888	14836.74
790.221	14752.9
790.554	14640.36
790.887	14632.45
791.219	14594.26
791.552	14466.58
791.884	14413.7
792.217	14348.17
792.549	14375.51
792.882	14328.73
793.214	14220.71
793.546	14379.13
793.879	14177.55
794.211	14133.48
794.543	14077.89
794.875	14090.55
795.207	14171.68
795.539	13995.86
795.871	14023.43
796.203	13876.54
796.535	13819.37
796.867	13709.54
797.198	13697.11
797.53	13751.35
797.862	13635.42
798.193	13699.82
798.525	13472.48
798.856	13553.16
799.188	13424.12
799.519	13355.65
799.85	13236.78
800.182	13271.36
800.513	13300.74
800.844	13185.03
801.175	13257.12
801.506	13200.85
801.837	13161.76
802.168	13148.2
802.499	12979.62
802.83	13031.59
803.161	12982.33
803.491	12970.35
803.822	12987.3
804.153	12940.75
804.483	12834.76
804.814	12773.52
805.145	12771.94
805.475	12754.31
805.805	12705.95
806.136	12679.74
806.466	12636.8
806.796	12707.99
807.126	12583.02
807.457	12549.12
807.787	12505.96
808.117	12386.64
808.447	12385.73
808.777	12427.99
809.107	12413.76
809.436	12319.07
809.766	12232.07
810.096	12266.64
810.426	12253.53
810.755	12221.67
811.085	12144.61
811.414	12131.05
811.744	12099.87
812.073	12053.31
812.403	12019.19
812.732	12008.57
813.061	11978.96
813.39	11902.81
813.719	11847.67
814.049	11965.86
814.378	11881.11
814.707	11811.06
815.036	11800.66
815.365	11698.75
815.693	11605.64
816.022	11619.2
816.351	11609.93
816.68	11594.79
817.008	11612.42
817.337	11514.34
817.665	11476.61
817.994	11476.61
818.322	11416.49
818.651	11475.25
818.979	11312.77
819.307	11477.51
819.636	11284.29
819.964	11297.63
820.292	11355.25
820.62	11305.08
820.948	11255.14
821.276	11323.39
821.604	11282.26
821.932	11294.01
822.259	11296.5
822.587	11283.39
822.915	11244.07
823.243	11237.29
823.57	11286.55
823.898	11178.76
824.225	11199.1
824.553	11164.07
824.88	11242.71
825.207	11233.22
825.535	11230.06
825.862	11218.98
826.189	11230.51
826.516	11247.91
826.843	11221.47
827.17	11242.26
827.497	11239.55
827.824	11268.7
828.151	11251.07
828.478	11264.86
828.805	11203.39
829.131	11172.43
829.458	11176.73
829.785	11073.23
830.111	11185.31
830.438	11266.89
830.764	11259.66
831.09	11160.46
831.417	11098.54
831.743	11170.62
832.069	11089.5
832.395	11114.35
832.722	11195.93
833.048	11137.4
833.374	11088.82
833.7	11107.58
834.026	11075.49
834.351	11135.82
834.677	11113
835.003	11084.07
835.329	11046.11
835.654	11112.32
835.98	11065.99
836.306	11045.88
836.631	10984.41
836.956	10997.97
837.282	10925.89
837.607	10933.12
837.932	10905.55
838.258	10924.76
838.583	10961.59
838.908	10864.64
839.233	10788.71
839.558	10808.6
839.883	10757.53
840.208	10794.14
840.533	10762.73
840.858	10779.9
841.182	10725.44
841.507	10683.86
841.832	10627.81
842.156	10651.77
842.481	10680.47
842.805	10687.7
843.13	10624.65
843.454	10600.47
843.778	10480.47
844.103	10509.62
844.427	10518.66
844.751	10500.13
845.075	10471.66
845.399	10419.23
845.723	10405.9
846.047	10399.35
846.371	10234.15
846.695	10283.64
847.019	10246.81
847.343	10207.03
847.666	10135.4
847.99	10163.42
848.313	10125.68
848.637	9976.76
848.96	9990.32
849.284	9973.37
849.607	9895.86
849.931	9913.03
850.254	9816.99
850.577	9843.65
850.9	9758.01
851.223	9715.07
851.546	9666.48
851.869	9535.64
852.192	9612.7
852.515	9532.25
852.838	9502.19
853.161	9497.45
853.483	9435.3
853.806	9407.73
854.129	9392.82
854.451	9369.99
854.774	9252.93
855.096	9238.7
855.419	9187.85
855.741	9198.25
856.063	9237.57
856.385	9204.57
856.708	9105.59
857.03	9103.79
857.352	9150.34
857.674	9138.36
857.996	9066.27
858.318	8952.6
858.64	8931.14
858.961	8953.28
859.283	9016.78
859.605	8925.26
859.926	8923.9
860.248	8819.95
860.57	8830.57
860.891	8869.22
861.212	8843.23
861.534	8769.56
861.855	8788.09
862.176	8730.01
862.498	8731.82
862.819	8750.8
863.14	8726.17
863.461	8697.47
863.782	8633.29
864.103	8752.16
864.424	8613.4
864.745	8626.28
865.065	8568.66
865.386	8575.21
865.707	8606.85
866.027	8591.26
866.348	8558.26
866.668	8560.98
866.989	8502.22
867.309	8419.28
867.63	8473.97
867.95	8436.68
868.27	8423.8
868.59	8497.7
868.91	8374.09
869.23	8416.12
869.55	8353.3
869.87	8404.82
870.19	8376.8
870.51	8405.95
870.83	8382.45
871.15	8311.26
871.469	8278.5
871.789	8337.93
872.109	8222.45
872.428	8199.18
872.748	8242.79
873.067	8250.93
873.386	8244.37
873.706	8210.02
874.025	8176.8
874.344	8175.22
874.663	8274.2
874.982	8201.21
875.301	8175.45
875.62	8162.12
875.939	8078.5
876.258	8091.84
876.577	8075.34
876.896	8130.25
877.214	8026.3
877.533	8035.57
877.852	8048.67
878.17	8066.07
878.489	8061.1
878.807	8036.02
879.125	7974.55
879.444	8006.64
879.762	8013.42
880.08	7921.9
880.398	7951.73
880.716	7907.21
881.034	7889.35
881.352	7906.98
881.67	7876.25
881.988	7884.84
882.306	7887.32
882.624	7850.94
882.941	7831.28
883.259	7798.96
883.577	7730.26
883.894	7721.45
884.212	7751.05
884.529	7708.57
884.846	7689.81
885.164	7698.17
885.481	7613.88
885.798	7667.44
886.115	7590.83
886.432	7647.33
886.75	7617.72
887.067	7553.32
887.383	7566.88
887.7	7552.64
888.017	7486.2
888.334	7448.24
888.651	7492.75
888.967	7498.4
889.284	7407.79
889.6	7439.65
889.917	7368.92
890.233	7364.85
890.55	7309.48
890.866	7379.09
891.182	7347.45
891.498	7291.86
891.815	7313.55
892.131	7197.85
892.447	7211.18
892.763	7201.69
893.079	7222.93
893.395	7157.62
893.71	7181.12
894.026	7105.65
894.342	7163.5
894.657	7100.67
894.973	7067.91
895.289	7028.59
895.604	7038.53
895.92	7036.04
896.235	6975.71
896.55	6902.49
896.865	6968.93
897.181	6893.67
897.496	6907.23
897.811	6842.83
898.126	6875.82
898.441	6824.52
898.756	6832.66
899.071	6734.13
899.386	6751.53
899.7	6737.52
900.015	6607.35
900.33	6598.77
900.644	6654.81
900.959	6671.53
901.273	6643.29
901.588	6555.6
901.902	6560.35
902.216	6591.54
902.531	6490.75
902.845	6540.92
903.159	6455.27
903.473	6475.15
903.787	6366
904.101	6329.4
904.415	6376.85
904.729	6338.66
905.042	6317.64
905.356	6360.81
905.67	6285.1
905.984	6256.18
906.297	6243.07
906.611	6213.69
906.924	6180.7
907.237	6216.18
907.551	6103.19
907.864	6077.42
908.177	6092.57
908.491	6144.54
908.804	6031.32
909.117	5986.81
909.43	6015.28
909.743	5956.3
910.056	5995.39
910.368	5916.75
910.681	5903.42
910.994	5802.86
911.307	5841.72
911.619	5838.56
911.932	5823.42
912.244	5779.35
912.557	5789.75
912.869	5758.79
913.181	5735.96
913.494	5717.66
913.806	5684.21
914.118	5655.97
914.43	5631.56
914.742	5616.19
915.054	5600.38
915.366	5541.17
915.678	5557.21
915.99	5516.08
916.302	5507.95
916.613	5549.08
916.925	5464.56
917.236	5444.67
917.548	5388.63
917.859	5412.58
918.171	5392.25
918.482	5384.34
918.794	5325.13
919.105	5360.61
919.416	5260.27
919.727	5267.05
920.038	5272.93
920.349	5222.53
920.66	5181.63
920.971	5133.27
921.282	5145.25
921.593	5159.71
921.903	5126.94
922.214	5062.31
922.525	5064.8
922.835	5037.68
923.146	5038.58
923.456	5010.79
923.767	5002.2
924.077	4960.17
924.387	4965.14
924.697	4944.35
925.008	4900.51
925.318	4871.35
925.628	4863.22
925.938	4867.97
926.248	4784.13
926.558	4822.99
926.867	4773.96
927.177	4787.74
927.487	4808.31
927.796	4706.16
928.106	4719.27
928.416	4699.16
928.725	4631.14
929.034	4632.72
929.344	4633.85
929.653	4625.49
929.962	4602.44
930.271	4580.29
930.581	4505.71
930.89	4515.66
931.199	4488.77
931.508	4464.36
931.817	4477.02
932.125	4482.21
932.434	4445.15
932.743	4376.23
933.051	4414.19
933.36	4387.07
933.669	4364.48
933.977	4336.45
934.286	4321.76
934.594	4337.36
934.902	4258.49
935.21	4232.73
935.519	4253.74
935.827	4245.83
936.135	4209.68
936.443	4198.38
936.751	4221.65
937.059	4173.52
937.367	4163.35
937.674	4144.37
937.982	4114.31
938.29	4124.71
938.597	4075.9
938.905	4018.5
939.213	4040.64
939.52	4033.64
939.827	4019.85
940.135	3967.88
940.442	3968.55
940.749	3949.12
941.056	4014.88
941.363	3890.82
941.67	3904.15
941.977	3879.06
942.284	3882.23
942.591	3865.51
942.898	3814.89
943.205	3826.86
943.511	3789.35
943.818	3788.67
944.125	3747.77
944.431	3747.54
944.738	3723.14
945.044	3767.66
945.35	3722.01
945.657	3693.31
945.963	3673.87
946.269	3628.45
946.575	3655.34
946.881	3655.34
947.187	3645.4
947.493	3622.57
947.799	3561.78
948.105	3560.88
948.41	3581.9
948.716	3575.57
949.022	3515.68
949.327	3554.33
949.633	3485.85
949.938	3496.48
950.244	3505.06
950.549	3455.57
950.854	3396.82
951.16	3452.18
951.465	3442.92
951.77	3432.97
952.075	3382.13
952.38	3357.95
952.685	3383.03
952.99	3363.37
953.294	3347.55
953.599	3312.3
953.904	3268.23
954.209	3240.21
954.513	3289.25
954.818	3273.43
955.122	3275.24
955.426	3217.61
955.731	3189.37
956.035	3219.65
956.339	3194.56
956.643	3160.67
956.948	3142.81
957.252	3141
957.556	3127.22
957.86	3100.78
958.163	3154.11
958.467	3118.41
958.771	3069.59
959.075	3063.72
959.378	3076.6
959.682	3087
959.985	3045.19
960.289	3012.87
960.592	3011.97
960.896	3013.78
961.199	2957.96
961.502	2938.75
961.805	2959.09
962.108	2971.74
962.411	2927.23
962.714	2884.74
963.017	2939.43
963.32	2909.37
963.623	2903.27
963.926	2873.22
964.228	2859.43
964.531	2858.98
964.833	2818.3
965.136	2819.88
965.438	2834.12
965.741	2818.3
966.043	2801.8
966.345	2781.92
966.648	2778.98
966.95	2783.05
967.252	2703.05
967.554	2755.25
967.856	2767
968.158	2690.4
968.46	2687.23
968.761	2672.99
969.063	2661.7
969.365	2670.73
969.666	2635.03
969.968	2655.37
970.269	2656.05
970.571	2629.15
970.872	2605.2
971.174	2612.21
971.475	2589.83
971.776	2590.28
972.077	2595.48
972.378	2522.72
972.679	2563.85
972.98	2549.16
973.281	2529.04
973.582	2535.15
973.883	2482.72
974.183	2528.82
974.484	2442.04
974.785	2468.93
975.085	2465.54
975.386	2443.62
975.686	2443.85
975.986	2411.31
976.287	2427.35
976.587	2413.79
976.887	2396.84
977.187	2366.34
977.487	2377.18
977.787	2349.61
978.087	2413.79
978.387	2342.38
978.687	2334.7
978.987	2305.09
979.286	2296.06
979.586	2302.38
979.885	2279.56
980.185	2302.83
980.484	2286.79
980.784	2282.5
981.083	2254.7
981.382	2241.37
981.682	2223.97
981.981	2193.91
982.28	2218.32
982.579	2209.5
982.878	2175.15
983.177	2211.09
983.475	2180.58
983.774	2148.94
984.073	2148.94
984.372	2166.34
984.67	2168.38
984.969	2154.36
985.267	2136.29
985.566	2133.8
985.864	2129.73
986.162	2106.23
986.461	2094.93
986.759	2084.76
987.057	2084.54
987.355	2055.16
987.653	2058.77
987.951	2031.2
988.249	2027.59
988.547	2015.38
988.844	2011.54
989.142	2018.32
989.44	1993.69
989.737	1993.92
990.035	2001.6
990.332	1964.09
990.63	1954.37
990.927	1964.76
991.224	1919.79
991.521	1971.77
991.819	1969.74
992.116	1937.65
992.413	1906.91
992.71	1888.38
993.006	1856.07
993.303	1863.98
993.6	1889.96
993.897	1862.39
994.193	1890.64
994.49	1877.31
994.787	1831.66
995.083	1808.16
995.379	1812
995.676	1839.12
995.972	1819.01
996.268	1819.91
996.565	1825.33
996.861	1787.14
997.157	1796.63
997.453	1774.49
997.749	1748.95
998.044	1755.96
998.34	1750.76
998.636	1730.19
998.932	1736.97
999.227	1718.22
999.523	1717.99
999.818	1738.1
1000.114	1705.34
1000.409	1677.09
1000.704	1650.42
1001	1659.91
1001.295	1654.49
1001.59	1652.91
1001.885	1673.25
1002.18	1618.56
1002.475	1606.58
1002.77	1652.91
1003.065	1584.66
1003.359	1621.72
1003.654	1627.6
1003.949	1569.29
1004.243	1565.68
1004.538	1583.53
1004.832	1579.24
1005.127	1575.62
1005.421	1561.39
1005.715	1538.79
1006.009	1524.32
1006.304	1530.43
1006.598	1542.18
1006.892	1478.9
1007.186	1494.95
1007.48	1474.38
1007.773	1475.96
1008.067	1489.3
1008.361	1480.26
1008.655	1449.98
1008.948	1427.38
1009.242	1451.11
1009.535	1444.33
1009.829	1447.26
1010.122	1423.54
1010.415	1419.92
1010.708	1381.05
1011.001	1377.21
1011.295	1389.19
1011.588	1375.63
1011.881	1357.55
1012.173	1360.94
1012.466	1368.17
1012.759	1345.12
1013.052	1354.61
1013.344	1343.31
1013.637	1337.44
1013.93	1329.53
1014.222	1345.12
1014.514	1325.23
1014.807	1268.51
1015.099	1283.65
1015.391	1259.47
1015.683	1263.31
1015.976	1282.3
1016.268	1265.8
1016.56	1275.74
1016.851	1246.82
1017.143	1262.86
1017.435	1253.82
1017.727	1224.22
1018.018	1217.44
1018.31	1223.09
1018.602	1205.46
1018.893	1192.81
1019.185	1195.52
1019.476	1200.72
1019.767	1190.77
1020.058	1188.97
1020.35	1158.46
1020.641	1151
1020.932	1139.25
1021.223	1153.71
1021.514	1144.67
1021.804	1140.38
1022.095	1139.93
1022.386	1139.25
1022.677	1126.14
1022.967	1111
1023.258	1083.43
1023.548	1069.42
1023.839	1093.83
1024.129	1080.95
1024.419	1086.14
1024.709	1086.37
1025	1060.83
1025.29	1049.08
1025.58	1023.55
1025.87	1051.79
1026.16	1034.17
1026.449	1047.27
1026.739	1032.81
1027.029	1010.44
1027.319	1002.3
1027.608	995.3
1027.898	1031.68
1028.187	1009.31
1028.477	971.8
1028.766	962.53
1029.055	973.15
1029.344	967.95
1029.634	965.47
1029.923	957.33
1030.212	949.88
1030.501	970.89
1030.79	934.06
1031.078	915.75
1031.367	917.56
1031.656	920.5
1031.945	925.47
1032.233	908.75
1032.522	906.49
1032.81	915.75
1033.099	904.68
1033.387	862.87
1033.675	880.95
1033.963	844.57
1034.251	867.17
1034.54	861.52
1034.828	863.1
1035.116	838.69
1035.403	857.22
1035.691	858.81
1035.979	853.83
1036.267	843.21
1036.554	839.14
1036.842	826.49
1037.129	827.17
1037.417	846.15
1037.704	820.16
1037.992	802.54
1038.279	811.35
1038.566	809.54
1038.853	809.54
1039.14	809.54
