Data from tablewood_brown_FLMS001491_035.txt Node
Date: Tue Feb 07 11:10:22 GMT 2017
User: dcchb
Spectrometer: FLMS00149
Trigger mode: 0
Integration Time (sec): 2.000000E-2
Scans to average: 10
Electric dark correction enabled: true
Nonlinearity correction enabled: false
Boxcar width: 0
XAxis mode: Wavelengths
Number of Pixels in Spectrum: 2048
>>>>>Begin Spectral Data<<<<<
341.393	-24.11
341.776	-24.11
342.16	-24.11
342.543	-66.14
342.927	-58.68
343.31	-58.01
343.693	-83.77
344.077	-73.37
344.46	-78.35
344.843	-51.23
345.226	-59.14
345.61	-11.45
345.993	-16.2
346.376	-7.61
346.759	-1.06
347.142	45.49
347.525	44.14
347.908	64.7
348.291	76.68
348.674	93.4
349.057	115.77
349.44	132.5
349.823	150.8
350.206	161.2
350.588	210.69
350.971	228.99
351.354	222.21
351.737	217.01
352.119	261.08
352.502	270.8
352.884	271.48
353.267	280.97
353.65	289.78
354.032	300.85
354.414	311.02
354.797	324.36
355.179	326.16
355.562	316.45
355.944	325.49
356.326	335.88
356.709	357.35
357.091	352.38
357.473	346.05
357.855	362.09
358.238	344.24
358.62	358.48
359.002	344.24
359.384	343.79
359.766	357.35
360.148	358.25
360.53	369.1
360.912	344.02
361.294	350.8
361.676	359.16
362.057	346.95
362.439	353.73
362.821	329.1
363.203	322.77
363.584	339.27
363.966	338.82
364.348	326.84
364.729	332.72
365.111	319.16
365.493	330.91
365.874	351.25
366.256	341.3
366.637	332.04
367.019	319.61
367.4	316.9
367.781	322.55
368.163	322.32
368.544	337.91
368.925	336.56
369.306	339.5
369.688	349.89
370.069	331.59
370.45	325.03
370.831	341.76
371.212	334.98
371.593	303.79
371.974	337.46
372.355	332.72
372.736	326.62
373.117	328.2
373.498	325.49
373.879	347.41
374.26	327.07
374.641	337.46
375.021	327.29
375.402	329.78
375.783	352.83
376.163	356.9
376.544	333.85
376.925	367.07
377.305	376.33
377.686	365.03
378.066	350.8
378.447	346.95
378.827	347.41
379.208	351.02
379.588	363.9
379.968	370.91
380.349	390.12
380.729	352.38
381.109	363.45
381.489	392.38
381.87	379.04
382.25	380.85
382.63	372.04
383.01	376.56
383.39	384.24
383.77	375.43
384.15	370
384.53	367.97
384.91	384.92
385.29	393.28
385.67	404.81
386.049	400.74
386.429	389.44
386.809	417.01
387.189	423.34
387.568	419.95
387.948	404.13
388.328	403.45
388.707	419.49
389.087	411.81
389.466	395.99
389.846	417.01
390.225	436.9
390.605	422.66
390.984	440.06
391.363	424.47
391.743	432.6
392.122	457.91
392.501	441.64
392.881	433.73
393.26	449.1
393.639	468.76
394.018	467.85
394.397	461.3
394.776	465.6
395.155	458.14
395.534	459.95
395.913	492.71
396.292	473.73
396.671	482.54
397.05	485.26
397.429	478.02
397.808	487.74
398.186	477.8
398.565	490.91
398.944	497.46
399.323	503.33
399.701	508.53
400.08	504.69
400.458	494.52
400.837	525.48
401.215	518.02
401.594	529.32
401.972	512.37
402.351	512.15
402.729	544.92
403.107	542.66
403.486	521.19
403.864	568.87
404.242	548.08
404.62	549.21
404.999	552.6
405.377	565.48
405.755	572.26
406.133	565.03
406.511	563.22
406.889	585.82
407.267	582.65
407.645	577.68
408.023	591.02
408.401	604.12
408.779	606.16
409.156	611.13
409.534	622.43
409.912	630.79
410.29	633.95
410.667	647.96
411.045	640.96
411.422	642.09
411.8	649.77
412.178	649.77
412.555	657.45
412.933	666.49
413.31	685.48
413.687	678.02
414.065	683.67
414.442	681.63
414.819	721.63
415.197	706.27
415.574	719.37
415.951	713.95
416.328	717.34
416.705	712.82
417.082	732.03
417.46	741.75
417.837	758.02
418.214	746.72
418.591	734.51
418.967	745.81
419.344	746.72
419.721	754.18
420.098	757.34
420.475	789.65
420.852	794.85
421.228	790.33
421.605	798.47
421.982	808.64
422.358	799.82
422.735	815.42
423.111	823.1
423.488	835.08
423.864	810.9
424.241	854.51
424.617	865.13
424.994	840.73
425.37	868.52
425.746	868.97
426.123	868.52
426.499	885.47
426.875	900.61
427.251	902.42
427.627	944.9
428.003	921.63
428.379	920.72
428.756	968.86
429.132	966.6
429.507	982.87
429.883	960.95
430.259	982.19
430.635	987.84
431.011	969.54
431.387	1020.83
431.763	1047.5
432.138	1025.81
432.514	1044.11
432.89	1036.43
433.265	1069.65
433.641	1051.57
434.016	1063.55
434.392	1101.51
434.767	1124.11
435.143	1132.02
435.518	1123.88
435.894	1144.9
436.269	1146.26
436.644	1171.57
437.02	1188.51
437.395	1163.43
437.77	1201.85
438.145	1220.38
438.52	1238
438.895	1212.92
439.271	1255.4
439.646	1262.86
440.021	1270.77
440.395	1280.49
440.77	1275.97
441.145	1293.6
441.52	1302.86
441.895	1316.65
442.27	1342.63
442.645	1310.32
443.019	1327.04
443.394	1337.89
443.769	1358.68
444.143	1344.89
444.518	1389.41
444.892	1364.1
445.267	1377.21
445.641	1425.34
446.016	1414.5
446.39	1446.36
446.764	1423.99
447.139	1428.73
447.513	1440.03
447.887	1450.2
448.262	1466.47
448.636	1443.65
449.01	1512.12
449.384	1473.48
449.758	1472.12
450.132	1499.92
450.506	1518.22
450.88	1537.66
451.254	1550.54
451.628	1531.78
452.002	1560.48
452.376	1585.57
452.75	1601.16
453.123	1612.46
453.497	1614.49
453.871	1626.69
454.244	1670.08
454.618	1675.73
454.992	1692.46
455.365	1700.82
455.739	1713.7
456.112	1750.31
456.486	1767.71
456.859	1785.11
457.232	1793.24
457.606	1807.03
457.979	1839.34
458.352	1868.72
458.725	1884.09
459.099	1913.01
459.472	1954.6
459.845	1950.98
460.218	1985.1
460.591	2001.83
460.964	2013.58
461.337	2007.02
461.71	2069.85
462.083	2116.17
462.456	2127.02
462.829	2124.31
463.201	2156.4
463.574	2157.08
463.947	2223.51
464.32	2253.8
464.692	2265.55
465.065	2289.95
465.438	2321.59
465.81	2378.09
466.183	2397.07
466.555	2415.6
466.928	2423.06
467.3	2418.31
467.672	2496.05
468.045	2542.6
468.417	2606.1
468.789	2583.51
469.161	2617.85
469.534	2651.3
469.906	2714.58
470.278	2750.96
470.65	2786.44
471.022	2820.79
471.394	2903.72
471.766	2929.71
472.138	2968.58
472.51	3028.69
472.882	3092.64
473.253	3140.1
473.625	3160.44
473.997	3217.84
474.369	3272.07
474.74	3312.3
475.112	3421.45
475.484	3475.01
475.855	3481.79
476.227	3571.05
476.598	3706.64
476.97	3701.67
477.341	3794.77
477.713	3872.74
478.084	3889.91
478.455	4002.68
478.827	4066.63
479.198	4131.71
479.569	4202.22
479.94	4325.61
480.311	4375.32
480.682	4501.65
481.053	4573.06
481.424	4701.87
481.795	4715.43
482.166	4842.2
482.537	4890.11
482.908	4959.71
483.279	5003.78
483.65	5127.85
484.021	5286.03
484.391	5312.7
484.762	5383.43
485.133	5493.71
485.503	5547.27
485.874	5629.75
486.244	5747.72
486.615	5830.65
486.985	5899.8
487.356	6040.36
487.726	6081.27
488.097	6243.75
488.467	6229.74
488.837	6404.87
489.207	6463.63
489.578	6581.14
489.948	6600.35
490.318	6703.62
490.688	6756.5
491.058	6903.39
491.428	6939.55
491.798	7051.41
492.168	7210.5
492.538	7159.2
492.908	7285.3
493.278	7394.23
493.648	7350.16
494.017	7486.65
494.387	7599.64
494.757	7659.3
495.126	7741.79
495.496	7768.91
495.866	7854.33
496.235	7863.14
496.605	8032.18
496.974	8069.69
497.344	8210.02
497.713	8196.01
498.082	8252.96
498.452	8314.2
498.821	8415.44
499.19	8414.76
499.559	8536.12
499.928	8625.83
500.298	8681.42
500.667	8751.25
501.036	8761.87
501.405	8825.6
501.774	8830.12
502.143	8933.17
502.512	9006.39
502.88	9090.23
503.249	9090
503.618	9160.06
503.987	9252.26
504.356	9411.35
504.724	9360.28
505.093	9430.33
505.462	9472.36
505.83	9598.91
506.199	9691.12
506.567	9765.69
506.936	9812.24
507.304	9919.58
507.672	9947.15
508.041	9960.49
508.409	10092.23
508.777	10125.23
509.145	10187.15
509.514	10268.05
509.882	10369.52
510.25	10405.45
510.618	10541.94
510.986	10581.49
511.354	10698.77
511.722	10776.06
512.09	10894.7
512.458	10869.16
512.826	11078.42
513.193	11109.61
513.561	11099.67
513.929	11284.52
514.297	11357.29
514.664	11472.99
515.032	11520.9
515.4	11639.99
515.767	11665.3
516.135	11759.54
516.502	11678.18
516.869	11900.55
517.237	11994.33
517.604	12005.86
517.972	12150.71
518.339	12202.91
518.706	12298.73
519.073	12406.75
519.44	12531.94
519.808	12723.13
520.175	12743.92
520.542	12886.29
520.909	12913.4
521.276	12902.33
521.643	13116.79
522.009	13237.46
522.376	13366.27
522.743	13430
523.11	13533.05
523.477	13678.36
523.843	13741.63
524.21	13982.75
524.577	13940.95
524.943	14157.44
525.31	14235.63
525.676	14302.75
526.043	14497.32
526.409	14589.52
526.776	14745.22
527.142	14810.08
527.508	14794.03
527.874	14986.57
528.241	15062.95
528.607	15163.74
528.973	15236.05
529.339	15338.42
529.705	15479.21
530.071	15660.45
530.437	15713.1
530.803	15804.63
531.169	15886.88
531.535	15911.06
531.901	15897.96
532.267	16006.66
532.632	16120.1
532.998	16205.07
533.364	16331.84
533.73	16323.26
534.095	16499.3
534.461	16686.41
534.826	16625.85
535.192	16714.43
535.557	16963.69
535.923	16883.92
536.288	16975.9
536.653	17057.48
537.019	17130.69
537.384	17106.97
537.749	17191.71
538.114	17302.89
538.479	17355.77
538.845	17481.87
539.21	17367.52
539.575	17429.44
539.94	17639.83
540.305	17688.42
540.67	17735.65
541.034	17708.98
541.399	17888.87
541.764	17887.06
542.129	17979.94
542.494	18092.25
542.858	18100.84
543.223	18102.42
543.587	18375.18
543.952	18241.62
544.316	18359.81
544.681	18336.31
545.045	18472.13
545.41	18573.82
545.774	18681.39
546.138	18621.28
546.503	18822.63
546.867	18787.15
547.231	18971.55
547.595	18899.69
547.959	19120.92
548.324	19050.19
548.688	19268.26
549.052	19194.37
549.416	19328.38
549.779	19426.68
550.143	19460.35
550.507	19599.33
550.871	19722.72
551.235	19691.98
551.599	19928.36
551.962	19913.67
552.326	20022.59
552.689	20158.41
553.053	20115.02
553.417	20262.14
553.78	20499.87
554.143	20365.41
554.507	20577.16
554.87	20717.94
555.234	20925.4
555.597	20832.07
555.96	20960.42
556.323	21130.14
556.686	21286.29
557.05	21372.16
557.413	21493.29
557.776	21598.6
558.139	21825.03
558.502	21875.65
558.865	22048.53
559.228	22236.32
559.59	22306.15
559.953	22411.68
560.316	22716.31
560.679	22761.28
561.041	22897.1
561.404	23049.18
561.767	23338.21
562.129	23314.49
562.492	23584.76
562.854	23689.84
563.217	23746.56
563.579	23997.86
563.941	24002.6
564.304	24368.47
564.666	24598.97
565.028	24565.07
565.39	24717.16
565.753	24983.14
566.115	25116.92
566.477	25206.41
566.839	25485.95
567.201	25584.26
567.563	25803.69
567.925	25969.11
568.287	26033.96
568.648	26169.55
569.01	26408.64
569.372	26563.44
569.734	26696.32
570.095	26841.85
570.457	27026.03
570.819	27283.65
571.18	27496.97
571.542	27583.3
571.903	27600.02
572.265	27875.27
572.626	28079.56
572.987	28277.29
573.349	28399.78
573.71	28489.04
574.071	28653.1
574.432	28852.19
574.794	29036.14
575.155	29172.41
575.516	29270.26
575.877	29411.5
576.238	29538.95
576.599	29801.77
576.96	29790.93
577.32	29879.51
577.681	30154.31
578.042	30340.52
578.403	30462.55
578.763	30432.72
579.124	30623.9
579.485	30797.68
579.845	30914.74
580.206	31022.76
580.566	31183.66
580.927	31143.66
581.287	31333.48
581.648	31255.97
582.008	31562.63
582.368	31516.76
582.728	31646.24
583.089	31677.2
583.449	31705.23
583.809	31809.86
584.169	31857.54
584.529	31874.26
584.889	32205.78
585.249	32007.36
585.609	32020.25
585.969	32278.32
586.329	32196.51
586.688	32387.24
587.048	32277.87
587.408	32164.2
587.768	32331.88
588.127	32462.04
588.487	32431.53
588.846	32722.37
589.206	32438.99
589.565	32584.3
589.925	32799.43
590.284	32758.53
590.643	32704.3
591.003	32829.49
591.362	33005.98
591.721	32871.3
592.08	32956.27
592.44	33039.43
592.799	33161.01
593.158	32993.1
593.517	33086.43
593.876	33041.01
594.235	33036.04
594.593	33126.66
594.952	33178.18
595.311	33107.45
595.67	33234
596.029	33394.45
596.387	33360.1
596.746	33430.83
597.104	33251.4
597.463	33283.04
597.822	33589.24
598.18	33382.47
598.538	33444.61
598.897	33535.01
599.255	33231.29
599.613	33788.56
599.972	33577.94
600.33	33593.99
600.688	33521.22
601.046	33705.4
601.404	33890.93
601.762	33709.92
602.12	33839.41
602.478	33751.27
602.836	33906.98
603.194	33723.7
603.552	33811.61
603.91	33664.72
604.268	34008.89
604.625	33807.54
604.983	33965.28
605.341	33806.19
605.698	34015
606.056	34063.58
606.413	34027.65
606.771	34219.96
607.128	34135.22
607.485	33913.98
607.843	34120.08
608.2	34245.5
608.557	34373.86
608.914	34238.94
609.272	34477.13
609.629	34378.83
609.986	34637.8
610.343	34416.57
610.7	34703.11
611.057	34557.13
611.414	34571.36
611.771	34649.78
612.127	34672.83
612.484	34801.64
612.841	34916.89
613.198	34874.18
613.554	34794.41
613.911	34925.71
614.267	34958.47
614.624	35026.95
614.98	35066.27
615.337	35088.87
615.693	35130.67
616.05	35100.39
616.406	35238.92
616.762	35115.76
617.118	35205.47
617.475	35086.38
617.831	35316.66
618.187	35276.66
618.543	35364.11
618.899	35454.51
619.255	35468.52
619.611	35371.12
619.967	35496.76
620.323	35507.39
620.678	35457.44
621.034	35442.75
621.39	35464.67
621.746	35412.02
622.101	35867.15
622.457	35594.61
622.812	35750.77
623.168	35763.65
623.523	35638.46
623.879	35718
624.234	35501.28
624.589	35595.74
624.945	35589.64
625.3	35757.77
625.655	35701.73
626.01	35662.41
626.365	35627.61
626.72	35546.48
627.075	35661.96
627.43	35694.05
627.785	35564.79
628.14	35607.95
628.495	35534.73
628.85	35561.62
629.205	35426.03
629.559	35599.13
629.914	35447.95
630.269	35505.13
630.623	35302.19
630.978	35304.68
631.332	35463.77
631.687	35495.63
632.041	35307.16
632.396	35473.04
632.75	35294.28
633.104	35311.23
633.459	35218.58
633.813	35184.91
634.167	35114.85
634.521	35280.95
634.875	35212.03
635.229	35057.91
635.583	34904.01
635.937	34853.84
636.291	34896.33
636.645	34953.5
636.999	34818.59
637.352	34970.9
637.706	34627.41
638.06	34902.43
638.413	34742.89
638.767	34695.88
639.121	34784.69
639.474	34530.91
639.828	34702.89
640.181	34683.9
640.534	34596.68
640.888	34472.16
641.241	34349.68
641.594	34439.17
641.947	34412.27
642.301	34472.16
642.654	34430.13
643.007	34435.1
643.36	34399.84
643.713	34325.04
644.066	34452.05
644.419	34236.91
644.771	34063.58
645.124	33688.45
645.477	33642.58
645.83	33393.09
646.182	33322.13
646.535	33255.69
646.888	33305.86
647.24	33263.15
647.593	33373.2
647.945	33316.93
648.298	33099.77
648.65	33112.42
649.002	32870.62
649.355	33131.85
649.707	33151.29
650.059	33136.15
650.411	33576.81
650.763	33572.97
651.115	33911.27
651.467	33799.41
651.819	33829.69
652.171	33826.98
652.523	33663.37
652.875	33804.38
653.227	33547.44
653.578	33786.3
653.93	33640.32
654.282	33495.01
654.633	33410.04
654.985	33563.03
655.337	33665.4
655.688	33525.06
656.039	33884.38
656.391	33405.52
656.742	33502.47
657.094	33438.06
657.445	33630.15
657.796	33588.79
658.147	33521.9
658.498	33538.85
658.849	33626.98
659.2	33615.01
659.551	33525.74
659.902	33506.53
660.253	33568.68
660.604	33528
660.955	33410.72
661.306	33499.98
661.656	33497.72
662.007	33495.01
662.358	33489.81
662.708	33355.8
663.059	33392.86
663.409	33291.85
663.76	33592.63
664.11	33529.36
664.461	33508.57
664.811	33462.24
665.161	33466.08
665.511	33380.66
665.862	33308.12
666.212	33465.63
666.562	33400.32
666.912	33360.32
667.262	33432.64
667.612	33246.2
667.962	33395.8
668.312	33432.64
668.662	33444.84
669.011	33243.26
669.361	33320.55
669.711	33334.34
670.06	33185.64
670.41	33275.35
670.76	33098.64
671.109	33368.01
671.459	33150.16
671.808	33217.5
672.157	33136.37
672.507	32874.23
672.856	32958.53
673.205	33009.6
673.554	32996.04
673.904	32854.12
674.253	33105.64
674.602	33041.01
674.951	32441.48
675.3	32375.49
675.649	32868.36
675.998	32791.3
676.346	32827.68
676.695	32909.94
677.044	32704.52
677.393	32715.14
677.741	32755.37
678.09	32647.57
678.438	32604.86
678.787	32675.82
679.135	32490.74
679.484	32172.11
679.832	32486.45
680.181	32382.04
680.529	32525.54
680.877	32371.65
681.225	32208.49
681.573	32400.35
681.922	32075.16
682.27	32095.05
682.618	32160.81
682.966	32003.3
683.314	32073.13
683.661	32001.72
684.009	31850.08
684.357	31764.89
684.705	31744.55
685.053	31803.3
685.4	31803.3
685.748	31634.72
686.095	31579.13
686.443	31444.89
686.79	31366.25
687.138	31469.07
687.485	31396.53
687.832	31240.38
688.18	31341.85
688.527	31089.65
688.874	31185.92
689.221	30987.96
689.568	30896.21
689.915	30813.05
690.262	30803.55
690.609	30698.7
690.956	30733.73
691.303	30649.43
691.65	30381.87
691.997	30394.07
692.344	30240.86
692.69	30141.2
693.037	30187.07
693.383	29880.19
693.73	29949.79
694.077	29758.61
694.423	29947.98
694.769	29613.76
695.116	29683.58
695.462	29523.36
695.808	29401.33
696.155	29462.57
696.501	29205.63
696.847	29180.09
697.193	28971.74
697.539	29071.17
697.885	28746.66
698.231	28722.71
698.577	28788.01
698.923	28681.12
699.269	28552.31
699.614	28423.73
699.96	28275.26
700.306	28456.27
700.651	28157.3
700.997	28152.78
701.342	28086.56
701.688	28019.45
702.033	27933.57
702.379	27842.05
702.724	27836.85
703.069	27803.63
703.415	27445
703.76	27550.76
704.105	27461.27
704.45	27382.4
704.795	27257.88
705.14	27188.96
705.485	27091.56
705.83	26991.68
706.175	27019.47
706.52	26936.09
706.865	26785.13
707.209	26819.93
707.554	26770.21
707.899	26698.13
708.243	26478.92
708.588	26475.53
708.932	26337.23
709.277	26245.93
709.621	26256.78
709.966	26029.89
710.31	26273.05
710.654	26016.11
710.998	25993.51
711.342	26030.8
711.687	25987.64
712.031	25838.94
712.375	25774.99
712.719	25849.79
713.063	25654.99
713.407	25763.69
713.75	25597.36
714.094	25602.79
714.438	25449.57
714.782	25445.28
715.125	25425.62
715.469	25403.24
715.812	25222.91
716.156	25184.72
716.499	25207.09
716.843	25135.68
717.186	25010.71
717.53	25122.35
717.873	25106.98
718.216	25049.81
718.559	25042.12
718.902	24801.9
719.246	24953.76
719.589	24859.3
719.932	24749.48
720.275	24807.33
720.617	24742.7
720.96	24867.89
721.303	24736.6
721.646	24752.87
721.989	24586.77
722.331	24746.54
722.674	24550.61
723.016	24598.75
723.359	24448.02
723.701	24607.11
724.044	24446.66
724.386	24221.13
724.729	24436.72
725.071	24326.21
725.413	24269.71
725.755	24409.37
726.097	24336.61
726.439	24177.29
726.782	24183.39
727.124	24335.7
727.465	24264.07
727.807	24177.74
728.149	24221.13
728.491	24157.4
728.833	24223.16
729.175	24072.21
729.516	24125.76
729.858	24090.06
730.199	24081.7
730.541	24115.14
730.882	23921.7
731.224	24129.83
731.565	23930.74
731.906	23910.18
732.248	24024.07
732.589	23867.01
732.93	23883.74
733.271	23908.59
733.612	23855.49
733.953	23963.73
734.294	23855.04
734.635	23766.45
734.976	23861.36
735.317	23774.36
735.658	23817.3
735.999	23797.64
736.339	23792.44
736.68	23863.85
737.021	23766.9
737.361	23636.06
737.702	23828.37
738.042	23710.63
738.383	23707.47
738.723	23769.39
739.063	23753.8
739.404	23731.42
739.744	23695.49
740.084	23632.22
740.424	23692.1
740.764	23620.69
741.104	23702.5
741.444	23656.62
741.784	23531.66
742.124	23613.24
742.464	23602.61
742.804	23509.51
743.143	23547.47
743.483	23509.73
743.823	23480.36
744.162	23502.05
744.502	23422.51
744.841	23364.65
745.181	23476.97
745.52	23390.64
745.86	23506.12
746.199	23429.51
746.538	23406.46
746.877	23507.02
747.216	23504.54
747.556	23391.32
747.895	23441.49
748.234	23551.54
748.573	23387.48
748.911	23429.06
749.25	23302.73
749.589	23268.16
749.928	23403.75
750.267	23281.94
750.605	23419.57
750.944	23208.95
751.283	23148.84
751.621	23260.48
751.96	23222.28
752.298	23182.51
752.636	23239.69
752.975	23001.95
753.313	22959.24
753.651	23130.99
753.989	22961.05
754.327	22932.57
754.666	22853.03
755.004	22953.59
755.342	22951.56
755.679	22950.65
756.017	22891.22
756.355	22960.82
756.693	22686.93
757.031	22879.24
757.368	22646.93
757.706	22591.79
758.044	22641.96
758.381	22709.3
758.719	22650.77
759.056	22537.11
759.394	22422.08
759.731	22340.73
760.068	22299.82
760.405	22283.33
760.743	22179.15
761.08	22285.59
761.417	22046.5
761.754	22187.28
762.091	22000.62
762.428	21999.49
762.765	21791.81
763.102	21915.65
763.438	21856.45
763.775	21596.79
764.112	21767.63
764.449	21671.37
764.785	21533.97
765.122	21491.93
765.458	21371.94
765.795	21495.78
766.131	21382.56
766.467	21263.92
766.804	21185.5
767.14	21114.32
767.476	21041.55
767.812	20983.7
768.148	20971.27
768.485	20881.33
768.821	20751.84
769.157	20742.8
769.492	20674.78
769.828	20624.39
770.164	20547.55
770.5	20466.2
770.836	20492.19
771.171	20254.45
771.507	20304.62
771.842	20301.01
772.178	20134
772.513	19980.79
772.849	20070.05
773.184	19938.98
773.519	19935.14
773.855	19885.42
774.19	19728.37
774.525	19622.15
774.86	19663.51
775.195	19606.33
775.53	19474.36
775.865	19402.95
776.2	19300.13
776.535	19174.26
776.87	19169.96
777.205	19108.95
777.539	19060.59
777.874	19125.9
778.209	18946.92
778.543	18825.34
778.878	18718.67
779.212	18705.34
779.547	18668.51
779.881	18725.91
780.215	18629.41
780.55	18621.05
780.884	18398.46
781.218	18306.03
781.552	18353.71
781.886	18211.57
782.22	18141.29
782.554	18107.84
782.888	17960.05
783.222	17909.66
783.556	17786.27
783.889	17750.34
784.223	17660.17
784.557	17663.11
784.89	17728.42
785.224	17453.62
785.557	17495.66
785.891	17412.95
786.224	17434.41
786.558	17315.32
786.891	17220.18
787.224	17148.32
787.557	17226.06
787.891	17111.26
788.224	17075.78
788.557	16977.25
788.89	16998.95
789.223	16903.13
789.556	16834.88
789.888	16694.55
790.221	16709.24
790.554	16652.29
790.887	16487.77
791.219	16418.4
791.552	16453.2
791.884	16289.81
792.217	16275.35
792.549	16265.63
792.882	16132.98
793.214	16141.34
793.546	16099.53
793.879	16026.09
794.211	16024.51
794.543	16064.51
794.875	15878.98
795.207	15979.09
795.539	15895.7
795.871	15842.82
796.203	15776.83
796.535	15685.31
796.867	15664.07
797.198	15617.29
797.53	15727.34
797.862	15502.26
798.193	15568.47
798.525	15358.31
798.856	15365.99
799.188	15271.31
799.519	15136.85
799.85	15014.14
800.182	15079.22
800.513	15096.62
800.844	14954.25
801.175	15040.58
801.506	15068.15
801.837	14844.88
802.168	14866.57
802.499	14801.04
802.83	14745.9
803.161	14754.71
803.491	14645.56
803.822	14744.99
804.153	14569.63
804.483	14505.68
804.814	14402.63
805.145	14364.21
805.475	14414.38
805.805	14368.51
806.136	14385.23
806.466	14348.17
806.796	14259.81
807.126	14193.6
807.457	14196.53
807.787	14148.63
808.117	14212.13
808.447	13988.4
808.777	14063.2
809.107	13952.02
809.436	13918.57
809.766	14018.46
810.096	13827.73
810.426	13828.86
810.755	13789.76
811.085	13761.29
811.414	13790.44
811.744	13664.8
812.073	13601.07
812.403	13665.7
812.732	13614.85
813.061	13540.96
813.39	13435.65
813.719	13494.86
814.049	13524.23
814.378	13470.22
814.707	13401.75
815.036	13356.78
815.365	13278.14
815.693	13189.33
816.022	13173.28
816.351	13179.39
816.68	13121.53
817.008	13136.22
817.337	13026.85
817.665	13007.64
817.994	13005.6
818.322	13001.99
818.651	12988.88
818.979	12932.16
819.307	12930.8
819.636	12909.34
819.964	12801.09
820.292	12899.84
820.62	12862.78
820.948	12766.29
821.276	12786.85
821.604	12797.93
821.932	12842.44
822.259	12739.62
822.587	12743.01
822.915	12646.74
823.243	12748.44
823.57	12728.32
823.898	12775.55
824.225	12640.42
824.553	12698.95
824.88	12722.22
825.207	12732.17
825.535	12794.99
825.862	12834.54
826.189	12717.02
826.516	12809.68
826.843	12809
827.17	12843.8
827.497	12814.65
827.824	12793.18
828.151	12728.1
828.478	12747.98
828.805	12762.67
829.131	12799.73
829.458	12664.6
829.785	12606.29
830.111	12644.94
830.438	12745.95
830.764	12663.24
831.09	12714.09
831.417	12674.31
831.743	12652.62
832.069	12650.81
832.395	12607.87
832.722	12701.66
833.048	12621.66
833.374	12657.82
833.7	12534.88
834.026	12599.06
834.351	12576.92
834.677	12549.57
835.003	12611.04
835.329	12596.12
835.654	12460.76
835.98	12454.43
836.306	12579.17
836.631	12497.82
836.956	12501.21
837.282	12467.99
837.607	12471.38
837.932	12418.05
838.258	12347.09
838.583	12344.6
838.908	12378.5
839.233	12383.25
839.558	12263.93
839.883	12298.5
840.208	12252.4
840.533	12254.66
840.858	12271.61
841.182	12209.69
841.507	12220.54
841.832	12024.16
842.156	12139.41
842.481	12079.75
842.805	12010.6
843.13	12029.13
843.454	12048.57
843.778	11925.41
844.103	11945.52
844.427	11891.51
844.751	11917.5
845.075	11904.16
845.399	11830.72
845.723	11849.7
846.047	11814.45
846.371	11715.69
846.695	11694.23
847.019	11609.48
847.343	11604.29
847.666	11481.8
847.99	11453.33
848.313	11448.36
848.637	11365.2
848.96	11333.56
849.284	11323.61
849.607	11270.28
849.931	11191.87
850.254	11099.67
850.577	11102.38
850.9	10957.97
851.223	11019.22
851.546	10974.25
851.869	10804.76
852.192	10935.38
852.515	10925.89
852.838	10793.69
853.161	10793.91
853.483	10679.56
853.806	10636.4
854.129	10643.41
854.451	10651.99
854.774	10620.13
855.096	10500.13
855.419	10431.21
855.741	10474.15
856.063	10410.87
856.385	10399.57
856.708	10357.54
857.03	10353.24
857.352	10385.33
857.674	10314.38
857.996	10293.59
858.318	10240.93
858.64	10130.43
858.961	10188.96
859.283	10117.32
859.605	10141.95
859.926	10074.38
860.248	10104.89
860.57	10062.86
860.891	9993.25
861.212	10003.65
861.534	9946.25
861.855	9930.88
862.176	9981.05
862.498	9920.26
862.819	9993.25
863.14	9845.69
863.461	9893.37
863.782	9860.38
864.103	9895.4
864.424	9729.98
864.745	9772.47
865.065	9697.67
865.386	9738.12
865.707	9676.88
866.027	9727.27
866.348	9715.07
866.668	9668.06
866.989	9644.11
867.309	9494.06
867.63	9642.53
867.95	9612.47
868.27	9539.03
868.59	9614.96
868.91	9509.65
869.23	9519.59
869.55	9452.48
869.87	9581.51
870.19	9544.68
870.51	9472.36
870.83	9447.28
871.15	9471.23
871.469	9428.98
871.789	9463.32
872.109	9402.31
872.428	9377.23
872.748	9404.57
873.067	9449.77
873.386	9345.14
873.706	9429.88
874.025	9365.47
874.344	9273.73
874.663	9281.63
874.982	9254.74
875.301	9274.4
875.62	9193.28
875.939	9230.11
876.258	9252.03
876.577	9156.44
876.896	9227.17
877.214	9193.95
877.533	9092.03
877.852	9119.15
878.17	9140.17
878.489	9131.81
878.807	9085.93
879.125	9097.68
879.444	9058.82
879.762	9020.17
880.08	9038.25
880.398	8998.93
880.716	9059.49
881.034	8923.23
881.352	8987.63
881.67	8926.16
881.988	8940.63
882.306	8925.94
882.624	8905.6
882.941	8877.13
883.259	8841.87
883.577	8783.57
883.894	8813.4
884.212	8753.74
884.529	8715.77
884.846	8730.01
885.164	8656.79
885.481	8623.35
885.798	8695.44
886.115	8654.53
886.432	8640.3
886.75	8654.31
887.067	8655.66
887.383	8582.9
887.7	8636.45
888.017	8530.92
888.334	8607.98
888.651	8505.38
888.967	8576.57
889.284	8489.34
889.6	8460.87
889.917	8359.62
890.233	8405.05
890.55	8404.14
890.866	8424.93
891.182	8336.35
891.498	8266.75
891.815	8236.24
892.131	8222.68
892.447	8174.77
892.763	8193.3
893.079	8160.53
893.395	8115.11
893.71	8132.96
894.026	8128.67
894.342	8118.95
894.657	8062.23
894.973	8052.06
895.289	8031.5
895.604	8024.49
895.92	7967.09
896.235	7965.51
896.55	7936.59
896.865	7876.7
897.181	7831.73
897.496	7912.63
897.811	7805.06
898.126	7800.32
898.441	7739.3
898.756	7792.86
899.071	7716.93
899.386	7603.03
899.7	7663.37
900.015	7598.97
900.33	7536.37
900.644	7552.41
900.959	7554.67
901.273	7487.78
901.588	7481.91
901.902	7441.23
902.216	7453.43
902.531	7407.33
902.845	7394
903.159	7347
903.473	7300.67
903.787	7299.99
904.101	7258.41
904.415	7247.11
904.729	7215.25
905.042	7161.01
905.356	7137.96
905.67	7159.43
905.984	7132.09
906.297	7085.99
906.611	7021.81
906.924	7012.54
907.237	6971.19
907.551	7034.91
907.864	6944.29
908.177	6883.05
908.491	6904.52
908.804	6842.6
909.117	6837.63
909.43	6811.42
909.743	6779.55
910.056	6808.48
910.368	6727.8
910.681	6739.1
910.994	6719.22
911.307	6700.91
911.619	6624.53
911.932	6620.01
912.244	6654.81
912.557	6569.39
912.869	6524.42
913.181	6485.1
913.494	6490.75
913.806	6471.76
914.118	6444.87
914.43	6375.72
914.742	6305.22
915.054	6340.02
915.366	6283.3
915.678	6299.79
915.99	6306.8
916.302	6247.36
916.613	6184.77
916.925	6227.7
917.236	6170.98
917.548	6096.18
917.859	6147.71
918.171	6090.76
918.482	6066.35
918.794	6062.74
919.105	6059.8
919.416	5995.62
919.727	5993.59
920.038	5916.3
920.349	5846.92
920.66	5915.85
920.971	5902.51
921.282	5871.55
921.593	5806.92
921.903	5798.11
922.214	5717.43
922.525	5762.86
922.835	5752.69
923.146	5702.07
923.456	5672.69
923.767	5733.93
924.077	5620.94
924.387	5593.82
924.697	5614.61
925.008	5581.84
925.318	5532.81
925.628	5504.33
925.938	5500.04
926.248	5438.57
926.558	5406.71
926.867	5382.53
927.177	5423.43
927.487	5343.88
927.796	5336.88
928.106	5344.56
928.416	5306.82
928.725	5281.97
929.034	5301.4
929.344	5263.21
929.653	5255.98
929.962	5206.49
930.271	5166.49
930.581	5185.47
930.89	5143.44
931.199	5086.94
931.508	5145.02
931.817	5070.67
932.125	5109.31
932.434	5056.89
932.743	4986.38
933.051	4982.09
933.36	5000.84
933.669	4929.88
933.977	4891.24
934.286	4928.08
934.594	4891.02
934.902	4881.75
935.21	4859.38
935.519	4834.29
935.827	4824.8
936.135	4818.47
936.443	4752.04
936.751	4728.31
937.059	4759.04
937.367	4755.43
937.674	4732.15
937.982	4644.24
938.29	4647.18
938.597	4625.71
938.905	4573.06
939.213	4524.92
939.52	4536.45
939.827	4558.59
940.135	4535.32
940.442	4509.56
940.749	4530.35
941.056	4483.79
941.363	4434.98
941.67	4446.73
941.977	4439.5
942.284	4402.21
942.591	4392.95
942.898	4341.65
943.205	4394.31
943.511	4331.26
943.818	4319.05
944.125	4320.41
944.431	4265.72
944.738	4269.11
945.044	4262.11
945.35	4187.53
945.657	4220.07
945.963	4179.85
946.269	4183.46
946.575	4209
946.881	4110.92
947.187	4106.18
947.493	4034.77
947.799	4077.03
948.105	4027.31
948.41	4029.12
948.716	4002
949.022	3957.93
949.327	3987.54
949.633	3947.99
949.938	3942.11
950.244	3905.05
950.549	3898.95
950.854	3910.02
951.16	3872.74
951.465	3873.87
951.77	3846.07
952.075	3851.49
952.38	3835
952.685	3823.92
952.99	3768.79
953.294	3771.72
953.599	3746.41
953.904	3752.51
954.209	3735.11
954.513	3677.49
954.818	3743.25
955.122	3723.36
955.426	3679.75
955.731	3665.96
956.035	3602.46
956.339	3611.73
956.643	3599.75
956.948	3592.29
957.252	3541.22
957.556	3555.01
957.86	3525.85
958.163	3508.68
958.467	3520.43
958.771	3489.92
959.075	3500.77
959.378	3438.4
959.682	3489.92
959.985	3458.74
960.289	3424.16
960.592	3376.03
960.896	3390.49
961.199	3341.9
961.502	3351.39
961.805	3390.04
962.108	3352.07
962.411	3349.36
962.714	3316.59
963.017	3298.51
963.32	3270.04
963.623	3258.29
963.926	3236.82
964.228	3225.07
964.531	3217.39
964.833	3236.37
965.136	3177.84
965.438	3228.46
965.741	3162.02
966.043	3131.29
966.345	3149.59
966.648	3144.62
966.95	3122.7
967.252	3117.05
967.554	3108.92
967.856	3083.61
968.158	3076.6
968.46	3025.75
968.761	3037.28
969.063	3014.68
969.365	2988.01
969.666	2980.33
969.968	2953.21
970.269	2964.29
970.571	2958.64
970.872	2989.37
971.174	2943.27
971.475	2903.27
971.776	2949.6
972.077	2903.05
972.378	2899.88
972.679	2841.8
972.98	2866.89
973.281	2840.22
973.582	2854.46
973.883	2807
974.183	2794.8
974.484	2778.75
974.785	2812.65
975.085	2804.29
975.386	2785.08
975.686	2725.65
975.986	2734.01
976.287	2743.28
976.587	2722.94
976.887	2675.71
977.187	2723.84
977.487	2677.74
977.787	2680.68
978.087	2647.68
978.387	2685.42
978.687	2675.48
978.987	2637.29
979.286	2621.02
979.586	2617.18
979.885	2575.14
980.185	2603.17
980.484	2566.78
980.784	2557.74
981.083	2571.3
981.382	2536.05
981.682	2515.03
981.981	2540.79
982.28	2485.88
982.579	2473.23
982.878	2478.2
983.177	2496.95
983.475	2472.1
983.774	2434.58
984.073	2398.88
984.372	2472.55
984.67	2416.73
984.969	2444.07
985.267	2406.79
985.566	2385.32
985.864	2387.8
986.162	2347.81
986.461	2368.82
986.759	2338.99
987.057	2310.52
987.355	2337.64
987.653	2293.8
987.951	2310.74
988.249	2314.13
988.547	2284.76
988.844	2275.49
989.142	2268.49
989.44	2268.94
989.737	2230.52
990.035	2229.62
990.332	2219.22
990.63	2225.32
990.927	2202.72
991.224	2205.66
991.521	2171.09
991.819	2197.98
992.116	2172.22
992.413	2149.62
992.71	2131.54
993.006	2139.22
993.303	2117.3
993.6	2089.96
993.897	2111.88
994.193	2068.49
994.49	2059.68
994.787	2086.57
995.083	2067.13
995.379	2049.51
995.676	2050.86
995.972	2040.02
996.268	2023.07
996.565	2023.75
996.861	1989.85
997.157	1990.07
997.453	2018.55
997.749	1973.58
998.044	1973.58
998.34	1955.27
998.636	1948.72
998.932	1944.88
999.227	1927.03
999.523	1916.63
999.818	1905.56
1000.114	1921.15
1000.409	1869.85
1000.704	1879.57
1001	1855.62
1001.295	1853.36
1001.59	1842.96
1001.885	1847.25
1002.18	1817.65
1002.475	1829.85
1002.77	1824.66
1003.065	1793.7
1003.359	1776.97
1003.654	1795.05
1003.949	1772.68
1004.243	1796.41
1004.538	1762.74
1004.832	1734.49
1005.127	1763.87
1005.421	1725.67
1005.715	1708.5
1006.009	1733.58
1006.304	1720.03
1006.598	1691.55
1006.892	1685.9
1007.186	1683.64
1007.48	1645.45
1007.773	1653.81
1008.067	1651.33
1008.361	1628.05
1008.655	1653.59
1008.948	1609.29
1009.242	1599.8
1009.535	1615.17
1009.829	1597.09
1010.122	1598.22
1010.415	1572.01
1010.708	1541.05
1011.001	1559.35
1011.295	1555.28
1011.588	1547.83
1011.881	1539.69
1012.173	1541.27
1012.466	1503.53
1012.759	1554.83
1013.052	1513.7
1013.344	1473.48
1013.637	1494.27
1013.93	1466.02
1014.222	1483.2
1014.514	1495.62
1014.807	1446.81
1015.099	1463.08
1015.391	1426.25
1015.683	1428.28
1015.976	1423.54
1016.268	1403.65
1016.56	1428.28
1016.851	1396.19
1017.143	1391.45
1017.435	1376.53
1017.727	1367.49
1018.018	1351.67
1018.31	1328.4
1018.602	1348.51
1018.893	1303.31
1019.185	1323.43
1019.476	1318.68
1019.767	1287.72
1020.058	1322.75
1020.35	1297.21
1020.641	1262.86
1020.932	1274.39
1021.223	1260.15
1021.514	1271.45
1021.804	1261.51
1022.095	1242.75
1022.386	1226.25
1022.677	1227.38
1022.967	1204.33
1023.258	1197.33
1023.548	1235.52
1023.839	1205.01
1024.129	1195.52
1024.419	1211.11
1024.709	1185.58
1025	1183.54
1025.29	1150.55
1025.58	1156.88
1025.87	1171.34
1026.16	1140.83
1026.449	1130.89
1026.739	1113.71
1027.029	1141.96
1027.319	1128.85
1027.608	1119.36
1027.898	1118.91
1028.187	1107.39
1028.477	1083.88
1028.766	1105.35
1029.055	1062.64
1029.344	1066.94
1029.634	1056.54
1029.923	1056.54
1030.212	1045.47
1030.501	1081.85
1030.79	1044.34
1031.078	1009.08
1031.367	1020.61
1031.656	992.81
1031.945	1034.62
1032.233	999.59
1032.522	993.49
1032.81	963.21
1033.099	1001.17
1033.387	989.88
1033.675	967.28
1033.963	945.58
1034.251	939.03
1034.54	945.58
1034.828	951.91
1035.116	939.48
1035.403	936.32
1035.691	915.75
1035.979	945.36
1036.267	922.08
1036.554	922.53
1036.842	917.33
1037.129	906.49
1037.417	899.48
1037.704	903.1
1037.992	880.73
1038.279	861.06
1038.566	904
1038.853	904
1039.14	904
