Data from tablewood_brown_FLMS001491_099.txt Node
Date: Tue Feb 07 11:11:18 GMT 2017
User: dcchb
Spectrometer: FLMS00149
Trigger mode: 0
Integration Time (sec): 2.000000E-2
Scans to average: 10
Electric dark correction enabled: true
Nonlinearity correction enabled: false
Boxcar width: 0
XAxis mode: Wavelengths
Number of Pixels in Spectrum: 2048
>>>>>Begin Spectral Data<<<<<
341.393	-18.69
341.776	-18.69
342.16	-18.69
342.543	-51.68
342.927	-76.76
343.31	-56.88
343.693	-78.8
344.077	-54.17
344.46	-90.55
344.843	-59.36
345.226	-33.6
345.61	-36.99
345.993	-9.65
346.376	-5.35
346.759	9.34
347.142	50.01
347.525	40.52
347.908	56.34
348.291	73.97
348.674	93.18
349.057	101.99
349.44	124.36
349.823	144.7
350.206	162.55
350.588	179.73
350.971	213.62
351.354	226.28
351.737	230.57
352.119	246.17
352.502	267.41
352.884	265.37
353.267	296.33
353.65	295.2
354.032	317.8
354.414	319.84
354.797	322.32
355.179	297.46
355.562	338.82
355.944	341.3
356.326	327.52
356.709	338.37
357.091	339.04
357.473	346.5
357.855	350.34
358.238	362.32
358.62	350.57
359.002	330.91
359.384	344.47
359.766	341.98
360.148	363.45
360.53	338.37
360.912	346.05
361.294	340.63
361.676	322.55
362.057	342.66
362.439	339.72
362.821	328.88
363.203	330.68
363.584	345.15
363.966	334.75
364.348	355.99
364.729	318.71
365.111	329.78
365.493	343.34
365.874	330.68
366.256	331.36
366.637	320.06
367.019	314.41
367.4	336.56
367.781	330.46
368.163	332.49
368.544	335.66
368.925	334.53
369.306	338.37
369.688	337.24
370.069	334.3
370.45	318.71
370.831	340.63
371.212	322.1
371.593	338.59
371.974	320.74
372.355	322.1
372.736	357.8
373.117	339.95
373.498	341.53
373.879	339.72
374.26	326.39
374.641	330.91
375.021	333.17
375.402	341.08
375.783	341.3
376.163	355.54
376.544	342.43
376.925	336.56
377.305	347.86
377.686	339.27
378.066	356.22
378.447	351.7
378.827	353.51
379.208	368.87
379.588	333.4
379.968	359.61
380.349	365.48
380.729	346.05
381.109	358.48
381.489	401.42
381.87	375.88
382.25	368.65
382.63	380.85
383.01	393.73
383.39	377.91
383.77	391.47
384.15	373.62
384.53	369.33
384.91	397.57
385.29	377.91
385.67	400.29
386.049	400.29
386.429	395.09
386.809	400.51
387.189	405.03
387.568	399.38
387.948	406.39
388.328	421.3
388.707	422.21
389.087	403.9
389.466	408.65
389.846	402.32
390.225	423.34
390.605	416.33
390.984	427.18
391.363	413.62
391.743	404.13
392.122	433.51
392.501	447.97
392.881	470.79
393.26	445.26
393.639	443.9
394.018	442.54
394.397	439.61
394.776	473.5
395.155	483.22
395.534	457.46
395.913	487.29
396.292	482.54
396.671	478.93
397.05	485.48
397.429	483.22
397.808	482.54
398.186	475.76
398.565	490.23
398.944	508.31
399.323	506.5
399.701	476.89
400.08	480.28
400.458	495.65
400.837	526.38
401.215	532.03
401.594	521.41
401.972	515.99
402.351	524.35
402.729	535.65
403.107	540.62
403.486	537.68
403.864	525.71
404.242	519.83
404.62	508.53
404.999	538.36
405.377	557.12
405.755	555.08
406.133	548.53
406.511	540.62
406.889	564.58
407.267	575.65
407.645	567.97
408.023	585.37
408.401	601.86
408.779	593.73
409.156	593.05
409.534	590.34
409.912	613.61
410.29	615.42
410.667	621.75
411.045	652.26
411.422	640.96
411.8	650.9
412.178	663.33
412.555	648.87
412.933	676.66
413.31	657
413.687	697
414.065	688.19
414.442	685.7
414.819	706.04
415.197	669.66
415.574	697.23
415.951	693.39
416.328	712.59
416.705	726.61
417.082	698.13
417.46	727.96
417.837	737.68
418.214	747.85
418.591	726.83
418.967	748.53
419.344	753.05
419.721	752.59
420.098	752.59
420.475	765.7
420.852	755.3
421.228	789.43
421.605	798.02
421.982	786.49
422.358	815.87
422.735	824.46
423.111	821.52
423.488	815.19
423.864	835.75
424.241	868.07
424.617	863.55
424.994	840.95
425.37	833.5
425.746	846.83
426.123	856.55
426.499	875.75
426.875	856.09
427.251	881.18
427.627	892.25
428.003	907.39
428.379	917.33
428.756	941.29
429.132	938.58
429.507	957.33
429.883	955.98
430.259	947.62
430.635	974.96
431.011	999.82
431.387	1006.15
431.763	1047.73
432.138	1014.96
432.514	1047.05
432.89	1028.97
433.265	1060.38
433.641	1069.87
434.016	1064.22
434.392	1068.07
434.767	1086.6
435.143	1088.86
435.518	1090.66
435.894	1145.35
436.269	1171.57
436.644	1191.23
437.02	1176.99
437.395	1174.05
437.77	1190.55
438.145	1191.9
438.52	1216.54
438.895	1204.78
439.271	1239.59
439.646	1237.1
440.021	1233.26
440.395	1268.29
440.77	1261.05
441.145	1280.94
441.52	1282.75
441.895	1301.73
442.27	1292.47
442.645	1322.75
443.019	1303.77
443.394	1339.24
443.769	1334.95
444.143	1350.77
444.518	1350.32
444.892	1363.65
445.267	1368.85
445.641	1416.08
446.016	1391.22
446.39	1400.49
446.764	1436.19
447.139	1417.89
447.513	1419.24
447.887	1428.28
448.262	1412.69
448.636	1446.81
449.01	1461.5
449.384	1484.78
449.758	1484.55
450.132	1519.8
450.506	1533.59
450.88	1495.17
451.254	1540.82
451.628	1530.88
452.002	1560.48
452.376	1606.58
452.75	1565.68
453.123	1599.58
453.497	1627.37
453.871	1645.23
454.244	1656.3
454.618	1644.1
454.992	1700.82
455.365	1670.31
455.739	1723.87
456.112	1757.31
456.486	1782.62
456.859	1760.7
457.232	1807.48
457.606	1789.85
457.979	1812.9
458.352	1850.64
458.725	1873.69
459.099	1890.19
459.472	1939.91
459.845	1935.61
460.218	1957.08
460.591	1982.39
460.964	2008.83
461.337	2060.13
461.71	2049.96
462.083	2090.64
462.456	2101.26
462.829	2102.84
463.201	2146.68
463.574	2176.96
463.947	2183.06
464.32	2249.73
464.692	2264.87
465.065	2264.42
465.438	2308.03
465.81	2336.96
466.183	2348.48
466.555	2396.39
466.928	2451.98
467.3	2435.03
467.672	2517.07
468.045	2512.77
468.417	2520.91
468.789	2574.69
469.161	2613.56
469.534	2671.41
469.906	2725.42
470.278	2719.32
470.65	2804.29
471.022	2830.96
471.394	2850.39
471.766	2908.02
472.138	2967.68
472.51	3041.12
472.882	3066.2
473.253	3111.18
473.625	3136.03
473.997	3250.15
474.369	3283.37
474.74	3338.74
475.112	3388.91
475.484	3476.59
475.855	3476.82
476.227	3556.14
476.598	3635.46
476.97	3652.4
477.341	3757.94
477.713	3808.11
478.084	3899.18
478.455	3978.95
478.827	4018.72
479.198	4193.41
479.569	4210.81
479.94	4272.05
480.311	4383.23
480.682	4483.79
481.053	4587.75
481.424	4644.47
481.795	4739.16
482.166	4790.23
482.537	4882.43
482.908	4952.26
483.279	5017.57
483.65	5107.73
484.021	5265.02
484.391	5306.37
484.762	5372.58
485.133	5467.05
485.503	5543.43
485.874	5680.6
486.244	5745.68
486.615	5870.88
486.985	5909.75
487.356	6003.75
487.726	6100.93
488.097	6186.12
488.467	6259.12
488.837	6355.84
489.207	6493.46
489.578	6533.91
489.948	6568.26
490.318	6698.88
490.688	6686.9
491.058	6871.3
491.428	6952.88
491.798	7023.61
492.168	7135.93
492.538	7203.72
492.908	7340.67
493.278	7353.32
493.648	7419.99
494.017	7551.51
494.387	7531.62
494.757	7674.9
495.126	7746.99
495.496	7796.7
495.866	7907.43
496.235	7976.36
496.605	8015
496.974	8043.47
497.344	8130.25
497.713	8199.4
498.082	8333.18
498.452	8412.5
498.821	8417.02
499.19	8404.37
499.559	8594.42
499.928	8590.81
500.298	8661.99
500.667	8744.02
501.036	8813.4
501.405	8845.71
501.774	8897.46
502.143	8955.77
502.512	9035.77
502.88	9124.12
503.249	9170.9
503.618	9211.58
503.987	9265.82
504.356	9328.19
504.724	9423.33
505.093	9491.57
505.462	9466.94
505.83	9585.13
506.199	9651.57
506.567	9758.91
506.936	9828.51
507.304	9930.2
507.672	9954.16
508.041	9961.39
508.409	10118.45
508.777	10210.65
509.145	10331.1
509.514	10346.01
509.882	10435.05
510.25	10481.38
510.618	10596.4
510.986	10541.26
511.354	10709.17
511.722	10788.71
512.09	10867.13
512.458	10950.07
512.826	10994.13
513.193	11087.24
513.561	11157.97
513.929	11254.69
514.297	11405.65
514.664	11524.97
515.032	11522.93
515.4	11668.92
515.767	11737.84
516.135	11764.96
516.502	11757.05
516.869	12008.79
517.237	12069.58
517.604	12148
517.972	12189.58
518.339	12297.6
518.706	12411.72
519.073	12505.28
519.44	12600.19
519.808	12759.51
520.175	12761.54
520.542	13044.02
520.909	12982.78
521.276	13019.16
521.643	13203.57
522.009	13243.56
522.376	13502.99
522.743	13492.82
523.11	13602.42
523.477	13730.33
523.843	13860.72
524.21	13974.39
524.577	14109.3
524.943	14262.75
525.31	14271.11
525.676	14464.55
526.043	14603.75
526.409	14578.67
526.776	14763.07
527.142	14861.15
527.508	14915.38
527.874	15131.42
528.241	15148.82
528.607	15246.45
528.973	15441.25
529.339	15397.41
529.705	15506.78
530.071	15708.36
530.437	15752.42
530.803	15908.58
531.169	15931.18
531.535	15925.3
531.901	16001.23
532.267	16130.49
532.632	16213.88
532.998	16412.75
533.364	16453.42
533.73	16445.97
534.095	16664.04
534.461	16734.55
534.826	16822.23
535.192	16875.11
535.557	17031.71
535.923	16999.62
536.288	17140.86
536.653	17222.67
537.019	17226.28
537.384	17226.96
537.749	17396.45
538.114	17461.98
538.479	17428.31
538.845	17564.58
539.21	17597.57
539.575	17606.39
539.94	17720.96
540.305	17782.88
540.67	17841.86
541.034	17927.28
541.399	18002.76
541.764	18137.45
542.129	18072.59
542.494	18179.71
542.858	18275.75
543.223	18356.88
543.587	18366.59
543.952	18398.23
544.316	18579.24
544.681	18471.45
545.045	18659.02
545.41	18775.17
545.774	18800.48
546.138	18847.94
546.503	18938.33
546.867	18952.11
547.231	19118.44
547.595	19097.65
547.959	19242.28
548.324	19297.87
548.688	19334.03
549.052	19334.25
549.416	19518.2
549.779	19514.81
550.143	19609.95
550.507	19806.1
550.871	19809.95
551.235	19887.68
551.599	20072.76
551.962	20136.72
552.326	20268.24
552.689	20374.9
553.053	20385.75
553.417	20412.19
553.78	20712.07
554.143	20653.76
554.507	20789.81
554.87	20989.35
555.234	21237.93
555.597	21220.3
555.96	21286.52
556.323	21358.38
556.686	21517.47
557.05	21656.45
557.413	21790.68
557.776	21886.73
558.139	22035.88
558.502	22069.32
558.865	22228.41
559.228	22482.64
559.59	22589.99
559.953	22647.38
560.316	22854.84
560.679	22994.72
561.041	23153.59
561.404	23347.25
561.767	23555.38
562.129	23631.77
562.492	23928.93
562.854	23939.33
563.217	23955.15
563.579	24235.82
563.941	24390.84
564.304	24550.84
564.666	24782.24
565.028	24869.02
565.39	25038.51
565.753	25136.81
566.115	25434.88
566.477	25600.75
566.839	25716.23
567.201	25880.07
567.563	25949.44
567.925	26209.78
568.287	26359.15
568.648	26431.01
569.01	26876.88
569.372	26959.36
569.734	26915.97
570.095	27245.23
570.457	27355.51
570.819	27570.87
571.18	27597.54
571.542	27884.31
571.903	28097.64
572.265	28243.62
572.626	28365.2
572.987	28618.75
573.349	28802.25
573.71	29014
574.071	29020.1
574.432	29224.84
574.794	29560.65
575.155	29534.44
575.516	29608.33
575.877	29847.65
576.238	30004.93
576.599	30117.24
576.96	30336.22
577.32	30383.23
577.681	30596.1
578.042	30791.35
578.403	30898.24
578.763	30989.76
579.124	31027.96
579.485	31151.12
579.845	31372.35
580.206	31358.34
580.566	31494.61
580.927	31522.18
581.287	31761.27
581.648	31634.04
582.008	31972.34
582.368	31808.73
582.728	32156.97
583.089	32100.24
583.449	32207.59
583.809	32353.34
584.169	32437.86
584.529	32444.64
584.889	32597.41
585.249	32474.02
585.609	32549.27
585.969	32783.16
586.329	32702.94
586.688	32770.96
587.048	32802.82
587.408	32810.06
587.768	32838.53
588.127	32880.79
588.487	32792.2
588.846	33160.78
589.206	32937.51
589.565	33032.87
589.925	33221.12
590.284	33102.7
590.643	33338.18
591.003	33493.2
591.362	33488
591.721	33599.64
592.08	33316.93
592.44	33523.26
592.799	33655
593.158	33485.07
593.517	33518.29
593.876	33508.12
594.235	33624.95
594.593	33685.51
594.952	33742.91
595.311	33570.49
595.67	33716.25
596.029	33893.87
596.387	33871.72
596.746	34050.02
597.104	33902
597.463	33695.91
597.822	34056.58
598.18	33808.45
598.538	33965.73
598.897	34096.12
599.255	33777.71
599.613	34312.39
599.972	34064.49
600.33	34227.19
600.688	33959.4
601.046	34187.42
601.404	34389.9
601.762	34347.42
602.12	34482.33
602.478	34464.02
602.836	34289.34
603.194	34306.97
603.552	34334.76
603.91	34191.04
604.268	34518.03
604.625	34338.15
604.983	34524.59
605.341	34305.84
605.698	34581.76
606.056	34522.33
606.413	34653.4
606.771	34709.21
607.128	34807.52
607.485	34702.21
607.843	34664.24
608.2	34880.51
608.557	34965.7
608.914	34804.35
609.272	35007.74
609.629	35057.23
609.986	35039.15
610.343	35030.34
610.7	35325.24
611.057	35206.6
611.414	35114.85
611.771	35224.46
612.127	35250.9
612.484	35234.85
612.841	35381.51
613.198	35279.59
613.554	35369.31
613.911	35617.44
614.267	35538.35
614.624	35530.66
614.98	35614.28
615.337	35702.41
615.693	35592.81
616.05	35611.79
616.406	35734.95
616.762	35704.67
617.118	35630.77
617.475	35719.36
617.831	35798.45
618.187	35912.12
618.543	35888.62
618.899	36066.01
619.255	35986.7
619.611	35871.9
619.967	36233.02
620.323	36045.22
620.678	36051.55
621.034	35984.21
621.39	36016.3
621.746	35981.72
622.101	36179.91
622.457	35987.15
622.812	36181.94
623.168	36221.72
623.523	36168.61
623.879	36226.46
624.234	35926.13
624.589	36086.35
624.945	36169.29
625.3	36326.35
625.655	36189.4
626.01	36310.98
626.365	36276.63
626.72	36229.85
627.075	36160.7
627.43	36109.18
627.785	36018.56
628.14	36151.44
628.495	36022.63
628.85	36227.37
629.205	35906.7
629.559	36150.53
629.914	36023.3
630.269	36033.93
630.623	35923.42
630.978	35838.22
631.332	36041.16
631.687	36077.77
632.041	35904.89
632.396	36017.43
632.75	35837.77
633.104	35777.21
633.459	35784.67
633.813	35849.98
634.167	35672.58
634.521	35635.29
634.875	35788.06
635.229	35781.28
635.583	35529.53
635.937	35485.69
636.291	35364.56
636.645	35381.97
636.999	35460.83
637.352	35393.26
637.706	35271.46
638.06	35352.81
638.413	35379.48
638.767	35273.27
639.121	35307.39
639.474	35146.72
639.828	35090.67
640.181	35192.82
640.534	35152.37
640.888	35051.35
641.241	35039.83
641.594	35025.36
641.947	35049.54
642.301	34930.23
642.654	35033.95
643.007	35059.04
643.36	34800.29
643.713	34864.92
644.066	34972.48
644.419	34695.2
644.771	34537.24
645.124	34206.63
645.477	34123.02
645.83	33905.85
646.182	33837.37
646.535	33796.47
646.888	33783.14
647.24	33589.02
647.593	33753.53
647.945	33711.73
648.298	33538.17
648.65	33431.73
649.002	33368.23
649.355	33594.44
649.707	33560.09
650.059	33794.44
650.411	34185.16
650.763	34118.27
651.115	34535.21
651.467	34388.54
651.819	34426.74
652.171	34243.24
652.523	34210.47
652.875	34192.62
653.227	34145.84
653.578	34265.16
653.93	34403.46
654.282	34053.86
654.633	33952.62
654.985	33910.59
655.337	34157.14
655.688	34152.17
656.039	34108.55
656.391	33887.32
656.742	34122.79
657.094	34061.55
657.445	33984.49
657.796	34093.41
658.147	33851.61
658.498	33883.25
658.849	33982.68
659.2	33866.98
659.551	33833.31
659.902	34031.49
660.253	33998.5
660.604	34072.17
660.955	33804.38
661.306	34099.74
661.656	33900.2
662.007	33915.11
662.358	33891.61
662.708	34025.39
663.059	33796.7
663.409	33637.6
663.76	33988.56
664.11	33915.79
664.461	33931.16
664.811	33891.38
665.161	33886.86
665.511	33663.14
665.862	33796.24
666.212	33827.2
666.562	33920.76
666.912	33756.7
667.262	33881.21
667.612	33883.7
667.962	33842.12
668.312	33713.08
668.662	33856.36
669.011	33723.25
669.361	33838.28
669.711	33597.61
670.06	33702.69
670.41	33481.9
670.76	33625.18
671.109	33671.28
671.459	33448.68
671.808	33602.8
672.157	33689.58
672.507	33386.09
672.856	33297.05
673.205	33519.87
673.554	33541.79
673.904	33473.31
674.253	33540.66
674.602	33399.87
674.951	32871.07
675.3	32798.53
675.649	33433.54
675.998	33284.39
676.346	33279.2
676.695	33435.35
677.044	33099.99
677.393	33067.68
677.741	33168.01
678.09	33126.43
678.438	33134.34
678.787	33070.39
679.135	33153.55
679.484	32801.92
679.832	32998.52
680.181	32757.63
680.529	33011.63
680.877	32693.45
681.225	32772.09
681.573	32868.13
681.922	32596.05
682.27	32571.19
682.618	32645.99
682.966	32515.6
683.314	32574.58
683.661	32425.43
684.009	32374.81
684.357	32317.64
684.705	32167.59
685.053	32304.08
685.4	32150.19
685.748	31959.46
686.095	31974.82
686.443	31787.03
686.79	31729.18
687.138	31759.24
687.485	31805.11
687.832	31617.09
688.18	31650.54
688.527	31445.8
688.874	31414.61
689.221	31323.09
689.568	31277.44
689.915	31185.24
690.262	31223.2
690.609	31168.74
690.956	30957.45
691.303	30978.01
691.65	30723.78
691.997	30719.26
692.344	30605.37
692.69	30538.48
693.037	30602.2
693.383	30247.86
693.73	30264.59
694.077	30117.24
694.423	30167.86
694.769	30059.17
695.116	30022.11
695.462	29984.59
695.808	29877.25
696.155	29894.65
696.501	29562.01
696.847	29556.36
697.193	29383.7
697.539	29456.02
697.885	29208.12
698.231	29131.96
698.577	29110.04
698.923	29020.32
699.269	28941.23
699.614	28685.64
699.96	28709.82
700.306	28703.27
700.651	28569.04
700.997	28562.71
701.342	28381.47
701.688	28386.89
702.033	28340.79
702.379	28300.34
702.724	28066.68
703.069	28202.27
703.415	27767.48
703.76	27932.67
704.105	27887.47
704.45	27720.7
704.795	27610.64
705.14	27451.1
705.485	27461.04
705.83	27312.57
706.175	27246.81
706.52	27287.04
706.865	27033.71
707.209	27144.44
707.554	26993.49
707.899	26954.84
708.243	26855.64
708.588	26860.83
708.932	26701.52
709.277	26626.49
709.621	26695.19
709.966	26400.73
710.31	26486.15
710.654	26365.03
710.998	26399.15
711.342	26379.94
711.687	26313.5
712.031	26081.19
712.375	26068.99
712.719	26059.5
713.063	25957.35
713.407	26073.51
713.75	25918.26
714.094	25803.46
714.438	25755.1
714.782	25880.52
715.125	25638.27
715.469	25775.66
715.812	25567.53
716.156	25371.61
716.499	25635.55
716.843	25483.02
717.186	25391.95
717.53	25526.63
717.873	25549.23
718.216	25330.03
718.559	25288.45
718.902	25132.74
719.246	25203.7
719.589	25189.01
719.932	25196.47
720.275	25125.96
720.617	24967.78
720.96	25025.63
721.303	24930.49
721.646	24988.34
721.989	24866.31
722.331	24806.65
722.674	24841.9
723.016	24922.35
723.359	24835.12
723.701	24831.28
724.044	24664.51
724.386	24635.58
724.729	24781.11
725.071	24758.06
725.413	24671.51
725.755	24678.52
726.097	24527.56
726.439	24527.34
726.782	24449.6
727.124	24638.74
727.465	24372.54
727.807	24323.27
728.149	24408.02
728.491	24380.67
728.833	24366.89
729.175	24303.16
729.516	24313.1
729.858	24379.77
730.199	24353.55
730.541	24322.82
730.882	24176.84
731.224	24323.95
731.565	24179.32
731.906	24270.17
732.248	24242.82
732.589	24137.52
732.93	24042.83
733.271	24033.56
733.612	24191.75
733.953	24153.79
734.294	23986.78
734.635	24087.8
734.976	24082.6
735.317	23995.37
735.658	24050.06
735.999	24197.63
736.339	23999.44
736.68	24133
737.021	23942.94
737.361	23894.13
737.702	24002.15
738.042	23994.02
738.383	23968.03
738.723	24008.48
739.063	23854.36
739.404	23945.66
739.744	23971.87
740.084	23863.85
740.424	23904.3
740.764	23822.04
741.104	23977.97
741.444	23935.26
741.784	23825.88
742.124	23892.1
742.464	23847.58
742.804	23831.08
743.143	23817.3
743.483	23904.53
743.823	23737.98
744.162	23822.27
744.502	23868.82
744.841	23715.83
745.181	23873.34
745.52	23660.69
745.86	23806.45
746.199	23793.12
746.538	23682.84
746.877	23723.29
747.216	23764.64
747.556	23772.78
747.895	23711.54
748.234	23640.58
748.573	23664.99
748.911	23657.3
749.25	23618.43
749.589	23575.72
749.928	23582.95
750.267	23525.78
750.605	23550.64
750.944	23444.65
751.283	23426.57
751.621	23590.18
751.96	23352.45
752.298	23406.69
752.636	23526.46
752.975	23390.64
753.313	23253.7
753.651	23459.79
753.989	23321.27
754.327	23162.17
754.666	23102.97
755.004	23392.68
755.342	23206.01
755.679	23204.43
756.017	23030.43
756.355	23131.89
756.693	22985
757.031	23058.45
757.368	22922.41
757.706	22892.8
758.044	22853.26
758.381	22888.28
758.719	22715.86
759.056	22780.94
759.394	22734.61
759.731	22659.59
760.068	22528.07
760.405	22365.58
760.743	22350.22
761.08	22366.49
761.417	22298.69
761.754	22263.89
762.091	22333.49
762.428	22283.1
762.765	22141.18
763.102	22145.48
763.438	22107.96
763.775	21972.15
764.112	22015.76
764.449	21906.16
764.785	21883.79
765.122	21716.79
765.458	21717.24
765.795	21760.85
766.131	21719.27
766.467	21492.16
766.804	21463.69
767.14	21318.83
767.476	21371.71
767.812	21238.83
768.148	21273.18
768.485	21096.01
768.821	21031.61
769.157	21018.95
769.492	20977.37
769.828	20919.75
770.164	20844.72
770.5	20809.69
770.836	20737.15
771.171	20610.83
771.507	20562.47
771.842	20393.66
772.178	20297.39
772.513	20338.07
772.849	20311.17
773.184	20212.65
773.519	20097.62
773.855	20111.41
774.19	19886.55
774.525	19886.33
774.86	19867.57
775.195	19716.16
775.53	19659.89
775.865	19555.94
776.2	19566.11
776.535	19482.5
776.87	19444.08
777.205	19334.25
777.539	19237.08
777.874	19241.37
778.209	19077.31
778.543	19094.71
778.878	18956.63
779.212	18981.94
779.547	18863.76
779.881	18866.92
780.215	18774.27
780.55	18707.38
780.884	18576.98
781.218	18526.36
781.552	18548.74
781.886	18511.67
782.22	18372.47
782.554	18347.84
782.888	18121.85
783.222	18113.04
783.556	18099.26
783.889	18068.75
784.223	17945.81
784.557	17885.02
784.89	17870.11
785.224	17786.27
785.557	17621.3
785.891	17592.15
786.224	17555.09
786.558	17586.27
786.891	17408.65
787.224	17388.54
787.557	17218.15
787.891	17286.62
788.224	17208.66
788.557	17128.66
788.89	17210.24
789.223	17136.34
789.556	17083.92
789.888	16964.14
790.221	16831.72
790.554	16712.63
790.887	16767.31
791.219	16647.32
791.552	16695.45
791.884	16588.34
792.217	16492.74
792.549	16458.17
792.882	16365.29
793.214	16251.17
793.546	16335.46
793.879	16255.01
794.211	16083.49
794.543	16209.36
794.875	16121.68
795.207	16136.82
795.539	16011.63
795.871	16018.41
796.203	15846.21
796.535	15772.09
796.867	15763.5
797.198	15758.75
797.53	15790.62
797.862	15634.01
798.193	15683.27
798.525	15556.95
798.856	15540.23
799.188	15321.48
799.519	15258.65
799.85	15204.87
800.182	15331.19
800.513	15277.86
800.844	15111.09
801.175	15193.12
801.506	15178.65
801.837	15112.22
802.168	15005.55
802.499	14936.4
802.83	14937.08
803.161	14834.93
803.491	14814.37
803.822	14800.81
804.153	14716.75
804.483	14663.19
804.814	14584.77
805.145	14493.25
805.475	14626.35
805.805	14546.81
806.136	14575.05
806.466	14576.86
806.796	14487.15
807.126	14390.43
807.457	14374.38
807.787	14377.55
808.117	14216.19
808.447	14211.67
808.777	14299.81
809.107	14174.16
809.436	14129.64
809.766	14119.7
810.096	14001.51
810.426	14053.94
810.755	14019.36
811.085	13992.02
811.414	13934.62
811.744	13805.81
812.073	13782.08
812.403	13777.79
812.732	13615.08
813.061	13693.04
813.39	13592.26
813.719	13558.13
814.049	13671.35
814.378	13531.01
814.707	13511.81
815.036	13513.39
815.365	13417.12
815.693	13311.13
816.022	13309.78
816.351	13282.21
816.68	13138.71
817.008	13243.11
817.337	13080.63
817.665	13209.21
817.994	13148.43
818.322	13107.75
818.651	13060.74
818.979	13052.83
819.307	13040.18
819.636	12993.4
819.964	12919.73
820.292	13016
820.62	13018.49
820.948	12940.97
821.276	12991.14
821.604	12880.18
821.932	12952.05
822.259	12922.67
822.587	12889.45
822.915	12882.67
823.243	12935.32
823.57	12885.16
823.898	12970.58
824.225	12791.6
824.553	12804.93
824.88	12866.4
825.207	12915.89
825.535	12914.76
825.862	12892.39
826.189	12761.77
826.516	12893.74
826.843	12877.25
827.17	12848.55
827.497	12840.41
827.824	12871.14
828.151	12869.11
828.478	12873.18
828.805	12979.84
829.131	12878.83
829.458	12739.17
829.785	12708.44
830.111	12754.54
830.438	12809.45
830.764	12785.72
831.09	12820.98
831.417	12763.35
831.743	12746.85
832.069	12735.1
832.395	12732.17
832.722	12792.28
833.048	12655.56
833.374	12787.31
833.7	12645.61
834.026	12717.48
834.351	12681.55
834.677	12746.63
835.003	12715.22
835.329	12618.04
835.654	12567.88
835.98	12536.69
836.306	12588.67
836.631	12522.68
836.956	12415.11
837.282	12573.53
837.607	12557.03
837.932	12498.95
838.258	12456.92
838.583	12413.53
838.908	12365.17
839.233	12343.93
839.558	12302.8
839.883	12280.88
840.208	12300.54
840.533	12288.79
840.858	12333.76
841.182	12321.78
841.507	12285.62
841.832	12308.9
842.156	12220.09
842.481	12237.49
842.805	12166.53
843.13	12098.51
843.454	12020.32
843.778	12024.39
844.103	12032.52
844.427	12011.96
844.751	12009.92
845.075	11987.1
845.399	11952.07
845.723	11892.19
846.047	11843.15
846.371	11694.45
846.695	11743.72
847.019	11657.17
847.343	11631.18
847.666	11584.17
847.99	11545.3
848.313	11491.97
848.637	11395.25
848.96	11387.57
849.284	11357.74
849.607	11285.65
849.931	11227.12
850.254	11211.75
850.577	11054.7
850.9	11053.34
851.223	11071.64
851.546	10971.08
851.869	10884.98
852.192	11037.07
852.515	10885.21
852.838	10824.64
853.161	10798.43
853.483	10800.92
853.806	10763.63
854.129	10814.25
854.451	10689.28
854.774	10718.21
855.096	10611.32
855.419	10569.06
855.741	10599.34
856.063	10497.2
856.385	10468.27
856.708	10444.99
857.03	10396.86
857.352	10400.93
857.674	10348.95
857.996	10298.1
858.318	10299.69
858.64	10215.62
858.961	10275.96
859.283	10234.83
859.605	10136.08
859.926	10227.6
860.248	10179.46
860.57	10033.25
860.891	10064.21
861.212	10046.13
861.534	10054.72
861.855	9999.36
862.176	10101.27
862.498	10058.79
862.819	9990.09
863.14	9946.48
863.461	9843.65
863.782	9911.22
864.103	9911.9
864.424	9885.69
864.745	9911.67
865.065	9870.09
865.386	9805.69
865.707	9821.06
866.027	9874.39
866.348	9765.24
866.668	9745.13
866.989	9708.97
867.309	9644.11
867.63	9673.49
867.95	9628.29
868.27	9661.96
868.59	9627.84
868.91	9623.32
869.23	9598.69
869.55	9539.03
869.87	9626.94
870.19	9575.41
870.51	9547.62
870.83	9503.55
871.15	9511.23
871.469	9494.74
871.789	9450.9
872.109	9481.86
872.428	9472.14
872.748	9452.93
873.067	9430.33
873.386	9460.61
873.706	9422.42
874.025	9380.39
874.344	9337
874.663	9305.59
874.982	9324.57
875.301	9351.69
875.62	9324.35
875.939	9258.36
876.258	9239.83
876.577	9264.91
876.896	9210.45
877.214	9162.77
877.533	9201.86
877.852	9209.09
878.17	9185.14
878.489	9092.49
878.807	9142.43
879.125	9111.02
879.444	9112.37
879.762	9048.87
880.08	9054.52
880.398	9079.15
880.716	9085.03
881.034	9066.05
881.352	9066.5
881.67	8956.22
881.988	9010.46
882.306	9006.39
882.624	8879.39
882.941	8903.79
883.259	8839.16
883.577	8814.75
883.894	8827.64
884.212	8847.3
884.529	8864.47
884.846	8804.13
885.164	8796.22
885.481	8769.33
885.798	8803
886.115	8696.57
886.432	8693.4
886.75	8685.72
887.067	8708.32
887.383	8568.88
887.7	8592.16
888.017	8537.25
888.334	8632.84
888.651	8554.2
888.967	8536.12
889.284	8462.9
889.6	8494.99
889.917	8438.94
890.233	8405.5
890.55	8406.86
890.866	8414.31
891.182	8409.12
891.498	8334.99
891.815	8272.17
892.131	8274.88
892.447	8231.72
892.763	8264.26
893.079	8145.85
893.395	8167.77
893.71	8171.16
894.026	8175.9
894.342	8165.28
894.657	8074.21
894.973	8094.77
895.289	8064.94
895.604	7961.22
895.92	7984.49
896.235	7975.68
896.55	7918.73
896.865	7945.85
897.181	7923.7
897.496	7876.7
897.811	7829.92
898.126	7827.89
898.441	7736.14
898.756	7827.66
899.071	7794.89
899.386	7763.93
899.7	7631.06
900.015	7650.04
900.33	7542.92
900.644	7589.7
900.959	7583.15
901.273	7570.04
901.588	7532.08
901.902	7530.72
902.216	7487.56
902.531	7473.09
902.845	7379.99
903.159	7400.1
903.473	7379.99
903.787	7313.78
904.101	7285.53
904.415	7304.96
904.729	7225.64
905.042	7186.1
905.356	7194.68
905.67	7144.97
905.984	7209.15
906.297	7119.43
906.611	7091.64
906.924	7079.66
907.237	7065.42
907.551	7004.63
907.864	7025.65
908.177	6961.92
908.491	6910.17
908.804	6913.11
909.117	6889.83
909.43	6900.23
909.743	6823.85
910.056	6783.17
910.368	6749.5
910.681	6695.94
910.994	6727.13
911.307	6665.88
911.619	6620.24
911.932	6672.66
912.244	6620.24
912.557	6591.08
912.869	6575.04
913.181	6580.69
913.494	6486.45
913.806	6518.32
914.118	6423.4
914.43	6382.73
914.742	6406.68
915.054	6350.86
915.366	6349.51
915.678	6316.51
915.99	6291.43
916.302	6246.46
916.613	6269.74
916.925	6240.13
917.236	6222.28
917.548	6142.51
917.859	6175.95
918.171	6126.69
918.482	6070.42
918.794	6074.04
919.105	6016.41
919.416	5962.4
919.727	6004.66
920.038	5962.4
920.349	5914.49
920.66	5892.35
920.971	5885.34
921.282	5899.58
921.593	5872.68
921.903	5780.71
922.214	5804.21
922.525	5768.05
922.835	5743.65
923.146	5745.68
923.456	5735.06
923.767	5652.35
924.077	5655.06
924.387	5629.75
924.697	5622.3
925.008	5569.19
925.318	5524.45
925.628	5554.27
925.938	5531.9
926.248	5470.89
926.558	5451.68
926.867	5424.11
927.177	5407.61
927.487	5357.22
927.796	5290.33
928.106	5359.25
928.416	5321.51
928.725	5304.79
929.034	5279.71
929.344	5289.42
929.653	5258.01
929.962	5247.39
930.271	5176.66
930.581	5146.38
930.89	5110.9
931.199	5144.12
931.508	5119.03
931.817	5088.98
932.125	5083.55
932.434	5067.06
932.743	5006.49
933.051	5010.11
933.36	4935.31
933.669	4955.42
933.977	4944.8
934.286	4938.92
934.594	4884.69
934.902	4891.92
935.21	4856.21
935.519	4851.69
935.827	4844.46
936.135	4787.97
936.443	4766.95
936.751	4746.61
937.059	4713.17
937.367	4679.95
937.674	4717.46
937.982	4673.62
938.29	4618.25
938.597	4606.5
938.905	4580.52
939.213	4560.18
939.52	4570.8
939.827	4525.15
940.135	4521.08
940.442	4524.92
940.749	4504.36
941.056	4469.78
941.363	4442.44
941.67	4424.14
941.977	4401.08
942.284	4404.7
942.591	4373.97
942.898	4332.39
943.205	4362.89
943.511	4338.94
943.818	4301.88
944.125	4292.84
944.431	4282.9
944.738	4258.04
945.044	4244.93
945.35	4211.49
945.657	4204.48
945.963	4181.66
946.269	4186.85
946.575	4166.29
946.881	4127.87
947.187	4135.1
947.493	4149.79
947.799	4078.16
948.105	4047.42
948.41	4002.68
948.716	4012.85
949.022	4013.52
949.327	3980.3
949.633	3992.06
949.938	4016.69
950.244	3926.75
950.549	3938.5
950.854	3925.62
951.16	3863.25
951.465	3875.9
951.77	3864.6
952.075	3870.03
952.38	3837.26
952.685	3823.02
952.99	3756.36
953.294	3757.71
953.599	3775.56
953.904	3743.7
954.209	3723.81
954.513	3685.62
954.818	3734.44
955.122	3708.9
955.426	3680.43
955.731	3681.1
956.035	3655.12
956.339	3646.75
956.643	3630.03
956.948	3586.42
957.252	3576.47
957.556	3554.33
957.86	3568.34
958.163	3533.54
958.467	3489.92
958.771	3490.83
959.075	3489.7
959.378	3500.32
959.682	3479.75
959.985	3448.34
960.289	3439.3
960.592	3437.49
960.896	3424.39
961.199	3403.14
961.502	3364.95
961.805	3359.3
962.108	3308.91
962.411	3324.95
962.714	3286.54
963.017	3298.06
963.32	3285.18
963.623	3261.23
963.926	3289.02
964.228	3264.62
964.531	3227.78
964.833	3216.48
965.136	3188.69
965.438	3186.43
965.741	3200.66
966.043	3157.28
966.345	3159.76
966.648	3123.15
966.95	3125.19
967.252	3096.49
967.554	3091.74
967.856	3092.64
968.158	3086.54
968.46	3070.95
968.761	3022.36
969.063	3009.26
969.365	3028.92
969.666	3028.47
969.968	2968.35
970.269	2953.89
970.571	2980.56
970.872	2948.24
971.174	2943.5
971.475	2926.55
971.776	2896.04
972.077	2910.73
972.378	2924.97
972.679	2876.83
972.98	2879.32
973.281	2840.67
973.582	2850.84
973.883	2792.54
974.183	2804.52
974.484	2772.65
974.785	2771.75
975.085	2749.6
975.386	2803.61
975.686	2769.49
975.986	2729.26
976.287	2720.9
976.587	2673.9
976.887	2727
977.187	2703.05
977.487	2675.25
977.787	2692.2
978.087	2691.98
978.387	2664.86
978.687	2665.76
978.987	2670.28
979.286	2609.27
979.586	2597.52
979.885	2621.02
980.185	2606.56
980.484	2534.92
980.784	2592.77
981.083	2588.7
981.382	2551.19
981.682	2529.72
981.981	2521.59
982.28	2534.92
982.579	2503.28
982.878	2500.57
983.177	2489.04
983.475	2467.12
983.774	2461.02
984.073	2465.77
984.372	2436.84
984.67	2442.49
984.969	2409.72
985.267	2398.2
985.566	2399.78
985.864	2417.86
986.162	2386.22
986.461	2372.21
986.759	2331.08
987.057	2380.12
987.355	2326.79
987.653	2331.31
987.951	2352.33
988.249	2301.93
988.547	2282.5
988.844	2251.54
989.142	2241.82
989.44	2256.28
989.737	2237.3
990.035	2232.55
990.332	2245.89
990.63	2210.63
990.927	2229.39
991.224	2177.87
991.521	2180.58
991.819	2200.69
992.116	2199.79
992.413	2176.51
992.71	2146.91
993.006	2146.23
993.303	2124.99
993.6	2127.47
993.897	2112.56
994.193	2108.94
994.49	2085.89
994.787	2101.48
995.083	2057.64
995.379	2064.42
995.676	2097.87
995.972	2051.32
996.268	2015.84
996.565	2003.63
996.861	2001.6
997.157	2020.13
997.453	1984.43
997.749	1985.1
998.044	1967.48
998.34	1944.88
998.636	1964.31
998.932	1934.71
999.227	1955.95
999.523	1903.75
999.818	1914.37
1000.114	1899
1000.409	1922.28
1000.704	1900.59
1001	1896.29
1001.295	1837.31
1001.59	1878.89
1001.885	1847.25
1002.18	1803.19
1002.475	1848.38
1002.77	1833.24
1003.065	1792.11
1003.359	1799.12
1003.654	1807.93
1003.949	1774.94
1004.243	1774.04
1004.538	1740.14
1004.832	1750.08
1005.127	1763.41
1005.421	1716.18
1005.715	1729.29
1006.009	1716.86
1006.304	1688.39
1006.598	1701.95
1006.892	1664.43
1007.186	1685.9
1007.48	1639.58
1007.773	1629.18
1008.067	1634.6
1008.361	1635.73
1008.655	1607.71
1008.948	1635.73
1009.242	1638.67
1009.535	1645.68
1009.829	1590.76
1010.122	1584.89
1010.415	1572.23
1010.708	1582.4
1011.001	1562.29
1011.295	1541.05
1011.588	1581.5
1011.881	1528.84
1012.173	1538.79
1012.466	1525.68
1012.759	1514.16
1013.052	1525
1013.344	1493.14
1013.637	1497.88
1013.93	1475.06
1014.222	1442.52
1014.514	1444.55
1014.807	1441.39
1015.099	1445.91
1015.391	1438.68
1015.683	1420.15
1015.976	1419.92
1016.268	1401.16
1016.56	1407.72
1016.851	1392.12
1017.143	1380.83
1017.435	1367.94
1017.727	1383.76
1018.018	1359.81
1018.31	1329.53
1018.602	1319.58
1018.893	1325.69
1019.185	1314.84
1019.476	1310.32
1019.767	1326.36
1020.058	1299.25
1020.35	1310.77
1020.641	1297.89
1020.932	1282.07
1021.223	1283.2
1021.514	1268.29
1021.804	1222.86
1022.095	1251.34
1022.386	1217.21
1022.677	1235.07
1022.967	1227.61
1023.258	1214.95
1023.548	1213.37
1023.839	1225.58
1024.129	1183.77
1024.419	1187.38
1024.709	1196.2
1025	1167.72
1025.29	1134.05
1025.58	1150.32
1025.87	1152.58
1026.16	1171.57
1026.449	1132.24
1026.739	1131.57
1027.029	1107.16
1027.319	1141.51
1027.608	1132.92
1027.898	1137.22
1028.187	1107.61
1028.477	1097.89
1028.766	1089.99
1029.055	1072.36
1029.344	1068.97
1029.634	1063.77
1029.923	1083.66
1030.212	1038.69
1030.501	1060.16
1030.79	1049.53
1031.078	1030.33
1031.367	1004.79
1031.656	1014.51
1031.945	1026.03
1032.233	1020.16
1032.522	998.24
1032.81	1016.77
1033.099	986.71
1033.387	969.99
1033.675	975.41
1033.963	977.9
1034.251	973.15
1034.54	957.56
1034.828	955.07
1035.116	945.58
1035.403	955.3
1035.691	935.87
1035.979	956.2
1036.267	935.41
1036.554	925.02
1036.842	920.05
1037.129	900.84
1037.417	882.76
1037.704	883.21
1037.992	887.73
1038.279	893.61
1038.566	886.15
1038.853	886.15
1039.14	886.15
