Data from tablewood_brown_FLMS001491_025.txt Node
Date: Tue Feb 07 11:10:14 GMT 2017
User: dcchb
Spectrometer: FLMS00149
Trigger mode: 0
Integration Time (sec): 2.000000E-2
Scans to average: 10
Electric dark correction enabled: true
Nonlinearity correction enabled: false
Boxcar width: 0
XAxis mode: Wavelengths
Number of Pixels in Spectrum: 2048
>>>>>Begin Spectral Data<<<<<
341.393	-7.9
341.776	-7.9
342.16	-7.9
342.543	-54.67
342.927	-68.01
343.31	-64.62
343.693	-73.88
344.077	-68.46
344.46	-68.68
344.843	-63.26
345.226	-45.63
345.61	-14.67
345.993	-12.41
346.376	16.06
346.759	0.69
347.142	18.32
347.525	43.4
347.908	57.19
348.291	74.36
348.674	90.63
349.057	110.97
349.44	135.38
349.823	119.78
350.206	169.73
350.588	193.23
350.971	213.79
351.354	197.3
351.737	221.25
352.119	248.14
352.502	262.38
352.884	261.48
353.267	276.17
353.65	298.76
354.032	296.05
354.414	314.13
354.797	309.61
355.179	320.68
355.562	327.01
355.944	323.62
356.326	316.62
356.709	325.2
357.091	347.12
357.473	322.94
357.855	311.64
358.238	325.43
358.62	347.8
359.002	337.41
359.384	335.6
359.766	324.3
360.148	328.37
360.53	341.02
360.912	330.17
361.294	324.3
361.676	338.31
362.057	340.34
362.439	335.82
362.821	351.87
363.203	335.15
363.584	340.8
363.966	342.6
364.348	328.82
364.729	308.93
365.111	308.03
365.493	325.66
365.874	327.46
366.256	316.62
366.637	323.85
367.019	330.17
367.4	313.45
367.781	319.55
368.163	336.05
368.544	323.4
368.925	318.88
369.306	327.46
369.688	316.62
370.069	291.76
370.45	299.67
370.831	314.58
371.212	313.9
371.593	341.7
371.974	321.14
372.355	305.09
372.736	329.72
373.117	325.88
373.498	332.21
373.879	320.23
374.26	311.19
374.641	309.84
375.021	314.81
375.402	323.85
375.783	327.46
376.163	319.55
376.544	328.82
376.925	333.34
377.305	343.06
377.686	331.08
378.066	317.97
378.447	347.8
378.827	342.15
379.208	324.07
379.588	352.77
379.968	353.23
380.349	346.67
380.729	333.56
381.109	334.47
381.489	329.05
381.87	341.02
382.25	330.63
382.63	336.28
383.01	339.89
383.39	353.23
383.77	355.03
384.15	368.59
384.53	371.08
384.91	349.61
385.29	368.59
385.67	369.95
386.049	350.97
386.429	356.84
386.809	376.5
387.189	375.15
387.568	399.55
387.948	393.9
388.328	371.08
388.707	395.71
389.087	396.84
389.466	373.79
389.846	387.57
390.225	388.25
390.605	424.86
390.984	363.17
391.363	380.12
391.743	416.05
392.122	415.37
392.501	403.62
392.881	434.8
393.26	433.68
393.639	428.7
394.018	410.85
394.397	415.14
394.776	427.35
395.155	436.16
395.534	429.38
395.913	434.35
396.292	425.77
396.671	444.97
397.05	440.68
397.429	443.39
397.808	434.58
398.186	455.37
398.565	446.78
398.944	455.37
399.323	438.65
399.701	444.52
400.08	462.37
400.458	470.51
400.837	463.05
401.215	464.18
401.594	482.71
401.972	471.87
402.351	491.98
402.729	491.53
403.107	501.47
403.486	515.48
403.864	491.3
404.242	514.35
404.62	509.15
404.999	511.64
405.377	512.32
405.755	518.64
406.133	496.5
406.511	531.98
406.889	535.59
407.267	523.62
407.645	526.33
408.023	549.38
408.401	549.6
408.779	545.99
409.156	552.54
409.534	569.72
409.912	546.21
410.29	557.29
410.667	554.12
411.045	586.67
411.422	589.83
411.8	592.31
412.178	597.51
412.555	600.68
412.933	607.23
413.31	604.97
413.687	616.5
414.065	640.68
414.442	639.09
414.819	621.01
415.197	616.5
415.574	652.43
415.951	645.87
416.328	650.84
416.705	637.74
417.082	651.3
417.46	673.22
417.837	672.54
418.214	679.77
418.591	674.35
418.967	666.21
419.344	684.74
419.721	687.68
420.098	672.09
420.475	680.45
420.852	707.11
421.228	715.25
421.605	706.44
421.982	707.57
422.358	732.42
422.735	722.26
423.111	721.13
423.488	719.09
423.864	743.5
424.241	751.86
424.617	748.7
424.994	756.6
425.37	753.21
425.746	759.77
426.123	788.47
426.499	781.69
426.875	771.07
427.251	805.19
427.627	806.09
428.003	774.23
428.379	821.91
428.756	832.99
429.132	833.66
429.507	842.03
429.883	851.52
430.259	839.09
430.635	867.11
431.011	863.49
431.387	890.16
431.763	900.78
432.138	896.49
432.514	915.02
432.89	916.6
433.265	934
433.641	950.27
434.016	931.52
434.392	968.58
434.767	987.78
435.143	980.55
435.518	979.2
435.894	1000.44
436.269	1025.3
436.644	1030.27
437.02	1026.88
437.395	1026.43
437.77	1022.81
438.145	1060.55
438.52	1084.05
438.895	1100.55
439.271	1083.83
439.646	1095.35
440.021	1106.88
440.395	1120.21
440.77	1106.65
441.145	1127.44
441.52	1110.27
441.895	1139.19
442.27	1142.36
442.645	1165.63
443.019	1161.34
443.394	1171.06
443.769	1182.36
444.143	1173.09
444.518	1205.63
444.892	1203.82
445.267	1225.29
445.641	1217.16
446.016	1231.17
446.39	1225.74
446.764	1233.43
447.139	1247.66
447.513	1269.13
447.887	1270.72
448.262	1239.98
448.636	1266.87
449.01	1276.14
449.384	1302.58
449.758	1294.22
450.132	1314.1
450.506	1334.44
450.88	1324.27
451.254	1330.37
451.628	1346.87
452.002	1333.09
452.376	1340.77
452.75	1373.54
453.123	1383.03
453.497	1374.44
453.871	1397.04
454.244	1458.51
454.618	1429.81
454.992	1473.2
455.365	1487.43
455.739	1490.37
456.112	1497.38
456.486	1522.01
456.859	1561.78
457.232	1546.87
457.606	1534.89
457.979	1574.66
458.352	1614.66
458.725	1601.78
459.099	1612.63
459.472	1633.64
459.845	1676.35
460.218	1685.85
460.591	1715
460.964	1691.95
461.337	1760.87
461.71	1776.69
462.083	1801.77
462.456	1813.98
462.829	1826.41
463.201	1830.93
463.574	1870.02
463.947	1890.81
464.32	1898.27
464.692	1940.75
465.065	1953.64
465.438	1996.35
465.81	2041.54
466.183	2049.68
466.555	2039.51
466.928	2053.07
467.3	2112.27
467.672	2126.74
468.045	2160.64
468.417	2199.05
468.789	2209.45
469.161	2258.49
469.534	2289.9
469.906	2299.16
470.278	2367.18
470.65	2390.01
471.022	2448.09
471.394	2446.05
471.766	2491.47
472.138	2579.83
472.51	2587.29
472.882	2632.26
473.253	2654.18
473.625	2725.14
473.997	2803.78
474.369	2827.51
474.74	2871.35
475.112	2940.5
475.484	2942.76
475.855	3044.23
476.227	3060.95
476.598	3128.29
476.97	3217.78
477.341	3253.71
477.713	3319.47
478.084	3359.93
478.455	3474.73
478.827	3538.45
479.198	3611.22
479.569	3679.01
479.94	3726.92
480.311	3784.77
480.682	3867.03
481.053	3990.42
481.424	4035.16
481.795	4071.55
482.166	4188.38
482.537	4236.29
482.908	4337.08
483.279	4371.88
483.65	4445.32
484.021	4544.53
484.391	4614.58
484.762	4663.39
485.133	4758.08
485.503	4816.16
485.874	4868.36
486.244	4949.49
486.615	5100.22
486.985	5103.16
487.356	5265.19
487.726	5274.68
488.097	5404.39
488.467	5396.71
488.837	5540.89
489.207	5545.41
489.578	5691.39
489.948	5697.49
490.318	5842.35
490.688	5876.7
491.058	5944.72
491.428	6025.39
491.798	6126.86
492.168	6203.47
492.538	6251.83
492.908	6377.7
493.278	6458.15
493.648	6393.29
494.017	6467.19
494.387	6540.41
494.757	6594.19
495.126	6657.47
495.496	6733.85
495.866	6789.67
496.235	6934.07
496.605	6973.62
496.974	6979.49
497.344	7100.17
497.713	7096.1
498.082	7099.94
498.452	7299.48
498.821	7275.08
499.19	7295.42
499.559	7423.32
499.928	7479.59
500.298	7472.81
500.667	7600.94
501.036	7566.14
501.405	7640.49
501.774	7635.75
502.143	7769.53
502.512	7838.68
502.88	7919.35
503.249	7896.98
503.618	8023.53
503.987	8030.54
504.356	8110.31
504.724	8138.11
505.093	8188.05
505.462	8262.85
505.83	8304.65
506.199	8360.02
506.567	8577.19
506.936	8480.92
507.304	8608.15
507.672	8647.24
508.041	8737.86
508.409	8792.55
508.777	8871.87
509.145	8863.96
509.514	8986.22
509.882	9043.17
510.25	9038.19
510.618	9167.23
510.986	9191.64
511.354	9270.5
511.722	9282.26
512.09	9450.39
512.458	9446.32
512.826	9565.41
513.193	9625.98
513.561	9706.88
513.929	9775.58
514.297	9902.13
514.664	9946.87
515.032	10028
515.4	10132.86
515.767	10202.91
516.135	10246.52
516.502	10253.53
516.869	10344.37
517.237	10472.28
517.604	10458.5
517.972	10654.42
518.339	10689.9
518.706	10750.47
519.073	10813.74
519.44	10892.61
519.808	11015.77
520.175	11092.6
520.542	11216.22
520.909	11278.81
521.276	11252.6
521.643	11414.86
522.009	11531.69
522.376	11599.94
522.743	11690.33
523.11	11863.66
523.477	11887.16
523.843	12066.14
524.21	12151.56
524.577	12254.83
524.943	12324.89
525.31	12425.9
525.676	12473.81
526.043	12654.37
526.409	12660.02
526.776	12860.47
527.142	12888.26
527.508	12971.88
527.874	13071.99
528.241	13159.22
528.607	13159.22
528.973	13329.16
529.339	13390.17
529.705	13543.16
530.071	13576.61
530.437	13651.63
530.803	13738.41
531.169	13892.53
531.535	13884.39
531.901	13939.08
532.267	14033.32
532.632	14135.69
532.998	14180.43
533.364	14251.62
533.73	14344.04
534.095	14396.7
534.461	14475.79
534.826	14518.5
535.192	14608.9
535.557	14655.22
535.923	14704.03
536.288	14809.12
536.653	14956.01
537.019	14779.06
537.384	14897.48
537.749	14990.81
538.114	15021.99
538.479	15102.44
538.845	15138.83
539.21	15143.8
539.575	15119.84
539.94	15328.2
540.305	15398.48
540.67	15284.36
541.034	15471.02
541.399	15527.52
541.764	15601.64
542.129	15594.18
542.494	15611.58
542.858	15777.9
543.223	15770.45
543.587	15876.43
543.952	15865.81
544.316	15944.23
544.681	15956.2
545.045	16105.13
545.41	16193.94
545.774	16195.97
546.138	16210.66
546.503	16291.11
546.867	16360.71
547.231	16512.57
547.595	16580.82
547.959	16579.24
548.324	16615.62
548.688	16673.25
549.052	16708.5
549.416	16784.66
549.779	16919.57
550.143	16964.09
550.507	17117.08
550.871	17112.11
551.235	17154.14
551.599	17305.55
551.962	17348.26
552.326	17366.79
552.689	17634.8
553.053	17554.35
553.417	17551.64
553.78	17952.99
554.143	17945.3
554.507	18023.72
554.87	18053.78
555.234	18360.44
555.597	18241.12
555.96	18294.67
556.323	18526.31
556.686	18550.49
557.05	18734.21
557.413	18940.76
557.776	18876.13
558.139	19047.65
558.502	19142.11
558.865	19206.97
559.228	19417.36
559.59	19627.29
559.953	19631.59
560.316	19939.83
560.679	20021.63
561.041	20086.49
561.404	20195.42
561.767	20396.99
562.129	20430.44
562.492	20719.47
562.854	20726.47
563.217	20900.71
563.579	20949.29
563.941	21053.25
564.304	21266.57
564.666	21521.26
565.028	21579.11
565.39	21661.59
565.753	21950.62
566.115	22073.11
566.477	22250.28
566.839	22376.6
567.201	22482.36
567.563	22586.09
567.925	22817.95
568.287	22879.64
568.648	23031.72
569.01	23210.7
569.372	23436.69
569.734	23515.33
570.095	23756
570.457	23882.78
570.819	23986.5
571.18	24055.43
571.542	24302.2
571.903	24395.08
572.265	24574.74
572.626	24738.8
572.987	24903.77
573.349	25049.07
573.71	25156.64
574.071	25302.63
574.432	25429.85
574.794	25778.32
575.155	25838.88
575.516	25775.83
575.877	26103.73
576.238	26118.42
576.599	26267.57
576.96	26425.31
577.32	26535.36
577.681	26765.64
578.042	26824.62
578.403	26874.56
578.763	27118.85
579.124	27184.38
579.485	27257.38
579.845	27486.98
580.206	27463.92
580.566	27539.4
580.927	27576.69
581.287	27814.42
581.648	27743.92
582.008	27879.51
582.368	27971.26
582.728	28121.31
583.089	28092.38
583.449	28103.23
583.809	28160.86
584.169	28368.08
584.529	28257.12
584.889	28590
585.249	28575.53
585.609	28352.94
585.969	28633.39
586.329	28563.78
586.688	28738.69
587.048	28734.85
587.408	28625.02
587.768	28809.2
588.127	28850.33
588.487	28839.26
588.846	29044.22
589.206	28821.4
589.565	28957.9
589.925	29090.1
590.284	29036.31
590.643	29040.38
591.003	29102.75
591.362	29287.15
591.721	29271.56
592.08	29309.75
592.44	29373.71
592.799	29285.12
593.158	29265.91
593.517	29239.7
593.876	29366.7
594.235	29384.33
594.593	29419.35
594.952	29453.25
595.311	29438.34
595.67	29546.13
596.029	29547.71
596.387	29644.21
596.746	29734.6
597.104	29616.64
597.463	29612.34
597.822	29842.85
598.18	29747.03
598.538	29672.91
598.897	29853.47
599.255	29529.86
599.613	29995.16
599.972	29768.04
600.33	29900.24
600.688	29784.32
601.046	29834.94
601.404	30013.24
601.762	29992.9
602.12	30035.61
602.478	30058.88
602.836	30128.04
603.194	29965.33
603.552	30127.13
603.91	30013.46
604.268	30102.27
604.625	30088.94
604.983	30156.51
605.341	30028.15
605.698	30260.91
606.056	30361.25
606.413	30353.34
606.771	30282.16
607.128	30403.28
607.485	30176.17
607.843	30201.48
608.2	30393.34
608.557	30562.83
608.914	30394.92
609.272	30513.79
609.629	30509.49
609.986	30782.26
610.343	30521.47
610.7	30785.42
611.057	30648.25
611.414	30714.01
611.771	30708.36
612.127	30912.87
612.484	30832.65
612.841	30863.84
613.198	30982.02
613.554	31006.2
613.911	31084.17
614.267	31107.9
614.624	31082.81
614.98	31002.36
615.337	31263.6
615.693	31235.35
616.05	31068.8
616.406	31481.67
616.762	31195.8
617.118	31205.52
617.475	31279.42
617.831	31418.62
618.187	31535.23
618.543	31419.3
618.899	31453.2
619.255	31535.68
619.611	31580.65
619.967	31574.78
620.323	31564.38
620.678	31418.17
621.034	31415.01
621.39	31497.72
621.746	31473.08
622.101	31911.94
622.457	31434.67
622.812	31702.46
623.168	31732.06
623.523	31723.47
623.879	31630.59
624.234	31616.81
624.589	31622.23
624.945	31756.92
625.3	31773.64
625.655	31791.95
626.01	31674.66
626.365	31823.81
626.72	31783.59
627.075	31601.67
627.43	31698.39
627.785	31589.01
628.14	31612.29
628.495	31732.97
628.85	31513.76
629.205	31483.03
629.559	31686.41
629.914	31501.56
630.269	31518.28
630.623	31440.54
630.978	31373.43
631.332	31551.05
631.687	31558.28
632.041	31382.92
632.396	31491.84
632.75	31318.96
633.104	31374.78
633.459	31280.1
633.813	31186.76
634.167	31317.83
634.521	31248.01
634.875	31396.25
635.229	31295.91
635.583	31097.5
635.937	31036.03
636.291	31059.54
636.645	31067.67
636.999	30996.94
637.352	31053.43
637.706	30865.87
638.06	31079.65
638.413	30900.67
638.767	30743.16
639.121	30821.35
639.474	30674.01
639.828	30612.77
640.181	30647.12
640.534	30715.14
640.888	30742.93
641.241	30495.03
641.594	30710.62
641.947	30742.03
642.301	30516.5
642.654	30531.19
643.007	30589.04
643.36	30534.58
643.713	30407.12
644.066	30544.52
644.419	30329.39
644.771	30243.29
645.124	29833.35
645.477	29886.23
645.83	29729.63
646.182	29594.94
646.535	29513.81
646.888	29489.86
647.24	29316.31
647.593	29455.06
647.945	29401.73
648.298	29269.53
648.65	29298.45
649.002	29234.95
649.355	29318.79
649.707	29349.98
650.059	29428.84
650.411	29899.57
650.763	29893.01
651.115	30143.18
651.467	30009.62
651.819	29951.77
652.171	29925.78
652.523	29814.82
652.875	29981.15
653.227	29850.53
653.578	30145.21
653.93	29949.96
654.282	29774.37
654.633	29926.01
654.985	29889.4
655.337	29804.65
655.688	29866.57
656.039	29949.06
656.391	29665.67
656.742	29792.9
657.094	29762.17
657.445	29777.54
657.796	29675.39
658.147	29824.09
658.498	29774.6
658.849	29902.96
659.2	29750.19
659.551	29693.92
659.902	29860.7
660.253	29673.58
660.604	29747.71
660.955	29666.13
661.306	29803.3
661.656	29661.38
662.007	29636.3
662.358	29665.9
662.708	29662.74
663.059	29666.35
663.409	29517.88
663.76	29762.62
664.11	29561.27
664.461	29730.98
664.811	29778.21
665.161	29714.04
665.511	29471.56
665.862	29612.57
666.212	29657.54
666.562	29726.24
666.912	29650.76
667.262	29699.57
667.612	29670.19
667.962	29658.44
668.312	29489.18
668.662	29589.74
669.011	29616.18
669.361	29459.35
669.711	29526.24
670.06	29551.1
670.41	29422.29
670.76	29404.44
671.109	29470.43
671.459	29394.72
671.808	29323.99
672.157	29454.15
672.507	29317.21
672.856	29360.82
673.205	29431.78
673.554	29424.78
673.904	29219.36
674.253	29349.75
674.602	29225.01
674.951	28969.42
675.3	28698.69
675.649	29125.8
675.998	29126.93
676.346	29046.71
676.695	29095.75
677.044	28857.79
677.393	29071.34
677.741	29134.84
678.09	29032.25
678.438	28908.63
678.787	28854.4
679.135	28933.26
679.484	28647.17
679.832	28833.83
680.181	28731.91
680.529	28870.22
680.877	28707.51
681.225	28599.26
681.573	28806.71
681.922	28541.64
682.27	28583.9
682.618	28578.47
682.966	28462.99
683.314	28581.86
683.661	28373.96
684.009	28236.33
684.357	28156.56
684.705	28240.63
685.053	28161.53
685.4	28020.07
685.748	27958.38
686.095	27980.07
686.443	27861.88
686.79	27841.32
687.138	27888.55
687.485	27754.31
687.832	27657.59
688.18	27724.03
688.527	27483.59
688.874	27526.52
689.221	27360.2
689.568	27246.98
689.915	27173.31
690.262	27214.89
690.609	27196.81
690.956	27140.09
691.303	27059.19
691.65	26882.47
691.997	26899.42
692.344	26589.82
692.69	26697.62
693.037	26705.98
693.383	26493.33
693.73	26643.38
694.077	26432.99
694.423	26449.71
694.769	26347.34
695.116	26079.1
695.462	26163.85
695.808	25942.61
696.155	26117.07
696.501	25788.49
696.847	25864.42
697.193	25665.78
697.539	25651.32
697.885	25520.25
698.231	25462.62
698.577	25472.34
698.923	25367.48
699.269	25233.7
699.614	25252.23
699.96	25136.08
700.306	25038.68
700.651	24953.71
700.997	24981.96
701.342	24828.97
701.688	24736.76
702.033	24735.18
702.379	24635.07
702.724	24626.94
703.069	24642.53
703.415	24343.78
703.76	24353.95
704.105	24332.93
704.45	24249.55
704.795	24042.32
705.14	23850.23
705.485	23884.58
705.83	23755.32
706.175	23874.41
706.52	23823.34
706.865	23747.19
707.209	23689.11
707.554	23544.93
707.899	23528.44
708.243	23448.89
708.588	23378.16
708.932	23249.35
709.277	23287.31
709.621	23235.79
709.966	23072.18
710.31	23119.18
710.654	22953.31
710.998	23035.79
711.342	22872.41
711.687	23000.31
712.031	22870.37
712.375	22695.46
712.719	22754.9
713.063	22761.9
713.407	22815.01
713.75	22635.8
714.094	22627.22
714.438	22617.5
714.782	22538.86
715.125	22482.81
715.469	22552.42
715.812	22331.63
716.156	22288.47
716.499	22251.18
716.843	22312.65
717.186	22165.53
717.53	22316.94
717.873	22184.97
718.216	22101.35
718.559	22195.14
718.902	22073.78
719.246	22004.18
719.589	21985.2
719.932	21913.11
720.275	21987.01
720.617	21869.95
720.96	21908.59
721.303	21971.87
721.646	21860
721.989	21782.27
722.331	21711.99
722.674	21791.98
723.016	21736.17
723.359	21680.8
723.701	21723.96
724.044	21607.13
724.386	21543.63
724.729	21714.02
725.071	21504.53
725.413	21541.14
725.755	21587.02
726.097	21381.6
726.439	21319.45
726.782	21426.57
727.124	21556.51
727.465	21453.91
727.807	21405.33
728.149	21371.88
728.491	21409.85
728.833	21330.07
729.175	21402.62
729.516	21245.56
729.858	21297.76
730.199	21340.92
730.541	21235.39
730.882	21337.53
731.224	21206.69
731.565	21087.82
731.906	21143.41
732.248	21193.81
732.589	21175.28
732.93	21029.52
733.271	21152.23
733.612	21144.54
733.953	21186.8
734.294	21013.02
734.635	21043.75
734.976	21123.98
735.317	21069.06
735.658	20925.11
735.999	20939.12
736.339	21041.72
736.68	21073.58
737.021	21037.65
737.361	20931.89
737.702	20996.98
738.042	20963.53
738.383	20988.61
738.723	21027.48
739.063	20963.53
739.404	21023.19
739.744	21047.6
740.084	20892.12
740.424	20933.93
740.764	20811.44
741.104	20963.76
741.444	20852.57
741.784	20873.82
742.124	20946.58
742.464	20822.74
742.804	20852.12
743.143	20925.57
743.483	20874.27
743.823	20714.95
744.162	20821.16
744.502	20922.63
744.841	20793.37
745.181	20917.43
745.52	20896.41
745.86	20813.03
746.199	20720.37
746.538	20713.82
746.877	20895.74
747.216	20817.55
747.556	20697.1
747.895	20792.24
748.234	20735.74
748.573	20632.24
748.911	20691.67
749.25	20742.29
749.589	20547.95
749.928	20641.05
750.267	20644.67
750.605	20550.89
750.944	20667.27
751.283	20509.31
751.621	20589.53
751.96	20416.43
752.298	20494.39
752.636	20542.52
752.975	20413.26
753.313	20344.34
753.651	20460.27
753.989	20316.09
754.327	20294.85
754.666	20193.61
755.004	20238.8
755.342	20268.63
755.679	20309.76
756.017	20161.74
756.355	20252.14
756.693	20114.29
757.031	20246.26
757.368	20093.27
757.706	20085.14
758.044	20053.72
758.381	20007.85
758.719	19983.67
759.056	19856.67
759.394	19906.16
759.731	19836.55
760.068	19691.02
760.405	19625.94
760.743	19596.56
761.08	19673.4
761.417	19493.96
761.754	19552.49
762.091	19509.33
762.428	19426.17
762.765	19301.88
763.102	19343.46
763.438	19259.17
763.775	19199.06
764.112	19221.66
764.449	19214.2
764.785	19077.03
765.122	18996.58
765.458	18886.52
765.795	19001.77
766.131	18917.93
766.467	18841.78
766.804	18689.92
767.14	18709.58
767.476	18615.12
767.812	18609.02
768.148	18508.23
768.485	18499.19
768.821	18389.36
769.157	18406.76
769.492	18337.39
769.828	18284.51
770.164	18075.02
770.5	18009.26
770.836	18143.72
771.171	17919.54
771.507	17901.46
771.842	17828.7
772.178	17844.29
772.513	17843.39
772.849	17793.22
773.184	17589.16
773.519	17566.78
773.855	17600.23
774.19	17500.8
774.525	17383.74
774.86	17420.12
775.195	17329.95
775.53	17179.68
775.865	17179.68
776.2	17028.94
776.535	16939.23
776.87	16973.81
777.205	16841.83
777.539	16858.1
777.874	16748.73
778.209	16709.18
778.543	16560.71
778.878	16477.32
779.212	16539.47
779.547	16381.05
779.881	16532.01
780.215	16396.42
780.55	16314.16
780.884	16269.64
781.218	16240.27
781.552	16249.08
781.886	16105.13
782.22	16023.1
782.554	15981.74
782.888	15986.94
783.222	15857.45
783.556	15697
783.889	15650
784.223	15527.29
784.557	15571.81
784.89	15589.66
785.224	15585.82
785.557	15417.46
785.891	15348.09
786.224	15337.92
786.558	15348.31
786.891	15303.11
787.224	15252.72
787.557	15119.16
787.891	15050.69
788.224	15029.68
788.557	15041.88
788.89	15012.27
789.223	14939.51
789.556	14797.37
789.888	14836.23
790.221	14768.44
790.554	14660.87
790.887	14662
791.219	14532.97
791.552	14488.22
791.884	14493.42
792.217	14407.32
792.549	14294.33
792.882	14167.33
793.214	14280.77
793.546	14249.58
793.879	14149.02
794.211	14076.93
794.543	14119.42
794.875	14111.96
795.207	14128.91
795.539	13951.74
795.871	13977.27
796.203	13833.1
796.535	13777.73
796.867	13755.36
797.198	13754.23
797.53	13785.41
797.862	13702.03
798.193	13640.33
798.525	13548.81
798.856	13573.22
799.188	13463.84
799.519	13391.53
799.85	13228.82
800.182	13316.27
800.513	13377.52
800.844	13141.14
801.175	13257.07
801.506	13269.95
801.837	13156.05
802.168	13115.38
802.499	13042.61
802.83	13024.53
803.161	13035.38
803.491	13010.75
803.822	12959.45
804.153	12881.71
804.483	12821.37
804.814	12696.86
805.145	12724.88
805.475	12709.51
805.805	12636.07
806.136	12615.95
806.466	12713.8
806.796	12687.82
807.126	12578.44
807.457	12527.14
807.787	12537.76
808.117	12430.2
808.447	12408.5
808.777	12398.56
809.107	12379.58
809.436	12260.03
809.766	12300.03
810.096	12251.22
810.426	12218.22
810.755	12221.61
811.085	12171.22
811.414	12076.31
811.744	11994.5
812.073	12082.18
812.403	12014.39
812.732	12008.74
813.061	11922.86
813.39	11854.84
813.719	11840.61
814.049	11931.9
814.378	11797.44
814.707	11802.87
815.036	11818.23
815.365	11758.12
815.693	11582.53
816.022	11622.53
816.351	11549.77
816.68	11607.84
817.008	11587.73
817.337	11468.41
817.665	11459.6
817.994	11450.56
818.322	11582.31
818.651	11467.51
818.979	11368.75
819.307	11392.03
819.636	11324.24
819.964	11258.02
820.292	11367.4
820.62	11284.92
820.948	11302.99
821.276	11345.03
821.604	11243.79
821.932	11295.99
822.259	11269.32
822.587	11250.11
822.915	11201.53
823.243	11237.01
823.57	11187.29
823.898	11280.4
824.225	11172.83
824.553	11217.12
824.88	11227.97
825.207	11213.73
825.535	11193.62
825.862	11259.83
826.189	11267.74
826.516	11190.91
826.843	11249.66
827.17	11206.27
827.497	11244.46
827.824	11247.4
828.151	11262.99
828.478	11201.53
828.805	11231.58
829.131	11173.05
829.458	11159.04
829.785	11142.55
830.111	11189.55
830.438	11239.49
830.764	11225.26
831.09	11202.88
831.417	11093.28
831.743	11147.07
832.069	11129.89
832.395	11185.71
832.722	11118.59
833.048	11133.73
833.374	11163.56
833.7	11080.17
834.026	11049.22
834.351	11152.49
834.677	11098.93
835.003	11157.91
835.329	11058.25
835.654	11076.56
835.98	11038.14
836.306	10984.36
836.631	11016.9
836.956	11043.11
837.282	10993.62
837.607	10926.51
837.932	10942.78
838.258	10853.51
838.583	10883.8
838.908	10861.42
839.233	10839.05
839.558	10821.42
839.883	10786.4
840.208	10746.85
840.533	10819.84
840.858	10752.5
841.182	10689.22
841.507	10789.33
841.832	10733.29
842.156	10620.3
842.481	10666.4
842.805	10677.25
843.13	10575.78
843.454	10606.74
843.778	10506.63
844.103	10466.41
844.427	10529
844.751	10459.17
845.075	10436.58
845.399	10403.13
845.723	10394.32
846.047	10323.58
846.371	10300.53
846.695	10346.63
847.019	10189.8
847.343	10156.36
847.666	10190.48
847.99	10061.9
848.313	10091.05
848.637	9990.71
848.96	9992.07
849.284	9970.83
849.607	9889.25
849.931	9897.83
850.254	9778.29
850.577	9783.94
850.9	9706.88
851.223	9689.02
851.546	9669.14
851.869	9570.61
852.192	9585.52
852.515	9618.29
852.838	9542.36
853.161	9525.41
853.483	9460.33
853.806	9411.74
854.129	9438.18
854.451	9402.03
854.774	9317.28
855.096	9308.02
855.419	9248.58
855.741	9271.41
856.063	9161.81
856.385	9126.78
856.708	9168.59
857.03	9148.7
857.352	9104.18
857.674	9059.44
857.996	9061.92
858.318	8979.67
858.64	8989.83
858.961	8941.7
859.283	8942.83
859.605	8875.71
859.926	8906.45
860.248	8837.52
860.57	8794.81
860.891	8804.08
861.212	8756.17
861.534	8833.91
861.855	8764.76
862.176	8706
862.498	8778.99
862.819	8739.67
863.14	8690.41
863.461	8672.78
863.782	8701.71
864.103	8628.26
864.424	8648.15
864.745	8688.15
865.065	8617.41
865.386	8625.78
865.707	8589.39
866.027	8597.53
866.348	8533.12
866.668	8568.38
866.989	8580.81
867.309	8485.44
867.63	8488.15
867.95	8424.65
868.27	8390.98
868.59	8412
868.91	8445.22
869.23	8445.67
869.55	8413.35
869.87	8369.96
870.19	8391.21
870.51	8397.76
870.83	8380.13
871.15	8312.11
871.469	8317.54
871.789	8307.37
872.109	8264.88
872.428	8231.21
872.748	8305.33
873.067	8262.62
873.386	8284.32
873.706	8224.88
874.025	8183.53
874.344	8149.86
874.663	8148.5
874.982	8179.69
875.301	8185.34
875.62	8140.82
875.939	8134.04
876.258	8108.05
876.577	8086.36
876.896	8063.53
877.214	8073.02
877.533	8065.34
877.852	8077.54
878.17	8053.36
878.489	8035.06
878.807	8036.64
879.125	7933.82
879.444	8023.53
879.762	7934.72
880.08	7955.74
880.398	7966.36
880.716	7897.89
881.034	7887.49
881.352	7927.49
881.67	7880.26
881.988	7873.71
882.306	7888.62
882.624	7830.09
882.941	7812.01
883.259	7789.41
883.577	7733.14
883.894	7736.53
884.212	7699.25
884.529	7726.36
884.846	7696.31
885.164	7671.22
885.481	7600.04
885.798	7676.65
886.115	7575.86
886.432	7523.88
886.75	7540.61
887.067	7605.69
887.383	7561.85
887.7	7533.38
888.017	7565.24
888.334	7487.5
888.651	7502.42
888.967	7451.57
889.284	7420.61
889.6	7426.03
889.917	7351.23
890.233	7407.73
890.55	7344.45
890.866	7393.04
891.182	7336.77
891.498	7243.89
891.815	7253.38
892.131	7185.59
892.447	7183.1
892.763	7122.54
893.079	7153.5
893.395	7149.66
893.71	7132.26
894.026	7168.87
894.342	7073.5
894.657	7073.05
894.973	7041.18
895.289	7040.73
895.604	6988.3
895.92	6946.72
896.235	6998.02
896.55	6967.29
896.865	6925.26
897.181	6920.96
897.496	6862.21
897.811	6889.32
898.126	6845.26
898.441	6767.75
898.756	6788.76
899.071	6707.63
899.386	6756.9
899.7	6708.54
900.015	6664.92
900.33	6664.02
900.644	6628.99
900.959	6622.44
901.273	6594.64
901.588	6554.19
901.902	6516.45
902.216	6530.46
902.531	6562.1
902.845	6478.71
903.159	6430.58
903.473	6382.67
903.787	6369.11
904.101	6377.7
904.415	6360.52
904.729	6357.81
905.042	6303.58
905.356	6310.58
905.67	6281.88
905.984	6262
906.297	6258.61
906.611	6247.53
906.924	6181.09
907.237	6134.99
907.551	6173.64
907.864	6144.71
908.177	6057.26
908.491	6080.76
908.804	6051.83
909.117	6058.84
909.43	5985.39
909.743	5926.19
910.056	5955.79
910.368	5899.75
910.681	5932.51
910.994	5912.4
911.307	5876.7
911.619	5850.03
911.932	5812.06
912.244	5750.37
912.557	5757.83
912.869	5733.42
913.181	5731.61
913.494	5711.28
913.806	5646.19
914.118	5686.19
914.43	5630.6
914.742	5595.35
915.054	5590.6
915.366	5565.97
915.678	5574.1
915.99	5513.09
916.302	5547.66
916.613	5473.54
916.925	5464.96
917.236	5445.75
917.548	5437.84
917.859	5409.82
918.171	5399.87
918.482	5339.08
918.794	5303.15
919.105	5295.69
919.416	5280.1
919.727	5252.08
920.038	5226.09
920.349	5217.28
920.66	5252.08
920.971	5194.91
921.282	5161.91
921.593	5106.77
921.903	5156.04
922.214	5093.44
922.525	5037.85
922.835	5061.58
923.146	5000.11
923.456	5049.37
923.767	4996.49
924.077	4982.93
924.387	4970.05
924.697	4940.22
925.008	4900.68
925.318	4915.14
925.628	4871.52
925.938	4864.07
926.248	4819.32
926.558	4829.49
926.867	4817.74
927.177	4756.73
927.487	4759.89
927.796	4723.73
928.106	4674.24
928.416	4715.82
928.725	4680.34
929.034	4645.77
929.344	4675.6
929.653	4572.78
929.962	4601.48
930.271	4582.49
930.581	4534.36
930.89	4526.22
931.199	4478.54
931.508	4496.62
931.817	4451.65
932.125	4464.08
932.434	4423.63
932.743	4437.19
933.051	4374.81
933.36	4401.03
933.669	4358.32
933.977	4315.83
934.286	4338.21
934.594	4318.77
934.902	4275.61
935.21	4254.82
935.519	4264.99
935.827	4243.74
936.135	4220.24
936.443	4192.67
936.751	4196.29
937.059	4184.99
937.367	4134.37
937.674	4151.32
937.982	4117.19
938.29	4086.69
938.597	4094.6
938.905	4046.24
939.213	4031.09
939.52	4025.45
939.827	4015.73
940.135	3978.89
940.442	4024.77
940.749	3966.46
941.056	3985.22
941.363	3890.08
941.67	3906.58
941.977	3920.36
942.284	3877.65
942.591	3845.34
942.898	3816.41
943.205	3846.92
943.511	3794.49
943.818	3805.34
944.125	3786.36
944.431	3774.38
944.738	3748.39
945.044	3744.55
945.35	3760.82
945.657	3751.55
945.963	3688.28
946.269	3673.36
946.575	3630.65
946.881	3638.79
947.187	3635.62
947.493	3565.34
947.799	3606.02
948.105	3606.02
948.41	3549.75
948.716	3539.81
949.022	3577.77
949.327	3525.8
949.633	3514.72
949.938	3493.03
950.244	3478.79
950.549	3453.93
950.854	3485.35
951.16	3415.07
951.465	3385.91
951.77	3400.6
952.075	3367.38
952.38	3396.76
952.685	3332.36
952.99	3322.86
953.294	3322.41
953.599	3307.05
953.904	3336.42
954.209	3255.52
954.513	3298.91
954.818	3288.97
955.122	3268.63
955.426	3214.39
955.731	3259.59
956.035	3160.38
956.339	3167.39
956.643	3198.57
956.948	3164.9
957.252	3169.2
957.556	3137.78
957.86	3157.22
958.163	3129.42
958.467	3082.87
958.771	3073.38
959.075	3067.73
959.378	3064.11
959.682	3078.8
959.985	3057.56
960.289	3026.15
960.592	2999.94
960.896	3012.14
961.199	2973.27
961.502	2965.59
961.805	2942.08
962.108	2981.4
962.411	2973.27
962.714	2884.46
963.017	2915.87
963.32	2906.83
963.623	2913.61
963.926	2880.62
964.228	2880.39
964.531	2858.92
964.833	2823.67
965.136	2794.97
965.438	2818.02
965.741	2826.61
966.043	2771.92
966.345	2784.8
966.648	2760.17
966.95	2732.82
967.252	2717.23
967.554	2761.52
967.856	2730.56
968.158	2683.11
968.46	2720.62
968.761	2717.46
969.063	2698.93
969.365	2689.66
969.666	2666.38
969.968	2622.54
970.269	2628.65
970.571	2603.11
970.872	2624.58
971.174	2597.69
971.475	2599.49
971.776	2576.44
972.077	2546.84
972.378	2563.11
972.679	2576.9
972.98	2532.83
973.281	2532.15
973.582	2512.49
973.883	2474.98
974.183	2480.63
974.484	2464.81
974.785	2504.36
975.085	2453.28
975.386	2466.16
975.686	2450.8
975.986	2432.94
976.287	2430.46
976.587	2384.36
976.887	2418.71
977.187	2417.35
977.487	2366.05
977.787	2373.29
978.087	2330.12
978.387	2350.23
978.687	2335.77
978.987	2319.95
979.286	2313.4
979.586	2313.85
979.885	2308.65
980.185	2278.37
980.484	2276.34
980.784	2220.29
981.083	2276.11
981.382	2258.71
981.682	2242.22
981.981	2251.03
982.28	2186.17
982.579	2238.83
982.878	2201.76
983.177	2192.72
983.475	2178.04
983.774	2162.9
984.073	2175.78
984.372	2153.63
984.67	2155.66
984.969	2111.82
985.267	2130.81
985.566	2139.62
985.864	2129.68
986.162	2100.75
986.461	2047.64
986.759	2124.7
987.057	2077.93
987.355	2079.06
987.653	2058.04
987.951	2059.4
988.249	2063.69
988.547	2026.63
988.844	2023.92
989.142	2010.36
989.44	1972.62
989.737	1998.15
990.035	1990.92
990.332	1980.3
990.63	1970.13
990.927	1969
991.224	1930.58
991.521	1958.38
991.819	1955.22
992.116	1929
992.413	1909.57
992.71	1911.38
993.006	1915.44
993.303	1899.85
993.6	1890.59
993.897	1866.18
994.193	1847.2
994.49	1859.63
994.787	1884.03
995.083	1837.25
995.379	1819.63
995.676	1818.05
995.972	1806.52
996.268	1802.23
996.565	1801.77
996.861	1767.43
997.157	1793.19
997.453	1790.7
997.749	1774.66
998.044	1752.06
998.34	1748.67
998.636	1745.05
998.932	1741.21
999.227	1747.99
999.523	1687.43
999.818	1685.39
1000.114	1688.33
1000.409	1684.72
1000.704	1660.54
1001	1641.55
1001.295	1646.98
1001.59	1679.29
1001.885	1656.02
1002.18	1602.01
1002.475	1617.82
1002.77	1658.28
1003.065	1600.2
1003.359	1623.47
1003.654	1604.27
1003.949	1587.77
1004.243	1581.67
1004.538	1599.75
1004.832	1578.96
1005.127	1524.95
1005.421	1585.74
1005.715	1538.05
1006.009	1529.01
1006.304	1518.17
1006.598	1503.93
1006.892	1498.96
1007.186	1492.63
1007.48	1495.57
1007.773	1482.46
1008.067	1470.26
1008.361	1467.77
1008.655	1468
1008.948	1458.28
1009.242	1435.68
1009.535	1416.7
1009.829	1384.84
1010.122	1388.9
1010.415	1398.85
1010.708	1384.38
1011.001	1387.32
1011.295	1361.79
1011.588	1388.9
1011.881	1370.6
1012.173	1365.4
1012.466	1376.93
1012.759	1369.02
1013.052	1332.41
1013.344	1362.24
1013.637	1327.44
1013.93	1314.78
1014.222	1322.01
1014.514	1301.67
1014.807	1298.06
1015.099	1307.32
1015.391	1289.47
1015.683	1277.95
1015.976	1293.09
1016.268	1270.49
1016.56	1253.31
1016.851	1222.58
1017.143	1234.11
1017.435	1219.87
1017.727	1226.87
1018.018	1224.61
1018.31	1201.56
1018.602	1216.03
1018.893	1199.98
1019.185	1217.16
1019.476	1188.46
1019.767	1186.42
1020.058	1176.71
1020.35	1147.78
1020.641	1169.02
1020.932	1141
1021.223	1124.28
1021.514	1137.61
1021.804	1131.06
1022.095	1131.74
1022.386	1149.81
1022.677	1117.05
1022.967	1092.41
1023.258	1095.8
1023.548	1105.97
1023.839	1087.22
1024.129	1068.01
1024.419	1078.63
1024.709	1073.88
1025	1052.87
1025.29	1048.12
1025.58	1050.83
1025.87	1048.8
1026.16	1043.83
1026.449	1035.02
1026.739	1019.42
1027.029	1037.73
1027.319	1017.16
1027.608	1019.42
1027.898	1008.35
1028.187	1014.45
1028.477	1014.22
1028.766	983.72
1029.055	985.98
1029.344	1014.45
1029.634	959.08
1029.923	959.08
1030.212	964.06
1030.501	955.02
1030.79	935.13
1031.078	920.67
1031.367	940.1
1031.656	945.53
1031.945	910.5
1032.233	921.35
1032.522	908.46
1032.81	902.36
1033.099	936.71
1033.387	884.06
1033.675	884.06
1033.963	880.22
1034.251	896.04
1034.54	852.65
1034.828	861.46
1035.116	866.88
1035.403	843.16
1035.691	856.49
1035.979	856.04
1036.267	849.26
1036.554	832.53
1036.842	835.92
1037.129	829.14
1037.417	822.82
1037.704	812.42
1037.992	819.65
1038.279	809.94
1038.566	811.74
1038.853	811.74
1039.14	811.74
