Data from tablewood_dark_bookshelf_FLMS001491_00044.txt Node
Date: Wed Feb 08 14:14:48 GMT 2017
User: dcchb
Spectrometer: FLMS00149
Trigger mode: 0
Integration Time (sec): 2.000000E-2
Scans to average: 10
Electric dark correction enabled: true
Nonlinearity correction enabled: false
Boxcar width: 0
XAxis mode: Wavelengths
Number of Pixels in Spectrum: 2048
>>>>>Begin Spectral Data<<<<<
341.393	7.6
341.776	7.6
342.16	7.6
342.543	-45.06
342.927	-54.09
343.31	-65.17
343.693	-70.37
344.077	-57.03
344.46	-42.8
344.843	-47.99
345.226	-49.57
345.61	-38.95
345.993	-20.65
346.376	-3.47
346.759	-3.93
347.142	22.29
347.525	27.71
347.908	58.44
348.291	82.17
348.674	107.94
349.057	101.38
349.44	118.56
349.823	148.84
350.206	161.94
350.588	183.19
350.971	217.54
351.354	222.73
351.737	217.99
352.119	235.39
352.502	240.13
352.884	260.02
353.267	277.65
353.65	280.36
354.032	275.84
354.414	276.74
354.797	291.43
355.179	295.73
355.562	310.42
355.944	308.61
356.326	314.94
356.709	325.1
357.091	330.98
357.473	326.69
357.855	337.31
358.238	347.7
358.62	322.62
359.002	319.45
359.384	329.85
359.766	337.76
360.148	329.4
360.53	334.14
360.912	335.05
361.294	333.92
361.676	337.31
362.057	320.36
362.439	322.62
362.821	313.58
363.203	314.71
363.584	327.59
363.966	298.44
364.348	312.22
364.729	336.4
365.111	306.12
365.493	340.47
365.874	332.56
366.256	309.51
366.637	306.35
367.019	309.51
367.4	316.07
367.781	303.86
368.163	316.52
368.544	319
368.925	294.37
369.306	321.71
369.688	304.99
370.069	302.28
370.45	290.3
370.831	301.83
371.212	328.72
371.593	313.81
371.974	313.13
372.355	319.68
372.736	322.39
373.117	288.95
373.498	308.16
373.879	320.13
374.26	335.05
374.641	310.19
375.021	311.09
375.402	321.71
375.783	301.15
376.163	335.95
376.544	334.6
376.925	307.48
377.305	313.13
377.686	320.58
378.066	304.99
378.447	312
378.827	330.08
379.208	339.79
379.588	347.25
379.968	343.41
380.349	312.22
380.729	317.2
381.109	320.36
381.489	322.84
381.87	325.56
382.25	339.79
382.63	308.61
383.01	344.99
383.39	347.02
383.77	342.28
384.15	346.12
384.53	369.17
384.91	365.78
385.29	350.19
385.67	352.67
386.049	375.95
386.429	353.13
386.809	353.13
387.189	370.08
387.568	351.09
387.948	349.28
388.328	373.46
388.707	359.23
389.087	362.17
389.466	384.99
389.846	366.23
390.225	351.32
390.605	359.23
390.984	340.47
391.363	385.89
391.743	377.31
392.122	379.34
392.501	368.49
392.881	378.21
393.26	357.87
393.639	372.79
394.018	371.66
394.397	382.96
394.776	400.13
395.155	402.62
395.534	387.7
395.913	401.03
396.292	400.58
396.671	405.1
397.05	411.66
397.429	402.39
397.808	401.94
398.186	395.61
398.565	403.97
398.944	400.81
399.323	422.05
399.701	421.37
400.08	403.07
400.458	425.21
400.837	424.54
401.215	417.98
401.594	417.76
401.972	428.15
402.351	439.45
402.729	416.4
403.107	454.37
403.486	431.77
403.864	432.22
404.242	449.62
404.62	445.33
404.999	452.56
405.377	443.52
405.755	455.5
406.133	480.81
406.511	440.81
406.889	440.36
407.267	449.39
407.645	471.09
408.023	465.67
408.401	460.02
408.779	479.45
409.156	478.55
409.534	477.19
409.912	481.94
410.29	486.23
410.667	503.63
411.045	497.53
411.422	484.42
411.8	484.42
412.178	508.38
412.555	526.23
412.933	519.22
413.31	521.48
413.687	534.36
414.065	528.49
414.442	526.23
414.819	546.79
415.197	542.5
415.574	566
415.951	537.75
416.328	559.45
416.705	537.98
417.082	537.98
417.46	549.28
417.837	558.09
418.214	560.13
418.591	566.68
418.967	566.91
419.344	572.78
419.721	588.37
420.098	579.56
420.475	598.32
420.852	605.32
421.228	603.29
421.605	593.35
421.982	590.18
422.358	618.88
422.735	609.84
423.111	621.14
423.488	619.56
423.864	638.99
424.241	610.52
424.617	633.8
424.994	650.75
425.37	646.45
425.746	651.88
426.123	668.6
426.499	648.03
426.875	660.91
427.251	661.82
427.627	694.59
428.003	680.12
428.379	682.84
428.756	694.36
429.132	711.99
429.507	719.22
429.883	732.1
430.259	721.93
430.635	719.22
431.011	721.03
431.387	757.18
431.763	762.16
432.138	752.66
432.514	750.4
432.89	766.67
433.265	783.62
433.641	779.33
434.016	794.92
434.392	788.82
434.767	801.93
435.143	800.35
435.518	821.59
435.894	814.36
436.269	832.66
436.644	870.17
437.02	862.94
437.395	840.8
437.77	866.11
438.145	853
438.52	863.17
438.895	877.18
439.271	889.61
439.646	883.96
440.021	888.93
440.395	910.63
440.77	910.17
441.145	902.49
441.52	956.05
441.895	944.07
442.27	944.3
442.645	934.35
443.019	957.63
443.394	967.57
443.769	951.08
444.143	939.33
444.518	979.1
444.892	988.14
445.267	962.83
445.641	989.72
446.016	1012.32
446.39	972.09
446.764	1004.86
447.139	1017.52
447.513	1021.81
447.887	989.27
448.262	1025.88
448.636	1019.32
449.01	1034.92
449.384	1073.33
449.758	1064.07
450.132	1063.39
450.506	1063.16
450.88	1072.43
451.254	1092.32
451.628	1095.71
452.002	1087.34
452.376	1111.98
452.75	1097.97
453.123	1109.04
453.497	1140.22
453.871	1169.38
454.244	1175.7
454.618	1170.73
454.992	1164.86
455.365	1185.65
455.739	1208.47
456.112	1248.02
456.486	1229.49
456.859	1238.53
457.232	1264.06
457.606	1247.34
457.979	1270.39
458.352	1320.11
458.725	1331.18
459.099	1314.46
459.472	1325.08
459.845	1346.77
460.218	1357.62
460.591	1382.7
460.964	1380.67
461.337	1369.82
461.71	1461.8
462.083	1441.23
462.456	1465.87
462.829	1470.39
463.201	1488.69
463.574	1522.59
463.947	1488.01
464.32	1522.59
464.692	1538.86
465.065	1556.26
465.438	1575.69
465.81	1615.92
466.183	1610.95
466.555	1650.95
466.928	1618.63
467.3	1648.91
467.672	1666.31
468.045	1695.01
468.417	1685.97
468.789	1717.16
469.161	1740.43
469.534	1822.69
469.906	1802.35
470.278	1812.3
470.65	1831.96
471.022	1872.86
471.394	1909.02
471.766	1918.73
472.138	1916.7
472.51	1970.48
472.882	2019.3
473.253	2000.77
473.625	2034.89
473.997	2112.63
474.369	2078.5
474.74	2106.75
475.112	2183.81
475.484	2182.46
475.855	2242.57
476.227	2250.25
476.598	2287.31
476.97	2328.22
477.341	2364.82
477.713	2391.94
478.084	2403.69
478.455	2437.37
478.827	2498.15
479.198	2584.25
479.569	2592.39
479.94	2618.6
480.311	2661.09
480.682	2680.97
481.053	2741.31
481.424	2811.59
481.795	2790.58
482.166	2856.56
482.537	2913.28
482.908	2929.56
483.279	2992.15
483.65	3075.54
484.021	3101.98
484.391	3139.72
484.762	3132.49
485.133	3164.35
485.503	3247.06
485.874	3299.49
486.244	3299.72
486.615	3393.5
486.985	3437.11
487.356	3452.25
487.726	3519.37
488.097	3574.74
488.467	3579.93
488.837	3633.72
489.207	3681.4
489.578	3736.77
489.948	3779.48
490.318	3806.82
490.688	3815.86
491.058	3874.39
491.428	3931.56
491.798	3970.43
492.168	4056.53
492.538	4090.88
492.908	4120.48
493.278	4200.93
493.648	4226.92
494.017	4197.54
494.387	4279.8
494.757	4333.36
495.126	4354.38
495.496	4383.3
495.866	4400.48
496.235	4470.53
496.605	4499.01
496.974	4530.42
497.344	4570.64
497.713	4567.03
498.082	4623.3
498.452	4694.26
498.821	4666.46
499.19	4742.39
499.559	4759.11
499.928	4733.35
500.298	4834.14
500.667	4851.54
501.036	4860.35
501.405	4913.46
501.774	4913.68
502.143	4970.86
502.512	4970.41
502.88	5043.62
503.249	5061.48
503.618	5086.79
503.987	5150.74
504.356	5162.72
504.724	5180.34
505.093	5204.07
505.462	5189.16
505.83	5295.37
506.199	5311.19
506.567	5350.96
506.936	5376.05
507.304	5444.07
507.672	5523.61
508.041	5488.58
508.409	5549.15
508.777	5563.38
509.145	5666.66
509.514	5695.81
509.882	5694
510.25	5731.06
510.618	5776.03
510.986	5806.09
511.354	5860.78
511.722	5910.49
512.09	5999.76
512.458	5927.89
512.826	5994.79
513.193	6015.58
513.561	6057.84
513.929	6108.46
514.297	6150.26
514.664	6224.38
515.032	6200.66
515.4	6264.16
515.767	6290.37
516.135	6318.39
516.502	6356.58
516.869	6388.45
517.237	6482
517.604	6470.93
517.972	6579.18
518.339	6652.17
518.706	6641.32
519.073	6666.41
519.44	6723.81
519.808	6814.43
520.175	6815.33
520.542	6904.37
520.909	6887.64
521.276	6960.64
521.643	7022.78
522.009	7031.82
522.376	7116.11
522.743	7181.87
523.11	7184.81
523.477	7333.06
523.843	7351.59
524.21	7441.3
524.577	7511.81
524.943	7519.27
525.31	7581.18
525.676	7614.63
526.043	7765.59
526.409	7762.65
526.776	7807.62
527.142	7857.79
527.508	7850.33
527.874	7992.93
528.241	8029.76
528.607	8055.97
528.973	8134.39
529.339	8097.56
529.705	8181.4
530.071	8240.15
530.437	8286.7
530.803	8422.74
531.169	8382.29
531.535	8395.63
531.901	8450.99
532.267	8457.77
532.632	8511.1
532.998	8571.44
533.364	8643.53
533.73	8685.11
534.095	8740.93
534.461	8854.15
534.826	8851.66
535.192	8852.56
535.557	8927.59
535.923	8948.38
536.288	8954.03
536.653	8965.1
537.019	9042.39
537.384	9020.24
537.749	9100.92
538.114	9163.52
538.479	9139.34
538.845	9172.1
539.21	9129.39
539.575	9250.29
539.94	9237.41
540.305	9310.86
540.67	9396.5
541.034	9375.71
541.399	9375.94
541.764	9458.2
542.129	9399.89
542.494	9483.06
542.858	9507.69
543.223	9567.12
543.587	9638.31
543.952	9632.2
544.316	9688.02
544.681	9605.99
545.045	9700.45
545.41	9834.46
545.774	9787
546.138	9802.6
546.503	9852.54
546.867	9914.91
547.231	9984.51
547.595	9931.63
547.959	9975.47
548.324	9982.7
548.688	10033.78
549.052	10105.86
549.416	10145.19
549.779	10101.57
550.143	10150.38
550.507	10163.72
550.871	10242.13
551.235	10231.96
551.599	10312.19
551.962	10357.38
552.326	10405.74
552.689	10422.01
553.053	10409.13
553.417	10509.47
553.78	10571.16
554.143	10551.95
554.507	10662.23
554.87	10673.53
555.234	10805.73
555.597	10719.63
555.96	10779.74
556.323	10842.57
556.686	10885.5
557.05	10918.27
557.413	10957.14
557.776	10930.25
558.139	11111.26
558.502	11076.69
558.865	11110.58
559.228	11207.08
559.59	11184.03
559.953	11264.7
560.316	11298.38
560.679	11389.9
561.041	11419.5
561.404	11522.55
561.767	11563.45
562.129	11569.78
562.492	11705.82
562.854	11752.15
563.217	11686.61
563.579	11862.65
563.941	11910.11
564.304	11988.53
564.666	12007.74
565.028	12103.33
565.39	12035.08
565.753	12091.35
566.115	12222.42
566.477	12325.24
566.839	12306.03
567.201	12410.89
567.563	12360.04
567.925	12484.56
568.287	12447.05
568.648	12619.92
569.01	12598.68
569.372	12731.78
569.734	12764.78
570.095	12821.05
570.457	12911.44
570.819	12864.89
571.18	12936.3
571.542	13015.17
571.903	13019.01
572.265	13111.43
572.626	13131.32
572.987	13152.79
573.349	13299.9
573.71	13272.79
574.071	13301.49
574.432	13423.29
574.794	13496.51
575.155	13491.54
575.516	13437.75
575.877	13618.99
576.238	13601.82
576.599	13641.14
576.96	13634.58
577.32	13737.86
577.681	13669.84
578.042	13831.87
578.403	13874.13
578.763	13919.32
579.124	13890.17
579.485	14070.28
579.845	14050.17
580.206	13993.45
580.566	14101.24
580.927	14097.17
581.287	14237.28
581.648	14144.63
582.008	14295.58
582.368	14193.44
582.728	14306.88
583.089	14275.92
583.449	14314.57
583.809	14301.46
584.169	14382.36
584.529	14343.49
584.889	14497.84
585.249	14397.73
585.609	14412.42
585.969	14551.62
586.329	14529.93
586.688	14586.2
587.048	14532.87
587.408	14542.81
587.768	14463.94
588.127	14577.84
588.487	14593.66
588.846	14691.51
589.206	14609.47
589.565	14676.59
589.925	14690.15
590.284	14672.07
590.643	14793.2
591.003	14778.06
591.362	14871.39
591.721	14796.81
592.08	14784.39
592.44	14911.61
592.799	14859.41
593.158	14911.61
593.517	14943.48
593.876	14989.35
594.235	15017.6
594.593	14958.39
594.952	15062.8
595.311	15016.24
595.67	14980.09
596.029	15142.34
596.387	15059.18
596.746	15085.85
597.104	15091.95
597.463	15105.73
597.822	15256.92
598.18	15258.95
598.538	15124.94
598.897	15279.74
599.255	15106.41
599.613	15434.09
599.972	15279.97
600.33	15323.35
600.688	15285.62
601.046	15335.33
601.404	15429.34
601.762	15414.43
602.12	15465.05
602.478	15512.28
602.836	15565.38
603.194	15319.74
603.552	15473.41
603.91	15434.09
604.268	15483.8
604.625	15519.96
604.983	15566.29
605.341	15498.26
605.698	15519.28
606.056	15629.56
606.413	15660.75
606.771	15721.76
607.128	15794.98
607.485	15627.53
607.843	15650.8
608.2	15802.89
608.557	15869.55
608.914	15801.31
609.272	15823.91
609.629	15907.75
609.986	15941.64
610.343	15971.25
610.7	15992.26
611.057	15983
611.414	15998.59
611.771	16077.46
612.127	16084.01
612.484	16049.66
612.841	16132.15
613.198	16098.93
613.554	16110.9
613.911	16192.03
614.267	16237.91
614.624	16209.66
614.98	16220.05
615.337	16379.82
615.693	16244.46
616.05	16255.08
616.406	16271.35
616.762	16341.63
617.118	16292.14
617.475	16292.14
617.831	16426.83
618.187	16339.37
618.543	16309.54
618.899	16430.9
619.255	16447.17
619.611	16418.24
619.967	16500.05
620.323	16513.38
620.678	16498.46
621.034	16420.73
621.39	16366.26
621.746	16332.37
622.101	16649.19
622.457	16510.89
622.812	16569.42
623.168	16603.32
623.523	16565.36
623.879	16598.12
624.234	16463.66
624.589	16545.92
624.945	16554.96
625.3	16695.97
625.655	16560.61
626.01	16621.63
626.365	16573.72
626.72	16593.83
627.075	16575.52
627.43	16568.75
627.785	16477.22
628.14	16586.37
628.495	16589.08
628.85	16568.75
629.205	16479.26
629.559	16665.92
629.914	16491.91
630.269	16431.57
630.623	16518.12
630.978	16457.11
631.332	16419.6
631.687	16593.15
632.041	16359.26
632.396	16511.57
632.75	16454.4
633.104	16474.96
633.459	16450.78
633.813	16316.1
634.167	16378.47
634.521	16386.15
634.875	16358.36
635.229	16306.38
635.583	16242.2
635.937	16336.66
636.291	16364.23
636.645	16362.2
636.999	16295.08
637.352	16308.64
637.706	16225.48
638.06	16160.62
638.413	16234.52
638.767	16162.2
639.121	16171.47
639.474	16144.58
639.828	16106.38
640.181	16070.68
640.534	16090.34
640.888	16023.45
641.241	16028.65
641.594	16060.96
641.947	16063.9
642.301	16002.21
642.654	15989.78
643.007	16099.6
643.36	15961.76
643.713	16003.56
644.066	16073.62
644.419	16010.12
644.771	15943
645.124	15808.77
645.477	15754.76
645.83	15673.4
646.182	15591.37
646.535	15446.29
646.888	15444.48
647.24	15398.83
647.593	15354.77
647.945	15367.65
648.298	15330.13
648.65	15244.03
649.002	15301.21
649.355	15294.88
649.707	15315.44
650.059	15431.6
650.411	15637.7
650.763	15627.98
651.115	15801.31
651.467	15815.32
651.819	15722.21
652.171	15723.34
652.523	15636.11
652.875	15718.37
653.227	15604.93
653.578	15743.91
653.93	15698.03
654.282	15592.05
654.633	15543.69
654.985	15631.14
655.337	15632.72
655.688	15595.44
656.039	15586.4
656.391	15527.64
656.742	15526.74
657.094	15588.66
657.445	15649.67
657.796	15535.55
658.147	15532.84
658.498	15544.14
658.849	15601.76
659.2	15486.97
659.551	15477.7
659.902	15597.02
660.253	15543.24
660.604	15557.7
660.955	15460.75
661.306	15538.26
661.656	15503.24
662.007	15591.14
662.358	15453.07
662.708	15535.33
663.059	15430.02
663.409	15488.1
663.76	15586.85
664.11	15524.25
664.461	15479.73
664.811	15552.05
665.161	15509.56
665.511	15459.17
665.862	15527.87
666.212	15580.75
666.562	15552.73
666.912	15514.76
667.262	15425.05
667.612	15515.21
667.962	15448.32
668.312	15375.78
668.662	15458.72
669.011	15524.48
669.361	15480.86
669.711	15474.54
670.06	15438.38
670.41	15467.53
670.76	15466.4
671.109	15419.4
671.459	15415.1
671.808	15419.85
672.157	15478.15
672.507	15314.31
672.856	15415.33
673.205	15308.67
673.554	15414.43
673.904	15358.38
674.253	15467.08
674.602	15432.28
674.951	15149.12
675.3	15117.71
675.649	15297.14
675.998	15320.64
676.346	15345.5
676.695	15383.69
677.044	15284.71
677.393	15340.98
677.741	15335.33
678.09	15328.1
678.438	15243.81
678.787	15227.09
679.135	15238.38
679.484	15153.42
679.832	15252.4
680.181	15064.83
680.529	15232.51
680.877	15180.99
681.225	15144.6
681.573	15288.1
681.922	15202.91
682.27	15173.98
682.618	15062.12
682.966	15051.27
683.314	15083.36
683.661	15001.33
684.009	14870.94
684.357	14782.13
684.705	14879.3
685.053	14849.24
685.4	14854.67
685.748	14828
686.095	14732.64
686.443	14767.66
686.79	14769.92
687.138	14688.79
687.485	14715.91
687.832	14608.8
688.18	14674.78
688.527	14583.03
688.874	14589.14
689.221	14562.24
689.568	14538.06
689.915	14555.01
690.262	14580.77
690.609	14535.35
690.956	14393.44
691.303	14444.06
691.65	14283.83
691.997	14366.32
692.344	14195.7
692.69	14183.5
693.037	14241.12
693.383	14147.57
693.73	14112.99
694.077	14029.15
694.423	14093.78
694.769	14089.04
695.116	14056.72
695.462	14022.37
695.808	13954.35
696.155	14006.33
696.501	13850.62
696.847	13873.9
697.193	13757.52
697.539	13790.06
697.885	13745.99
698.231	13711.19
698.577	13684.3
698.923	13697.86
699.269	13623.74
699.614	13535.38
699.96	13527.47
700.306	13537.19
700.651	13497.41
700.997	13396.4
701.342	13448.15
701.688	13369.06
702.033	13330.64
702.379	13252.9
702.724	13210.87
703.069	13316.18
703.415	13170.19
703.76	13045.67
704.105	13068.5
704.45	13027.37
704.795	12892.91
705.14	12973.13
705.485	12979.01
705.83	12897.43
706.175	12890.42
706.52	12849.97
706.865	12827.37
707.209	12793.93
707.554	12754.83
707.899	12846.36
708.243	12740.37
708.588	12729.07
708.932	12656.31
709.277	12648.17
709.621	12699.02
709.966	12613.37
710.31	12599.36
710.654	12515.29
710.998	12560.94
711.342	12502.86
711.687	12530.66
712.031	12431.23
712.375	12453.83
712.719	12391.45
713.063	12377.89
713.407	12492.69
713.75	12309.65
714.094	12312.59
714.438	12264.9
714.782	12292.25
715.125	12355.52
715.469	12267.16
715.812	12193.27
716.156	12207.5
716.499	12187.84
716.843	12211.12
717.186	12192.36
717.53	12155.98
717.873	12242.31
718.216	12116.43
718.559	12068.3
718.902	12012.03
719.246	11998.7
719.589	12015.42
719.932	12003.44
720.275	11946.72
720.617	12017.68
720.96	11939.04
721.303	11898.81
721.646	11978.58
721.989	11809.77
722.331	11899.49
722.674	11938.13
723.016	11928.64
723.359	11859.49
723.701	11811.36
724.044	11862.43
724.386	11756.67
724.729	11798.7
725.071	11755.31
725.413	11760.96
725.755	11738.36
726.097	11751.92
726.439	11656.33
726.782	11654.52
727.124	11640.29
727.465	11621.76
727.807	11590.12
728.149	11602.32
728.491	11614.3
728.833	11623.11
729.175	11574.07
729.516	11465.83
729.858	11607.52
730.199	11583.11
730.541	11555.77
730.882	11559.61
731.224	11594.86
731.565	11527.52
731.906	11487.3
732.248	11554.41
732.589	11510.57
732.93	11435.32
733.271	11417.69
733.612	11543.34
733.953	11484.13
734.294	11500.4
734.635	11384.93
734.976	11445.72
735.317	11383.34
735.658	11427.86
735.999	11396
736.339	11353.29
736.68	11453.4
737.021	11394.19
737.361	11378.83
737.702	11346.96
738.042	11373.63
738.383	11380.86
738.723	11421.54
739.063	11376.57
739.404	11365.04
739.744	11349.45
740.084	11323.69
740.424	11373.63
740.764	11301.54
741.104	11334.53
741.444	11242.11
741.784	11247.08
742.124	11347.64
742.464	11328.43
742.804	11248.43
743.143	11239.85
743.483	11266.06
743.823	11222.45
744.162	11210.69
744.502	11211.37
744.841	11249.11
745.181	11294.76
745.52	11183.12
745.86	11160.98
746.199	11184.25
746.538	11216.57
746.877	11268.77
747.216	11210.24
747.556	11081.66
747.895	11220.41
748.234	11101.54
748.573	11139.51
748.911	11064.48
749.25	11117.14
749.589	11138.15
749.928	11158.49
750.267	11115.56
750.605	11003.69
750.944	11046.4
751.283	11081.88
751.621	11013.64
751.96	10988.1
752.298	10990.81
752.636	11029.68
752.975	10989.23
753.313	10847.99
753.651	11071.04
753.989	10836.24
754.327	10883.92
754.666	10909.23
755.004	10849.57
755.342	10862.45
755.679	10815.68
756.017	10806.86
756.355	10785.62
756.693	10779.52
757.031	10863.81
757.368	10800.08
757.706	10768.22
758.044	10713.98
758.381	10705.17
758.719	10662.01
759.056	10646.87
759.394	10624.27
759.731	10536.81
760.068	10550.82
760.405	10544.95
760.743	10455.23
761.08	10535.46
761.417	10469.92
761.754	10460.88
762.091	10391.96
762.428	10410.71
762.765	10338.4
763.102	10386.08
763.438	10356.48
763.775	10267.22
764.112	10254.56
764.449	10279.87
764.785	10163.26
765.122	10117.62
765.458	10117.84
765.795	10159.2
766.131	10127.11
766.467	9999.88
766.804	10043.49
767.14	9945.87
767.476	10014.79
767.812	9879.66
768.148	9874.68
768.485	9893.44
768.821	9820.67
769.157	9745.87
769.492	9784.74
769.828	9721.24
770.164	9634.92
770.5	9624.52
770.836	9620.91
771.171	9620.68
771.507	9567.12
771.842	9531.19
772.178	9479.44
772.513	9546.33
772.849	9497.29
773.184	9381.82
773.519	9432.44
773.855	9409.39
774.19	9365.09
774.525	9220.92
774.86	9196.06
775.195	9221.14
775.53	9248.71
775.865	9153.8
776.2	9070.19
776.535	8988.61
776.87	9049.85
777.205	8994.93
777.539	8989.28
777.874	9010.07
778.209	8929.4
778.543	8885.78
778.878	8849.85
779.212	8826.58
779.547	8790.87
779.881	8866.57
780.215	8774.37
780.55	8778.89
780.884	8655.05
781.218	8636.3
781.552	8750.42
781.886	8568.28
782.22	8537.09
782.554	8496.64
782.888	8441.95
783.222	8408.06
783.556	8404.21
783.889	8390.43
784.223	8310.21
784.557	8369.64
784.89	8277.44
785.224	8264.1
785.557	8175.07
785.891	8207.16
786.224	8188.4
786.558	8145.46
786.891	8106.82
787.224	8013.72
787.557	8036.09
787.891	8068.18
788.224	8021.4
788.557	7993.6
788.89	7927.84
789.223	7929.2
789.556	7860.73
789.888	7905.92
790.221	7847.62
790.554	7768.52
790.887	7752.25
791.219	7737.56
791.552	7695.31
791.884	7685.81
792.217	7713.61
792.549	7653.5
792.882	7576.44
793.214	7523.11
793.546	7571.02
793.879	7514.52
794.211	7472.71
794.543	7500.51
794.875	7460.06
795.207	7477.01
795.539	7449.21
795.871	7367.41
796.203	7379.38
796.535	7350.68
796.867	7325.37
797.198	7284.02
797.53	7284.92
797.862	7263.45
798.193	7262.1
798.525	7151.59
798.856	7200.18
799.188	7081.31
799.519	7065.49
799.85	7042.22
800.182	7063.23
800.513	7041.76
800.844	6972.16
801.175	7028.43
801.506	6997.47
801.837	6989.11
802.168	6924.7
802.499	6938.26
802.83	6904.82
803.161	6857.14
803.491	6870.7
803.822	6842.22
804.153	6804.71
804.483	6764.48
804.814	6785.95
805.145	6731.94
805.475	6729
805.805	6707.54
806.136	6730.13
806.466	6734.65
806.796	6699.63
807.126	6616.46
807.457	6620.31
807.787	6556.8
808.117	6585.05
808.447	6533.53
808.777	6565.17
809.107	6500.31
809.436	6564.49
809.766	6533.53
810.096	6535.56
810.426	6456.47
810.755	6418.05
811.085	6438.39
811.414	6439.07
811.744	6329.69
812.073	6355.68
812.403	6358.62
812.732	6362.46
813.061	6301.44
813.39	6291.28
813.719	6257.15
814.049	6289.69
814.378	6298.28
814.707	6253.76
815.036	6187.32
815.365	6103.48
815.693	6130.83
816.022	6196.14
816.351	6126.08
816.68	6156.82
817.008	6098.29
817.337	6096.03
817.665	6061.68
817.994	6062.81
818.322	6085.63
818.651	6082.24
818.979	6021.68
819.307	6044.05
819.636	5997.5
819.964	5954.33
820.292	6026.42
820.62	6006.54
820.948	5931.51
821.276	5971.28
821.604	5921.79
821.932	5952.08
822.259	5946.65
822.587	5968.12
822.915	5942.81
823.243	5942.13
823.57	5954.11
823.898	5963.83
824.225	5869.37
824.553	5961.11
824.88	5942.13
825.207	5992.75
825.535	5904.84
825.862	5970.61
826.189	5948.69
826.516	5945.52
826.843	5933.54
827.17	5954.11
827.497	5964.5
827.824	5936.48
828.151	5998.18
828.478	5954.11
828.805	5953.43
829.131	5938.06
829.458	5912.75
829.785	5880.21
830.111	5905.07
830.438	5943.26
830.764	5902.13
831.09	5872.98
831.417	5836.6
831.743	5906.88
832.069	5950.04
832.395	5835.69
832.722	5850.38
833.048	5857.39
833.374	5862.59
833.7	5823.94
834.026	5849.25
834.351	5858.29
834.677	5832.98
835.003	5780.33
835.329	5828.69
835.654	5852.42
835.98	5779.88
836.306	5780.1
836.631	5815.13
836.956	5809.93
837.282	5804.51
837.607	5791.63
837.932	5719.76
838.258	5742.14
838.583	5759.31
838.908	5735.13
839.233	5795.7
839.558	5757.96
839.883	5710.5
840.208	5674.34
840.533	5698.07
840.858	5708.01
841.182	5662.59
841.507	5609.03
841.832	5571.75
842.156	5650.16
842.481	5571.97
842.805	5611.52
843.13	5612.88
843.454	5538.53
843.778	5549.83
844.103	5511.41
844.427	5491.3
844.751	5536.04
845.075	5520.45
845.399	5533.33
845.723	5464.86
846.047	5485.87
846.371	5455.37
846.695	5461.01
847.019	5390.28
847.343	5366.78
847.666	5338.31
847.99	5335.14
848.313	5367.91
848.637	5284.3
848.96	5305.76
849.284	5206.33
849.607	5260.79
849.931	5245.88
850.254	5186.9
850.577	5109.39
850.9	5135.83
851.223	5142.15
851.546	5113.23
851.869	5077.52
852.192	5137.86
852.515	5111.65
852.838	5016.51
853.161	5039.56
853.483	5013.79
853.806	4969.5
854.129	4943.74
854.451	4975.15
854.774	4892.67
855.096	4936.28
855.419	4934.7
855.741	4913.91
856.063	4863.52
856.385	4855.61
856.708	4822.39
857.03	4837.98
857.352	4862.16
857.674	4797.08
857.996	4791.88
858.318	4803.4
858.64	4824.42
858.961	4799.79
859.283	4761.15
859.605	4748.94
859.926	4709.4
860.248	4749.39
860.57	4753.91
860.891	4672.79
861.212	4712.11
861.534	4679.34
861.855	4703.07
862.176	4691.54
862.498	4657.65
862.819	4609.06
863.14	4627.14
863.461	4602.73
863.782	4681.6
864.103	4603.41
864.424	4633.24
864.745	4649.74
865.065	4602.28
865.386	4544.88
865.707	4604.77
866.027	4640.92
866.348	4577.65
866.668	4567.48
866.989	4586.46
867.309	4534.03
867.63	4512.79
867.95	4551.21
868.27	4493.58
868.59	4507.37
868.91	4531.32
869.23	4488.16
869.55	4495.62
869.87	4485.67
870.19	4512.11
870.51	4479.12
870.83	4453.36
871.15	4483.19
871.469	4421.72
871.789	4470.53
872.109	4472.79
872.428	4421.72
872.748	4414.04
873.067	4396.41
873.386	4460.14
873.706	4427.6
874.025	4416.3
874.344	4372.91
874.663	4428.73
874.982	4366.35
875.301	4357.54
875.62	4404.32
875.939	4382.62
876.258	4341.5
876.577	4307.6
876.896	4369.97
877.214	4380.82
877.533	4355.28
877.852	4324.1
878.17	4383.08
878.489	4312.57
878.807	4350.99
879.125	4339.24
879.444	4310.31
879.762	4302.18
880.08	4320.71
880.398	4265.57
880.716	4261.95
881.034	4236.19
881.352	4286.36
881.67	4271.67
881.988	4242.29
882.306	4261.05
882.624	4183.76
882.941	4201.39
883.259	4213.36
883.577	4216.3
883.894	4180.6
884.212	4180.14
884.529	4177.66
884.846	4132.01
885.164	4120.03
885.481	4123.42
885.798	4104.89
886.115	4159.35
886.432	4133.59
886.75	4122.29
887.067	4112.8
887.383	4106.93
887.7	4125
888.017	4070.32
888.334	4087.94
888.651	4073.25
888.967	4057.44
889.284	4032.35
889.6	4003.2
889.917	4000.49
890.233	4018.11
890.55	4000.26
890.866	4006.14
891.182	4010.88
891.498	3983.31
891.815	3949.87
892.131	3937.89
892.447	3943.77
892.763	3941.96
893.079	3936.53
893.395	3888.4
893.71	3894.28
894.026	3877.33
894.342	3891.79
894.657	3873.26
894.973	3847.05
895.289	3840.27
895.604	3884.33
895.92	3817.44
896.235	3797.33
896.55	3846.14
896.865	3852.47
897.181	3777.67
897.496	3820.61
897.811	3819.7
898.126	3752.13
898.441	3730.21
898.756	3739.25
899.071	3745.58
899.386	3765.47
899.7	3707.16
900.015	3686.15
900.33	3625.81
900.644	3659.71
900.959	3659.03
901.273	3626.26
901.588	3616.77
901.902	3590.78
902.216	3596.66
902.531	3625.36
902.845	3592.82
903.159	3551.46
903.473	3561.18
903.787	3573.83
904.101	3505.59
904.415	3538.13
904.729	3540.39
905.042	3498.35
905.356	3493.16
905.67	3521.63
905.984	3487.06
906.297	3483.67
906.611	3439.82
906.924	3456.77
907.237	3440.73
907.551	3440.28
907.864	3423.1
908.177	3404.57
908.491	3396.44
908.804	3361.63
909.117	3360.05
909.43	3363.44
909.743	3358.7
910.056	3354.86
910.368	3292.94
910.681	3344.01
910.994	3306.72
911.307	3310.56
911.619	3240.96
911.932	3260.85
912.244	3243.45
912.557	3286.38
912.869	3245.03
913.181	3229.21
913.494	3228.3
913.806	3176.33
914.118	3206.16
914.43	3169.1
914.742	3194.18
915.054	3127.52
915.366	3137.46
915.678	3134.3
915.99	3119.16
916.302	3079.61
916.613	3098.82
916.925	3094.3
917.236	3104.47
917.548	3095.65
917.859	3048.65
918.171	3057.91
918.482	3019.5
918.794	2990.8
919.105	3017.46
919.416	2998.03
919.727	2997.35
920.038	2981.76
920.349	2944.24
920.66	2944.47
920.971	2925.04
921.282	2928.2
921.593	2895.43
921.903	2906.51
922.214	2890.69
922.525	2893.17
922.835	2879.16
923.146	2864.02
923.456	2880.07
923.767	2849.56
924.077	2856.79
924.387	2843.68
924.697	2843.23
925.008	2797.13
925.318	2832.61
925.628	2793.97
925.938	2781.09
926.248	2769.79
926.558	2738.6
926.867	2751.03
927.177	2742.89
927.487	2737.47
927.796	2710.58
928.106	2732.27
928.416	2722.78
928.725	2685.49
929.034	2683.69
929.344	2680.52
929.653	2687.53
929.962	2655.21
930.271	2665.16
930.581	2618.83
930.89	2602.33
931.199	2612.95
931.508	2564.82
931.817	2574.76
932.125	2577.25
932.434	2584.71
932.743	2581.77
933.051	2569.79
933.36	2576.8
933.669	2551.94
933.977	2499.06
934.286	2539.28
934.594	2535.67
934.902	2504.03
935.21	2496.8
935.519	2471.49
935.827	2505.84
936.135	2458.38
936.443	2443.92
936.751	2420.64
937.059	2435.56
937.367	2436.46
937.674	2440.53
937.982	2430.36
938.29	2393.3
938.597	2398.04
938.905	2386.29
939.213	2363.69
939.52	2398.27
939.827	2394.2
940.135	2337.25
940.442	2304.94
940.749	2325.05
941.056	2355.11
941.363	2318.95
941.67	2309.01
941.977	2332.06
942.284	2281.89
942.591	2292.74
942.898	2287.76
943.205	2283.7
943.511	2269.01
943.818	2261.78
944.125	2270.36
944.431	2210.03
944.738	2208.9
945.044	2238.27
945.35	2194.66
945.657	2198.05
945.963	2190.37
946.269	2169.58
946.575	2182.23
946.881	2158.28
947.187	2167.77
947.493	2174.32
947.799	2129.35
948.105	2128.67
948.41	2135.23
948.716	2154.43
949.022	2124.61
949.327	2123.25
949.633	2106.53
949.938	2107.43
950.244	2091.39
950.549	2056.58
950.854	2083.25
951.16	2097.71
951.465	2079.86
951.77	2026.98
952.075	2050.93
952.38	2054.55
952.685	1993.08
952.99	2031.27
953.294	2033.76
953.599	2004.83
953.904	1992.63
954.209	1997.83
954.513	1980.88
954.818	1966.64
955.122	1957.6
955.426	1980.65
955.731	1950.15
956.035	1959.41
956.339	1931.62
956.643	1970.03
956.948	1937.27
957.252	1913.76
957.556	1943.59
957.86	1935.23
958.163	1915.12
958.467	1935.91
958.771	1930.03
959.075	1879.64
959.378	1896.36
959.682	1909.7
959.985	1868.34
960.289	1874.67
960.592	1855.46
960.896	1827.44
961.199	1862.47
961.502	1830.15
961.805	1836.7
962.108	1811.17
962.411	1834.22
962.714	1814.1
963.017	1820.66
963.32	1819.53
963.623	1768.91
963.926	1776.82
964.228	1759.19
964.531	1784.5
964.833	1744.5
965.136	1739.98
965.438	1755.58
965.741	1716.25
966.043	1722.58
966.345	1763.48
966.648	1749.93
966.95	1694.79
967.252	1702.92
967.554	1710.38
967.856	1749.02
968.158	1683.49
968.46	1718.51
968.761	1680.1
969.063	1683.94
969.365	1661.34
969.666	1659.53
969.968	1654.34
970.269	1650.49
970.571	1651.85
970.872	1664.28
971.174	1627.67
971.475	1631.74
971.776	1639.42
972.077	1614.34
972.378	1631.28
972.679	1623.15
972.98	1622.7
973.281	1610.95
973.582	1580.21
973.883	1573.66
974.183	1577.5
974.484	1548.8
974.785	1556.48
975.085	1570.95
975.386	1548.58
975.686	1545.19
975.986	1570.72
976.287	1528.24
976.587	1539.08
976.887	1522.59
977.187	1521.23
977.487	1527.11
977.787	1504.28
978.087	1514.23
978.387	1515.36
978.687	1524.62
978.987	1482.81
979.286	1504.06
979.586	1483.04
979.885	1466.09
980.185	1452.53
980.484	1485.75
980.784	1471.51
981.083	1438.3
981.382	1457.05
981.682	1469.93
981.981	1454.11
982.28	1438.52
982.579	1429.71
982.878	1388.81
983.177	1427.9
983.475	1401.69
983.774	1433.78
984.073	1387.68
984.372	1417.51
984.67	1392.2
984.969	1374.34
985.267	1382.48
985.566	1388.13
985.864	1390.61
986.162	1366.21
986.461	1379.31
986.759	1366.66
987.057	1330.95
987.355	1352.2
987.653	1359.65
987.951	1341.57
988.249	1340.67
988.547	1341.35
988.844	1296.6
989.142	1316.49
989.44	1320.33
989.737	1252.54
990.035	1319.65
990.332	1299.54
990.63	1294.34
990.927	1291.18
991.224	1280.79
991.521	1296.83
991.819	1271.07
992.116	1259.09
992.413	1275.36
992.71	1227.45
993.006	1270.62
993.303	1259.09
993.6	1267.68
993.897	1253.67
994.193	1250.73
994.49	1220.9
994.787	1215.93
995.083	1245.76
995.379	1232.65
995.676	1224.97
995.972	1211.86
996.268	1185.65
996.565	1211.63
996.861	1209.83
997.157	1183.39
997.453	1193.1
997.749	1184.29
998.044	1180.68
998.34	1163.05
998.636	1168.25
998.932	1149.04
999.227	1154.91
999.523	1144.97
999.818	1149.72
1000.114	1161.01
1000.409	1135.48
1000.704	1110.17
1001	1102.49
1001.295	1139.55
1001.59	1140.22
1001.885	1125.76
1002.18	1109.94
1002.475	1117.17
1002.77	1086.89
1003.065	1088.02
1003.359	1116.04
1003.654	1089.15
1003.949	1097.29
1004.243	1064.97
1004.538	1073.79
1004.832	1054.58
1005.127	1038.76
1005.421	1047.12
1005.715	1034.46
1006.009	1041.02
1006.304	1047.35
1006.598	1032.43
1006.892	1025.88
1007.186	1037.85
1007.48	1015.26
1007.773	1019.1
1008.067	1013
1008.361	1022.49
1008.655	988.59
1008.948	987.91
1009.242	970.29
1009.535	991.3
1009.829	990.85
1010.122	984.3
1010.415	994.92
1010.708	969.83
1011.001	955.37
1011.295	974.13
1011.588	952.66
1011.881	964.86
1012.173	970.06
1012.466	960.34
1012.759	948.36
1013.052	932.09
1013.344	951.53
1013.637	918.76
1013.93	926.44
1014.222	918.76
1014.514	898.42
1014.807	909.72
1015.099	910.4
1015.391	931.64
1015.683	912.66
1015.976	880.8
1016.268	874.69
1016.56	888.48
1016.851	901.59
1017.143	863.4
1017.435	884.41
1017.727	867.24
1018.018	847.8
1018.31	881.25
1018.602	855.49
1018.893	845.99
1019.185	862.04
1019.476	828.37
1019.767	840.35
1020.058	853
1020.35	836.73
1020.641	823.62
1020.932	806.22
1021.223	814.81
1021.514	819.55
1021.804	824.98
1022.095	832.21
1022.386	811.42
1022.677	779.56
1022.967	794.24
1023.258	785.43
1023.548	798.09
1023.839	796.73
1024.129	798.99
1024.419	784.75
1024.709	782.72
1025	780.01
1025.29	764.19
1025.58	758.09
1025.87	730.74
1026.16	768.03
1026.449	760.57
1026.739	734.13
1027.029	771.42
1027.319	752.66
1027.608	761.7
1027.898	758.77
1028.187	740.46
1028.477	716.96
1028.766	707.69
1029.055	713.34
1029.344	722.61
1029.634	705.21
1029.923	700.46
1030.212	719.67
1030.501	712.21
1030.79	693.46
1031.078	712.21
1031.367	699.11
1031.656	692.1
1031.945	673.57
1032.233	665.66
1032.522	693
1032.81	688.94
1033.099	668.15
1033.387	681.25
1033.675	653.68
1033.963	666.56
1034.251	674.7
1034.54	671.54
1034.828	643.06
1035.116	639.9
1035.403	644.87
1035.691	685.32
1035.979	644.19
1036.267	641.03
1036.554	623.85
1036.842	614.81
1037.129	629.28
1037.417	629.73
1037.704	615.04
1037.992	604.65
1038.279	610.75
1038.566	602.84
1038.853	602.84
1039.14	602.84
