Data from tablewood_brown_FLMS001491_096.txt Node
Date: Tue Feb 07 11:11:18 GMT 2017
User: dcchb
Spectrometer: FLMS00149
Trigger mode: 0
Integration Time (sec): 2.000000E-2
Scans to average: 10
Electric dark correction enabled: true
Nonlinearity correction enabled: false
Boxcar width: 0
XAxis mode: Wavelengths
Number of Pixels in Spectrum: 2048
>>>>>Begin Spectral Data<<<<<
341.393	-0.06
341.776	-0.06
342.16	-0.06
342.543	-54.74
342.927	-70.56
343.31	-65.14
343.693	-74.63
344.077	-67.17
344.46	-56.78
344.843	-54.07
345.226	-22.43
345.61	-24.24
345.993	-33.73
346.376	-14.07
346.759	27.29
347.142	28.19
347.525	35.65
347.908	57.57
348.291	81.3
348.674	87.62
349.057	94.63
349.44	109.09
349.823	145.02
350.206	189.09
350.588	201.75
350.971	216.89
351.354	231.35
351.737	231.12
352.119	249.43
352.502	248.3
352.884	276.77
353.267	280.84
353.65	288.75
354.032	283.78
354.414	315.42
354.797	318.35
355.179	319.03
355.562	321.29
355.944	344.79
356.326	331.69
356.709	338.24
357.091	355.64
357.473	364.23
357.855	347.73
358.238	350.22
358.62	356.54
359.002	345.7
359.384	339.82
359.766	350.44
360.148	352.48
360.53	361.52
360.912	337.34
361.294	332.59
361.676	350.44
362.057	350.44
362.439	313.83
362.821	358.58
363.203	344.12
363.584	335.3
363.966	344.79
364.348	346.38
364.729	334.85
365.111	347.73
365.493	340.27
365.874	337.11
366.256	347.5
366.637	331.69
367.019	333.04
367.4	338.69
367.781	330.78
368.163	316.09
368.544	330.33
368.925	321.74
369.306	340.27
369.688	328.07
370.069	334.62
370.45	325.81
370.831	333.72
371.212	339.82
371.593	339.82
371.974	350.44
372.355	335.98
372.736	349.76
373.117	327.17
373.498	342.31
373.879	331.91
374.26	332.59
374.641	327.39
375.021	312.25
375.402	336.66
375.783	347.73
376.163	334.85
376.544	359.48
376.925	354.06
377.305	354.28
377.686	363.1
378.066	357.9
378.447	368.97
378.827	349.76
379.208	365.36
379.588	359.03
379.968	359.71
380.349	373.27
380.729	378.01
381.109	368.3
381.489	379.37
381.87	399.48
382.25	364.45
382.63	360.16
383.01	396.32
383.39	393.38
383.77	362.42
384.15	383.66
384.53	399.48
384.91	403.32
385.29	386.37
385.67	409.88
386.049	396.77
386.429	381.18
386.809	396.54
387.189	389.31
387.568	403.77
387.948	401.74
388.328	422.08
388.707	406.94
389.087	410.78
389.466	426.6
389.846	424.11
390.225	425.92
390.605	420.5
390.984	405.58
391.363	427.5
391.743	433.83
392.122	432.47
392.501	434.28
392.881	429.08
393.26	434.51
393.639	450.1
394.018	469.99
394.397	458.46
394.776	451.23
395.155	438.12
395.534	470.67
395.913	466.82
396.292	477.45
396.671	483.32
397.05	476.77
397.429	485.35
397.808	488.52
398.186	469.54
398.565	501.4
398.944	492.81
399.323	500.72
399.701	503.21
400.08	502.3
400.458	497.78
400.837	512.47
401.215	525.35
401.594	498.69
401.972	534.17
402.351	518.57
402.729	514.28
403.107	526.71
403.486	534.39
403.864	516.99
404.242	537.56
404.62	531.45
404.999	553.15
405.377	556.31
405.755	552.92
406.133	561.96
406.511	583.43
406.889	580.49
407.267	585.92
407.645	592.92
408.023	605.58
408.401	587.05
408.779	593.15
409.156	603.09
409.534	614.62
409.912	586.59
410.29	621.85
410.667	631.79
411.045	630.66
411.422	640.15
411.8	632.24
412.178	653.49
412.555	658.91
412.933	671.79
413.31	686.93
413.687	682.19
414.065	670.89
414.442	686.25
414.819	693.71
415.197	702.3
415.574	705.01
415.951	708.63
416.328	726.93
416.705	731.9
417.082	711.11
417.46	724.67
417.837	728.06
418.214	748.62
418.591	769.41
418.967	738.91
419.344	749.08
419.721	772.58
420.098	782.75
420.475	763.54
420.852	798.34
421.228	780.71
421.605	781.39
421.982	792.47
422.358	802.18
422.735	802.41
423.111	815.52
423.488	859.36
423.864	818.68
424.241	853.25
424.617	838.57
424.994	861.16
425.37	825.91
425.746	879.02
426.123	883.31
426.499	871.33
426.875	889.86
427.251	893.48
427.627	907.94
428.003	913.37
428.379	934.61
428.756	933.7
429.132	950.43
429.507	950.2
429.883	973.7
430.259	985.68
430.635	981.84
431.011	992.23
431.387	992.01
431.763	999.47
432.138	1022.29
432.514	1032.01
432.89	1036.75
433.265	1084.21
433.641	1064.55
434.016	1084.89
434.392	1112.23
434.767	1103.42
435.143	1109.52
435.518	1115.62
435.894	1144.32
436.269	1143.87
436.644	1150.2
437.02	1166.01
437.395	1169.63
437.77	1199.23
438.145	1197.88
438.52	1206.24
438.895	1204.88
439.271	1229.74
439.646	1255.5
440.021	1250.53
440.395	1286.01
440.77	1276.52
441.145	1280.14
441.52	1332.34
441.895	1312.45
442.27	1312.23
442.645	1350.87
443.019	1326.46
443.394	1342.51
443.769	1366.46
444.143	1335.73
444.518	1357.65
444.892	1358.78
445.267	1404.65
445.641	1402.39
446.016	1407.59
446.39	1413.01
446.764	1440.36
447.139	1407.59
447.513	1454.59
447.887	1424.54
448.262	1451.2
448.636	1438.78
449.01	1464.54
449.384	1469.96
449.758	1476.74
450.132	1492.11
450.506	1537.08
450.88	1519.9
451.254	1535.72
451.628	1532.56
452.002	1577.08
452.376	1555.38
452.75	1620.01
453.123	1593.57
453.497	1624.99
453.871	1631.09
454.244	1660.01
454.618	1665.21
454.992	1688.03
455.365	1667.7
455.739	1717.86
456.112	1749.05
456.486	1766
456.859	1782.5
457.232	1807.13
457.606	1774.59
457.979	1824.98
458.352	1856.17
458.725	1859.1
459.099	1889.84
459.472	1935.03
459.845	1912.66
460.218	1982.04
460.591	1953.56
460.964	2004.18
461.337	2048.48
461.71	2048.25
462.083	2072.88
462.456	2090.74
462.829	2104.29
463.201	2177.51
463.574	2141.36
463.947	2209.38
464.32	2235.36
464.692	2227.46
465.065	2262.48
465.438	2320.11
465.81	2356.49
466.183	2353.78
466.555	2383.38
466.928	2459.99
467.3	2437.17
467.672	2501.35
468.045	2549.26
468.417	2505.64
468.789	2570.72
469.161	2624.73
469.534	2704.05
469.906	2724.17
470.278	2713.54
470.65	2777.5
471.022	2868.12
471.394	2884.16
471.766	2912.86
472.138	2940.66
472.51	2999.64
472.882	3073.99
473.253	3116.47
473.625	3187.43
473.997	3228.56
474.369	3312.85
474.74	3316.01
475.112	3369.35
475.484	3480.3
475.855	3497.25
476.227	3533.64
476.598	3656.57
476.97	3673.29
477.341	3787.41
477.713	3887.75
478.084	3906.06
478.455	4029.89
478.827	4052.49
479.198	4188.08
479.569	4160.51
479.94	4327.74
480.311	4390.56
480.682	4448.87
481.053	4561.86
481.424	4685.47
481.795	4692.48
482.166	4787.16
482.537	4871.45
482.908	4973.6
483.279	5018.34
483.65	5169.75
484.021	5260.37
484.391	5315.28
484.762	5397.77
485.133	5460.36
485.503	5528.16
485.874	5680.92
486.244	5718.66
486.615	5833.69
486.985	5911.88
487.356	6022.84
487.726	6059.9
488.097	6175.15
488.467	6261.47
488.837	6356.84
489.207	6444.52
489.578	6598.87
489.948	6614.01
490.318	6731.74
490.688	6731.29
491.058	6857.16
491.428	6937.39
491.798	7040.21
492.168	7167.89
492.538	7200.66
492.908	7242.92
493.278	7374.89
493.648	7451.5
494.017	7511.38
494.387	7588.22
494.757	7633.64
495.126	7738.05
495.496	7791.83
495.866	7831.38
496.235	7943.46
496.605	8021.43
496.974	8058.49
497.344	8146.17
497.713	8261.2
498.082	8254.19
498.452	8359.72
498.821	8468.42
499.19	8408.31
499.559	8532.15
499.928	8586.61
500.298	8688.75
500.667	8755.19
501.036	8789.09
501.405	8817.79
501.774	8926.71
502.143	9000.84
502.512	9061.85
502.88	9136.88
503.249	9085.13
503.618	9197.22
503.987	9248.29
504.356	9377.1
504.724	9465.46
505.093	9464.33
505.462	9480.6
505.83	9557.43
506.199	9681.5
506.567	9829.06
506.936	9793.36
507.304	9845.56
507.672	9959.68
508.041	9981.38
508.409	10103.86
508.777	10198.32
509.145	10271.31
509.514	10323.97
509.882	10377.3
510.25	10450.97
510.618	10545.2
510.986	10611.64
511.354	10725.76
511.722	10836.04
512.09	10917.85
512.458	10869.26
512.826	10978.41
513.193	11095.7
513.561	11181.12
513.929	11277.16
514.297	11345.41
514.664	11522.8
515.032	11501.11
515.4	11722.12
515.767	11685.51
516.135	11774.55
516.502	11765.74
516.869	12007.31
517.237	12059.51
517.604	12061.55
517.972	12202.56
518.339	12357.81
518.706	12430.13
519.073	12538.6
519.44	12586.73
519.808	12708.99
520.175	12675.54
520.542	12965.25
520.909	12992.14
521.276	13075.08
521.643	13188.75
522.009	13303.1
522.376	13399.59
522.743	13449.53
523.11	13616.08
523.477	13781.95
523.843	13837.32
524.21	14048.39
524.577	14081.16
524.943	14138.33
525.31	14260.59
525.676	14490.64
526.043	14494.03
526.409	14555.04
526.776	14799.78
527.142	14829.16
527.508	14946.67
527.874	15084.74
528.241	15122.71
528.607	15180.34
528.973	15395.47
529.339	15372.65
529.705	15631.85
530.071	15750.49
530.437	15745.97
530.803	15789.81
531.169	15861.45
531.535	15924.5
531.901	16045.62
532.267	16112.29
532.632	16329.46
532.998	16296.01
533.364	16462.56
533.73	16514.76
534.095	16597.47
534.461	16626.17
534.826	16770.58
535.192	16919.05
535.557	16989.55
535.923	17121.98
536.288	17161.75
536.653	17298.02
537.019	17231.81
537.384	17257.34
537.749	17387.51
538.114	17429.77
538.479	17426.83
538.845	17601.51
539.21	17548.18
539.575	17724.22
539.94	17689.42
540.305	17836.31
540.67	17839.02
541.034	18018.9
541.399	17998.11
541.764	18024.78
542.129	18083.99
542.494	18241.72
542.858	18283.3
543.223	18279.91
543.587	18479.01
543.952	18377.99
544.316	18437.42
544.681	18521.72
545.045	18667.02
545.41	18788.38
545.774	18722.16
546.138	18866.34
546.503	18877.64
546.867	18982.27
547.231	19174.13
547.595	19162.83
547.959	19177.97
548.324	19246.67
548.688	19282.15
549.052	19390.17
549.416	19529.37
549.779	19520.79
550.143	19785.19
550.507	19748.58
550.871	19877.39
551.235	19897.5
551.599	19987.21
551.962	20170.49
552.326	20162.8
552.689	20411.84
553.053	20335.45
553.417	20330.03
553.78	20695.67
554.143	20690.92
554.507	20832.16
554.87	21020.18
555.234	21136.11
555.597	21174.53
555.96	21226.5
556.323	21356.9
556.686	21480.96
557.05	21599.15
557.413	21700.39
557.776	21883.21
558.139	22018.35
558.502	22205.01
558.865	22296.76
559.228	22454.72
559.59	22550.31
559.953	22809.06
560.316	22983.29
560.679	22961.83
561.041	23189.39
561.404	23413.57
561.767	23480.91
562.129	23661.47
562.492	23870.05
562.854	23944.17
563.217	24046.77
563.579	24103.49
563.941	24437.04
564.304	24536.47
564.666	24728.78
565.028	24937.37
565.39	25018.04
565.753	25204.7
566.115	25331.03
566.477	25450.8
566.839	25659.83
567.201	25918.58
567.563	26073.38
567.925	26311.34
568.287	26382.75
568.648	26477.67
569.01	26778.22
569.372	27027.93
569.734	26956.75
570.095	27250.53
570.457	27380.01
570.819	27549.95
571.18	27652.78
571.542	27885.09
571.903	28115.14
572.265	28279.2
572.626	28454.11
572.987	28586.76
573.349	28778.17
573.71	28841.67
574.071	29054.09
574.432	29229.23
574.794	29492.5
575.155	29525.04
575.516	29630.58
575.877	29921.19
576.238	29905.6
576.599	30376.77
576.96	30324.57
577.32	30377.22
577.681	30516.2
578.042	30766.59
578.403	30821.73
578.763	30987.83
579.124	31073.02
579.485	31343.07
579.845	31423.98
580.206	31368.16
580.566	31455.39
580.927	31582.62
581.287	31825.55
581.648	31616.97
582.008	31911.42
582.368	31950.29
582.728	32047.46
583.089	32160.91
583.449	32205.65
583.809	32246.1
584.169	32331.75
584.529	32270.73
584.889	32720.21
585.249	32626.66
585.609	32570.61
585.969	32709.14
586.329	32648.8
586.688	32804.28
587.048	32837.95
587.408	32872.98
587.768	32856.03
588.127	32900.32
588.487	32854.45
588.846	33020.09
589.206	32905.29
589.565	32995.91
589.925	33238.17
590.284	33204.95
590.643	33190.26
591.003	33372.17
591.362	33501.89
591.721	33350.71
592.08	33427.31
592.44	33536.69
592.799	33537.59
593.158	33513.41
593.517	33484.49
593.876	33586.18
594.235	33504.6
594.593	33666.4
594.952	33668.66
595.311	33593.18
595.67	33794.54
596.029	33862.56
596.387	33862.1
596.746	33972.84
597.104	33860.3
597.463	33783.46
597.822	33937.36
598.18	33853.52
598.538	33858.04
598.897	33957.69
599.255	33838.6
599.613	34357.91
599.972	34056
600.33	33969.22
600.688	34096
601.046	34168.76
601.404	34320.62
601.762	34288.08
602.12	34495.99
602.478	34414.63
602.836	34337.8
603.194	34356.1
603.552	34325.59
603.91	34261.19
604.268	34452.37
604.625	34232.94
604.983	34441.98
605.341	34271.58
605.698	34545.25
606.056	34485.82
606.413	34471.81
606.771	34635.42
607.128	34674.29
607.485	34611.91
607.843	34606.27
608.2	34766.04
608.557	34938.91
608.914	34772.14
609.272	34914.51
609.629	35038.12
609.986	35112.69
610.343	35003.32
610.7	35207.15
611.057	35109.3
611.414	35138.45
611.771	35111.11
612.127	35214.38
612.484	35208.96
612.841	35400.59
613.198	35196.76
613.554	35324.21
613.911	35638.33
614.267	35452.12
614.624	35450.54
614.98	35556.07
615.337	35637.88
615.693	35592
616.05	35600.82
616.406	35763.75
616.762	35672.23
617.118	35709.51
617.475	35776.4
617.831	35775.95
618.187	35869.96
618.543	35806.91
618.899	36067.02
619.255	35970.98
619.611	36006.91
619.967	36035.38
620.323	36192.89
620.678	35888.04
621.034	36015.72
621.39	35885.1
621.746	36012.56
622.101	36247.13
622.457	35960.81
622.812	36070.86
623.168	36291.42
623.523	36214.58
623.879	36212.32
624.234	35851.43
624.589	36164.19
624.945	36130.74
625.3	36229.5
625.655	36203.51
626.01	36278.76
626.365	36207.58
626.72	36137.3
627.075	36198.54
627.43	36176.85
627.785	36088.49
628.14	36146.34
628.495	36134.59
628.85	36112.21
629.205	36010.75
629.559	36212.1
629.914	35970.07
630.269	36069.28
630.623	35913.58
630.978	35965.55
631.332	36124.87
631.687	36034.7
632.041	35883.52
632.396	36008.71
632.75	35851.43
633.104	35883.52
633.459	35690.76
633.813	35752.9
634.167	35678.33
634.521	35730.3
634.875	35794.48
635.229	35680.81
635.583	35499.12
635.937	35401.27
636.291	35570.31
636.645	35550.42
636.999	35450.31
637.352	35545.45
637.706	35243.08
638.06	35427.03
638.413	35180.26
638.767	35190.88
639.121	35265.46
639.474	35131.68
639.828	35143.2
640.181	35202.63
640.534	35186.14
640.888	34955.41
641.241	34920.38
641.594	34903.88
641.947	35097.33
642.301	34930.32
642.654	35037.67
643.007	34946.6
643.36	34961.96
643.713	34921.96
644.066	34963.32
644.419	34622.99
644.771	34464.8
645.124	34309.1
645.477	34173.06
645.83	33933.74
646.182	33876.57
646.535	33729.45
646.888	33699.62
647.24	33635.44
647.593	33778.26
647.945	33669.57
648.298	33505.73
648.65	33425.28
649.002	33408.56
649.355	33630.92
649.707	33543.92
650.059	33634.77
650.411	34178.03
650.763	34072.49
651.115	34505.7
651.467	34452.37
651.819	34349.77
652.171	34281.53
652.523	34157.46
652.875	34235.65
653.227	33968.09
653.578	34276.56
653.93	34211.93
654.282	33992.5
654.633	33899.62
654.985	34085.15
655.337	34131.48
655.688	34000.63
656.039	34140.06
656.391	33795.67
656.742	34069.33
657.094	33991.37
657.445	34100.06
657.796	33995.66
658.147	33862.78
658.498	34002.89
658.849	34021.65
659.2	33814.2
659.551	33984.81
659.902	34011.7
660.253	33964.47
660.604	33939.62
660.955	33943.23
661.306	34053.96
661.656	33961.31
662.007	33943.46
662.358	33905.49
662.708	33940.97
663.059	33738.04
663.409	33672.5
663.76	33976.68
664.11	33813.74
664.461	33912.72
664.811	33835.44
665.161	33832.05
665.511	33701.66
665.862	33784.59
666.212	33781.2
666.562	33738.94
666.912	33972.61
667.262	33810.58
667.612	33928.99
667.962	33967.19
668.312	33817.36
668.662	33908.88
669.011	33726.97
669.361	33731.94
669.711	33636.35
670.06	33574.43
670.41	33605.84
670.76	33594.31
671.109	33689.23
671.459	33604.94
671.808	33507.09
672.157	33537.37
672.507	33359.29
672.856	33440.65
673.205	33573.75
673.554	33568.1
673.904	33429.8
674.253	33640.41
674.602	33459.4
674.951	32928.34
675.3	32801.11
675.649	33452.17
675.998	33187.32
676.346	33309.12
676.695	33432.51
677.044	32982.13
677.393	33211.27
677.741	33183.48
678.09	33221.22
678.438	32991.62
678.787	32965.86
679.135	33085.18
679.484	32834.79
679.832	32953.65
680.181	32701.23
680.529	32899.87
680.877	32743.26
681.225	32713.66
681.573	32896.25
681.922	32600.89
682.27	32600.89
682.618	32637.5
682.966	32510.73
683.314	32616.49
683.661	32421.24
684.009	32323.16
684.357	32253.78
684.705	32271.64
685.053	32338.75
685.4	32131.98
685.748	32018.54
686.095	31883.4
686.443	31710.07
686.79	31671.88
687.138	31661.48
687.485	31596.85
687.832	31501.26
688.18	31600.02
688.527	31469.17
688.874	31314.6
689.221	31422.85
689.568	31226.69
689.915	31153.7
690.262	31220.59
690.609	31153.7
690.956	30953.93
691.303	30941.28
691.65	30840.71
691.997	30786.7
692.344	30573.15
692.69	30479.37
693.037	30586.94
693.383	30222.88
693.73	30365.92
694.077	30158.92
694.423	30094.52
694.769	29994.18
695.116	29995.31
695.462	30013.84
695.808	29836
696.155	29923.9
696.501	29564.36
696.847	29650.24
697.193	29344.48
697.539	29484.82
697.885	29297.48
698.231	29135.22
698.577	29208.67
698.923	29063.13
699.269	28936.36
699.614	28817.26
699.96	28699.98
700.306	28789.47
700.651	28495.01
700.997	28448.01
701.342	28432.19
701.688	28440.78
702.033	28344.96
702.379	28148.13
702.724	28130.73
703.069	28147.23
703.415	27879.89
703.76	27822.94
704.105	27771.19
704.45	27702.27
704.795	27468.15
705.14	27549.95
705.485	27508.6
705.83	27352.9
706.175	27379.56
706.52	27222.05
706.865	27178.44
707.209	27043.75
707.554	26968.5
707.899	27104.32
708.243	26856.19
708.588	26719.47
708.932	26618.23
709.277	26768.05
709.621	26581.84
709.966	26519.25
710.31	26576.42
710.654	26286.48
710.998	26263.43
711.342	26391.57
711.687	26333.71
712.031	26073.38
712.375	26009.66
712.719	25955.19
713.063	25980.5
713.407	26152.48
713.75	25889.88
714.094	25866.83
714.438	25741.19
714.782	25748.42
715.125	25686.5
715.469	25712.26
715.812	25557.69
716.156	25529.22
716.499	25547.97
716.843	25481.76
717.186	25381.65
717.53	25514.3
717.873	25513.85
718.216	25361.31
718.559	25292.39
718.902	25070.02
719.246	25238.38
719.589	25161.09
719.932	25016.23
720.275	25119.06
720.617	25098.72
720.96	24969.23
721.303	25056.69
721.646	25015.1
721.989	24829.57
722.331	25005.84
722.674	24905.5
723.016	24882
723.359	24897.37
723.701	24937.14
724.044	24669.35
724.386	24683.14
724.729	24653.53
725.071	24644.04
725.413	24618.05
725.755	24587.77
726.097	24491.95
726.439	24408.34
726.782	24525.4
727.124	24524.72
727.465	24430.94
727.807	24410.15
728.149	24456.25
728.491	24322.02
728.833	24552.97
729.175	24461.67
729.516	24286.76
729.858	24350.26
730.199	24386.42
730.541	24265.52
730.882	24292.19
731.224	24326.08
731.565	24112.98
731.906	24292.19
732.248	24200.66
732.589	24195.01
732.93	24060.33
733.271	24084.51
733.612	24163.6
733.953	24156.6
734.294	23998.86
734.635	24042.02
734.976	24098.74
735.317	23945.98
735.658	24087.22
735.999	24049.93
736.339	23959.99
736.68	24046.32
737.021	24046.32
737.361	23919.09
737.702	24107.11
738.042	23950.05
738.383	24042.02
738.723	23953.89
739.063	23869.82
739.404	23996.15
739.744	23968.35
740.084	23715.25
740.424	23918.41
740.764	23905.76
741.104	23972.87
741.444	23796.83
741.784	23801.58
742.124	23872.31
742.464	23889.48
742.804	23858.3
743.143	23847.45
743.483	23743.5
743.823	23739.88
744.162	23787.57
744.502	23874.57
744.841	23731.52
745.181	23827.34
745.52	23707.79
745.86	23742.14
746.199	23735.36
746.538	23782.14
746.877	23717.96
747.216	23743.5
747.556	23708.25
747.895	23693.78
748.234	23496.05
748.573	23656.27
748.911	23616.95
749.25	23594.58
749.589	23459.89
749.928	23611.98
750.267	23586.44
750.605	23530.17
750.944	23498.99
751.283	23408.59
751.621	23591.87
751.96	23377.86
752.298	23412.89
752.636	23496.27
752.975	23420.34
753.313	23322.49
753.651	23462.15
753.989	23242.5
754.327	23280.91
754.666	23105.32
755.004	23199.11
755.342	23264.64
755.679	23134.48
756.017	23105.32
756.355	23167.24
756.693	23116.17
757.031	23085.21
757.368	22976.97
757.706	22906.91
758.044	22804.99
758.381	22948.04
758.719	22720.93
759.056	22800.02
759.394	22706.69
759.731	22676.18
760.068	22494.04
760.405	22539.46
760.743	22447.71
761.08	22526.58
761.417	22326.81
761.754	22206.82
762.091	22332.24
762.428	22284.1
762.765	22085.24
763.102	22269.41
763.438	22056.99
763.775	21977.44
764.112	21904.23
764.449	21947.62
764.785	21882.31
765.122	21785.13
765.458	21694.29
765.795	21617.91
766.131	21679.6
766.467	21628.75
766.804	21437.57
767.14	21446.61
767.476	21317.35
767.812	21139.27
768.148	21201.42
768.485	20998.26
768.821	20950.13
769.157	20987.41
769.492	20991.03
769.828	20957.36
770.164	20770.02
770.5	20721.66
770.836	20683.92
771.171	20600.31
771.507	20510.14
771.842	20424.27
772.178	20315.57
772.513	20338.62
772.849	20318.28
773.184	20150.83
773.519	20183.59
773.855	20055.91
774.19	19984.5
774.525	19893.88
774.86	19865.64
775.195	19819.54
775.53	19701.35
775.865	19597.17
776.2	19536.38
776.535	19432.43
776.87	19438.53
777.205	19276.72
777.539	19302.03
777.874	19236.95
778.209	19118.08
778.543	19073.11
778.878	18836.51
779.212	19022.49
779.547	18867.7
779.881	18852.1
780.215	18720.58
780.55	18718.77
780.884	18641.26
781.218	18554.26
781.552	18499.34
781.886	18405.79
782.22	18339.8
782.554	18269.29
782.888	18141.84
783.222	18083.99
783.556	18073.37
783.889	18032.92
784.223	17903.65
784.557	17876.31
784.89	17853.71
785.224	17798.8
785.557	17696.2
785.891	17632.7
786.224	17535.75
786.558	17595.64
786.891	17468.18
787.224	17438.81
787.557	17245.14
787.891	17243.56
788.224	17268.42
788.557	17128.98
788.89	17133.28
789.223	17109.1
789.556	16978.25
789.888	16912.04
790.221	16913.4
790.554	16792.72
790.887	16747.75
791.219	16563.58
791.552	16691.48
791.884	16582.11
792.217	16572.39
792.549	16516.57
792.882	16402.45
793.214	16313.19
793.546	16279.74
793.879	16255.56
794.211	16098.5
794.543	16239.29
794.875	16122.68
795.207	16160.87
795.539	16013.53
795.871	16042.01
796.203	15859.87
796.535	15816.25
796.867	15783.71
797.198	15745.74
797.53	15821
797.862	15677.5
798.193	15601.12
798.525	15444.51
798.856	15490.16
799.188	15382.82
799.519	15319.99
799.85	15169.71
800.182	15240.9
800.513	15233.22
800.844	15142.14
801.175	15197.28
801.506	15179.66
801.837	14995.93
802.168	14977.63
802.499	14980.34
802.83	14910.51
803.161	14831.42
803.491	14846.56
803.822	14846.78
804.153	14690.4
804.483	14700.8
804.814	14517.75
805.145	14574.48
805.475	14556.85
805.805	14469.62
806.136	14570.63
806.466	14494.03
806.796	14485.66
807.126	14306.01
807.457	14344.43
807.787	14331.77
808.117	14185.79
808.447	14186.92
808.777	14226.24
809.107	14093.81
809.436	14037.09
809.766	14088.16
810.096	14064.66
810.426	13985.79
810.755	13986.02
811.085	13907.37
811.414	13859.47
811.744	13837.55
812.073	13743.76
812.403	13760.71
812.732	13666.25
813.061	13696.98
813.39	13582.19
813.719	13595.97
814.049	13588.06
814.378	13554.62
814.707	13533.6
815.036	13487.27
815.365	13406.14
815.693	13297.45
816.022	13333.6
816.351	13221.52
816.68	13186.26
817.008	13272.14
817.337	13207.05
817.665	13079.15
817.994	13123.21
818.322	13152.59
818.651	13044.8
818.979	13054.29
819.307	12981.75
819.636	13066.49
819.964	12964.57
820.292	12969.77
820.62	12998.02
820.948	12892.49
821.276	12876.89
821.604	12922.09
821.932	13003.9
822.259	12944.69
822.587	12840.06
822.915	12835.09
823.243	12956.89
823.57	12810.23
823.898	12928.42
824.225	12849.32
824.553	12893.62
824.88	12838.02
825.207	12984.23
825.535	12870.79
825.862	12938.36
826.189	12819.72
826.516	12865.59
826.843	12947.85
827.17	12904.69
827.497	12918.7
827.824	12838.7
828.151	12896.55
828.478	12844.13
828.805	12963.67
829.131	12849.1
829.458	12724.58
829.785	12759.16
830.111	12812.49
830.438	12858.36
830.764	12950.56
831.09	12882.54
831.417	12748.08
831.743	12817.01
832.069	12718.25
832.395	12678.25
832.722	12710.8
833.048	12674.86
833.374	12764.81
833.7	12767.74
834.026	12726.84
834.351	12667.18
834.677	12645.26
835.003	12690.46
835.329	12665.37
835.654	12642.32
835.98	12623.11
836.306	12576.79
836.631	12464.93
836.956	12528.65
837.282	12688.42
837.607	12532.5
837.932	12488.43
838.258	12438.94
838.583	12383.35
838.908	12440.52
839.233	12402.1
839.558	12390.8
839.883	12312.84
840.208	12322.33
840.533	12257.47
840.858	12290.24
841.182	12351.26
841.507	12232.84
841.832	12226.97
842.156	12172.05
842.481	12217.48
842.805	12137.25
843.13	12038.95
843.454	12105.84
843.778	12021.1
844.103	12058.38
844.427	11986.07
844.751	12059.06
845.075	11893.42
845.399	11900.65
845.723	11866.3
846.047	11926.86
846.371	11805.51
846.695	11728.67
847.019	11728.22
847.343	11619.75
847.666	11591.5
847.99	11492.52
848.313	11439.64
848.637	11444.84
848.96	11384.95
849.284	11342.7
849.607	11242.13
849.931	11325.97
850.254	11162.81
850.577	11120.1
850.9	11083.04
851.223	11062.25
851.546	11036.94
851.869	10967.34
852.192	11007.56
852.515	10886.89
852.838	10851.41
853.161	10824.07
853.483	10798.08
853.806	10778.64
854.129	10716.27
854.451	10676.27
854.774	10691.87
855.096	10530.51
855.419	10558.54
855.741	10512.44
856.063	10477.86
856.385	10506.11
856.708	10470.85
857.03	10411.65
857.352	10420.01
857.674	10360.35
857.996	10279.22
858.318	10335.26
858.64	10230.63
858.961	10273.12
859.283	10235.15
859.605	10187.25
859.926	10220.92
860.248	10191.31
860.57	10097.53
860.891	10109.51
861.212	10060.92
861.534	10140.02
861.855	9986.12
862.176	9982.05
862.498	9990.87
862.819	10031.77
863.14	9885.11
863.461	9953.13
863.782	9860.93
864.103	9879.23
864.424	9796.97
864.745	9865.22
865.065	9814.37
865.386	9861.15
865.707	9787.71
866.027	9800.14
866.348	9748.61
866.668	9798.56
866.989	9713.36
867.309	9635.85
867.63	9634.27
867.95	9618
868.27	9577.77
868.59	9649.41
868.91	9620.48
869.23	9660.93
869.55	9542.29
869.87	9604.21
870.19	9587.71
870.51	9524.44
870.83	9541.84
871.15	9458.68
871.469	9509.07
871.789	9447.6
872.109	9434.05
872.428	9488.51
872.748	9446.7
873.067	9506.36
873.386	9413.93
873.706	9388.17
874.025	9372.35
874.344	9326.03
874.663	9340.04
874.982	9355.63
875.301	9315.63
875.62	9273.6
875.939	9208.06
876.258	9280.6
876.577	9264.78
876.896	9201.51
877.214	9178.91
877.533	9211.68
877.852	9174.39
878.17	9193.15
878.489	9160.38
878.807	9163.32
879.125	9148.86
879.444	9100.04
879.762	9115.64
880.08	9151.34
880.398	9013.94
880.716	9073.38
881.034	9036.77
881.352	8963.55
881.67	8937.79
881.988	8972.81
882.306	8941.18
882.624	8961.52
882.941	8995.64
883.259	8884.91
883.577	8843.78
883.894	8816.21
884.212	8808.3
884.529	8748.41
884.846	8804.23
885.164	8741.18
885.481	8734.86
885.798	8762.88
886.115	8731.01
886.432	8681.52
886.75	8570.34
887.067	8701.41
887.383	8534.63
887.7	8661.64
888.017	8576.22
888.334	8591.58
888.651	8585.48
888.967	8550
889.284	8498.03
889.6	8448.76
889.917	8394.98
890.233	8437.91
890.55	8387.29
890.866	8407.41
891.182	8375.54
891.498	8333.28
891.815	8305.04
892.131	8325.83
892.447	8312.95
892.763	8257.58
893.079	8218.26
893.395	8248.31
893.71	8203.57
894.026	8158.6
894.342	8105.95
894.657	8101.43
894.973	8056.68
895.289	8032.27
895.604	8026.63
895.92	7916.57
896.235	7907.08
896.55	7944.37
896.865	7954.08
897.181	7832.51
897.496	7838.83
897.811	7845.84
898.126	7818.04
898.441	7792.06
898.756	7760.42
899.071	7732.17
899.386	7721.32
899.7	7647.2
900.015	7643.58
900.33	7626.41
900.644	7553.42
900.959	7591.16
901.273	7595.68
901.588	7516.13
901.902	7511.38
902.216	7456.47
902.531	7416.47
902.845	7422.57
903.159	7377.38
903.473	7359.75
903.787	7322.69
904.101	7258.96
904.415	7243.82
904.729	7261.45
905.042	7236.82
905.356	7182.81
905.67	7202.47
905.984	7150.04
906.297	7098.74
906.611	7049.02
906.924	7030.72
907.237	7017.16
907.551	7058.51
907.864	6985.07
908.177	6934
908.491	6977.16
908.804	6901.23
909.117	6824.62
909.43	6825.3
909.743	6833.44
910.056	6837.28
910.368	6796.37
910.681	6708.02
910.994	6673.21
911.307	6652.2
911.619	6619.66
911.932	6646.55
912.244	6592.76
912.557	6579.88
912.869	6531.3
913.181	6492.43
913.494	6480.9
913.806	6437.74
914.118	6449.27
914.43	6407.46
914.742	6425.54
915.054	6365.88
915.366	6368.14
915.678	6335.37
915.99	6293.11
916.302	6246.56
916.613	6243.85
916.925	6195.03
917.236	6213.57
917.548	6138.31
917.859	6170.63
918.171	6067.13
918.482	6076.39
918.794	6122.72
919.105	6025.32
919.416	5994.81
919.727	6016.51
920.038	5955.49
920.349	5922.5
920.66	5896.29
920.971	5930.41
921.282	5887.47
921.593	5825.33
921.903	5821.94
922.214	5781.94
922.525	5746.91
922.835	5729.96
923.146	5645.44
923.456	5721.6
923.767	5680.7
924.077	5649.96
924.387	5586.46
924.697	5631.89
925.008	5598.89
925.318	5532.91
925.628	5560.48
925.938	5517.76
926.248	5498.33
926.558	5465.56
926.867	5421.04
927.177	5394.15
927.487	5391.44
927.796	5348.73
928.106	5350.99
928.416	5322.74
928.725	5306.92
929.034	5261.05
929.344	5269.64
929.653	5272.35
929.962	5152.8
930.271	5177.21
930.581	5182.18
930.89	5178.11
931.199	5112.58
931.508	5084.56
931.817	5132.46
932.125	5120.49
932.434	5071.45
932.743	5042.75
933.051	4979.93
933.36	4980.15
933.669	4982.86
933.977	4912.58
934.286	4975.63
934.594	4839.14
934.902	4828.97
935.21	4849.08
935.519	4859.25
935.827	4807.05
936.135	4785.58
936.443	4804.11
936.751	4744.45
937.059	4714.62
937.367	4690.22
937.674	4677.33
937.982	4661.52
938.29	4638.47
938.597	4626.26
938.905	4593.5
939.213	4602.76
939.52	4562.31
939.827	4580.61
940.135	4539.49
940.442	4516.66
940.749	4533.16
941.056	4527.73
941.363	4474.85
941.67	4415.19
941.977	4458.13
942.284	4381.07
942.591	4390.56
942.898	4366.61
943.205	4370.9
943.511	4323.22
943.818	4309.43
944.125	4241.19
944.431	4305.59
944.738	4276.22
945.044	4254.97
945.35	4167.97
945.657	4191.25
945.963	4241.64
946.269	4178.14
946.575	4151.47
946.881	4156.22
947.187	4106.05
947.493	4140.4
947.799	4064.92
948.105	4073.28
948.41	4031.48
948.716	4067.63
949.022	4025.37
949.327	4010.46
949.633	3958.48
949.938	3981.99
950.244	3961.87
950.549	3937.69
950.854	3929.33
951.16	3890.91
951.465	3876.68
951.77	3821.09
952.075	3852.27
952.38	3841.2
952.685	3844.14
952.99	3777.25
953.294	3763.01
953.599	3826.28
953.904	3778.15
954.209	3702.67
954.513	3719.62
954.818	3744.7
955.122	3663.12
955.426	3676.23
955.731	3620.19
956.035	3633.52
956.339	3634.42
956.643	3579.96
956.948	3562.56
957.252	3568.66
957.556	3575.67
957.86	3555.56
958.163	3548.32
958.467	3505.16
958.771	3490.7
959.075	3483.92
959.378	3492.28
959.682	3478.27
959.985	3470.59
960.289	3428.33
960.592	3419.97
960.896	3404.83
961.199	3339.52
961.502	3360.31
961.805	3349.69
962.108	3316.47
962.411	3337.93
962.714	3296.35
963.017	3326.64
963.32	3325.96
963.623	3340.42
963.926	3292.74
964.228	3235.79
964.531	3213.64
964.833	3275.34
965.136	3228.33
965.438	3163.48
965.741	3214.1
966.043	3173.87
966.345	3165.74
966.648	3153.53
966.95	3163.02
967.252	3106.3
967.554	3060.88
967.856	3089.81
968.158	3069.69
968.46	3069.24
968.761	3048
969.063	3043.71
969.365	3020.43
969.666	3005.74
969.968	2980.88
970.269	2984.95
970.571	2947.66
970.872	2934.78
971.174	2932.52
971.475	2943.37
971.776	2936.14
972.077	2886.65
972.378	2873.31
972.679	2902.24
972.98	2865.86
973.281	2884.39
973.582	2850.94
973.883	2854.78
974.183	2845.52
974.484	2826.54
974.785	2813.88
975.085	2819.98
975.386	2766.65
975.686	2764.39
975.986	2718.97
976.287	2730.04
976.587	2690.95
976.887	2687.56
977.187	2730.04
977.487	2701.79
977.787	2629.93
978.087	2631.06
978.387	2671.96
978.687	2627.45
978.987	2644.85
979.286	2595.13
979.586	2627.67
979.885	2580.89
980.185	2563.27
980.484	2552.87
980.784	2553.55
981.083	2560.33
981.382	2556.94
981.682	2566.88
981.981	2522.59
982.28	2513.55
982.579	2536.6
982.878	2489.37
983.177	2495.92
983.475	2462.48
983.774	2449.6
984.073	2413.89
984.372	2440.33
984.67	2436.04
984.969	2414.34
985.267	2443.95
985.566	2418.19
985.864	2372.76
986.162	2371.63
986.461	2382.03
986.759	2389.26
987.057	2335.48
987.355	2354.01
987.653	2344.51
987.951	2328.47
988.249	2304.29
988.547	2271.75
988.844	2267
989.142	2248.92
989.44	2270.84
989.737	2267.45
990.035	2247.57
990.332	2256.61
990.63	2210.28
990.927	2210.51
991.224	2191.52
991.521	2193.33
991.819	2187.46
992.116	2173.67
992.413	2156.72
992.71	2125.99
993.006	2131.86
993.303	2106.33
993.6	2117.4
993.897	2125.09
994.193	2109.27
994.49	2098.19
994.787	2082.15
995.083	2069.49
995.379	2060
995.676	2057.06
995.972	2075.37
996.268	2035.14
996.565	2009.38
996.861	2011.87
997.157	2016.39
997.453	2007.57
997.749	1958.76
998.044	1966.67
998.34	2002.15
998.636	1987.46
998.932	1949.27
999.227	1928.48
999.523	1903.85
999.818	1916.5
1000.114	1917.18
1000.409	1888.71
1000.704	1881.25
1001	1884.41
1001.295	1861.59
1001.59	1857.97
1001.885	1826.11
1002.18	1825.21
1002.475	1803.29
1002.77	1847.58
1003.065	1797.18
1003.359	1771.87
1003.654	1799.9
1003.949	1811.42
1004.243	1794.92
1004.538	1745.89
1004.832	1722.84
1005.127	1773.68
1005.421	1730.29
1005.715	1694.81
1006.009	1716.96
1006.304	1716.73
1006.598	1705.21
1006.892	1675.15
1007.186	1690.75
1007.48	1651.65
1007.773	1633.8
1008.067	1653.46
1008.361	1654.14
1008.655	1624.08
1008.948	1638.32
1009.242	1615.49
1009.535	1600.81
1009.829	1611.88
1010.122	1603.29
1010.415	1589.73
1010.708	1588.6
1011.001	1563.07
1011.295	1554.7
1011.588	1551.09
1011.881	1520.13
1012.173	1527.13
1012.466	1533.24
1012.759	1509.96
1013.052	1504.54
1013.344	1511.54
1013.637	1510.19
1013.93	1492.11
1014.222	1485.78
1014.514	1467.25
1014.807	1417.99
1015.099	1460.02
1015.391	1446.91
1015.683	1400.36
1015.976	1426.12
1016.268	1409.4
1016.56	1411.43
1016.851	1400.36
1017.143	1397.65
1017.435	1406.01
1017.727	1370.53
1018.018	1368.04
1018.31	1351.32
1018.602	1347.7
1018.893	1332.11
1019.185	1332.11
1019.476	1342.73
1019.767	1353.58
1020.058	1321.72
1020.35	1306.35
1020.641	1282.17
1020.932	1289.85
1021.223	1283.07
1021.514	1275.84
1021.804	1217.54
1022.095	1246.46
1022.386	1206.24
1022.677	1222.96
1022.967	1226.8
1023.258	1236.07
1023.548	1239.23
1023.839	1222.06
1024.129	1200.82
1024.419	1196.52
1024.709	1152.46
1025	1179.35
1025.29	1171.21
1025.58	1154.49
1025.87	1170.99
1026.16	1146.81
1026.449	1155.17
1026.739	1126.92
1027.029	1118.56
1027.319	1107.03
1027.608	1133.25
1027.898	1108.16
1028.187	1085.11
1028.477	1070.2
1028.766	1103.64
1029.055	1075.17
1029.344	1066.36
1029.634	1063.42
1029.923	1077.88
1030.212	1047.37
1030.501	1056.19
1030.79	1046.47
1031.078	1035.4
1031.367	1029.75
1031.656	1031.78
1031.945	1006.7
1032.233	1017.54
1032.522	1005.11
1032.81	986.36
1033.099	1002.63
1033.387	1008.5
1033.675	994.49
1033.963	976.19
1034.251	981.16
1034.54	955.17
1034.828	957.88
1035.116	927.38
1035.403	978.45
1035.691	925.79
1035.979	949.98
1036.267	904.78
1036.554	918.34
1036.842	928.73
1037.129	905.46
1037.417	909.07
1037.704	875.63
1037.992	909.52
1038.279	890.54
1038.566	893.48
1038.853	893.48
1039.14	893.48
