Data from tablewood_brown_FLMS001491_087.txt Node
Date: Tue Feb 07 11:11:08 GMT 2017
User: dcchb
Spectrometer: FLMS00149
Trigger mode: 0
Integration Time (sec): 2.000000E-2
Scans to average: 10
Electric dark correction enabled: true
Nonlinearity correction enabled: false
Boxcar width: 0
XAxis mode: Wavelengths
Number of Pixels in Spectrum: 2048
>>>>>Begin Spectral Data<<<<<
341.393	-20.28
341.776	-20.28
342.16	-20.28
342.543	-79.04
342.927	-73.61
343.31	-66.61
343.693	-66.38
344.077	-58.47
344.46	-64.57
344.843	-54.63
345.226	-57.12
345.61	-25.71
345.993	-15.08
346.376	-8.53
346.759	-9.43
347.142	47.51
347.525	31.69
347.908	71.47
348.291	71.24
348.674	84.35
349.057	120.28
349.44	128.64
349.823	147.62
350.206	172.26
350.588	207.51
350.971	198.7
351.354	221.07
351.737	226.94
352.119	256.09
352.502	255.42
352.884	282.53
353.267	296.32
353.65	284.57
354.032	291.35
354.414	299.26
354.797	306.94
355.179	330.67
355.562	312.36
355.944	331.12
356.326	328.41
356.709	317.79
357.091	343.55
357.473	361.85
357.855	353.27
358.238	318.92
358.62	351.01
359.002	358.01
359.384	356.43
359.766	352.82
360.148	339.26
360.53	350.56
360.912	344.23
361.294	331.57
361.676	341.97
362.057	338.58
362.439	328.18
362.821	329.09
363.203	335.87
363.584	310.33
363.966	344.23
364.348	342.65
364.729	341.06
365.111	323.89
365.493	321.86
365.874	322.53
366.256	329.54
366.637	313.72
367.019	324.79
367.4	308.75
367.781	319.37
368.163	343.78
368.544	328.18
368.925	320.27
369.306	322.53
369.688	328.41
370.069	308.52
370.45	358.01
370.831	340.84
371.212	334.06
371.593	309.43
371.974	323.66
372.355	336.32
372.736	325.7
373.117	325.7
373.498	309.43
373.879	345.58
374.26	329.77
374.641	346.26
375.021	321.63
375.402	341.52
375.783	338.35
376.163	337.67
376.544	337.45
376.925	346.49
377.305	349.65
377.686	337.45
378.066	341.29
378.447	346.94
378.827	343.55
379.208	363.89
379.588	377.9
379.968	361.18
380.349	349.65
380.729	349.65
381.109	374.51
381.489	356.66
381.87	355.3
382.25	377.67
382.63	353.27
383.01	376.09
383.39	365.92
383.77	368.18
384.15	381.97
384.53	384.68
384.91	365.92
385.29	375.87
385.67	362.08
386.049	392.14
386.429	391.91
386.809	399.82
387.189	396.43
387.568	386.26
387.948	383.32
388.328	391.68
388.707	398.69
389.087	398.69
389.466	413.6
389.846	396.88
390.225	424.45
390.605	412.02
390.984	403.66
391.363	418.8
391.743	430.55
392.122	431.46
392.501	422.42
392.881	430.33
393.26	439.14
393.639	444.79
394.018	436.88
394.397	434.62
394.776	447.5
395.155	443.89
395.534	454.28
395.913	463.32
396.292	458.8
396.671	454.73
397.05	472.36
397.429	492.47
397.808	498.12
398.186	451.8
398.565	473.04
398.944	475.07
399.323	477.11
399.701	480.95
400.08	491.12
400.458	508.07
400.837	499.25
401.215	502.19
401.594	501.51
401.972	494.51
402.351	501.29
402.729	506.94
403.107	521.85
403.486	506.26
403.864	526.14
404.242	534.05
404.62	526.82
404.999	522.3
405.377	540.38
405.755	548.29
406.133	554.84
406.511	554.17
406.889	584.67
407.267	547.16
407.645	564.79
408.023	584.45
408.401	591.23
408.779	570.44
409.156	590.32
409.534	610.66
409.912	608.85
410.29	620.61
410.667	616.31
411.045	583.32
411.422	626.93
411.8	626.25
412.178	654.95
412.555	645.24
412.933	656.31
413.31	682.98
413.687	691.79
414.065	655.86
414.442	672.36
414.819	664.9
415.197	680.26
415.574	697.67
415.951	696.99
416.328	680.72
416.705	674.39
417.082	691.56
417.46	701.28
417.837	721.17
418.214	699.47
418.591	735.63
418.967	739.02
419.344	732.69
419.721	754.16
420.098	727.04
420.475	742.64
420.852	749.87
421.228	760.26
421.605	775.4
421.982	784.89
422.358	791.67
422.735	775.63
423.111	778.34
423.488	801.62
423.864	781.73
424.241	822.86
424.617	822.86
424.994	848.4
425.37	826.93
425.746	821.73
426.123	845.68
426.499	851.56
426.875	862.63
427.251	867.83
427.627	881.84
428.003	880.71
428.379	910.77
428.756	919.13
429.132	895.4
429.507	877.77
429.883	913.93
430.259	949.18
430.635	946.92
431.011	955.96
431.387	967.71
431.763	999.13
432.138	969.97
432.514	995.28
432.89	1008.17
433.265	1006.13
433.641	1020.37
434.016	1044.55
434.392	1054.27
434.767	1064.44
435.143	1056.75
435.518	1086.36
435.894	1096.3
436.269	1120.7
436.644	1123.87
437.02	1133.59
437.395	1147.14
437.77	1167.26
438.145	1174.26
438.52	1145.56
438.895	1160.48
439.271	1194.38
439.646	1208.84
440.021	1203.64
440.395	1224.21
440.77	1241.83
441.145	1223.3
441.52	1261.72
441.895	1271.89
442.27	1250.19
442.645	1270.98
443.019	1292.23
443.394	1308.27
443.769	1284.32
444.143	1302.62
444.518	1310.76
444.892	1321.83
445.267	1309.85
445.641	1364.54
446.016	1331.77
446.39	1367.03
446.764	1339.68
447.139	1341.72
447.513	1370.87
447.887	1403.18
448.262	1405.22
448.636	1396.4
449.01	1381.49
449.384	1424.65
449.758	1439.34
450.132	1460.36
450.506	1460.81
450.88	1449.06
451.254	1474.14
451.628	1479.34
452.002	1508.72
452.376	1533.35
452.75	1561.15
453.123	1517.98
453.497	1582.16
453.871	1576.29
454.244	1615.16
454.618	1599.11
454.992	1621.93
455.365	1616.96
455.739	1655.15
456.112	1684.53
456.486	1713.46
456.859	1732.44
457.232	1743.97
457.606	1738.99
457.979	1739.45
458.352	1809.27
458.725	1835.71
459.099	1849.5
459.472	1863.96
459.845	1877.75
460.218	1898.54
460.591	1919.33
460.964	1927.46
461.337	1956.16
461.71	2003.39
462.083	2028.48
462.456	2026.44
462.829	2036.16
463.201	2047.69
463.574	2111.87
463.947	2109.15
464.32	2138.31
464.692	2167.23
465.065	2185.54
465.438	2241.35
465.81	2244.52
466.183	2269.38
466.555	2328.58
466.928	2345.98
467.3	2350.73
467.672	2389.82
468.045	2459.43
468.417	2500.33
468.789	2462.82
469.161	2511.4
469.534	2587.11
469.906	2631.17
470.278	2635.47
470.65	2686.99
471.022	2727.22
471.394	2766.99
471.766	2843.15
472.138	2851.05
472.51	2952.75
472.882	2936.02
473.253	3014.89
473.625	3067.77
473.997	3110.26
474.369	3189.58
474.74	3216.92
475.112	3284.94
475.484	3347.09
475.855	3407.88
476.227	3459.17
476.598	3528.78
476.97	3577.82
477.341	3673.86
477.713	3714.54
478.084	3767.64
478.455	3858.49
478.827	3898.03
479.198	4014.41
479.569	4077.92
479.94	4168.99
480.311	4228.87
480.682	4345.48
481.053	4427.51
481.424	4497.57
481.795	4586.6
482.166	4633.16
482.537	4746.15
482.908	4768.52
483.279	4899.36
483.65	5034.5
484.021	5123.09
484.391	5140.71
484.762	5215.96
485.133	5292.35
485.503	5339.35
485.874	5493.47
486.244	5575.73
486.615	5607.59
486.985	5699.12
487.356	5852.78
487.726	5837.19
488.097	5966.45
488.467	6033.8
488.837	6175.04
489.207	6250.97
489.578	6298.2
489.948	6389.49
490.318	6478.76
490.688	6526.66
491.058	6636.72
491.428	6726.43
491.798	6815.02
492.168	6905.19
492.538	6983.15
492.908	7090.49
493.278	7147.44
493.648	7165.97
494.017	7253.88
494.387	7356.47
494.757	7467.88
495.126	7449.13
495.496	7511.05
495.866	7611.38
496.235	7652.74
496.605	7824.03
496.974	7863.8
497.344	7901.77
497.713	7912.84
498.082	8022.9
498.452	8085.49
498.821	8207.75
499.19	8161.88
499.559	8259.05
499.928	8315.09
500.298	8405.94
500.667	8424.02
501.036	8493.39
501.405	8594.86
501.774	8590.57
502.143	8660.17
502.512	8774.06
502.88	8795.53
503.249	8824.46
503.618	8906.71
503.987	8995.07
504.356	9062.87
504.724	9089.99
505.093	9049.31
505.462	9224.45
505.83	9256.31
506.199	9289.53
506.567	9472.8
506.936	9450.2
507.304	9602.52
507.672	9557.55
508.041	9662.63
508.409	9785.79
508.777	9877.99
509.145	9966.8
509.514	9983.3
509.882	10059.45
510.25	10133.8
510.618	10155.27
510.986	10247.92
511.354	10346.9
511.722	10431.42
512.09	10514.58
512.458	10547.58
512.826	10677.74
513.193	10737.18
513.561	10710.74
513.929	10917.51
514.297	10974.68
514.664	11111.63
515.032	11142.14
515.4	11219.65
515.767	11272.08
516.135	11373.54
516.502	11286.54
516.869	11494.67
517.237	11635.23
517.604	11649.69
517.972	11803.14
518.339	11870.03
518.706	11922.91
519.073	12027.54
519.44	12187.31
519.808	12274.76
520.175	12275.21
520.542	12449.67
520.909	12494.42
521.276	12543.91
521.643	12702.32
522.009	12735.54
522.376	12899.6
522.743	12953.61
523.11	13141.18
523.477	13214.4
523.843	13331.91
524.21	13473.83
524.577	13628.85
524.943	13672.92
525.31	13749.98
525.676	13881.73
526.043	13945.45
526.409	14100.93
526.776	14246.91
527.142	14308.38
527.508	14303.18
527.874	14425.44
528.241	14596.06
528.607	14633.8
528.973	14798.54
529.339	14773.45
529.705	14949.04
530.071	15031.07
530.437	15139.77
530.803	15297.96
531.169	15387.22
531.535	15288.69
531.901	15510.38
532.267	15560.1
532.632	15642.81
532.998	15695.46
533.364	15846.65
533.73	15835.57
534.095	15933.87
534.461	16019.52
534.826	16122.8
535.192	16177.48
535.557	16315.11
535.923	16271.49
536.288	16367.54
536.653	16439.4
537.019	16474.65
537.384	16537.93
537.749	16632.84
538.114	16791.48
538.479	16705.15
538.845	16850.91
539.21	16873.96
539.575	16964.58
539.94	17077.8
540.305	17226.27
540.67	17036.44
541.034	17137.68
541.399	17259.04
541.764	17385.81
542.129	17506.04
542.494	17433.27
542.858	17478.02
543.223	17584.9
543.587	17678.01
543.952	17578.58
544.316	17816.99
544.681	17788.74
545.045	17816.54
545.41	17935.18
545.774	18069.86
546.138	18054.5
546.503	18044.55
546.867	18215.62
547.231	18370.65
547.595	18295.39
547.959	18402.51
548.324	18481.38
548.688	18423.3
549.052	18509.85
549.416	18702.84
549.779	18696.29
550.143	18729.73
550.507	18925.21
550.871	19020.8
551.235	19097.86
551.599	19280
551.962	19291.75
552.326	19329.72
552.689	19544.63
553.053	19479.77
553.417	19601.35
553.78	19873.66
554.143	19856.71
554.507	19903.04
554.87	20126.98
555.234	20284.72
555.597	20190.03
555.96	20316.36
556.323	20465.73
556.686	20609.91
557.05	20763.8
557.413	20874.31
557.776	20905.04
558.139	21139.39
558.502	21203.79
558.865	21334.86
559.228	21509.1
559.59	21606.49
559.953	21713.84
560.316	22026.37
560.679	21978.69
561.041	22202.18
561.404	22415.06
561.767	22496.87
562.129	22550.2
562.492	22814.37
562.854	22832
563.217	22875.16
563.579	23149.96
563.941	23320.8
564.304	23492.32
564.666	23711.75
565.028	23887.11
565.39	23899.77
565.753	24151.06
566.115	24231.06
566.477	24489.13
566.839	24560.09
567.201	24906.29
567.563	24920.31
567.925	25073.3
568.287	25285.27
568.648	25355.32
569.01	25548.31
569.372	25794.41
569.734	25852.48
570.095	25952.59
570.457	26267.84
570.819	26432.81
571.18	26589.41
571.542	26708.05
571.903	26872.57
572.265	27087.71
572.626	27230.75
572.987	27285.44
573.349	27383.29
573.71	27747.35
574.071	27821.47
574.432	28009.04
574.794	28395.92
575.155	28398.63
575.516	28420.78
575.877	28661.45
576.238	28773.99
576.599	28866.19
576.96	29035.45
577.32	29091.27
577.681	29302.56
578.042	29408.55
578.403	29483.12
578.763	29651.48
579.124	29771.25
579.485	29936.22
579.845	30100.28
580.206	30035.42
580.566	30259.6
580.927	30227.96
581.287	30411.69
581.648	30517.9
582.008	30629.99
582.368	30651.45
582.728	30799.02
583.089	30728.51
583.449	30965.34
583.809	30927.6
584.169	31075.85
584.529	30990.43
584.889	31344.32
585.249	31225.68
585.609	31167.6
585.969	31428.38
586.329	31330.98
586.688	31505.89
587.048	31476.74
587.408	31602.84
587.768	31561.49
588.127	31638.55
588.487	31590.19
588.846	31847.35
589.206	31580.7
589.565	31685.55
589.925	31846
590.284	31985.66
590.643	32022.49
591.003	32155.82
591.362	32154.24
591.721	32053.45
592.08	31998.76
592.44	32062.49
592.799	32225.42
593.158	32323.27
593.517	32280.56
593.876	32220
594.235	32102.04
594.593	32221.58
594.952	32341.13
595.311	32225.65
595.67	32361.01
596.029	32559.43
596.387	32622.7
596.746	32609.82
597.104	32508.35
597.463	32542.7
597.822	32523.72
598.18	32475.81
598.538	32610.27
598.897	32777.95
599.255	32508.35
599.613	32803.26
599.972	32759.42
600.33	32833.77
600.688	32769.82
601.046	32897.95
601.404	32885.97
601.762	32850.04
602.12	33086.19
602.478	33161.22
602.836	33240.09
603.194	32890.94
603.552	33096.59
603.91	32933.2
604.268	33074.89
604.625	33017.49
604.983	33083.25
605.341	32899.76
605.698	33140.43
606.056	33241.89
606.413	33192.4
606.771	33259.29
607.128	33458.39
607.485	33196.7
607.843	33324.15
608.2	33482.34
608.557	33556.01
608.914	33386.75
609.272	33651.6
609.629	33643.92
609.986	33737.93
610.343	33643.69
610.7	33767.53
611.057	33740.86
611.414	33723.69
611.771	33767.53
612.127	33966.85
612.484	33894.08
612.841	34074.41
613.198	33892.05
613.554	33938.37
613.911	34155.32
614.267	34091.36
614.624	34113.74
614.98	34141.76
615.337	34315.99
615.693	34203.9
616.05	34263.34
616.406	34419.72
616.762	34199.38
617.118	34208.42
617.475	34430.34
617.831	34554.4
618.187	34569.54
618.543	34564.57
618.899	34714.17
619.255	34590.56
619.611	34569.32
619.967	34773.15
620.323	34754.62
620.678	34634.85
621.034	34570.9
621.39	34601.41
621.746	34513.73
622.101	34934.51
622.457	34662.87
622.812	34848.63
623.168	34889.76
623.523	34690.67
623.879	34986.48
624.234	34746.71
624.589	34919.14
624.945	34814.06
625.3	34912.13
625.655	34699.71
626.01	34752.82
626.365	34884.34
626.72	34756.2
627.075	34841.17
627.43	34824.45
627.785	34725.02
628.14	34879.82
628.495	34779.48
628.85	34752.59
629.205	34635.76
629.559	34884.79
629.914	34639.6
630.269	34579.26
630.623	34565.25
630.978	34543.1
631.332	34684.79
631.687	34746.49
632.041	34545.14
632.396	34568.64
632.75	34473.73
633.104	34486.61
633.459	34380.62
633.813	34402.77
634.167	34328.65
634.521	34362.77
634.875	34259.95
635.229	34281.64
635.583	34149.89
635.937	34218.82
636.291	34204.35
636.645	34211.81
636.999	34139.05
637.352	34186.5
637.706	33970.01
638.06	34065.83
638.413	33984.02
638.767	33843.69
639.121	34026.73
639.474	33687.98
639.828	33757.81
640.181	33758.04
640.534	33783.12
640.888	33668.78
641.241	33531.6
641.594	33605.73
641.947	33727.53
642.301	33596.46
642.654	33683.92
643.007	33683.92
643.36	33593.98
643.713	33414.09
644.066	33770.24
644.419	33413.19
644.771	33206.42
645.124	33062.24
645.477	33012.75
645.83	32743.83
646.182	32671.97
646.535	32615.24
646.888	32479.2
647.24	32353.78
647.593	32552.65
647.945	32416.38
648.298	32316.49
648.65	32358.75
649.002	32169.83
649.355	32282.15
649.707	32215.03
650.059	32500.9
650.411	32858.63
650.763	32803.26
651.115	33285.96
651.467	33116.25
651.819	33039.41
652.171	33055.68
652.523	32939.3
652.875	32966.87
653.227	32935.46
653.578	33045.06
653.93	32941.56
654.282	32814.11
654.633	32807.33
654.985	32818.4
655.337	32963.71
655.688	32875.8
656.039	32946.53
656.391	32794.45
656.742	32714.68
657.094	32937.27
657.445	32920.09
657.796	32832.19
658.147	32815.01
658.498	32784.73
658.849	32827.44
659.2	32903.82
659.551	32683.04
659.902	32883.26
660.253	32810.49
660.604	32882.36
660.955	32733.89
661.306	32758.29
661.656	32678.29
662.007	32735.47
662.358	32617.28
662.708	32731.85
663.059	32645.3
663.409	32427.68
663.76	32659.99
664.11	32669.03
664.461	32630.61
664.811	32825.86
665.161	32794.45
665.511	32543.61
665.862	32800.55
666.212	32754.9
666.562	32763.94
666.912	32540.67
667.262	32643.04
667.612	32701.12
667.962	32694.79
668.312	32562.59
668.662	32673.1
669.011	32621.12
669.361	32589.48
669.711	32511.74
670.06	32530.95
670.41	32454.8
670.76	32470.62
671.109	32542.48
671.459	32455.47
671.808	32347.68
672.157	32472.2
672.507	32256.16
672.856	32379.32
673.205	32296.16
673.554	32420.22
673.904	32339.09
674.253	32485.98
674.602	32417.96
674.951	31850.52
675.3	31666.79
675.649	32383.16
675.998	32234.46
676.346	32280.11
676.695	32347
677.044	32014.13
677.393	32051.42
677.741	32132.54
678.09	32009.38
678.438	31774.81
678.787	31863.17
679.135	31884.87
679.484	31688.94
679.832	31885.32
680.181	31642.39
680.529	31755.83
680.877	31736.17
681.225	31605.33
681.573	31843.06
681.922	31565.1
682.27	31539.34
682.618	31450.75
682.966	31384.54
683.314	31430.42
683.661	31299.12
684.009	31106.36
684.357	30990.2
684.705	31178.45
685.053	31194.04
685.4	31015.74
685.748	30916.76
686.095	30819.36
686.443	30762.86
686.79	30765.35
687.138	30830.66
687.485	30633.15
687.832	30616.65
688.18	30541.4
688.527	30365.59
688.874	30427.51
689.221	30325.81
689.568	30195.87
689.915	30128.3
690.262	30236.32
690.609	30058.02
690.956	30013.96
691.303	29957.69
691.65	29850.57
691.997	29722.44
692.344	29548.88
692.69	29504.14
693.037	29618.26
693.383	29326.97
693.73	29541.2
694.077	29230.02
694.423	29243.81
694.769	29022.8
695.116	29118.16
695.462	28889.47
695.808	28925.17
696.155	28893.53
696.501	28720.66
696.847	28643.15
697.193	28428.24
697.539	28399.99
697.885	28312.76
698.231	28258.97
698.577	28136.04
698.923	28121.8
699.269	27889.27
699.614	27782.6
699.96	27739.44
700.306	27632.32
700.651	27590.74
700.997	27501.03
701.342	27449.96
701.688	27589.61
702.033	27297.64
702.379	27361.37
702.724	27124.77
703.069	27156.63
703.415	26960.03
703.76	26843.42
704.105	26901.04
704.45	26720.03
704.795	26631.67
705.14	26522.75
705.485	26579.02
705.83	26364.56
706.175	26469.19
706.52	26321.62
706.865	26212.47
707.209	26195.3
707.554	26150.1
707.899	26228.97
708.243	26003.89
708.588	26036.89
708.932	25754.41
709.277	25851.13
709.621	25743.33
709.966	25656.56
710.31	25784.24
710.654	25454.08
710.998	25430.57
711.342	25395.09
711.687	25242.33
712.031	25181.99
712.375	25089.11
712.719	25263.8
713.063	25136.8
713.407	25229.9
713.75	25099.51
714.094	24986.07
714.438	25047.99
714.782	24960.08
715.125	24758.73
715.469	24982.9
715.812	24793.98
716.156	24735.23
716.499	24645.96
716.843	24738.62
717.186	24578.85
717.53	24659.75
717.873	24697.94
718.216	24556.02
718.559	24503.59
718.902	24314.67
719.246	24337.04
719.589	24214.79
719.932	24123.49
720.275	24265.18
720.617	24222.47
720.96	24072.19
721.303	24177.05
721.646	24181.12
721.989	24027.9
722.331	24099.76
722.674	24117.61
723.016	24071.51
723.359	23964.17
723.701	24076.03
724.044	23930.27
724.386	23833.1
724.729	23979.31
725.071	23883.72
725.413	23896.6
725.755	23784.29
726.097	23758.98
726.439	23632.66
726.782	23727.79
727.124	23829.26
727.465	23636.72
727.807	23715.37
728.149	23668.36
728.491	23556.95
728.833	23723.05
729.175	23598.98
729.516	23648.93
729.858	23558.99
730.199	23689.38
730.541	23656.38
730.882	23536.84
731.224	23573.9
731.565	23541.13
731.906	23582.94
732.248	23443.28
732.589	23370.06
732.93	23426.79
733.271	23351.76
733.612	23478.54
733.953	23569.83
734.294	23459.1
734.635	23384.75
734.976	23525.09
735.317	23391.98
735.658	23339.78
735.999	23411.42
736.339	23334.36
736.68	23371.65
737.021	23221.59
737.361	23295.04
737.702	23445.54
738.042	23282.61
738.383	23245.32
738.723	23231.99
739.063	23214.59
739.404	23374.58
739.744	23160.8
740.084	23142.05
740.424	23174.14
740.764	23196.73
741.104	23345.66
741.444	23242.38
741.784	23128.04
742.124	23212.55
742.464	23206.45
742.804	23217.98
743.143	23190.41
743.483	23289.84
743.823	23112.22
744.162	23095.49
744.502	23195.15
744.841	23011.65
745.181	23119.45
745.52	23061.82
745.86	23065.89
746.199	23015.95
746.538	23018.21
746.877	23102.05
747.216	23165.1
747.556	23011.43
747.895	23079.68
748.234	23053.01
748.573	22994.25
748.911	22981.83
749.25	22902.73
749.589	22935.05
749.928	22995.16
750.267	23082.61
750.605	22925.78
750.944	22963.52
751.283	22842.62
751.621	22982.73
751.96	22902.05
752.298	22811.21
752.636	22913.13
752.975	22693.47
753.313	22802.39
753.651	22845.78
753.989	22670.19
754.327	22608.5
754.666	22462.97
755.004	22485.11
755.342	22672.45
755.679	22565.56
756.017	22321.5
756.355	22545.45
756.693	22391.78
757.031	22444.44
757.368	22358.34
757.706	22365.34
758.044	22188.85
758.381	22205.35
758.719	22205.35
759.056	22202.18
759.394	22123.09
759.731	22004.45
760.068	22044
760.405	21999.03
760.743	21866.6
761.08	21945.92
761.417	21789.77
761.754	21785.92
762.091	21677
762.428	21601.3
762.765	21542.54
763.102	21583.44
763.438	21452.83
763.775	21426.61
764.112	21494.18
764.449	21468.64
764.785	21347.07
765.122	21161.99
765.458	21110.46
765.795	21142.55
766.131	21041.09
766.467	20959.51
766.804	20882.9
767.14	20922.44
767.476	20770.36
767.812	20803.13
768.148	20752.28
768.485	20619.85
768.821	20591.83
769.157	20526.52
769.492	20409.69
769.828	20333.76
770.164	20138.28
770.5	20083.37
770.836	20098.51
771.171	20085.4
771.507	19984.62
771.842	19919.31
772.178	19878.63
772.513	19759.76
772.849	19737.84
773.184	19637.05
773.519	19681.8
773.855	19643.61
774.19	19618.98
774.525	19471.63
774.86	19429.15
775.195	19326.1
775.53	19305.76
775.865	19169.5
776.2	19022.83
776.535	18950.52
776.87	18911.42
777.205	18849.96
777.539	18713.01
777.874	18773.12
778.209	18613.8
778.543	18565.22
778.878	18473.24
779.212	18447.93
779.547	18300.14
779.881	18451.55
780.215	18260.82
780.55	18310.08
780.884	18218.33
781.218	18041.16
781.552	18125
781.886	18062.18
782.22	17988.74
782.554	17829.87
782.888	17739.03
783.222	17644.34
783.556	17616.54
783.889	17507.17
784.223	17423.1
784.557	17477.11
784.89	17427.85
785.224	17379.71
785.557	17291.81
785.891	17146.95
786.224	17142.2
786.558	17130.68
786.891	17034.18
787.224	16965.26
787.557	16881.19
787.891	16820.63
788.224	16755.55
788.557	16788.09
788.89	16713.74
789.223	16627.87
789.556	16567.98
789.888	16506.06
790.221	16436.46
790.554	16364.6
790.887	16293.19
791.219	16305.84
791.552	16260.42
791.884	16142
792.217	16108.56
792.549	16044.61
792.882	15931.16
793.214	15870.83
793.546	15917.83
793.879	15855.91
794.211	15728
794.543	15786.31
794.875	15666.31
795.207	15826.98
795.539	15638.74
795.871	15640.1
796.203	15578.4
796.535	15411.63
796.867	15426.77
797.198	15420.67
797.53	15357.84
797.862	15275.36
798.193	15210.73
798.525	15174.12
798.856	15174.8
799.188	15005.31
799.519	14932.55
799.85	14876.05
800.182	14856.16
800.513	14851.87
800.844	14754.92
801.175	14885.99
801.506	14835.15
801.837	14761.02
802.168	14721.48
802.499	14647.13
802.83	14570.52
803.161	14518.77
803.491	14580.24
803.822	14522.16
804.153	14465.89
804.483	14322.17
804.814	14325.78
805.145	14300.92
805.475	14182.28
805.805	14159.68
806.136	14180.47
806.466	14102.28
806.796	14156.07
807.126	14000.37
807.457	13917.66
807.787	13938.67
808.117	13930.31
808.447	13885.12
808.777	13811.44
809.107	13738.9
809.436	13728.28
809.766	13709.75
810.096	13712.69
810.426	13630.88
810.755	13646.48
811.085	13626.14
811.414	13604.44
811.744	13506.37
812.073	13502.98
812.403	13427.27
812.732	13419.36
813.061	13387.28
813.39	13262.53
813.719	13295.75
814.049	13337.33
814.378	13280.61
814.707	13212.36
815.036	13251.91
815.365	13147.96
815.693	12992.48
816.022	13013.5
816.351	12930.34
816.68	12916.1
817.008	12916.55
817.337	12840.62
817.665	12816.89
817.994	12859.61
818.322	12844.46
818.651	12800.17
818.979	12765.14
819.307	12792.94
819.636	12630.91
819.964	12616.22
820.292	12707.29
820.62	12629.78
820.948	12603.57
821.276	12617.13
821.604	12606.5
821.932	12594.98
822.259	12560.86
822.587	12628.43
822.915	12604.92
823.243	12603.11
823.57	12564.25
823.898	12513.4
824.225	12521.76
824.553	12541.65
824.88	12591.36
825.207	12537.35
825.535	12527.18
825.862	12532.83
826.189	12514.3
826.516	12594.3
826.843	12597.69
827.17	12557.01
827.497	12572.38
827.824	12517.69
828.151	12655.77
828.478	12488.32
828.805	12639.27
829.131	12567.18
829.458	12475.66
829.785	12433.18
830.111	12526.96
830.438	12568.31
830.764	12555.43
831.09	12544.81
831.417	12475.89
831.743	12456
832.069	12503.68
832.395	12437.7
832.722	12567.64
833.048	12462.1
833.374	12446.06
833.7	12357.25
834.026	12461.65
834.351	12423.68
834.677	12466.17
835.003	12493.97
835.329	12405.15
835.654	12429.33
835.98	12326.74
836.306	12333.52
836.631	12316.34
836.956	12389.11
837.282	12416.68
837.607	12244.93
837.932	12220.3
838.258	12263.69
838.583	12230.7
838.908	12169
839.233	12135.56
839.558	12058.04
839.883	12059.17
840.208	12004.03
840.533	12137.14
840.858	12091.94
841.182	12068.21
841.507	12098.27
841.832	11919.52
842.156	11897.6
842.481	11950.25
842.805	11907.99
843.13	11894.66
843.454	11862.8
843.778	11848.11
844.103	11855.34
844.427	11692.63
844.751	11725.17
845.075	11700.54
845.399	11659.41
845.723	11660.77
846.047	11517.04
846.371	11478.17
846.695	11509.13
847.019	11452.64
847.343	11429.13
847.666	11310.72
847.99	11291.06
848.313	11313.43
848.637	11150.27
848.96	11191.17
849.284	11174.45
849.607	11074.12
849.931	11044.74
850.254	10973.33
850.577	10868.47
850.9	10805.65
851.223	10838.87
851.546	10859.43
851.869	10710.06
852.192	10715.25
852.515	10640.23
852.838	10665.09
853.161	10541.47
853.483	10578.99
853.806	10549.84
854.129	10571.08
854.451	10467.58
854.774	10481.81
855.096	10382.16
855.419	10301.48
855.741	10325.89
856.063	10279.79
856.385	10248.83
856.708	10297.19
857.03	10171.77
857.352	10254.93
857.674	10159.56
857.996	10156.4
858.318	10065.78
858.64	10109.4
858.961	10083.41
859.283	10063.52
859.605	10014.93
859.926	10036.85
860.248	9955.05
860.57	9861.04
860.891	9952.11
861.212	9864.2
861.534	9842.51
861.855	9860.14
862.176	9819.23
862.498	9760.7
862.819	9836.86
863.14	9751.66
863.461	9703.76
863.782	9679.35
864.103	9712.12
864.424	9645.9
864.745	9696.52
865.065	9628.96
865.386	9560.03
865.707	9567.04
866.027	9608.39
866.348	9619.46
866.668	9569.3
866.989	9523.2
867.309	9444.1
867.63	9490.43
867.95	9513.48
868.27	9384.44
868.59	9415.63
868.91	9452.46
869.23	9396.87
869.55	9409.3
869.87	9416.31
870.19	9343.54
870.51	9392.13
870.83	9393.71
871.15	9350.77
871.469	9247.5
871.789	9342.41
872.109	9295.86
872.428	9275.52
872.748	9331.34
873.067	9240.04
873.386	9254.5
873.706	9202.3
874.025	9183.54
874.344	9263.32
874.663	9184.45
874.982	9132.92
875.301	9201.4
875.62	9119.36
875.939	9124.56
876.258	9107.16
876.577	9047.73
876.896	9048.63
877.214	8982.19
877.533	8995.75
877.852	8996.2
878.17	9068.97
878.489	9000.27
878.807	8978.35
879.125	8976.54
879.444	8987.16
879.762	8929.54
880.08	8902.87
880.398	8836.43
880.716	8903.33
881.034	8864.68
881.352	8824.68
881.67	8785.81
881.988	8862.42
882.306	8805.93
882.624	8780.16
882.941	8737.45
883.259	8754.18
883.577	8633.5
883.894	8717.79
884.212	8595.54
884.529	8673.05
884.846	8646.83
885.164	8635.08
885.481	8535.2
885.798	8643.9
886.115	8546.72
886.432	8547.85
886.75	8539.72
887.067	8458.37
887.383	8462.21
887.7	8453.39
888.017	8435.09
888.334	8409.1
888.651	8363.9
888.967	8379.27
889.284	8352.83
889.6	8364.13
889.917	8304.92
890.233	8263.34
890.55	8182.89
890.866	8183.34
891.182	8179.05
891.498	8153.51
891.815	8199.84
892.131	8141.76
892.447	8048.88
892.763	8046.4
893.079	8042.33
893.395	8014.99
893.71	8009.34
894.026	8009.34
894.342	8003.91
894.657	7932.73
894.973	7941.09
895.289	7906.74
895.604	7958.04
895.92	7870.13
896.235	7776.58
896.55	7757.14
896.865	7816.35
897.181	7758.27
897.496	7740.19
897.811	7708.1
898.126	7651.38
898.441	7685.05
898.756	7622.45
899.071	7531.16
899.386	7570.03
899.7	7556.92
900.015	7431.5
900.33	7482.57
900.644	7400.31
900.959	7434.66
901.273	7439.41
901.588	7389.69
901.902	7315.8
902.216	7337.94
902.531	7254.78
902.845	7247.55
903.159	7198.29
903.473	7249.13
903.787	7148.57
904.101	7067.44
904.415	7109.47
904.729	7072.86
905.042	7036.71
905.356	7064.05
905.67	7040.32
905.984	7069.93
906.297	6937.28
906.611	6926.65
906.924	6927.78
907.237	6905.64
907.551	6898.41
907.864	6821.35
908.177	6822.02
908.491	6862.7
908.804	6805.53
909.117	6728.47
909.43	6705.42
909.743	6718.75
910.056	6688.47
910.368	6670.62
910.681	6635.14
910.994	6587.45
911.307	6551.97
911.619	6538.19
911.932	6492.32
912.244	6476.72
912.557	6451.19
912.869	6430.62
913.181	6439.21
913.494	6372.77
913.806	6377.29
914.118	6313.79
914.43	6286.44
914.742	6310.85
915.054	6255.94
915.366	6241.02
915.678	6235.6
915.99	6196.73
916.302	6126.68
916.613	6167.8
916.925	6137.75
917.236	6097.3
917.548	6079.22
917.859	6019.79
918.171	6006.68
918.482	5965.55
918.794	5951.09
919.105	5899.56
919.416	5868.38
919.727	5860.24
920.038	5827.47
920.349	5821.82
920.66	5788.15
920.971	5809.17
921.282	5737.53
921.593	5756.52
921.903	5671.09
922.214	5671.77
922.525	5677.2
922.835	5626.35
923.146	5587.48
923.456	5636.29
923.767	5531.66
924.077	5538.67
924.387	5526.92
924.697	5516.07
925.008	5493.25
925.318	5500.02
925.628	5464.09
925.938	5476.3
926.248	5374.15
926.558	5343.42
926.867	5351.33
927.177	5337.54
927.487	5315.62
927.796	5244.21
928.106	5242.4
928.416	5240.82
928.725	5245.12
929.034	5187.26
929.344	5210.31
929.653	5163.54
929.962	5143.88
930.271	5138
930.581	5110.43
930.89	5043.31
931.199	5048.74
931.508	5027.27
931.817	5031.34
932.125	5034.95
932.434	4971.9
932.743	4934.16
933.051	4955.41
933.36	4888.74
933.669	4836.99
933.977	4819.14
934.286	4878.12
934.594	4772.59
934.902	4787.73
935.21	4780.95
935.519	4759.48
935.827	4729.65
936.135	4716.77
936.443	4653.04
936.751	4667.28
937.059	4658.69
937.367	4622.76
937.674	4649.88
937.982	4601.97
938.29	4557.45
938.597	4580.73
938.905	4519.26
939.213	4524.68
939.52	4503.67
939.827	4462.54
940.135	4436.32
940.442	4424.12
940.749	4448.3
941.056	4400.84
941.363	4362.43
941.67	4355.2
941.977	4316.55
942.284	4359.49
942.591	4300.06
942.898	4334.63
943.205	4305.03
943.511	4309.32
943.818	4278.36
944.125	4218.48
944.431	4206.5
944.738	4181.64
945.044	4145.48
945.35	4160.17
945.657	4120.85
945.963	4117.01
946.269	4067.75
946.575	4083.11
946.881	4065.49
947.187	4050.35
947.493	4039.27
947.799	4007.63
948.105	4011.7
948.41	4004.24
948.716	3993.62
949.022	3967.41
949.327	3970.8
949.633	3909.33
949.938	3906.85
950.244	3929.9
950.549	3861.2
950.854	3865.27
951.16	3817.81
951.465	3830.69
951.77	3838.6
952.075	3785.27
952.38	3737.81
952.685	3725.38
952.99	3725.16
953.294	3731.48
953.599	3682.9
953.904	3669.11
954.209	3659.4
954.513	3644.48
954.818	3634.31
955.122	3666.85
955.426	3581.66
955.731	3593.86
956.035	3556.8
956.339	3552.05
956.643	3531.49
956.948	3530.81
957.252	3486.97
957.556	3529.68
957.86	3468.21
958.163	3479.74
958.467	3456.91
958.771	3412.62
959.075	3453.98
959.378	3398.39
959.682	3394.54
959.985	3390.02
960.289	3368.33
960.592	3322.68
960.896	3344.15
961.199	3325.84
961.502	3334.88
961.805	3312.96
962.108	3281.55
962.411	3302.57
962.714	3272.74
963.017	3259.18
963.32	3222.34
963.623	3236.13
963.926	3233.64
964.228	3185.74
964.531	3188.67
964.833	3178.96
965.136	3137.38
965.438	3126.98
965.741	3146.41
966.043	3099.18
966.345	3061.9
966.648	3079.3
966.95	3062.12
967.252	3078.17
967.554	3030.49
967.856	3028
968.158	3027.55
968.46	2981.9
968.761	2999.98
969.063	2956.36
969.365	2974.67
969.666	2972.18
969.968	2947.32
970.269	2895.57
970.571	2904.39
970.872	2883.82
971.174	2878.85
971.475	2872.52
971.776	2885.18
972.077	2848.34
972.378	2839.08
972.679	2831.17
972.98	2833.2
973.281	2787.78
973.582	2809.25
973.883	2769.48
974.183	2736.48
974.484	2741.68
974.785	2744.17
975.085	2756.59
975.386	2730.61
975.686	2690.16
975.986	2698.52
976.287	2703.71
976.587	2681.79
976.887	2664.17
977.187	2663.26
977.487	2665.75
977.787	2614.9
978.087	2632.76
978.387	2594.56
978.687	2633.21
978.987	2603.15
979.286	2568.12
979.586	2578.07
979.885	2587.56
980.185	2537.84
980.484	2526.32
980.784	2523.83
981.083	2517.5
981.382	2514.11
981.682	2512.98
981.981	2498.07
982.28	2470.5
982.579	2446.55
982.878	2444.29
983.177	2451.07
983.475	2456.26
983.774	2412.65
984.073	2391.41
984.372	2372.2
984.67	2400.9
984.969	2412.2
985.267	2335.36
985.566	2358.86
985.864	2332.65
986.162	2339.2
986.461	2336.72
986.759	2336.94
987.057	2278.87
987.355	2310.73
987.653	2278.19
987.951	2249.71
988.249	2242.94
988.547	2240.22
988.844	2230.51
989.142	2252.43
989.44	2223.5
989.737	2186.44
990.035	2187.57
990.332	2191.41
990.63	2183.28
990.927	2222.14
991.224	2194.12
991.521	2156.16
991.819	2133.79
992.116	2140.34
992.413	2088.36
992.71	2129.27
993.006	2112.77
993.303	2109.83
993.6	2077.74
993.897	2081.36
994.193	2078.42
994.49	2083.62
994.787	2049.49
995.083	2012.43
995.379	2024.41
995.676	2013.79
995.972	1996.61
996.268	1992.32
996.565	1998.2
996.861	1936.5
997.157	1980.34
997.453	1929.95
997.749	1959.1
998.044	1927.92
998.34	1952.1
998.636	1951.42
998.932	1923.4
999.227	1882.27
999.523	1894.47
999.818	1889.27
1000.114	1870.52
1000.409	1869.84
1000.704	1879.33
1001	1875.49
1001.295	1841.82
1001.59	1840.69
1001.885	1811.31
1002.18	1815.38
1002.475	1788.26
1002.77	1781.48
1003.065	1766.34
1003.359	1786.9
1003.654	1741.93
1003.949	1752.1
1004.243	1741.71
1004.538	1728.15
1004.832	1748.94
1005.127	1704.64
1005.421	1695.15
1005.715	1687.7
1006.009	1700.58
1006.304	1702.16
1006.598	1679.33
1006.892	1686.34
1007.186	1635.95
1007.48	1653.57
1007.773	1627.81
1008.067	1621.71
1008.361	1600.69
1008.655	1599.56
1008.948	1586.68
1009.242	1563.18
1009.535	1573.35
1009.829	1607.47
1010.122	1568.83
1010.415	1539.9
1010.708	1557.3
1011.001	1541.26
1011.295	1544.2
1011.588	1501.26
1011.881	1528.83
1012.173	1510.98
1012.466	1492.22
1012.759	1481.15
1013.052	1490.64
1013.344	1502.39
1013.637	1465.33
1013.93	1447.93
1014.222	1420.13
1014.514	1446.8
1014.807	1449.74
1015.099	1447.7
1015.391	1454.93
1015.683	1412.67
1015.976	1431.21
1016.268	1394.14
1016.56	1398.89
1016.851	1360.25
1017.143	1337.65
1017.435	1372
1017.727	1340.59
1018.018	1311.89
1018.31	1335.61
1018.602	1310.76
1018.893	1339
1019.185	1273.7
1019.476	1288.84
1019.767	1297.65
1020.058	1296.97
1020.35	1268.72
1020.641	1287.48
1020.932	1258.55
1021.223	1265.79
1021.514	1270.31
1021.804	1249.97
1022.095	1230.08
1022.386	1223.98
1022.677	1191.89
1022.967	1195.05
1023.258	1214.26
1023.548	1189.86
1023.839	1185.56
1024.129	1167.03
1024.419	1166.81
1024.709	1145.34
1025	1145.56
1025.29	1151.89
1025.58	1154.6
1025.87	1139.46
1026.16	1134.49
1026.449	1138.11
1026.739	1108.73
1027.029	1112.34
1027.319	1117.99
1027.608	1085.68
1027.898	1110.76
1028.187	1103.08
1028.477	1072.8
1028.766	1055.4
1029.055	1062.18
1029.344	1030.09
1029.634	1058.56
1029.923	1056.3
1030.212	1033.02
1030.501	1026.02
1030.79	1015.85
1031.078	992.35
1031.367	1003.42
1031.656	979.69
1031.945	994.83
1032.233	998.45
1032.522	983.08
1032.81	975.85
1033.099	995.51
1033.387	963.87
1033.675	959.13
1033.963	941.27
1034.251	953.7
1034.54	924.1
1034.828	932.01
1035.116	928.39
1035.403	928.85
1035.691	928.39
1035.979	906.93
1036.267	911.9
1036.554	912.57
1036.842	893.82
1037.129	900.37
1037.417	871.22
1037.704	904.67
1037.992	890.65
1038.279	867.83
1038.566	874.38
1038.853	874.38
1039.14	874.38
