Data from tablewood_brown_FLMS001491_046.txt Node
Date: Tue Feb 07 11:10:31 GMT 2017
User: dcchb
Spectrometer: FLMS00149
Trigger mode: 0
Integration Time (sec): 2.000000E-2
Scans to average: 10
Electric dark correction enabled: true
Nonlinearity correction enabled: false
Boxcar width: 0
XAxis mode: Wavelengths
Number of Pixels in Spectrum: 2048
>>>>>Begin Spectral Data<<<<<
341.393	-7.73
341.776	-7.73
342.16	-7.73
342.543	-74.16
342.927	-61.51
343.31	-65.58
343.693	-79.14
344.077	-67.84
344.46	-61.06
344.843	-64.9
345.226	-54.5
345.61	-53.6
345.993	-9.76
346.376	3.12
346.759	12.61
347.142	36.11
347.525	46.28
347.908	58.71
348.291	57.81
348.674	103.68
349.057	138.03
349.44	121.08
349.823	146.85
350.206	189.11
350.588	180.97
350.971	220.97
351.354	214.19
351.737	236.79
352.119	248.99
352.502	253.51
352.884	268.88
353.267	283.57
353.65	304.81
354.032	304.81
354.414	311.81
354.797	352.26
355.179	330.57
355.562	327.41
355.944	316.11
356.326	333.96
356.709	331.25
357.091	345.26
357.473	348.65
357.855	324.92
358.238	333.73
358.62	347.52
359.002	324.69
359.384	337.12
359.766	348.65
360.148	340.51
360.53	349.78
360.912	352.49
361.294	358.37
361.676	321.08
362.057	345.03
362.439	312.04
362.821	339.61
363.203	333.51
363.584	331.7
363.966	322.89
364.348	328.54
364.729	325.6
365.111	331.02
365.493	319.27
365.874	315.66
366.256	343
366.637	328.31
367.019	347.29
367.4	316.11
367.781	331.02
368.163	335.09
368.544	320.4
368.925	327.63
369.306	310.23
369.688	322.44
370.069	321.08
370.45	316.56
370.831	331.93
371.212	341.19
371.593	322.89
371.974	344.13
372.355	330.34
372.736	333.96
373.117	326.95
373.498	335.32
373.879	329.21
374.26	330.34
374.641	336.45
375.021	328.99
375.402	333.51
375.783	320.18
376.163	348.88
376.544	349.78
376.925	343.23
377.305	336.45
377.686	319.95
378.066	348.2
378.447	368.08
378.827	352.49
379.208	352.94
379.588	364.47
379.968	359.27
380.349	346.62
380.729	353.85
381.109	358.14
381.489	349.78
381.87	364.69
382.25	375.77
382.63	398.37
383.01	355.43
383.39	360.4
383.77	367.86
384.15	363.79
384.53	365.6
384.91	402.21
385.29	382.77
385.67	393.85
386.049	385.48
386.429	370.57
386.809	389.1
387.189	382.77
387.568	390.68
387.948	408.08
388.328	405.82
388.707	392.26
389.087	404.69
389.466	406.5
389.846	426.61
390.225	408.08
390.605	418.48
390.984	398.82
391.363	398.37
391.743	412.15
392.122	412.38
392.501	438.59
392.881	427.29
393.26	434.75
393.639	423
394.018	438.59
394.397	416.67
394.776	427.52
395.155	456.67
395.534	443.79
395.913	454.86
396.292	438.82
396.671	443.79
397.05	463.9
397.429	469.32
397.808	465.26
398.186	467.74
398.565	468.87
398.944	466.61
399.323	483.79
399.701	448.53
400.08	471.81
400.458	478.14
400.837	472.71
401.215	474.3
401.594	482.88
401.972	492.37
402.351	496.22
402.729	497.12
403.107	499.83
403.486	518.36
403.864	516.1
404.242	526.27
404.62	525.82
404.999	513.39
405.377	514.29
405.755	530.79
406.133	519.49
406.511	543.45
406.889	524.69
407.267	553.16
407.645	552.94
408.023	563.56
408.401	546.16
408.779	557.01
409.156	561.07
409.534	566.04
409.912	582.77
410.29	594.07
410.667	605.82
411.045	601.3
411.422	615.76
411.8	585.25
412.178	594.74
412.555	626.16
412.933	619.83
413.31	635.87
413.687	619.83
414.065	644.46
414.442	632.94
414.819	644.69
415.197	660.51
415.574	644.23
415.951	664.8
416.328	677.45
416.705	652.37
417.082	667.06
417.46	690.79
417.837	667.06
418.214	671.58
418.591	702.76
418.967	697.79
419.344	708.19
419.721	710
420.098	700.28
420.475	739.15
420.852	718.58
421.228	723.33
421.605	730.33
421.982	738.02
422.358	748.64
422.735	737.34
423.111	734.85
423.488	764.91
423.864	764.23
424.241	766.27
424.617	767.17
424.994	752.93
425.37	792.25
425.746	802.42
426.123	807.85
426.499	792.71
426.875	788.41
427.251	831.57
427.627	819.82
428.003	826.6
428.379	828.64
428.756	848.52
429.132	854.17
429.507	865.92
429.883	878.8
430.259	857.79
430.635	876.32
431.011	865.25
431.387	919.71
431.763	933.27
432.138	914.96
432.514	945.24
432.89	951.8
433.265	952.7
433.641	961.51
434.016	961.29
434.392	952.93
434.767	1001.97
435.143	1001.51
435.518	1015.75
435.894	1016.88
436.269	1031.57
436.644	1056.88
437.02	1055.52
437.395	1057.1
437.77	1041.06
438.145	1086.03
438.52	1108.63
438.895	1091.45
439.271	1118.12
439.646	1117.22
440.021	1128.06
440.395	1144.79
440.77	1136.42
441.145	1143.43
441.52	1149.98
441.895	1145.24
442.27	1174.16
442.645	1164.9
443.019	1178.01
443.394	1178.23
443.769	1194.95
444.143	1204.9
444.518	1238.57
444.892	1237.89
445.267	1225.01
445.641	1209.64
446.016	1247.38
446.39	1262.98
446.764	1238.8
447.139	1248.51
447.513	1244.22
447.887	1279.92
448.262	1286.7
448.636	1302.52
449.01	1299.58
449.384	1314.27
449.758	1311.34
450.132	1319.47
450.506	1349.07
450.88	1331.45
451.254	1355.18
451.628	1360.83
452.002	1379.58
452.376	1407.6
452.75	1392.69
453.123	1410.99
453.497	1434.27
453.871	1465.68
454.244	1447.6
454.618	1453.93
454.992	1494.83
455.365	1510.2
455.739	1499.81
456.112	1542.97
456.486	1522.4
456.859	1556.53
457.232	1598.79
457.606	1575.06
457.979	1589.75
458.352	1639.69
458.725	1616.64
459.099	1661.61
459.472	1671.78
459.845	1716.52
460.218	1733.92
460.591	1743.64
460.964	1773.7
461.337	1786.8
461.71	1786.13
462.083	1816.18
462.456	1853.47
462.829	1868.16
463.201	1888.5
463.574	1871.77
463.947	1907.93
464.32	1943.18
464.692	1937.53
465.065	1968.49
465.438	2017.31
465.81	2025.44
466.183	2083.29
466.555	2103.63
466.928	2118.77
467.3	2134.14
467.672	2195.15
468.045	2218.66
468.417	2218.66
468.789	2260.24
469.161	2291.65
469.534	2333
469.906	2386.34
470.278	2354.25
470.65	2407.35
471.022	2476.05
471.394	2523.28
471.766	2534.35
472.138	2545.43
472.51	2620.91
472.882	2669.04
473.253	2712.65
473.625	2743.84
473.997	2810.96
474.369	2818.41
474.74	2892.99
475.112	2975.02
475.484	3025.19
475.855	3055.92
476.227	3123.49
476.598	3168.69
476.97	3210.72
477.341	3326.65
477.713	3378.85
478.084	3407.33
478.455	3507.44
478.827	3553.08
479.198	3626.75
479.569	3678.5
479.94	3765.73
480.311	3846.41
480.682	3927.54
481.053	3978.61
481.424	4052.73
481.795	4100.64
482.166	4207.76
482.537	4301.31
482.908	4346.96
483.279	4396.23
483.65	4503.12
484.021	4556.45
484.391	4666.28
484.762	4664.47
485.133	4779.27
485.503	4818.14
485.874	4948.98
486.244	5037.11
486.615	5146.04
486.985	5161.18
487.356	5246.6
487.726	5336.54
488.097	5464.9
488.467	5455.18
488.837	5607.49
489.207	5614.27
489.578	5754.16
489.948	5797.32
490.318	5854.27
490.688	5856.53
491.058	5954.6
491.428	6092
491.798	6158.21
492.168	6262.62
492.538	6330.41
492.908	6367.25
493.278	6491.09
493.648	6493.35
494.017	6551.42
494.387	6598.88
494.757	6663.96
495.126	6738.09
495.496	6753.9
495.866	6835.71
496.235	6912.77
496.605	7048.59
496.974	6996.16
497.344	7103.73
497.713	7165.64
498.082	7181.69
498.452	7325.87
498.821	7349.14
499.19	7381.91
499.559	7463.72
499.928	7481.12
500.298	7547.1
500.667	7678.17
501.036	7675.01
501.405	7754.1
501.774	7730.15
502.143	7817.38
502.512	7864.84
502.88	7973.76
503.249	7931.05
503.618	8018.73
503.987	8053.53
504.356	8148.67
504.724	8173.3
505.093	8185.51
505.462	8271.6
505.83	8328.33
506.199	8390.02
506.567	8536
506.936	8541.65
507.304	8617.58
507.672	8674.08
508.041	8763.57
508.409	8831.59
508.777	8904.36
509.145	9009.44
509.514	8983.68
509.882	9069.1
510.25	9064.58
510.618	9208.76
510.986	9182.54
511.354	9378.92
511.722	9422.76
512.09	9528.07
512.458	9497.79
512.826	9627.73
513.193	9630.89
513.561	9742.53
513.929	9763.32
514.297	9973.71
514.664	9987.49
515.032	10085.57
515.4	10118.34
515.767	10217.32
516.135	10257.32
516.502	10282.4
516.869	10370.53
517.237	10514.03
517.604	10551.77
517.972	10676.97
518.339	10748.15
518.706	10783.85
519.073	10927.58
519.44	10985.66
519.808	11056.62
520.175	11082.83
520.542	11216.39
520.909	11310.62
521.276	11363.05
521.643	11502.71
522.009	11555.36
522.376	11706.99
522.743	11718.97
523.11	11829.25
523.477	12009.13
523.843	12116.02
524.21	12214.78
524.577	12331.38
524.943	12384.26
525.31	12494.09
525.676	12537.93
526.043	12652.73
526.409	12734.99
526.776	12805.27
527.142	12950.35
527.508	13048.43
527.874	13076
528.241	13236.45
528.607	13277.12
528.973	13383.56
529.339	13399.38
529.705	13495.87
530.071	13607.51
530.437	13706.72
530.803	13800.95
531.169	13956.2
531.535	13959.14
531.901	13998.91
532.267	14048.4
532.632	14107.61
532.998	14214.05
533.364	14300.6
533.73	14347.6
534.095	14460.59
534.461	14545.11
534.826	14573.81
535.192	14699.91
535.557	14769.96
535.923	14815.84
536.288	14856.06
536.653	14926.12
537.019	14930.86
537.384	15070.07
537.749	14979
538.114	15104.42
538.479	15218.99
538.845	15289.05
539.21	15314.13
539.575	15370.17
539.94	15431.42
540.305	15568.36
540.67	15514.8
541.034	15578.76
541.399	15661.92
541.764	15728.36
542.129	15744.4
542.494	15723.84
542.858	15865.98
543.223	15950.95
543.587	15992.98
543.952	15952.76
544.316	16101
544.681	16149.36
545.045	16174.67
545.41	16296.25
545.774	16348
546.138	16331.28
546.503	16430.03
546.867	16427.55
547.231	16596.58
547.595	16602.68
547.959	16704.15
548.324	16783.92
548.688	16904.82
549.052	16875.45
549.416	17026.4
549.779	17140.52
550.143	17007.19
550.507	17246.06
550.871	17361.08
551.235	17354.53
551.599	17463.68
551.962	17616.22
552.326	17637.01
552.689	17750
553.053	17782.99
553.417	17841.75
553.78	18076.54
554.143	18070.67
554.507	18190.67
554.87	18266.6
555.234	18482.18
555.597	18433.37
555.96	18486.25
556.323	18817.32
556.686	18766.7
557.05	19062.06
557.413	19051.43
557.776	19074.03
558.139	19262.05
558.502	19281.26
558.865	19474.7
559.228	19678.31
559.59	19708.14
559.953	19770.51
560.316	20020.67
560.679	20135.25
561.041	20342.47
561.404	20343.83
561.767	20570.49
562.129	20523.94
562.492	20817.04
562.854	20832.18
563.217	21032.4
563.579	21145.16
563.941	21303.8
564.304	21497.02
564.666	21652.95
565.028	21793.28
565.39	21893.62
565.753	22096.1
566.115	22229.2
566.477	22423.55
566.839	22575.86
567.201	22788.96
567.563	22915.29
567.925	23123.19
568.287	23191.89
568.648	23249.06
569.01	23571.99
569.372	23725.44
569.734	23742.16
570.095	23938.09
570.457	24110.96
570.819	24318.41
571.18	24345.53
571.542	24667.33
571.903	24707.33
572.265	24992.75
572.626	25056.25
572.987	25216.92
573.349	25325.62
573.71	25565.16
574.071	25776.23
574.432	25748.66
574.794	26170.79
575.155	26071.81
575.516	26152.04
575.877	26390.68
576.238	26456.44
576.599	26806.71
576.96	26856.65
577.32	26828.4
577.681	27055.97
578.042	27204.21
578.403	27207.83
578.763	27467.26
579.124	27445.79
579.485	27488.05
579.845	27803.29
580.206	27813.01
580.566	27901.37
580.927	27956.96
581.287	28174.36
581.648	28198.99
582.008	28314.92
582.368	28349.95
582.728	28506.33
583.089	28534.35
583.449	28651.63
583.809	28656.61
584.169	28873.77
584.529	28758.3
584.889	28929.37
585.249	28825.41
585.609	28833.78
585.969	29081.68
586.329	29139.76
586.688	29205.07
587.048	29073.32
587.408	29149.93
587.768	29204.84
588.127	29260.88
588.487	29195.35
588.846	29588.78
589.206	29434.89
589.565	29462.01
589.925	29564.83
590.284	29426.3
590.643	29671.04
591.003	29683.92
591.362	29748.1
591.721	29665.84
592.08	29743.81
592.44	29849.12
592.799	29927.98
593.158	29808.89
593.517	29822.9
593.876	29805.73
594.235	29866.97
594.593	29748.1
594.952	29952.39
595.311	29836.24
595.67	29849.79
596.029	30250.46
596.387	30152.61
596.746	30232.16
597.104	30095.44
597.463	30091.82
597.822	30281.65
598.18	30160.07
598.538	30069
598.897	30274.19
599.255	30015.89
599.613	30602.32
599.972	30273.74
600.33	30478.93
600.688	30284.36
601.046	30507.63
601.404	30587.63
601.762	30542.21
602.12	30563.9
602.478	30642.99
602.836	30721.64
603.194	30532.04
603.552	30601.19
603.91	30535.88
604.268	30615.65
604.625	30523.9
604.983	30785.14
605.341	30555.76
605.698	30835.53
606.056	30777.91
606.413	30794.4
606.771	30956.21
607.128	30969.54
607.485	30708.3
607.843	30866.49
608.2	31050.21
608.557	31155.97
608.914	31019.93
609.272	31169.08
609.629	31210.21
609.986	31382.86
610.343	31199.82
610.7	31342.41
611.057	31351.68
611.414	31269.87
611.771	31346.03
612.127	31433.71
612.484	31494.27
612.841	31723.64
613.198	31477.32
613.554	31579.47
613.911	31703.53
614.267	31763.19
614.624	31636.19
614.98	31581.05
615.337	31795.05
615.693	31710.08
616.05	31739.91
616.406	31914.82
616.762	31734.94
617.118	31791.21
617.475	31861.72
617.831	31908.72
618.187	31913.24
618.543	31949.17
618.899	32258.09
619.255	32201.14
619.611	32164.08
619.967	32205.44
620.323	32235.27
620.678	32054.03
621.034	32031.43
621.39	32110.53
621.746	32057.19
622.101	32391.65
622.457	32000.7
622.812	32216.96
623.168	32267.81
623.523	32283.63
623.879	32234.36
624.234	32213.35
624.589	32235.95
624.945	32214.03
625.3	32514.58
625.655	32398.88
626.01	32297.87
626.365	32407.02
626.72	32418.54
627.075	32272.1
627.43	32158.89
627.785	32264.65
628.14	32272.78
628.495	32312.55
628.85	32340.8
629.205	32185.33
629.559	32455.15
629.914	32083.63
630.269	32164.08
630.623	32169.28
630.978	32007.7
631.332	32218.77
631.687	32167.02
632.041	32019.23
632.396	32186.91
632.75	31972
633.104	32059.91
633.459	31962.28
633.813	31852.91
634.167	31805.22
634.521	31888.61
634.875	31882.96
635.229	31780.36
635.583	31701.5
635.937	31695.62
636.291	31625.79
636.645	31682.97
636.999	31630.99
637.352	31619.24
637.706	31486.59
638.06	31541.73
638.413	31410.43
638.767	31433.71
639.121	31447.27
639.474	31398.91
639.828	31386.48
640.181	31313.26
640.534	31402.75
640.888	31229.42
641.241	31195.52
641.594	31166.82
641.947	31152.81
642.301	31240.72
642.654	31288.4
643.007	31146.71
643.36	31223.54
643.713	31102.64
644.066	31153.04
644.419	31002.98
644.771	30759.37
645.124	30573.39
645.477	30409.33
645.83	30304.92
646.182	30060.64
646.535	30092.73
646.888	30240.07
647.24	30065.83
647.593	30207.3
647.945	30186.96
648.298	30125.95
648.65	30003.91
649.002	29890.92
649.355	30005.95
649.707	30005.72
650.059	30197.58
650.411	30424.02
650.763	30393.06
651.115	30810.9
651.467	30533.39
651.819	30651.81
652.171	30617.01
652.523	30639.38
652.875	30566.61
653.227	30458.59
653.578	30671.47
653.93	30676.44
654.282	30443.22
654.633	30421.53
654.985	30557.12
655.337	30442.77
655.688	30555.76
656.039	30622.88
656.391	30462.89
656.742	30312.83
657.094	30461.3
657.445	30514.86
657.796	30531.36
658.147	30397.35
658.498	30391.47
658.849	30445.71
659.2	30440.74
659.551	30398.03
659.902	30468.76
660.253	30378.59
660.604	30417.91
660.955	30303.57
661.306	30353.06
661.656	30421.76
662.007	30404.13
662.358	30414.53
662.708	30428.08
663.059	30316.45
663.409	30202.1
663.76	30360.97
664.11	30347.86
664.461	30436.9
664.811	30349.67
665.161	30413.17
665.511	30238.94
665.862	30316.22
666.212	30340.4
666.562	30390.34
666.912	30348.09
667.262	30377.24
667.612	30319.61
667.962	30350.57
668.312	30300.18
668.662	30380.85
669.011	30250.24
669.361	30233.51
669.711	30141.76
670.06	30197.58
670.41	30201.65
670.76	30100.41
671.109	30180.41
671.459	30096.57
671.808	29946.06
672.157	30137.24
672.507	29905.16
672.856	29957.36
673.205	30030.35
673.554	30021.32
673.904	29905.16
674.253	30089.56
674.602	29956.01
674.951	29567.32
675.3	29409.58
675.649	29853.86
675.998	29937.48
676.346	29965.05
676.695	29960.75
677.044	29688.89
677.393	29879.4
677.741	29903.13
678.09	29733.19
678.438	29611.16
678.787	29626.75
679.135	29754.43
679.484	29613.87
679.832	29546.53
680.181	29479.63
680.529	29471.73
680.877	29341.33
681.225	29448.22
681.573	29459.3
681.922	29163.03
682.27	29331.84
682.618	29380.2
682.966	29176.82
683.314	29245.29
683.661	29177.04
684.009	28965.07
684.357	28902.47
684.705	28800.1
685.053	28927.33
685.4	28878.97
685.748	28675.36
686.095	28693.67
686.443	28507.46
686.79	28385.65
687.138	28541.13
687.485	28606.89
687.832	28386.1
688.18	28388.59
688.527	28273.56
688.874	28292.32
689.221	28175.26
689.568	28092.1
689.915	27947.02
690.262	28030.86
690.609	27855.27
690.956	27785.22
691.303	27787.02
691.65	27568.72
691.997	27636.07
692.344	27525.11
692.69	27320.6
693.037	27395.85
693.383	27205.12
693.73	27292.8
694.077	27152.24
694.423	27137.78
694.769	26912.02
695.116	26899.59
695.462	26840.38
695.808	26695.53
696.155	26786.37
696.501	26539.6
696.847	26551.12
697.193	26355.65
697.539	26518.58
697.885	26237.23
698.231	26126.28
698.577	26131.7
698.923	26200.62
699.269	25977.13
699.614	25876.79
699.96	25749.11
700.306	25705.95
700.651	25658.72
700.997	25536.01
701.342	25479.74
701.688	25432.51
702.033	25279.74
702.379	25314.77
702.724	25178.05
703.069	25173.08
703.415	24983.71
703.76	24933.77
704.105	24843.82
704.45	24769.25
704.795	24663.72
705.14	24547.79
705.485	24682.47
705.83	24559.09
706.175	24481.12
706.52	24251.98
706.865	24268.25
707.209	24273.67
707.554	24202.26
707.899	24188.7
708.243	24052.88
708.588	23981.93
708.932	23814.7
709.277	23880.69
709.621	23863.74
709.966	23664.42
710.31	23760.24
710.654	23597.53
710.998	23624.87
711.342	23575.61
711.687	23431.43
712.031	23314.37
712.375	23281.83
712.719	23404.09
713.063	23353.47
713.407	23347.82
713.75	23286.8
714.094	23250.19
714.438	23129.97
714.782	23194.38
715.125	23047.04
715.469	23131.55
715.812	22952.8
716.156	22949.64
716.499	23001.16
716.843	22966.59
717.186	22801.84
717.53	22908.06
717.873	22837.55
718.216	22806.14
718.559	22642.75
718.902	22426.71
719.246	22607.05
719.589	22554.84
719.932	22486.15
720.275	22446.6
720.617	22456.54
720.96	22449.54
721.303	22461.06
721.646	22423.1
721.989	22278.69
722.331	22353.49
722.674	22327.28
723.016	22272.14
723.359	22211.58
723.701	22340.39
724.044	22209.77
724.386	22159.6
724.729	22196.44
725.071	22242.08
725.413	22250.45
725.755	22099.49
726.097	22109.21
726.439	22054.97
726.782	22082.31
727.124	22214.74
727.465	22023.11
727.807	22020.62
728.149	22002.77
728.491	21896.78
728.833	22042.32
729.175	21918.93
729.516	21976.33
729.858	21883.68
730.199	21898.14
730.541	21899.27
730.882	21845.71
731.224	21889.1
731.565	21795.09
731.906	21837.58
732.248	21854.98
732.589	21813.85
732.93	21719.61
733.271	21812.04
733.612	21719.16
733.953	21832.83
734.294	21697.92
734.635	21688.65
734.976	21794.86
735.317	21628.09
735.658	21777.46
735.999	21646.17
736.339	21720.52
736.68	21744.24
737.021	21663.12
737.361	21700.18
737.702	21725.04
738.042	21696.79
738.383	21653.63
738.723	21701.53
739.063	21580.63
739.404	21697.01
739.744	21725.71
740.084	21671.03
740.424	21660.86
740.764	21583.57
741.104	21749.22
741.444	21703.12
741.784	21566.62
742.124	21600.52
742.464	21558.26
742.804	21600.07
743.143	21490.69
743.483	21577.7
743.823	21322.56
744.162	21482.56
744.502	21637.58
744.841	21474.65
745.181	21596.45
745.52	21419.73
745.86	21625.6
746.199	21532.05
746.538	21352.62
746.877	21522.56
747.216	21531.82
747.556	21519.39
747.895	21512.61
748.234	21540.41
748.573	21470.58
748.911	21529.11
749.25	21444.59
749.589	21484.14
749.928	21467.19
750.267	21395.1
750.605	21390.13
750.944	21234.2
751.283	21278.95
751.621	21312.39
751.96	21246.18
752.298	21247.99
752.636	21314.65
752.975	21315.1
753.313	21110.81
753.651	21238.04
753.989	21117.82
754.327	21126.18
754.666	21065.39
755.004	21129.35
755.342	21155.11
755.679	21090.02
756.017	21034.43
756.355	21152.62
756.693	21043.47
757.031	20911.5
757.368	20880.31
757.706	20868.34
758.044	20804.38
758.381	20795.57
758.719	20777.72
759.056	20638.51
759.394	20675.35
759.731	20535.24
760.068	20415.69
760.405	20467.44
760.743	20410.04
761.08	20434.9
761.417	20398.74
761.754	20327.56
762.091	20316.71
762.428	20217.05
762.765	20006.21
763.102	20232.42
763.438	20048.7
763.775	20030.84
764.112	20027
764.449	20071.29
764.785	19850.06
765.122	19734.81
765.458	19688.48
765.795	19615.49
766.131	19701.81
766.467	19566.9
766.804	19538.43
767.14	19371.88
767.476	19473.34
767.812	19331.43
768.148	19330.97
768.485	19177.08
768.821	19076.07
769.157	19130.53
769.492	19027.03
769.828	19074.26
770.164	18931.89
770.5	18879.24
770.836	18891.89
771.171	18772.12
771.507	18748.17
771.842	18491.22
772.178	18588.4
772.513	18535.74
772.849	18435.63
773.184	18405.35
773.519	18315.41
773.855	18278.35
774.19	18171.46
774.525	18094.85
774.86	18126.94
775.195	18055.98
775.53	18011.91
775.865	17965.81
776.2	17825.48
776.535	17757
776.87	17716.55
777.205	17626.61
777.539	17534.64
777.874	17673.62
778.209	17443.79
778.543	17359.28
778.878	17311.14
779.212	17256.68
779.547	17249.9
779.881	17201.31
780.215	17114.08
780.55	17107.76
780.884	16895.11
781.218	16973.07
781.552	16954.31
781.886	16825.73
782.22	16662.57
782.554	16794.32
782.888	16525.4
783.222	16455.8
783.556	16353.43
783.889	16374.67
784.223	16253.32
784.557	16278.4
784.89	16335.35
785.224	16065.52
785.557	16068.46
785.891	16033.89
786.224	15968.8
786.558	15954.34
786.891	15795.25
787.224	15834.12
787.557	15722.26
787.891	15712.31
788.224	15811.75
788.557	15721.13
788.89	15631.86
789.223	15605.65
789.556	15459.89
789.888	15395.71
790.221	15420.34
790.554	15272.1
790.887	15247.24
791.219	15178.09
791.552	15082.95
791.884	15061.26
792.217	15087.02
792.549	15003.63
792.882	14854.48
793.214	14866.01
793.546	14919.79
793.879	14820.13
794.211	14747.14
794.543	14710.08
794.875	14679.12
795.207	14779.91
795.539	14629.4
795.871	14667.37
796.203	14464.66
796.535	14383.31
796.867	14435.74
797.198	14318.45
797.53	14336.76
797.862	14218.11
798.193	14222.63
798.525	14196.65
798.856	14236.19
799.188	13951.91
799.519	13919.82
799.85	13871.91
800.182	13915.75
800.513	13973.38
800.844	13845.7
801.175	13878.01
801.506	13861.74
801.837	13727.05
802.168	13673.27
802.499	13732.7
802.83	13583.56
803.161	13578.36
803.491	13522.54
803.822	13583.56
804.153	13475.08
804.483	13320.96
804.814	13330.23
805.145	13351.24
805.475	13318.93
805.805	13285.48
806.136	13218.14
806.466	13183.34
806.796	13217.01
807.126	13065.83
807.457	13109.67
807.787	13090.91
808.117	13036.9
808.447	12940.41
808.777	12989.45
809.107	12912.84
809.436	12829.9
809.766	12938.6
810.096	12813.86
810.426	12749
810.755	12700.64
811.085	12770.24
811.414	12638.5
811.744	12572.73
812.073	12597.82
812.403	12623.35
812.732	12531.83
813.061	12482.34
813.39	12370.03
813.719	12434.88
814.049	12497.48
814.378	12482.79
814.707	12422.23
815.036	12344.49
815.365	12329.12
815.693	12192.41
816.022	12140.43
816.351	12214.55
816.68	12060.43
817.008	12118.28
817.337	12033.54
817.665	12014.11
817.994	11988.57
818.322	12064.05
818.651	11985.41
818.979	11912.41
819.307	11901.79
819.636	11904.05
819.964	11881.45
820.292	11888.68
820.62	11855.24
820.948	11838.06
821.276	11863.37
821.604	11716.94
821.932	11888.01
822.259	11809.14
822.587	11818.4
822.915	11805.52
823.243	11749.03
823.57	11714.23
823.898	11759.2
824.225	11746.99
824.553	11707.45
824.88	11698.41
825.207	11775.47
825.535	11781.57
825.862	11826.77
826.189	11722.36
826.516	11808.01
826.843	11835.13
827.17	11813.66
827.497	11831.06
827.824	11816.14
828.151	11784.05
828.478	11761
828.805	11771.85
829.131	11721.91
829.458	11697.73
829.785	11655.02
830.111	11719.2
830.438	11751.51
830.764	11669.03
831.09	11749.48
831.417	11602.59
831.743	11750.16
832.069	11656.83
832.395	11660.67
832.722	11597.39
833.048	11643.49
833.374	11629.26
833.7	11573.66
834.026	11618.86
834.351	11610.05
834.677	11583.83
835.003	11664.74
835.329	11560.11
835.654	11544.51
835.98	11514.23
836.306	11591.74
836.631	11539.99
836.956	11511.75
837.282	11573.89
837.607	11488.47
837.932	11442.82
838.258	11446.89
838.583	11440.79
838.908	11374.8
839.233	11394.46
839.558	11415.48
839.883	11307.68
840.208	11308.36
840.533	11357.17
840.858	11313.78
841.182	11342.26
841.507	11278.53
841.832	11314.69
842.156	11184.07
842.481	11151.98
842.805	11164.86
843.13	11191.98
843.454	11060.01
843.778	11121.93
844.103	11073.34
844.427	11023.62
844.751	11022.04
845.075	10996.5
845.399	10988.6
845.723	10915.15
846.047	10926.45
846.371	10838.99
846.695	10857.98
847.019	10747.92
847.343	10670.64
847.666	10620.7
847.99	10562.62
848.313	10602.62
848.637	10539.34
848.96	10483.3
849.284	10382.96
849.607	10405.11
849.931	10376.41
850.254	10272.91
850.577	10279.69
850.9	10204.44
851.223	10203.31
851.546	10139.13
851.869	10161.95
852.192	10089.18
852.515	10065.91
852.838	10020.71
853.161	10024.1
853.483	9930.09
853.806	9877.89
854.129	9895.74
854.451	9812.35
854.774	9734.84
855.096	9761.06
855.419	9763.54
855.741	9772.36
856.063	9674.51
856.385	9707.27
856.708	9586.15
857.03	9593.15
857.352	9574.62
857.674	9566.03
857.996	9529.42
858.318	9433.83
858.64	9488.97
858.961	9469.99
859.283	9390.22
859.605	9335.31
859.926	9343.67
860.248	9345.7
860.57	9340.05
860.891	9338.92
861.212	9260.28
861.534	9244.69
861.855	9223.44
862.176	9228.19
862.498	9151.36
862.819	9202.88
863.14	9180.96
863.461	9190
863.782	9114.75
864.103	9124.69
864.424	9145.71
864.745	9114.07
865.065	9010.79
865.386	9047.18
865.707	9031.36
866.027	8993.39
866.348	9009.21
866.668	9032.94
866.989	8925.15
867.309	8929.67
867.63	8953.17
867.95	8930.57
868.27	8819.61
868.59	8945.26
868.91	8877.69
869.23	8830.01
869.55	8828.88
869.87	8808.09
870.19	8804.92
870.51	8801.31
870.83	8854.87
871.15	8714.08
871.469	8750.46
871.789	8741.2
872.109	8719.73
872.428	8709.33
872.748	8692.16
873.067	8696.9
873.386	8728.32
873.706	8681.09
874.025	8711.59
874.344	8703.46
874.663	8609.22
874.982	8616.68
875.301	8624.59
875.62	8635.89
875.939	8553.86
876.258	8551.15
876.577	8536.91
876.896	8524.93
877.214	8511.15
877.533	8415.1
877.852	8493.97
878.17	8471.15
878.489	8476.34
878.807	8468.21
879.125	8489.45
879.444	8424.14
879.762	8354.77
880.08	8371.04
880.398	8356.8
880.716	8377.82
881.034	8313.64
881.352	8341.43
881.67	8298.04
881.988	8300.76
882.306	8300.08
882.624	8249.23
882.941	8242.9
883.259	8176.69
883.577	8191.83
883.894	8140.31
884.212	8175.34
884.529	8111.16
884.846	8129.24
885.164	8068.67
885.481	8060.99
885.798	8053.08
886.115	8033.42
886.432	8016.24
886.75	8010.59
887.067	8050.37
887.383	7996.13
887.7	7945.06
888.017	7926.98
888.334	7951.84
888.651	7853.99
888.967	7878.39
889.284	7847.66
889.6	7793.65
889.917	7714.56
890.233	7827.1
890.55	7741.67
890.866	7792.75
891.182	7758.85
891.498	7694.9
891.815	7718.4
892.131	7611.51
892.447	7645.86
892.763	7572.87
893.079	7645.41
893.395	7530.61
893.71	7547.78
894.026	7495.58
894.342	7493.77
894.657	7488.12
894.973	7446.99
895.289	7408.12
895.604	7370.39
895.92	7324.74
896.235	7310.27
896.55	7351.4
896.865	7320.67
897.181	7271.4
897.496	7249.94
897.811	7234.12
898.126	7242.25
898.441	7177.85
898.756	7167.9
899.071	7122.93
899.386	7112.76
899.7	7061.47
900.015	7053.78
900.33	6998.64
900.644	6973.56
900.959	6969.49
901.273	6938.31
901.588	6918.65
901.902	6896.73
902.216	6898.08
902.531	6864.64
902.845	6875.03
903.159	6781.47
903.473	6784.41
903.787	6794.36
904.101	6694.92
904.415	6736.73
904.729	6702.38
905.042	6698.76
905.356	6629.61
905.67	6608.82
905.984	6607.24
906.297	6657.86
906.611	6513.46
906.924	6532.67
907.237	6500.35
907.551	6523.85
907.864	6494.48
908.177	6468.71
908.491	6381.94
908.804	6360.47
909.117	6317.53
909.43	6279.34
909.743	6226.23
910.056	6234.37
910.368	6213.35
910.681	6204.31
910.994	6234.6
911.307	6159.12
911.619	6128.84
911.932	6123.41
912.244	6108.27
912.557	6120.93
912.869	6078.67
913.181	6012.23
913.494	6003.42
913.806	5996.64
914.118	5980.59
914.43	5904.89
914.742	5981.04
915.054	5838.45
915.366	5863.76
915.678	5867.15
915.99	5850.43
916.302	5730.88
916.613	5756.64
916.925	5741.73
917.236	5751.22
917.548	5718.9
917.859	5685.46
918.171	5654.5
918.482	5659.02
918.794	5609.3
919.105	5591
919.416	5575.63
919.727	5563.65
920.038	5560.26
920.349	5481.85
920.66	5453.15
920.971	5433.04
921.282	5439.36
921.593	5410.66
921.903	5355.97
922.214	5402.75
922.525	5348.07
922.835	5332.47
923.146	5287.5
923.456	5269.65
923.767	5331.57
924.077	5273.04
924.387	5219.48
924.697	5158.92
925.008	5207.96
925.318	5175.64
925.628	5148.52
925.938	5115.08
926.248	5077.56
926.558	5035.31
926.867	5042.08
927.177	5039.6
927.487	4988.53
927.796	4951.92
928.106	4966.15
928.416	4950.79
928.725	4908.08
929.034	4873.5
929.344	4943.78
929.653	4915.08
929.962	4817.46
930.271	4833.95
930.581	4814.75
930.89	4830.11
931.199	4743.34
931.508	4732.49
931.817	4727.97
932.125	4693.62
932.434	4652.94
932.743	4656.78
933.051	4621.76
933.36	4588.99
933.669	4585.37
933.977	4568.43
934.286	4602.55
934.594	4516.22
934.902	4542.44
935.21	4462.44
935.519	4485.72
935.827	4454.53
936.135	4438.48
936.443	4453.4
936.751	4405.72
937.059	4431.93
937.367	4374.53
937.674	4338.37
937.982	4364.36
938.29	4355.1
938.597	4333.4
938.905	4233.97
939.213	4275.55
939.52	4265.38
939.827	4266.51
940.135	4198.49
940.442	4239.39
940.749	4210.02
941.056	4158.94
941.363	4131.37
941.67	4088.21
941.977	4102
942.284	4065.61
942.591	4099.06
942.898	4089.34
943.205	4074.2
943.511	4059.06
943.818	3996.01
944.125	3953.53
944.431	3968.67
944.738	3950.36
945.044	3959.18
945.35	3987.2
945.657	3977.93
945.963	3882.34
946.269	3853.64
946.575	3881.44
946.881	3859.07
947.187	3805.28
947.493	3816.81
947.799	3773.19
948.105	3797.37
948.41	3784.94
948.716	3754.89
949.022	3715.79
949.327	3674.44
949.633	3684.38
949.938	3681.22
950.244	3665.62
950.549	3678.28
950.854	3651.84
951.16	3616.13
951.465	3596.7
951.77	3552.63
952.075	3557.38
952.38	3558.73
952.685	3574.1
952.99	3521.45
953.294	3529.58
953.599	3511.05
953.904	3516.7
954.209	3438.96
954.513	3469.24
954.818	3477.15
955.122	3426.99
955.426	3416.14
955.731	3403.94
956.035	3441
956.339	3342.69
956.643	3343.82
956.948	3322.58
957.252	3323.49
957.556	3258.18
957.86	3306.76
958.163	3276.48
958.467	3279.19
958.771	3224.73
959.075	3249.59
959.378	3208.69
959.682	3212.3
959.985	3197.39
960.289	3201.46
960.592	3168.01
960.896	3193.32
961.199	3129.59
961.502	3154.45
961.805	3133.21
962.108	3111.97
962.411	3111.29
962.714	3082.36
963.017	3083.04
963.32	3056.15
963.623	3039.43
963.926	3045.08
964.228	3017.05
964.531	3003.27
964.833	2994.68
965.136	2961.01
965.438	2992.2
965.741	2975.47
966.043	2936.38
966.345	2909.03
966.648	2910.39
966.95	2921.91
967.252	2870.84
967.554	2900.67
967.856	2860.9
968.158	2883.95
968.46	2881.69
968.761	2878.07
969.063	2850.28
969.365	2814.12
969.666	2801.24
969.968	2743.39
970.269	2733.9
970.571	2789.94
970.872	2765.31
971.174	2735.7
971.475	2710.17
971.776	2714.01
972.077	2699.77
972.378	2722.37
972.679	2670.4
972.98	2659.77
973.281	2683.73
973.582	2638.08
973.883	2651.41
974.183	2636.95
974.484	2641.24
974.785	2616.84
975.085	2568.03
975.386	2588.36
975.686	2581.36
975.986	2549.27
976.287	2558.08
976.587	2524.41
976.887	2506.78
977.187	2536.84
977.487	2511.3
977.787	2464.53
978.087	2477.86
978.387	2500.46
978.687	2492.32
978.987	2477.18
979.286	2431.76
979.586	2424.98
979.885	2436.73
980.185	2402.38
980.484	2380.69
980.784	2398.76
981.083	2395.37
981.382	2391.08
981.682	2387.47
981.981	2353.79
982.28	2331.87
982.579	2335.04
982.878	2331.2
983.177	2290.52
983.475	2276.96
983.774	2303.63
984.073	2312.21
984.372	2252.33
984.67	2262.27
984.969	2256.62
985.267	2236.06
985.566	2221.14
985.864	2237.19
986.162	2200.13
986.461	2209.84
986.759	2204.19
987.057	2196.96
987.355	2142.27
987.653	2149.28
987.951	2149.96
988.249	2126
988.547	2136.85
988.844	2115.61
989.142	2104.31
989.44	2138.66
989.737	2095.5
990.035	2078.32
990.332	2065.44
990.63	2065.89
990.927	2017.31
991.224	2041.71
991.521	2073.12
991.819	2036.51
992.116	1999
992.413	2017.98
992.71	2003.75
993.006	2042.39
993.303	2008.49
993.6	1987.25
993.897	1983.41
994.193	1945.9
994.49	1978.21
994.787	1962.84
995.083	1912.9
995.379	1947.03
995.676	1914.48
995.972	1916.29
996.268	1900.7
996.565	1888.95
996.861	1893.24
997.157	1864.54
997.453	1837.2
997.749	1857.76
998.044	1806.92
998.34	1827.93
998.636	1833.81
998.932	1806.01
999.227	1799.91
999.523	1814.6
999.818	1807.82
1000.114	1774.6
1000.409	1780.93
1000.704	1764.66
1001	1766.69
1001.295	1741.15
1001.59	1758.56
1001.885	1742.28
1002.18	1712.91
1002.475	1724.88
1002.77	1704.09
1003.065	1712.68
1003.359	1688.95
1003.654	1691.21
1003.949	1691.89
1004.243	1681.95
1004.538	1635.39
1004.832	1653.93
1005.127	1641.95
1005.421	1612.57
1005.715	1608.5
1006.009	1620.03
1006.304	1594.04
1006.598	1593.59
1006.892	1587.94
1007.186	1560.37
1007.48	1564.44
1007.773	1546.13
1008.067	1543.65
1008.361	1514.04
1008.655	1540.93
1008.948	1534.15
1009.242	1523.31
1009.535	1516.08
1009.829	1509.3
1010.122	1499.35
1010.415	1488.28
1010.708	1485.34
1011.001	1455.51
1011.295	1465.23
1011.588	1466.81
1011.881	1448.73
1012.173	1407.15
1012.466	1448.28
1012.759	1425.46
1013.052	1403.76
1013.344	1425
1013.637	1403.08
1013.93	1398.56
1014.222	1401.73
1014.514	1368.51
1014.807	1355.63
1015.099	1351.11
1015.391	1343.65
1015.683	1339.36
1015.976	1331.9
1016.268	1322.86
1016.56	1317.89
1016.851	1315.4
1017.143	1315.18
1017.435	1300.71
1017.727	1321.5
1018.018	1269.53
1018.31	1282.64
1018.602	1262.52
1018.893	1281.73
1019.185	1264.33
1019.476	1271.11
1019.767	1271.56
1020.058	1222.75
1020.35	1222.3
1020.641	1228.63
1020.932	1196.99
1021.223	1198.57
1021.514	1196.76
1021.804	1164.22
1022.095	1175.07
1022.386	1153.6
1022.677	1170.55
1022.967	1165.35
1023.258	1107.95
1023.548	1138.91
1023.839	1157.89
1024.129	1134.62
1024.419	1095.52
1024.709	1104.56
1025	1097.1
1025.29	1101.85
1025.58	1089.42
1025.87	1085.58
1026.16	1079.93
1026.449	1095.52
1026.739	1066.14
1027.029	1053.04
1027.319	1048.52
1027.608	1034.28
1027.898	1049.65
1028.187	1037.44
1028.477	1028.18
1028.766	1031.57
1029.055	1011
1029.344	1019.82
1029.634	1007.39
1029.923	996.99
1030.212	996.77
1030.501	975.3
1030.79	984.79
1031.078	995.19
1031.367	944.57
1031.656	949.09
1031.945	946.15
1032.233	958.35
1032.522	937.11
1032.81	951.12
1033.099	908.41
1033.387	939.37
1033.675	928.29
1033.963	877.9
1034.251	922.19
1034.54	905.02
1034.828	888.75
1035.116	917
1035.403	877.45
1035.691	905.92
1035.979	864.79
1036.267	870.44
1036.554	853.27
1036.842	836.09
1037.129	858.69
1037.417	855.75
1037.704	846.49
1037.992	847.84
1038.279	812.82
1038.566	852.59
1038.853	852.59
1039.14	852.59
