Data from tablewood_brown_FLMS001491_094.txt Node
Date: Tue Feb 07 11:11:17 GMT 2017
User: dcchb
Spectrometer: FLMS00149
Trigger mode: 0
Integration Time (sec): 2.000000E-2
Scans to average: 10
Electric dark correction enabled: true
Nonlinearity correction enabled: false
Boxcar width: 0
XAxis mode: Wavelengths
Number of Pixels in Spectrum: 2048
>>>>>Begin Spectral Data<<<<<
341.393	7.23
341.776	7.23
342.16	7.23
342.543	-44.52
342.927	-72.99
343.31	-79.32
343.693	-65.08
344.077	-46.33
344.46	-42.48
344.843	-67.79
345.226	-34.58
345.61	-40.68
345.993	-15.59
346.376	0.45
346.759	8.36
347.142	8.14
347.525	31.64
347.908	58.53
348.291	85.42
348.674	87.91
349.057	111.41
349.44	98.3
349.823	156.83
350.206	153.44
350.588	196.15
350.971	202.71
351.354	223.5
351.737	221.46
352.119	246.55
352.502	249.48
352.884	268.24
353.267	294.23
353.65	284.29
354.032	299.65
354.414	308.92
354.797	305.75
355.179	302.14
355.562	322.93
355.944	346.21
356.326	343.49
356.709	345.75
357.091	345.08
357.473	329.48
357.855	337.39
358.238	332.87
358.62	340.33
359.002	350.05
359.384	344.62
359.766	333.1
360.148	329.48
360.53	342.59
360.912	344.62
361.294	345.53
361.676	339.65
362.057	327.22
362.439	329.71
362.821	340.1
363.203	327
363.584	324.29
363.966	328.58
364.348	347.34
364.729	329.26
365.111	324.74
365.493	336.04
365.874	319.54
366.256	334.23
366.637	327.22
367.019	343.04
367.4	324.06
367.781	321.8
368.163	321.8
368.544	318.41
368.925	330.61
369.306	320.67
369.688	315.25
370.069	321.12
370.45	323.38
370.831	305.53
371.212	310.95
371.593	321.12
371.974	342.14
372.355	346.88
372.736	325.42
373.117	338.52
373.498	328.35
373.879	336.26
374.26	316.6
374.641	315.47
375.021	323.38
375.402	334.91
375.783	317.51
376.163	352.08
376.544	336.71
376.925	361.35
377.305	355.92
377.686	339.2
378.066	340.78
378.447	347.11
378.827	340.78
379.208	372.65
379.588	355.47
379.968	356.6
380.349	364.28
380.729	351.4
381.109	363.61
381.489	358.86
381.87	371.97
382.25	348.01
382.63	373.55
383.01	368.58
383.39	382.14
383.77	386.2
384.15	393.44
384.53	386.2
384.91	393.66
385.29	385.53
385.67	380.33
386.049	380.33
386.429	373.1
386.809	383.04
387.189	397.5
387.568	399.76
387.948	399.31
388.328	380.55
388.707	398.41
389.087	400.89
389.466	421.01
389.846	428.46
390.225	428.24
390.605	411.51
390.984	402.02
391.363	412.42
391.743	427.79
392.122	418.52
392.501	425.3
392.881	439.76
393.26	411.06
393.639	440.44
394.018	441.12
394.397	422.81
394.776	458.52
395.155	453.32
395.534	459.65
395.913	467.78
396.292	461.91
396.671	464.85
397.05	477.73
397.429	470.27
397.808	477.95
398.186	490.61
398.565	485.64
398.944	478.63
399.323	487.44
399.701	493.09
400.08	483.15
400.458	481.57
400.837	479.76
401.215	524.96
401.594	494.22
401.972	543.49
402.351	515.69
402.729	524.28
403.107	524.28
403.486	505.3
403.864	546.65
404.242	523.6
404.62	547.33
404.999	539.42
405.377	534.68
405.755	547.1
406.133	547.33
406.511	562.47
406.889	556.37
407.267	584.62
407.645	574.45
408.023	589.59
408.401	586.2
408.779	573.54
409.156	579.65
409.534	590.04
409.912	609.25
410.29	634.56
410.667	616.25
411.045	636.14
411.422	617.61
411.8	629.14
412.178	642.47
412.555	655.12
412.933	639.98
413.31	658.06
413.687	693.99
414.065	678.17
414.442	680.43
414.819	670.94
415.197	691.28
415.574	712.52
415.951	693.99
416.328	682.24
416.705	726.53
417.082	711.85
417.46	721.79
417.837	740.55
418.214	749.36
418.591	736.03
418.967	745.74
419.344	742.81
419.721	755.46
420.098	754.56
420.475	765.63
420.852	755.69
421.228	774.22
421.605	795.23
421.982	799.53
422.358	801.56
422.735	819.19
423.111	801.79
423.488	837.49
423.864	818.51
424.241	845.63
424.617	838.4
424.994	848.79
425.37	852.18
425.746	839.07
426.123	849.7
426.499	881.78
426.875	872.07
427.251	886.08
427.627	921.33
428.003	897.6
428.379	919.52
428.756	943.93
429.132	926.76
429.507	960.2
429.883	943.03
430.259	968.56
430.635	964.72
431.011	994.78
431.387	998.84
431.763	995.91
432.138	1029.8
432.514	1039.52
432.89	1022.35
433.265	1050.82
433.641	1063.25
434.016	1080.88
434.392	1070.25
434.767	1081.33
435.143	1108.22
435.518	1132.85
435.894	1129.69
436.269	1136.92
436.644	1160.2
437.02	1175.11
437.395	1162.68
437.77	1201.78
438.145	1196.35
438.52	1195.67
438.895	1201.32
439.271	1221.89
439.646	1241.55
440.021	1237.03
440.395	1274.77
440.77	1274.09
441.145	1293.75
441.52	1311.83
441.895	1293.3
442.27	1310.93
442.645	1322
443.019	1331.04
443.394	1304.15
443.769	1328.1
444.143	1335.11
444.518	1389.57
444.892	1350.25
445.267	1389.12
445.641	1399.29
446.016	1392.51
446.39	1405.61
446.764	1411.94
447.139	1370.36
447.513	1437.93
447.887	1430.24
448.262	1419.62
448.636	1426.86
449.01	1488.32
449.384	1452.39
449.758	1463.01
450.132	1476.35
450.506	1521.32
450.88	1510.24
451.254	1525.61
451.628	1527.19
452.002	1538.72
452.376	1571.03
452.75	1597.25
453.123	1585.04
453.497	1614.65
453.871	1585.72
454.244	1642.22
454.618	1673.85
454.992	1664.59
455.365	1683.12
455.739	1709.11
456.112	1727.19
456.486	1728.32
456.859	1739.39
457.232	1788.65
457.606	1796.34
457.979	1829.1
458.352	1847.41
458.725	1871.36
459.099	1896.67
459.472	1908.65
459.845	1911.81
460.218	1983.68
460.591	1960.85
460.964	1960.17
461.337	2039.49
461.71	2028.2
462.083	2100.06
462.456	2085.14
462.829	2114.29
463.201	2142.54
463.574	2122.66
463.947	2140.51
464.32	2237.46
464.692	2257.57
465.065	2234.97
465.438	2274.29
465.81	2322.42
466.183	2369.43
466.555	2392.25
466.928	2428.41
467.3	2425.92
467.672	2452.59
468.045	2531.68
468.417	2532.59
468.789	2576.88
469.161	2594.73
469.534	2647.84
469.906	2742.07
470.278	2723.32
470.65	2761.51
471.022	2813.71
471.394	2881.28
471.766	2903.43
472.138	2963.54
472.51	3017.77
472.882	3064.1
473.253	3086.02
473.625	3158.11
473.997	3234.04
474.369	3302.29
474.74	3326.92
475.112	3366.47
475.484	3440.81
475.855	3513.81
476.227	3525.56
476.598	3641.49
476.97	3679.45
477.341	3748.38
477.713	3839.9
478.084	3842.38
478.455	4026.79
478.827	4067.01
479.198	4178.65
479.569	4169.16
479.94	4271.53
480.311	4377.96
480.682	4489.83
481.053	4559.2
481.424	4667.45
481.795	4724.17
482.166	4761.91
482.537	4843.04
482.908	4969.13
483.279	4964.39
483.65	5073.54
484.021	5223.14
484.391	5273.53
484.762	5405.96
485.133	5447.77
485.503	5564.15
485.874	5626.52
486.244	5693.18
486.615	5788.77
486.985	5933.18
487.356	6007.98
487.726	6047.75
488.097	6203.45
488.467	6209.1
488.837	6315.54
489.207	6379.72
489.578	6556.44
489.948	6631.46
490.318	6610.67
490.688	6697.45
491.058	6853.61
491.428	6920.5
491.798	6998.23
492.168	7122.07
492.538	7160.04
492.908	7225.8
493.278	7318.23
493.648	7372.46
494.017	7522.97
494.387	7553.7
494.757	7646.35
495.126	7735.62
495.496	7797.08
495.866	7865.56
496.235	7984.42
496.605	8028.26
496.974	8054.25
497.344	8134.02
497.713	8247.69
498.082	8311.65
498.452	8319.78
498.821	8397.52
499.19	8451.53
499.559	8492.66
499.928	8670.28
500.298	8601.36
500.667	8782.14
501.036	8803.61
501.405	8834.12
501.774	8863.04
502.143	8994.79
502.512	9024.4
502.88	9193.88
503.249	9125.41
503.618	9195.46
503.987	9312.3
504.356	9317.95
504.724	9435.01
505.093	9436.81
505.462	9476.81
505.83	9586.87
506.199	9649.24
506.567	9773.75
506.936	9722.46
507.304	9936.69
507.672	9941.66
508.041	9993.64
508.409	10120.64
508.777	10200.18
509.145	10332.38
509.514	10350.91
509.882	10369.9
510.25	10485.15
510.618	10467.52
510.986	10624.81
511.354	10705.71
511.722	10847.85
512.09	10900.96
512.458	10886.95
512.826	10997.22
513.193	11086.04
513.561	11199.03
513.929	11243.55
514.297	11309.53
514.664	11443.31
515.032	11536.42
515.4	11686.02
515.767	11739.58
516.135	11806.7
516.502	11785
516.869	12009.63
517.237	12028.38
517.604	12062.73
517.972	12229.96
518.339	12328.72
518.706	12404.19
519.073	12488.26
519.44	12559.67
519.808	12730.29
520.175	12727.35
520.542	12901.36
520.909	13038.08
521.276	12997.85
521.643	13255.47
522.009	13286.43
522.376	13377.05
522.743	13438.97
523.11	13588.34
523.477	13757.38
523.843	13824.95
524.21	14003.25
524.577	14108.56
524.943	14291.38
525.31	14259.74
525.676	14404.37
526.043	14472.61
526.409	14605.49
526.776	14771.36
527.142	14864.92
527.508	14888.2
527.874	15070.56
528.241	15286.83
528.607	15226.72
528.973	15383.55
529.339	15463.77
529.705	15561.85
530.071	15703.77
530.437	15788.96
530.803	15736.99
531.169	15929.52
531.535	15907.6
531.901	16050.2
532.267	16116.19
532.632	16231.89
532.998	16334.03
533.364	16458.1
533.73	16557.98
534.095	16710.52
534.461	16690.18
534.826	16777.41
535.192	16841.59
535.557	17037.52
535.923	17024.64
536.288	17103.05
536.653	17233.45
537.019	17207.46
537.384	17194.35
537.749	17365.65
538.114	17354.35
538.479	17451.97
538.845	17547.79
539.21	17595.7
539.575	17643.6
539.94	17668.69
540.305	17787.1
540.67	17762.92
541.034	17941.68
541.399	17981.67
541.764	17992.52
542.129	18126.98
542.494	18243.36
542.858	18295.79
543.223	18247.2
543.587	18340.99
543.952	18338.05
544.316	18480.64
544.681	18448.55
545.045	18625.27
545.41	18705.04
545.774	18790.69
546.138	18764.25
546.503	18869.11
546.867	18849.22
547.231	19041.31
547.595	19121.31
547.959	19129.67
548.324	19150.91
548.688	19319.72
549.052	19454.86
549.416	19455.08
549.779	19546.15
550.143	19610.33
550.507	19797.45
550.871	19847.61
551.235	19879.7
551.599	20098.45
551.962	20028.63
552.326	20241.95
552.689	20417.99
553.053	20225.68
553.417	20424.1
553.78	20662.06
554.143	20675.84
554.507	20814.37
554.87	20863.86
555.234	21141.14
555.597	21141.59
555.96	21361.47
556.323	21410.28
556.686	21544.74
557.05	21751.97
557.413	21686.21
557.776	21829.48
558.139	22020.21
558.502	22093.66
558.865	22240.77
559.228	22393.54
559.59	22634.43
559.953	22735.45
560.316	22942.9
560.679	22913.3
561.041	23199.84
561.404	23330.46
561.767	23560.06
562.129	23491.81
562.492	23772.26
562.854	23964.79
563.217	23939.94
563.579	24151.68
563.941	24398.91
564.304	24475.97
564.666	24804.77
565.028	24782.17
565.39	24955.95
565.753	25188.49
566.115	25286.79
566.477	25421.93
566.839	25666.67
567.201	25883.16
567.563	26025.3
567.925	26236.82
568.287	26332.19
568.648	26474.78
569.01	26678.39
569.372	27023.7
569.734	26820.09
570.095	27139.17
570.457	27420.52
570.819	27494.64
571.18	27594.08
571.542	27830.45
571.903	27961.52
572.265	28171.01
572.626	28393.38
572.987	28517.22
573.349	28782.97
573.71	28970.54
574.071	29001.95
574.432	29208.72
574.794	29481.26
575.155	29407.81
575.516	29629.5
575.877	29857.97
576.238	29972.77
576.599	30143.61
576.96	30274.46
577.32	30352.65
577.681	30575.92
578.042	30786.31
578.403	30899.98
578.763	30912.86
579.124	31109.92
579.485	31257.94
579.845	31384.94
580.206	31335.45
580.566	31494.09
580.927	31609.79
581.287	31693.18
581.648	31700.41
582.008	31902.66
582.368	31956.22
582.728	32162.32
583.089	32143.34
583.449	32198.93
583.809	32233.5
584.169	32393.72
584.529	32369.09
584.889	32642.98
585.249	32459.03
585.609	32509.2
585.969	32713.94
586.329	32640.95
586.688	32791.68
587.048	32828.52
587.408	32670.33
587.768	32899.7
588.127	32754.84
588.487	32860.83
588.846	33170.88
589.206	33052.92
589.565	33078.23
589.925	33099.69
590.284	33219.01
590.643	33221.73
591.003	33343.08
591.362	33418.33
591.721	33405
592.08	33471.66
592.44	33604.31
592.799	33523.19
593.158	33463.75
593.517	33582.85
593.876	33597.76
594.235	33624.65
594.593	33585.56
594.952	33565.45
595.311	33553.02
595.67	33675.05
596.029	33830.52
596.387	34032.78
596.746	34077.75
597.104	33833.01
597.463	33906
597.822	34000.24
598.18	33862.39
598.538	33800.92
598.897	34010.18
599.255	33697.65
599.613	34319.32
599.972	34021.93
600.33	34159.33
600.688	34075.71
601.046	34196.84
601.404	34399.77
601.762	34300.12
602.12	34360.23
602.478	34531.52
602.836	34375.37
603.194	34313.9
603.552	34216.5
603.91	34234.35
604.268	34385.31
604.625	34210.63
604.983	34556.15
605.341	34258.31
605.698	34520
606.056	34583.95
606.413	34546.21
606.771	34552.31
607.128	34723.83
607.485	34566.77
607.843	34605.19
608.2	34760.44
608.557	35090.6
608.914	34799.09
609.272	35079.3
609.629	34898.74
609.986	35070.04
610.343	35036.59
610.7	35150.94
611.057	35178.51
611.414	35054.9
611.771	35208.57
612.127	35415.11
612.484	35218.51
612.841	35362.23
613.198	35188.23
613.554	35256.7
613.911	35460.54
614.267	35463.93
614.624	35407.2
614.98	35418.5
615.337	35644.94
615.693	35588.22
616.05	35573.3
616.406	35765.39
616.762	35613.07
617.118	35784.14
617.475	35712.28
617.831	35757.93
618.187	35897.14
618.543	35851.71
618.899	36054.19
619.255	35985.72
619.611	35924.71
619.967	35999.73
620.323	36120.18
620.678	35958.83
621.034	35877.47
621.39	35895.33
621.746	35940.52
622.101	36381.87
622.457	35975.55
622.812	36086.28
623.168	36125.83
623.523	36176.9
623.879	36207.64
624.234	36038.15
624.589	36222.32
624.945	36110.01
625.3	36236.11
625.655	36147.52
626.01	36124.7
626.365	36227.07
626.72	36238.37
627.075	36127.41
627.43	36083.8
627.785	36085.15
628.14	36258.26
628.495	36239.73
628.85	35964.93
629.205	35968.55
629.559	36183.23
629.914	35974.2
630.269	36011.93
630.623	35987.08
630.978	35838.83
631.332	35988.43
631.687	36025.04
632.041	35816.46
632.396	35971.26
632.75	35820.98
633.104	35811.49
633.459	35642.23
633.813	35650.81
634.167	35623.92
634.521	35677.25
634.875	35633.87
635.229	35595.9
635.583	35435.45
635.937	35529.24
636.291	35432.74
636.645	35480.2
636.999	35385.74
637.352	35505.06
637.706	35317.26
638.06	35418.73
638.413	35276.36
638.767	35112.07
639.121	35318.85
639.474	35110.49
639.828	35171.73
640.181	35216.25
640.534	35124.27
640.888	35037.72
641.241	34917.95
641.594	34964.73
641.947	35072.07
642.301	34973.77
642.654	34927.67
643.007	34905.75
643.36	35067.1
643.713	34693.1
644.066	35033.2
644.419	34647.68
644.771	34520
645.124	34206.56
645.477	34031.42
645.83	33887.92
646.182	33706.68
646.535	33642.96
646.888	33707.14
647.24	33581.49
647.593	33782.16
647.945	33654.26
648.298	33434.83
648.65	33489.97
649.002	33353.25
649.355	33446.8
649.707	33479.8
650.059	33644.99
650.411	34076.84
650.763	34237.29
651.115	34524.52
651.467	34384.18
651.819	34273.9
652.171	34310.51
652.523	34195.71
652.875	34232.32
653.227	34040.01
653.578	34175.6
653.93	34169.95
654.282	34048.14
654.633	33993.68
654.985	34138.31
655.337	34082.27
655.688	34023.51
656.039	34121.81
656.391	33946
656.742	34007.69
657.094	34111.42
657.445	34025.09
657.796	34026.45
658.147	33919.56
658.498	33910.52
658.849	33937.19
659.2	33988.26
659.551	33873.46
659.902	34022.38
660.253	33960.24
660.604	33935.38
660.955	33923.85
661.306	33989.84
661.656	33907.36
662.007	33957.53
662.358	33923.4
662.708	33876.62
663.059	33856.96
663.409	33650.19
663.76	33885.89
664.11	33894.93
664.461	33862.16
664.811	33773.12
665.161	33925.44
665.511	33758.43
665.862	33729.96
666.212	33777.87
666.562	33933.35
666.912	33776.74
667.262	33830.97
667.612	33983.51
667.962	33836.85
668.312	33715.27
668.662	33915.94
669.011	33777.42
669.361	33677.31
669.711	33725.89
670.06	33600.92
670.41	33656.52
670.76	33613.35
671.109	33624.65
671.459	33615.61
671.808	33489.74
672.157	33576.97
672.507	33487.71
672.856	33479.12
673.205	33531.1
673.554	33527.93
673.904	33351.67
674.253	33623.97
674.602	33448.39
674.951	32974.27
675.3	32773.38
675.649	33198.68
675.998	33270.09
676.346	33295.17
676.695	33372.46
677.044	33118.23
677.393	33136.98
677.741	33132.01
678.09	32995.74
678.438	33040.04
678.787	33082.75
679.135	33106.7
679.484	32830.1
679.832	32964.78
680.181	32699.25
680.529	32889.3
680.877	32877.55
681.225	32681.17
681.573	32890.89
681.922	32638.92
682.27	32612.02
682.618	32562.76
682.966	32512.14
683.314	32613.15
683.661	32407.51
684.009	32337.91
684.357	32303.11
684.705	32166.84
685.053	32300.62
685.4	32174.97
685.748	31867.18
686.095	31983.57
686.443	31850.91
686.79	31736.34
687.138	31740.86
687.485	31660.18
687.832	31571.37
688.18	31607.3
688.527	31383.58
688.874	31360.98
689.221	31273.98
689.568	31214.09
689.915	31090.26
690.262	31286.41
690.609	31100.43
690.956	31014.1
691.303	30946.76
691.65	30763.26
691.997	30734.56
692.344	30509.25
692.69	30530.95
693.037	30644.39
693.383	30199.88
693.73	30248.92
694.077	30171.86
694.423	30036.05
694.769	29928.7
695.116	30024.52
695.462	29949.49
695.808	29805.09
696.155	29855.49
696.501	29559.67
696.847	29577.3
697.193	29412.56
697.539	29418.89
697.885	29219.34
698.231	29063.87
698.577	29114.94
698.923	28981.16
699.269	28855.74
699.614	28835.17
699.96	28714.27
700.306	28631.56
700.651	28617.78
700.997	28521.06
701.342	28369.88
701.688	28422.53
702.033	28187.06
702.379	28135.98
702.724	28109.09
703.069	28173.5
703.415	27783.9
703.76	27894.86
704.105	27766.73
704.45	27690.12
704.795	27551.82
705.14	27450.35
705.485	27483.12
705.83	27309.34
706.175	27290.36
706.52	27279.28
706.865	27154.31
707.209	27091.27
707.554	26988.89
707.899	26955.68
708.243	26915.45
708.588	26783.25
708.932	26589.13
709.277	26609.47
709.621	26755
709.966	26410.38
710.31	26524.27
710.654	26242.02
710.998	26436.37
711.342	26272.76
711.687	26176.49
712.031	26124.28
712.375	25931.97
712.719	26041.8
713.063	25982.14
713.407	26044.74
713.75	25949.6
714.094	25817.17
714.438	25734.46
714.782	25762.71
715.125	25659.66
715.469	25751.87
715.812	25530.18
716.156	25300.58
716.499	25562.27
716.843	25436.17
717.186	25427.35
717.53	25507.35
717.873	25411.99
718.216	25341.71
718.559	25233.91
718.902	25190.98
719.246	25245.44
719.589	25087.02
719.932	25028.95
720.275	25082.28
720.617	24976.74
720.96	25053.13
721.303	24857.2
721.646	24940.36
721.989	24913.02
722.331	24978.55
722.674	24915.28
723.016	24934.71
723.359	24834.83
723.701	24782.85
724.044	24755.73
724.386	24536.76
724.729	24717.32
725.071	24671.67
725.413	24654.49
725.755	24653.59
726.097	24490.66
726.439	24431.45
726.782	24436.42
727.124	24465.8
727.465	24435.74
727.807	24275.97
728.149	24378.12
728.491	24343.54
728.833	24443.2
729.175	24404.1
729.516	24342.41
729.858	24301.51
730.199	24331.34
730.541	24310.32
730.882	24266.48
731.224	24303.54
731.565	24176.09
731.906	24258.57
732.248	24233.04
732.589	24046.37
732.93	23989.65
733.271	24174.28
733.612	24105.81
733.953	24273.03
734.294	24089.08
734.635	24035.98
734.976	24240.94
735.317	23960.95
735.658	24019.26
735.999	24054.06
736.339	23987.62
736.68	24018.13
737.021	23864.01
737.361	23951.23
737.702	24121.85
738.042	23905.81
738.383	23946.26
738.723	24038.01
739.063	23864.68
739.404	24041.18
739.744	23928.86
740.084	23876.89
740.424	23889.54
740.764	24012.48
741.104	23853.61
741.444	23834.4
741.784	23765.93
742.124	23818.81
742.464	23900.84
742.804	23849.54
743.143	23786.95
743.483	23801.63
743.823	23660.39
744.162	23703.56
744.502	23778.13
744.841	23669.21
745.181	23946.71
745.52	23702.2
745.86	23770.22
746.199	23808.41
746.538	23769.32
746.877	23798.24
747.216	23773.61
747.556	23650.9
747.895	23674.63
748.234	23638.25
748.573	23572.49
748.911	23585.37
749.25	23563.45
749.589	23500.4
749.928	23542.88
750.267	23621.53
750.605	23535.88
750.944	23505.6
751.283	23497.46
751.621	23517.35
751.96	23329.1
752.298	23393.06
752.636	23429.44
752.975	23273.51
753.313	23163.01
753.651	23383.34
753.989	23205.49
754.327	23311.03
754.666	23272.61
755.004	23233.29
755.342	23136.79
755.679	23244.36
756.017	23053.18
756.355	23215.89
756.693	23011.6
757.031	23010.69
757.368	22906.52
757.706	22952.84
758.044	22839.4
758.381	22939.74
758.719	22862.9
759.056	22780.42
759.394	22688.89
759.731	22535.9
760.068	22521.67
760.405	22389.92
760.743	22410.26
761.08	22520.09
761.417	22405.51
761.754	22274.89
762.091	22236.7
762.428	22305.18
762.765	22104.96
763.102	22217.95
763.438	22024.51
763.775	21910.38
764.112	21893.66
764.449	21987.22
764.785	21827.45
765.122	21763.5
765.458	21676.27
765.795	21616.83
766.131	21634.23
766.467	21530.06
766.804	21427.69
767.14	21296.84
767.476	21329.83
767.812	21210.06
768.148	21275.37
768.485	21141.82
768.821	20997.64
769.157	20954.7
769.492	20942.73
769.828	20962.61
770.164	20746.12
770.5	20718.78
770.836	20671.55
771.171	20541.15
771.507	20542.06
771.842	20391.55
772.178	20398.33
772.513	20359.69
772.849	20233.14
773.184	20150.88
773.519	20232.69
773.855	20006.93
774.19	19901.17
774.525	19855.07
774.86	19940.27
775.195	19728.07
775.53	19679.71
775.865	19606.26
776.2	19528.07
776.535	19435.2
776.87	19426.61
777.205	19337.12
777.539	19211.02
777.874	19237.69
778.209	19072.04
778.543	19039.73
778.878	18994.3
779.212	18909.56
779.547	18874.08
779.881	18954.3
780.215	18688.1
780.55	18751.82
780.884	18534.2
781.218	18505.5
781.552	18517.25
781.886	18475.67
782.22	18319.74
782.554	18319.52
782.888	18093.08
783.222	18018.51
783.556	17978.51
783.889	17986.87
784.223	17820.77
784.557	17823.03
784.89	17839.53
785.224	17820.55
785.557	17663.94
785.891	17614
786.224	17572.65
786.558	17512.08
786.891	17429.37
787.224	17348.92
787.557	17215.37
787.891	17309.6
788.224	17158.19
788.557	17128.14
788.89	17151.64
789.223	17136.95
789.556	16884.98
789.888	16924.07
790.221	16835.04
790.554	16696.74
790.887	16722.5
791.219	16541.94
791.552	16684.08
791.884	16565.44
792.217	16575.84
792.549	16473.47
792.882	16465.1
793.214	16310.98
793.546	16283.64
793.879	16254.49
794.211	16162.96
794.543	16232.79
794.875	16111.89
795.207	16050.65
795.539	16060.59
795.871	15918.68
796.203	15849.3
796.535	15784.9
796.867	15776.31
797.198	15769.3
797.53	15654.28
797.862	15595.75
798.193	15653.37
798.525	15504
798.856	15473.49
799.188	15314.63
799.519	15299.48
799.85	15295.42
800.182	15300.84
800.513	15222.65
800.844	15086.61
801.175	15166.15
801.506	15190.34
801.837	15022.2
802.168	15026.27
802.499	14883
802.83	14915.31
803.161	14861.76
803.491	14728.88
803.822	14901.76
804.153	14743.12
804.483	14671.25
804.814	14611.14
805.145	14591.48
805.475	14580.18
805.805	14507.87
806.136	14499.28
806.466	14446.4
806.796	14453.63
807.126	14302.9
807.457	14331.15
807.787	14275.33
808.117	14169.12
808.447	14183.13
808.777	14161.66
809.107	14101.55
809.436	14056.81
809.766	14043.02
810.096	13984.49
810.426	13872.63
810.755	13963.93
811.085	13924.15
811.414	13817.26
811.744	13808.22
812.073	13725.74
812.403	13763.93
812.732	13710.15
813.061	13611.62
813.39	13595.12
813.719	13496.14
814.049	13563.03
814.378	13537.05
814.707	13501.11
815.036	13393.32
815.365	13455.47
815.693	13236.04
816.022	13340.44
816.351	13192.2
816.68	13229.26
817.008	13209.37
817.337	13173.44
817.665	13022.26
817.994	13107
818.322	13148.35
818.651	13060.22
818.979	12996.04
819.307	12979.09
819.636	12990.84
819.964	12909.49
820.292	12968.47
820.62	12885.31
820.948	12939.09
821.276	12884.86
821.604	12883.5
821.932	12971.41
822.259	12980.68
822.587	12814.35
822.915	12861.36
823.243	12837.18
823.57	12855.93
823.898	12993.1
824.225	12861.58
824.553	12832.88
824.88	12909.94
825.207	12913.78
825.535	12866.78
825.862	12898.64
826.189	12794.01
826.516	12827.91
826.843	12867.23
827.17	12908.81
827.497	12847.8
827.824	12795.37
828.151	12810.74
828.478	12839.89
828.805	12859.77
829.131	12750.63
829.458	12826.33
829.785	12737.29
830.111	12792.66
830.438	12855.03
830.764	12829.49
831.09	12793.56
831.417	12763.05
831.743	12801.92
832.069	12751.76
832.395	12683.73
832.722	12768.48
833.048	12766.67
833.374	12760.34
833.7	12682.15
834.026	12711.3
834.351	12706.56
834.677	12662.27
835.003	12660.91
835.329	12632.44
835.654	12599.22
835.98	12601.93
836.306	12593.12
836.631	12528.48
836.956	12529.84
837.282	12530.74
837.607	12550.4
837.932	12481.03
838.258	12444.42
838.583	12436.96
838.908	12444.87
839.233	12352.9
839.558	12350.18
839.883	12396.06
840.208	12306.12
840.533	12274.71
840.858	12353.12
841.182	12250.75
841.507	12189.96
841.832	12258.66
842.156	12151.32
842.481	12117.65
842.805	12162.17
843.13	12134.14
843.454	12062.51
843.778	12064.99
844.103	12063.19
844.427	12004.2
844.751	11960.59
845.075	11904.32
845.399	11948.61
845.723	11775.51
846.047	11871.78
846.371	11815.51
846.695	11743.42
847.019	11564.89
847.343	11618.45
847.666	11579.81
847.99	11518.79
848.313	11477.44
848.637	11363.09
848.96	11375.07
849.284	11390.89
849.607	11268.86
849.931	11230.21
850.254	11195.19
850.577	11116.54
850.9	11047.39
851.223	11055.98
851.546	11035.64
851.869	10958.81
852.192	10897.57
852.515	10905.93
852.838	10774.63
853.161	10861.64
853.483	10779.15
853.806	10773.5
854.129	10674.52
854.451	10670
854.774	10600.4
855.096	10622.55
855.419	10587.74
855.741	10564.92
856.063	10538.93
856.385	10483.57
856.708	10387.3
857.03	10437.92
857.352	10387.52
857.674	10317.47
857.996	10315.89
858.318	10277.24
858.64	10252.84
858.961	10262.78
859.283	10233.18
859.605	10117.25
859.926	10207.42
860.248	10133.29
860.57	10134.2
860.891	10109.79
861.212	10046.74
861.534	10069.57
861.855	9995.22
862.176	10006.06
862.498	10007.87
862.819	9988.21
863.14	9894.43
863.461	9911.83
863.782	9849.23
864.103	9894.2
864.424	9834.09
864.745	9869.8
865.065	9813.98
865.386	9843.36
865.707	9767.88
866.027	9763.59
866.348	9783.47
866.668	9696.02
866.989	9640.65
867.309	9627.32
867.63	9632.97
867.95	9693.76
868.27	9554.78
868.59	9572.18
868.91	9703.47
869.23	9575.34
869.55	9486.53
869.87	9568.79
870.19	9571.27
870.51	9535.79
870.83	9587.77
871.15	9462.58
871.469	9477.72
871.789	9495.12
872.109	9481.56
872.428	9482.01
872.748	9475.23
873.067	9405.63
873.386	9458.51
873.706	9419.41
874.025	9384.16
874.344	9321.56
874.663	9297.16
874.982	9357.72
875.301	9297.16
875.62	9263.26
875.939	9242.02
876.258	9286.31
876.577	9156.14
876.896	9205.63
877.214	9198.85
877.533	9221.45
877.852	9142.81
878.17	9170.61
878.489	9172.41
878.807	9165.86
879.125	9137.39
879.444	9101
879.762	9099.87
880.08	9100.78
880.398	9084.05
880.716	9102.36
881.034	8977.62
881.352	8978.3
881.67	8989.82
881.988	9035.47
882.306	8896.94
882.624	8943.95
882.941	8861.69
883.259	8877.51
883.577	8850.84
883.894	8825.76
884.212	8819.88
884.529	8827.11
884.846	8750.96
885.164	8779.2
885.481	8715.48
885.798	8750.05
886.115	8658.08
886.432	8682.26
886.75	8651.98
887.067	8648.36
887.383	8673.44
887.7	8633.67
888.017	8598.42
888.334	8584.18
888.651	8588.25
888.967	8543.05
889.284	8520.45
889.6	8452.43
889.917	8355.71
890.233	8363.17
890.55	8427.8
890.866	8361.59
891.182	8344.87
891.498	8274.36
891.815	8329.5
892.131	8325.66
892.447	8224.42
892.763	8202.72
893.079	8207.24
893.395	8186.23
893.71	8201.37
894.026	8148.26
894.342	8103.97
894.657	8059.22
894.973	8068.71
895.289	8029.85
895.604	8011.31
895.92	7939.9
896.235	7972.67
896.55	7935.38
896.865	7879.34
897.181	7875.95
897.496	7861.26
897.811	7835.73
898.126	7913.24
898.441	7761.38
898.756	7741.72
899.071	7717.54
899.386	7711.21
899.7	7644.77
900.015	7672.11
900.33	7561.16
900.644	7569.97
900.959	7665.11
901.273	7582.17
901.588	7475.28
901.902	7438.45
902.216	7478.22
902.531	7409.52
902.845	7400.48
903.159	7346.47
903.473	7363.87
903.787	7298.34
904.101	7256.31
904.415	7256.76
904.729	7263.31
905.042	7207.27
905.356	7165.91
905.67	7151.9
905.984	7191.22
906.297	7070.55
906.611	7025.58
906.924	7066.25
907.237	6988.74
907.551	6998.91
907.864	6994.84
908.177	6964.56
908.491	6902.64
908.804	6913.49
909.117	6801.18
909.43	6850.67
909.743	6756.43
910.056	6776.09
910.368	6724.34
910.681	6730.67
910.994	6668.07
911.307	6642.99
911.619	6616.1
911.932	6635.53
912.244	6553.5
912.557	6565.48
912.869	6538.36
913.181	6467.17
913.494	6551.92
913.806	6449.77
914.118	6505.14
914.43	6370.45
914.742	6417.46
915.054	6373.39
915.366	6325.26
915.678	6309.89
915.99	6325.03
916.302	6267.41
916.613	6178.59
916.925	6228.31
917.236	6172.27
917.548	6149.44
917.859	6165.71
918.171	6123.23
918.482	6042.1
918.794	6039.16
919.105	6048.2
919.416	5942.89
919.727	5953.74
920.038	5960.52
920.349	5935.66
920.66	5908.09
920.971	5868.32
921.282	5913.74
921.593	5851.37
921.903	5829.23
922.214	5774.31
922.525	5753.97
922.835	5727.31
923.146	5715.56
923.456	5691.38
923.767	5676.23
924.077	5677.82
924.387	5635.78
924.697	5605.5
925.008	5580.64
925.318	5528.67
925.628	5540.19
925.938	5515.79
926.248	5492.06
926.558	5408.67
926.867	5460.2
927.177	5380.2
927.487	5382.46
927.796	5309.24
928.106	5302.69
928.416	5366.86
928.725	5292.74
929.034	5252.97
929.344	5238.51
929.653	5234.89
929.962	5181.78
930.271	5181.56
930.581	5167.32
930.89	5134.55
931.199	5129.36
931.508	5121
931.817	5096.82
932.125	5076.02
932.434	5083.48
932.743	5013.43
933.051	5022.69
933.36	4992.86
933.669	4933.2
933.977	4858.4
934.286	4860.44
934.594	4916.93
934.902	4863.83
935.21	4821.79
935.519	4819.08
935.827	4802.13
936.135	4793.09
936.443	4806.65
936.751	4722.81
937.059	4728.46
937.367	4683.49
937.674	4676.26
937.982	4688.46
938.29	4627.45
938.597	4675.81
938.905	4591.07
939.213	4565.3
939.52	4546.1
939.827	4575.25
940.135	4503.16
940.442	4518.98
940.749	4485.98
941.056	4478.07
941.363	4508.36
941.67	4466.32
941.977	4377.96
942.284	4389.72
942.591	4339.55
942.898	4302.49
943.205	4318.76
943.511	4296.61
943.818	4302.26
944.125	4298.87
944.431	4304.07
944.738	4256.39
945.044	4236.72
945.35	4251.64
945.657	4201.25
945.963	4202.15
946.269	4149.95
946.575	4197.4
946.881	4088.71
947.187	4134.13
947.493	4096.39
947.799	4063.4
948.105	4105.43
948.41	4020.46
948.716	4032.66
949.022	3975.71
949.327	3977.52
949.633	3960.12
949.938	3921.7
950.244	3972.78
950.549	3913.34
950.854	3895.04
951.16	3858.66
951.465	3857.3
951.77	3860.92
952.075	3840.35
952.38	3805.55
952.685	3824.76
952.99	3782.5
953.294	3754.7
953.599	3729.62
953.904	3710.18
954.209	3732.56
954.513	3678.1
954.818	3686.91
955.122	3680.36
955.426	3651.88
955.731	3647.81
956.035	3605.78
956.339	3629.06
956.643	3587.48
956.948	3619.11
957.252	3597.42
957.556	3567.36
957.86	3550.42
958.163	3474.71
958.467	3480.36
958.771	3474.48
959.075	3494.37
959.378	3459.34
959.682	3420.02
959.985	3431.55
960.289	3426.12
960.592	3385.67
960.896	3396.52
961.199	3348.16
961.502	3319.01
961.805	3323.08
962.108	3323.75
962.411	3298.22
962.714	3294.38
963.017	3297.77
963.32	3286.92
963.623	3236.3
963.926	3246.92
964.228	3265.22
964.531	3208.96
964.833	3232.23
965.136	3194.72
965.438	3182.74
965.741	3151.33
966.043	3130.54
966.345	3151.78
966.648	3183.65
966.95	3133.7
967.252	3126.7
967.554	3082.18
967.856	3099.35
968.158	3029.3
968.46	3053.71
968.761	3039.47
969.063	3031.78
969.365	3005.8
969.666	2982.75
969.968	2959.47
970.269	2981.84
970.571	2914.05
970.872	2958.57
971.174	2929.41
971.475	2895.97
971.776	2908.4
972.077	2926.93
972.378	2883.99
972.679	2890.32
972.98	2863.43
973.281	2821.39
973.582	2822.52
973.883	2818.68
974.183	2817.78
974.484	2810.32
974.785	2787.5
975.085	2782.3
975.386	2798.34
975.686	2781.62
975.986	2751.11
976.287	2745.92
976.587	2684.68
976.887	2734.84
977.187	2677.44
977.487	2660.72
977.787	2653.94
978.087	2658.46
978.387	2639.93
978.687	2696.2
978.987	2574.17
979.286	2633.15
979.586	2565.58
979.885	2595.86
980.185	2562.19
980.484	2609.2
980.784	2578.46
981.083	2581.63
981.382	2537.33
981.682	2524.45
981.981	2519.03
982.28	2509.31
982.579	2496.66
982.878	2478.58
983.177	2471.12
983.475	2448.3
983.774	2453.49
984.073	2431.57
984.372	2455.08
984.67	2404.91
984.969	2424.8
985.267	2408.75
985.566	2397.45
985.864	2353.84
986.162	2361.07
986.461	2346.15
986.759	2358.36
987.057	2326.04
987.355	2331.01
987.653	2291.47
987.951	2300.5
988.249	2274.06
988.547	2295.31
988.844	2270.22
989.142	2285.82
989.44	2250.11
989.737	2213.05
990.035	2239.49
990.332	2246.04
990.63	2234.29
990.927	2182.54
991.224	2203.56
991.521	2190.22
991.819	2183.67
992.116	2167.4
992.413	2156.78
992.71	2158.36
993.006	2124.46
993.303	2140.96
993.6	2124.46
993.897	2108.65
994.193	2112.94
994.49	2106.39
994.787	2066.39
995.083	2050.79
995.379	2049.21
995.676	2027.97
995.972	2034.3
996.268	1986.61
996.565	2007.86
996.861	2031.13
997.157	1998.14
997.453	1963.34
997.749	1985.94
998.044	1952.27
998.34	1966.73
998.636	1943.45
998.932	1895.09
999.227	1908.2
999.523	1925.37
999.818	1918.14
1000.114	1906.39
1000.409	1898.26
1000.704	1901.42
1001	1860.74
1001.295	1857.8
1001.59	1834.75
1001.885	1854.19
1002.18	1829.1
1002.475	1816.68
1002.77	1842.89
1003.065	1796.79
1003.359	1788.88
1003.654	1775.55
1003.949	1777.81
1004.243	1777.58
1004.538	1748.88
1004.832	1756.11
1005.127	1750.01
1005.421	1716.79
1005.715	1700.07
1006.009	1720.18
1006.304	1713.4
1006.598	1694.42
1006.892	1670.92
1007.186	1687.64
1007.48	1687.19
1007.773	1645.38
1008.067	1655.32
1008.361	1623.23
1008.655	1628.21
1008.948	1632.95
1009.242	1620.75
1009.535	1599.73
1009.829	1604.25
1010.122	1554.76
1010.415	1584.59
1010.708	1566.51
1011.001	1543.91
1011.295	1538.04
1011.588	1578.26
1011.881	1519.06
1012.173	1557.47
1012.466	1524.93
1012.759	1487.19
1013.052	1476.8
1013.344	1491.94
1013.637	1475.67
1013.93	1456.68
1014.222	1458.27
1014.514	1455.1
1014.807	1442.45
1015.099	1402.9
1015.391	1439.74
1015.683	1418.95
1015.976	1419.17
1016.268	1393.18
1016.56	1402.9
1016.851	1419.4
1017.143	1376.46
1017.435	1390.7
1017.727	1369
1018.018	1354.99
1018.31	1360.42
1018.602	1365.39
1018.893	1316.58
1019.185	1338.04
1019.476	1314.99
1019.767	1322
1020.058	1310.47
1020.35	1279.29
1020.641	1277.03
1020.932	1302.79
1021.223	1266.63
1021.514	1257.59
1021.804	1255.11
1022.095	1242
1022.386	1232.51
1022.677	1245.17
1022.967	1218.73
1023.258	1222.79
1023.548	1182.79
1023.839	1206.3
1024.129	1193.41
1024.419	1166.3
1024.709	1185.96
1025	1151.16
1025.29	1177.82
1025.58	1130.14
1025.87	1134.21
1026.16	1134.89
1026.449	1138.95
1026.739	1125.85
1027.029	1131.04
1027.319	1115.45
1027.608	1101.89
1027.898	1114.55
1028.187	1098.95
1028.477	1070.93
1028.766	1065.51
1029.055	1075.68
1029.344	1058.73
1029.634	1052.85
1029.923	1056.7
1030.212	1018.96
1030.501	1032.29
1030.79	1046.07
1031.078	1001.56
1031.367	988.22
1031.656	1012.18
1031.945	1000.43
1032.233	980.54
1032.522	1006.98
1032.81	995.45
1033.099	968.79
1033.387	980.54
1033.675	961.33
1033.963	979.86
1034.251	962.01
1034.54	926.76
1034.828	945.74
1035.116	961.1
1035.403	938.51
1035.691	950.48
1035.979	930.15
1036.267	919.75
1036.554	901.67
1036.842	872.52
1037.129	898.28
1037.417	893.76
1037.704	909.13
1037.992	879.98
1038.279	885.63
1038.566	886.3
1038.853	886.3
1039.14	886.3
