Data from tablewood_dark_bookshelf_FLMS001491_00019.txt Node
Date: Wed Feb 08 14:13:44 GMT 2017
User: dcchb
Spectrometer: FLMS00149
Trigger mode: 0
Integration Time (sec): 2.000000E-2
Scans to average: 10
Electric dark correction enabled: true
Nonlinearity correction enabled: false
Boxcar width: 0
XAxis mode: Wavelengths
Number of Pixels in Spectrum: 2048
>>>>>Begin Spectral Data<<<<<
341.393	-20.51
341.776	-20.51
342.16	-20.51
342.543	-41.98
342.927	-58.25
343.31	-60.51
343.693	-83.11
344.077	-61.86
344.46	-74.74
344.843	-59.83
345.226	-44.01
345.61	-28.87
345.993	-17.12
346.376	-2.88
346.759	23.33
347.142	23.78
347.525	37.12
347.908	82.54
348.291	77.57
348.674	81.86
349.057	106.72
349.44	107.4
349.823	140.39
350.206	165.93
350.588	189.2
350.971	199.83
351.354	201.41
351.737	224.01
352.119	226.72
352.502	248.41
352.884	256.77
353.267	280.28
353.65	304.23
354.032	279.82
354.414	300.16
354.797	294.51
355.179	301.52
355.562	311.91
355.944	307.85
356.326	333.38
356.709	331.12
357.091	322.53
357.473	337.67
357.855	346.94
358.238	307.39
358.62	336.54
359.002	331.12
359.384	342.65
359.766	325.92
360.148	324.34
360.53	311.46
360.912	330.22
361.294	336.77
361.676	336.77
362.057	324.12
362.439	318.92
362.821	345.58
363.203	310.56
363.584	320.73
363.966	310.33
364.348	302.42
364.729	320.5
365.111	301.52
365.493	320.05
365.874	306.94
366.256	309.43
366.637	317.79
367.019	296.55
367.4	310.33
367.781	305.81
368.163	305.59
368.544	328.41
368.925	299.94
369.306	306.94
369.688	322.76
370.069	307.17
370.45	319.6
370.831	322.76
371.212	311.91
371.593	294.96
371.974	312.59
372.355	315.75
372.736	317.56
373.117	330.9
373.498	300.61
373.879	329.31
374.26	319.82
374.641	299.26
375.021	324.34
375.402	322.08
375.783	313.04
376.163	317.79
376.544	332.48
376.925	344.23
377.305	337
377.686	328.41
378.066	337.67
378.447	354.62
378.827	350.56
379.208	356.43
379.588	339.93
379.968	344.91
380.349	353.95
380.729	349.88
381.109	337.9
381.489	355.75
381.87	369.76
382.25	356.43
382.63	352.59
383.01	337.9
383.39	362.31
383.77	350.56
384.15	362.08
384.53	350.33
384.91	365.02
385.29	360.95
385.67	364.34
386.049	362.76
386.429	364.34
386.809	361.85
387.189	381.29
387.568	377.45
387.948	370.67
388.328	391.01
388.707	377.9
389.087	370.89
389.466	395.07
389.846	386.26
390.225	401.18
390.605	384.45
390.984	377.22
391.363	396.43
391.743	380.84
392.122	404.57
392.501	403.66
392.881	379.26
393.26	372.7
393.639	406.37
394.018	405.7
394.397	422.42
394.776	398.69
395.155	427.62
395.534	426.03
395.913	416.09
396.292	424.9
396.671	427.62
397.05	403.44
397.429	415.86
397.808	410.67
398.186	412.7
398.565	425.13
398.944	432.59
399.323	430.55
399.701	443.89
400.08	445.47
400.458	460.16
400.837	439.59
401.215	440.27
401.594	440.72
401.972	471.68
402.351	462.87
402.729	451.8
403.107	468.52
403.486	429.88
403.864	467.16
404.242	485.92
404.62	441.85
404.999	472.36
405.377	478.46
405.755	457.67
406.133	487.73
406.511	485.47
406.889	494.05
407.267	498.12
407.645	490.89
408.023	496.77
408.401	504.9
408.779	506.26
409.156	507.16
409.534	513.94
409.912	549.42
410.29	529.08
410.667	562.53
411.045	530.21
411.422	512.81
411.8	520.04
412.178	523.66
412.555	557.33
412.933	553.71
413.31	561.4
413.687	584.9
414.065	565.24
414.442	583.32
414.819	590.32
415.197	594.39
415.574	605.01
415.951	578.8
416.328	593.26
416.705	588.29
417.082	581.51
417.46	605.46
417.837	604.56
418.214	598.01
418.591	602.98
418.967	606.59
419.344	625.12
419.721	632.13
420.098	633.03
420.475	623.32
420.852	640.94
421.228	638.68
421.605	667.16
421.982	647.95
422.358	646.82
422.735	685.69
423.111	649.76
423.488	675.74
423.864	672.81
424.241	682.07
424.617	686.59
424.994	689.08
425.37	711.22
425.746	683.2
426.123	700.38
426.499	720.94
426.875	698.34
427.251	749.42
427.627	745.12
428.003	752.13
428.379	751.68
428.756	741.51
429.132	756.65
429.507	758
429.883	785.35
430.259	798.68
430.635	774.95
431.011	782.18
431.387	783.09
431.763	840.03
432.138	847.04
432.514	842.52
432.89	835.51
433.265	850.43
433.641	842.97
434.016	878.23
434.392	878.45
434.767	887.72
435.143	849.3
435.518	906.25
435.894	932.46
436.269	907.38
436.644	929.52
437.02	906.02
437.395	929.07
437.77	925.91
438.145	937.21
438.52	984.21
438.895	968.17
439.271	958
439.646	963.2
440.021	979.69
440.395	968.62
440.77	1010.2
441.145	984.66
441.52	1034.61
441.895	1031.22
442.27	1034.61
442.645	1017.66
443.019	1038.9
443.394	1041.16
443.769	1051.33
444.143	1024.44
444.518	1063.53
444.892	1043.64
445.267	1050.42
445.641	1061.95
446.016	1084.55
446.39	1092.23
446.764	1099.91
447.139	1116.86
447.513	1113.02
447.887	1103.3
448.262	1097.88
448.636	1148.5
449.01	1135.62
449.384	1150.08
449.758	1169.52
450.132	1157.99
450.506	1153.92
450.88	1170.2
451.254	1193.47
451.628	1196.86
452.002	1199.12
452.376	1196.18
452.75	1222.17
453.123	1239.12
453.497	1234.37
453.871	1244.32
454.244	1260.59
454.618	1276.86
454.992	1275.28
455.365	1301.72
455.739	1333.13
456.112	1341.49
456.486	1316.41
456.859	1385.33
457.232	1395.73
457.606	1352.34
457.979	1387.14
458.352	1423.3
458.725	1447.25
459.099	1450.87
459.472	1500.58
459.845	1441.6
460.218	1474.59
460.591	1494.93
460.964	1510.3
461.337	1515.5
461.71	1514.14
462.083	1572.22
462.456	1584.65
462.829	1578.55
463.201	1595.49
463.574	1607.02
463.947	1638.88
464.32	1688.15
464.692	1653.8
465.065	1679.11
465.438	1714.59
465.81	1724.76
466.183	1734.93
466.555	1795.04
466.928	1801.37
467.3	1760.69
467.672	1787.35
468.045	1853.57
468.417	1860.35
468.789	1886.56
469.161	1876.39
469.534	1931.76
469.906	1976.95
470.278	1953.23
470.65	1988.93
471.022	2020.34
471.394	2038.87
471.766	2063.28
472.138	2102.6
472.51	2123.16
472.882	2173.56
473.253	2198.64
473.625	2190.73
473.997	2279.54
474.369	2285.19
474.74	2273.22
475.112	2331.29
475.484	2390.73
475.855	2404.74
476.227	2423.5
476.598	2481.35
476.97	2524.28
477.341	2546.88
477.713	2587.33
478.084	2587.33
478.455	2659.2
478.827	2692.42
479.198	2759.08
479.569	2779.64
479.94	2846.99
480.311	2811.06
480.682	2937.38
481.053	3018.06
481.424	2997.49
481.795	3048.56
482.166	3088.79
482.537	3131.73
482.908	3188.22
483.279	3227.09
483.65	3220.76
484.021	3332.62
484.391	3366.97
484.762	3370.36
485.133	3419.63
485.503	3460.08
485.874	3526.29
486.244	3578.27
486.615	3618.94
486.985	3644.71
487.356	3698.72
487.726	3779.39
488.097	3836.11
488.467	3835.21
488.837	3890.8
489.207	3987.75
489.578	4056.45
489.948	4038.59
490.318	4108.88
490.688	4106.39
491.058	4166.5
491.428	4192.71
491.798	4284.01
492.168	4325.82
492.538	4375.99
492.908	4443.56
493.278	4477.23
493.648	4415.53
494.017	4494.18
494.387	4598.58
494.757	4607.84
495.126	4622.53
495.496	4707.73
495.866	4654.62
496.235	4753.38
496.605	4777.11
496.974	4808.97
497.344	4852.36
497.713	4914.28
498.082	4940.27
498.452	4994.5
498.821	4976.65
499.19	5022.98
499.559	5042.18
499.928	5121.05
500.298	5145.68
500.667	5189.07
501.036	5131.45
501.405	5216.42
501.774	5273.14
502.143	5277.43
502.512	5341.84
502.88	5376.64
503.249	5433.81
503.618	5444.89
503.987	5468.84
504.356	5484.21
504.724	5508.61
505.093	5535.28
505.462	5582.06
505.83	5645.11
506.199	5639.68
506.567	5723.3
506.936	5734.82
507.304	5788.6
507.672	5765.33
508.041	5882.84
508.409	5857.98
508.777	5935.95
509.145	5983.85
509.514	6027.47
509.882	6095.49
510.25	6088.26
510.618	6152.21
510.986	6165.09
511.354	6232.43
511.722	6267.24
512.09	6360.34
512.458	6317.18
512.826	6380.23
513.193	6425.88
513.561	6472.65
513.929	6534.8
514.297	6601.24
514.664	6580.67
515.032	6596.49
515.4	6704.06
515.767	6764.4
516.135	6820.22
516.502	6768.24
516.869	6907.9
517.237	6893.89
517.604	6921.23
517.972	7018.4
518.339	7036.93
518.706	7033.32
519.073	7069.02
519.44	7169.81
519.808	7216.59
520.175	7260.2
520.542	7337.26
520.909	7299.07
521.276	7374.55
521.643	7442.35
522.009	7502.46
522.376	7612.74
522.743	7667.88
523.11	7739.97
523.477	7830.81
523.843	7873.3
524.21	7940.86
524.577	8003.69
524.943	8003.91
525.31	8073.74
525.676	8120.97
526.043	8254.75
526.409	8185.6
526.776	8302.44
527.142	8380.18
527.508	8445.71
527.874	8474.86
528.241	8553.73
528.607	8533.62
528.973	8675.53
529.339	8613.84
529.705	8708.53
530.071	8783.78
530.437	8832.59
530.803	8892.25
531.169	8971.57
531.535	8967.96
531.901	8993.72
532.267	9033.49
532.632	9122.98
532.998	9161.17
533.364	9172.47
533.73	9270.32
534.095	9284.56
534.461	9346.25
534.826	9414.95
535.192	9369.3
535.557	9520.26
535.923	9517.55
536.288	9552.12
536.653	9614.72
537.019	9678.22
537.384	9725.68
537.749	9717.99
538.114	9687.03
538.479	9769.07
538.845	9823.98
539.21	9820.82
539.575	9875.96
539.94	9877.31
540.305	10012.22
540.67	10036.18
541.034	9935.61
541.399	10148.04
541.764	10131.54
542.129	10196.17
542.494	10146.68
542.858	10245.89
543.223	10232.56
543.587	10266.23
543.952	10341.25
544.316	10347.36
544.681	10351.65
545.045	10396.17
545.41	10523.85
545.774	10513.68
546.138	10511.87
546.503	10556.84
546.867	10619.89
547.231	10701.02
547.595	10748.25
547.959	10794.57
548.324	10758.19
548.688	10814.24
549.052	10851.97
549.416	10856.27
549.779	10930.62
550.143	10985.53
550.507	11038.64
550.871	11078.86
551.235	11070.05
551.599	11127.9
551.962	11185.07
552.326	11190.5
552.689	11256.03
553.053	11243.6
553.417	11357.95
553.78	11448.34
554.143	11454.9
554.507	11534.89
554.87	11581.45
555.234	11704.61
555.597	11725.85
555.96	11663.48
556.323	11758.39
556.686	11848.11
557.05	11891.04
557.413	11994.09
557.776	11868.67
558.139	12044.49
558.502	12104.6
558.865	12176.23
559.228	12275.67
559.59	12378.94
559.953	12351.14
560.316	12454.42
560.679	12421.88
561.041	12547.98
561.404	12658.71
561.767	12763.56
562.129	12680.4
562.492	12857.57
562.854	12808.76
563.217	12941.19
563.579	12970.56
563.941	12988.19
564.304	13116.77
564.666	13160.84
565.028	13191.57
565.39	13274.74
565.753	13314.51
566.115	13421.17
566.477	13507.95
566.839	13526.48
567.201	13718.57
567.563	13659.58
567.925	13728.74
568.287	13767.38
568.648	13923.53
569.01	13942.74
569.372	14056.41
569.734	14049.18
570.095	14163.98
570.457	14252.11
570.819	14337.53
571.18	14271.09
571.542	14395.84
571.903	14533.23
572.265	14570.97
572.626	14593.8
572.987	14644.42
573.349	14745.88
573.71	14849.16
574.071	14830.63
574.432	14871.76
574.794	15031.3
575.155	15037.63
575.516	14989.04
575.877	15133.67
576.238	15147
576.599	15282.59
576.96	15262.48
577.32	15325.76
577.681	15378.86
578.042	15415.24
578.403	15484.17
578.763	15579.08
579.124	15520.33
579.485	15748.57
579.845	15741.34
580.206	15672.41
580.566	15752.64
580.927	15802.35
581.287	15901.79
581.648	15830.37
582.008	15923.93
582.368	15984.72
582.728	16024.72
583.089	16040.09
583.449	16045.28
583.809	16120.31
584.169	16161.21
584.529	16143.36
584.889	16338.84
585.249	16276.69
585.609	16281.44
585.969	16335.67
586.329	16330.93
586.688	16418.38
587.048	16374.77
587.408	16506.97
587.768	16466.74
588.127	16541.09
588.487	16600.07
588.846	16699.05
589.206	16496.8
589.565	16525.95
589.925	16674.65
590.284	16682.1
590.643	16668.77
591.003	16703.57
591.362	16825.15
591.721	16792.84
592.08	16842.33
592.44	16866.28
592.799	16798.71
593.158	16882.32
593.517	17106.05
593.876	16983.79
594.235	16962.1
594.593	16940.85
594.952	17046.39
595.311	17055.43
595.67	17066.95
596.029	17375.64
596.387	17137.01
596.746	17192.15
597.104	17177.23
597.463	17280.73
597.822	17337.68
598.18	17279.38
598.538	17354.4
598.897	17362.09
599.255	17342.88
599.613	17580.61
599.972	17549.2
600.33	17546.49
600.688	17456.55
601.046	17493.83
601.404	17581.52
601.762	17606.37
602.12	17675.98
602.478	17727.95
602.836	17761.85
603.194	17674.62
603.552	17768.4
603.91	17802.53
604.268	17819.7
604.625	17765.69
604.983	17947.38
605.341	17805.92
605.698	17922.52
606.056	17968.17
606.413	18067.15
606.771	18017.89
607.128	18146.47
607.485	18075.51
607.843	18056.3
608.2	18188.5
608.557	18218.33
608.914	18143.76
609.272	18222.4
609.629	18307.37
609.986	18358.67
610.343	18373.13
610.7	18500.14
611.057	18445
611.414	18416.3
611.771	18270.08
612.127	18567.93
612.484	18545.78
612.841	18641.37
613.198	18489.97
613.554	18606.8
613.911	18634.37
614.267	18674.59
614.624	18708.04
614.98	18810.86
615.337	18819.9
615.693	18708.04
616.05	18810.64
616.406	18996.39
616.762	18886.79
617.118	18855.83
617.475	18886.57
617.831	19049.5
618.187	18933.34
618.543	18967.24
618.899	19088.14
619.255	18903.51
619.611	19123.4
619.967	19210.17
620.323	19119.55
620.678	19089.27
621.034	19115.94
621.39	19039.33
621.746	19108.25
622.101	19321.13
622.457	19157.74
622.812	19252.43
623.168	19181.02
623.523	19203.85
623.879	19283.62
624.234	19200.91
624.589	19256.5
624.945	19305.99
625.3	19241.81
625.655	19194.81
626.01	19224.86
626.365	19271.41
626.72	19287.68
627.075	19256.27
627.43	19110.06
627.785	19320.9
628.14	19202.04
628.495	19251.98
628.85	19199.55
629.205	19135.82
629.559	19320
629.914	19091.31
630.269	19186.67
630.623	19121.59
630.978	19230.96
631.332	19291.07
631.687	19232.77
632.041	19205.65
632.396	19167.01
632.75	19033.68
633.104	19186.9
633.459	18991.2
633.813	18989.39
634.167	18982.16
634.521	19031.42
634.875	19051.31
635.229	19012.66
635.583	18863.29
635.937	19007.24
636.291	18946.22
636.645	19019.67
636.999	18868.26
637.352	19022.38
637.706	18786.46
638.06	18875.49
638.413	18837.3
638.767	18799.34
639.121	18829.62
639.474	18769.96
639.828	18776.74
640.181	18795.49
640.534	18733.12
640.888	18713.69
641.241	18666.46
641.594	18645.22
641.947	18803.86
642.301	18557.08
642.654	18658.77
643.007	18738.55
643.36	18676.85
643.713	18602.51
644.066	18700.36
644.419	18631.21
644.771	18405
645.124	18341.27
645.477	18253.36
645.83	18260.59
646.182	18035.74
646.535	17953.93
646.888	17995.06
647.24	17961.84
647.593	18105.12
647.945	17965.23
648.298	17872.13
648.65	17812.47
649.002	17855.41
649.355	17953.03
649.707	17936.76
650.059	17999.81
650.411	18224.89
650.763	18301.5
651.115	18446.8
651.467	18405
651.819	18345.79
652.171	18308.05
652.523	18402.51
652.875	18346.24
653.227	18197.32
653.578	18392.79
653.93	18329.29
654.282	18234.15
654.633	18215.17
654.985	18193.93
655.337	18202.97
655.688	18181.95
656.039	18375.17
656.391	18226.92
656.742	18276.41
657.094	18265.56
657.445	18326.13
657.796	18211.56
658.147	18166.36
658.498	18274.15
658.849	18257.88
659.2	18102.18
659.551	18128.62
659.902	18196.41
660.253	18122.97
660.604	18148.51
660.955	18162.06
661.306	18132.46
661.656	18110.77
662.007	18191.22
662.358	18083.87
662.708	18098.56
663.059	18129.98
663.409	17984.22
663.76	18194.61
664.11	18130.43
664.461	18190.99
664.811	18157.77
665.161	18116.64
665.511	18147.38
665.862	18102.18
666.212	18150.77
666.562	18259.46
666.912	18129.98
667.262	18135.85
667.612	18079.36
667.962	18165.68
668.312	18082.07
668.662	18163.42
669.011	18125.91
669.361	18167.26
669.711	18094.04
670.06	18083.2
670.41	18060.37
670.76	18070.99
671.109	18210.65
671.459	18049.75
671.808	18087.49
672.157	18139.69
672.507	18050.2
672.856	18041.16
673.205	18049.3
673.554	18075.29
673.904	18030.77
674.253	18135.4
674.602	18054.27
674.951	17805.01
675.3	17669.65
675.649	17964.1
675.998	18015.18
676.346	18016.08
676.695	18109.18
677.044	17967.95
677.393	17957.1
677.741	17992.8
678.09	17915.97
678.438	17939.25
678.787	17940.6
679.135	17973.37
679.484	17913.71
679.832	17988.06
680.181	17868.29
680.529	17990.09
680.877	17821.73
681.225	17772.24
681.573	18029.19
681.922	17849.53
682.27	17778.12
682.618	17813.83
682.966	17752.81
683.314	17799.81
683.661	17673.94
684.009	17604.11
684.357	17601.63
684.705	17681.85
685.053	17587.84
685.4	17555.75
685.748	17416.32
686.095	17523.66
686.443	17522.76
686.79	17494.96
687.138	17454.96
687.485	17505.81
687.832	17415.64
688.18	17460.16
688.527	17358.02
688.874	17320.28
689.221	17332.93
689.568	17234.41
689.915	17114.86
690.262	17273.27
690.609	17167.29
690.956	17155.99
691.303	17138.14
691.65	17027.18
691.997	16978.59
692.344	16977.24
692.69	16849.1
693.037	16852.49
693.383	16781.54
693.73	16941.76
694.077	16697.7
694.423	16739.28
694.769	16759.62
695.116	16702.89
695.462	16673.97
695.808	16544.71
696.155	16626.29
696.501	16488.89
696.847	16572.28
697.193	16399.17
697.539	16438.95
697.885	16302.23
698.231	16325.5
698.577	16257.93
698.923	16310.81
699.269	16177.94
699.614	16111.27
699.96	16184.72
700.306	16142.23
700.651	16023.36
700.997	16022.46
701.342	16073.98
701.688	16034.89
702.033	15940.88
702.379	15971.39
702.724	15864.5
703.069	15868.11
703.415	15809.81
703.76	15826.53
704.105	15818.85
704.45	15849.81
704.795	15637.61
705.14	15608.23
705.485	15690.49
705.83	15463.38
706.175	15599.19
706.52	15545.64
706.865	15521.46
707.209	15489.37
707.554	15411.4
707.899	15447.11
708.243	15332.53
708.588	15393.78
708.932	15244.63
709.277	15214.12
709.621	15299.99
709.966	15159.21
710.31	15298.86
710.654	15156.04
710.998	15130.96
711.342	15210.28
711.687	15074.69
712.031	15065.42
712.375	14943.62
712.719	15013.67
713.063	14935.26
713.407	14946.56
713.75	14954.92
714.094	15047.8
714.438	14853
714.782	14895.26
715.125	14826.11
715.469	14933
715.812	14778.2
716.156	14671.08
716.499	14778.65
716.843	14701.36
717.186	14611.2
717.53	14749.27
717.873	14730.97
718.216	14700.23
718.559	14625.21
718.902	14591.99
719.246	14649.39
719.589	14530.07
719.932	14454.14
720.275	14550.41
720.617	14522.39
720.96	14481.94
721.303	14486.23
721.646	14397.19
721.989	14347.02
722.331	14475.83
722.674	14441.71
723.016	14433.8
723.359	14405.78
723.701	14421.6
724.044	14296.63
724.386	14288.27
724.729	14375.72
725.071	14315.84
725.413	14292.56
725.755	14284.2
726.097	14266.35
726.439	14118.1
726.782	14141.61
727.124	14208.5
727.465	14150.87
727.807	14123.75
728.149	13999.01
728.491	14067.03
728.833	14080.82
729.175	14013.02
729.516	14049.4
729.858	13982.29
730.199	13999.69
730.541	13988.16
730.882	14015.73
731.224	14014.6
731.565	13887.15
731.906	14012.57
732.248	14022.74
732.589	13996.52
732.93	13953.14
733.271	13870.43
733.612	13900.71
733.953	13916.3
734.294	13917.88
734.635	13893.7
734.976	13898.45
735.317	13855.06
735.658	13876.75
735.999	13772.35
736.339	13848.96
736.68	13808.28
737.021	13820.03
737.361	13745.01
737.702	13805.34
738.042	13751.11
738.383	13670.43
738.723	13743.2
739.063	13646.7
739.404	13716.53
739.744	13585.46
740.084	13645.12
740.424	13652.13
740.764	13625.23
741.104	13675.4
741.444	13596.99
741.784	13468.85
742.124	13618.68
742.464	13602.41
742.804	13551.56
743.143	13532.81
743.483	13546.14
743.823	13386.37
744.162	13468.63
744.502	13493.94
744.841	13506.82
745.181	13409.87
745.52	13446.48
745.86	13444.9
746.199	13422.53
746.538	13390.66
746.877	13381.63
747.216	13390.66
747.556	13381.85
747.895	13388.18
748.234	13317.9
748.573	13264.57
748.911	13259.14
749.25	13329.65
749.589	13246.71
749.928	13237
750.267	13229.31
750.605	13222.53
750.944	13249.43
751.283	13127.39
751.621	13171.01
751.96	13044.69
752.298	13099.83
752.636	13006.95
752.975	13085.14
753.313	12985.25
753.651	12970.34
753.989	13033.39
754.327	12919.26
754.666	12913.16
755.004	12851.24
755.342	13039.26
755.679	12939.15
756.017	12859.83
756.355	12779.38
756.693	12748.42
757.031	12783.9
757.368	12733.51
757.706	12682.89
758.044	12702.55
758.381	12567.41
758.719	12637.92
759.056	12654.41
759.394	12510.69
759.731	12508.43
760.068	12531.48
760.405	12460.75
760.743	12347.75
761.08	12382.33
761.417	12411.03
761.754	12289.68
762.091	12333.74
762.428	12240.86
762.765	12189.57
763.102	12204.93
763.438	12168.1
763.775	12082.68
764.112	12120.64
764.449	12144.14
764.785	11942.79
765.122	11952.06
765.458	11933.53
765.795	11858.28
766.131	11818.05
766.467	11842.46
766.804	11748
767.14	11582.58
767.476	11625.29
767.812	11637.72
768.148	11658.96
768.485	11552.97
768.821	11454.9
769.157	11516.59
769.492	11446.99
769.828	11496.25
770.164	11437.5
770.5	11335.58
770.836	11392.07
771.171	11221.46
771.507	11253.09
771.842	11193.21
772.178	11148.24
772.513	11126.77
772.849	11049.03
773.184	11053.55
773.519	11019.43
773.855	10957.96
774.19	10924.29
774.525	10932.88
774.86	10907.79
775.195	10768.36
775.53	10780.11
775.865	10761.58
776.2	10644.3
776.535	10550.97
776.87	10571.53
777.205	10475.71
777.539	10519.33
777.874	10521.36
778.209	10390.74
778.543	10417.64
778.878	10316.17
779.212	10324.53
779.547	10292.44
779.881	10300.35
780.215	10211.54
780.55	10214.48
780.884	10133.58
781.218	10126.8
781.552	10129.73
781.886	10053.13
782.22	10027.14
782.554	9967.03
782.888	9842.28
783.222	9870.53
783.556	9828.5
783.889	9738.33
784.223	9714.6
784.557	9672.8
784.89	9698.11
785.224	9598.22
785.557	9628.5
785.891	9563.42
786.224	9575.17
786.558	9562.74
786.891	9465.34
787.224	9441.39
787.557	9420.6
787.891	9383.31
788.224	9339.7
788.557	9352.58
788.89	9324.11
789.223	9263.77
789.556	9197.1
789.888	9159.36
790.221	9162.3
790.554	9102.64
790.887	9102.19
791.219	9068.97
791.552	9066.26
791.884	8954.85
792.217	8948.3
792.549	8898.81
792.882	8856.55
793.214	8785.14
793.546	8847.06
793.879	8790.79
794.211	8676.21
794.543	8769.32
794.875	8697.68
795.207	8725.25
795.539	8686.16
795.871	8690.9
796.203	8615.2
796.535	8553.28
796.867	8524.8
797.198	8494.3
797.53	8545.82
797.862	8418.59
798.193	8494.3
798.525	8381.76
798.856	8410.23
799.188	8272.16
799.519	8273.51
799.85	8229.9
800.182	8238.03
800.513	8307.86
800.844	8195.1
801.175	8194.64
801.506	8085.49
801.837	8055.66
802.168	8132.05
802.499	8086.62
802.83	8027.19
803.161	8052.5
803.491	8010.24
803.822	8045.72
804.153	7935.22
804.483	7908.1
804.814	7863.35
805.145	7855.44
805.475	7876.69
805.805	7855.44
806.136	7775.22
806.466	7787.87
806.796	7762.56
807.126	7685.05
807.457	7743.58
807.787	7732.06
808.117	7654.32
808.447	7680.08
808.777	7624.94
809.107	7584.49
809.436	7597.14
809.766	7615.68
810.096	7568.9
810.426	7528.22
810.755	7538.16
811.085	7477.15
811.414	7487.32
811.744	7404.38
812.073	7452.97
812.403	7376.13
812.732	7355.8
813.061	7364.38
813.39	7320.09
813.719	7298.85
814.049	7320.54
814.378	7250.94
814.707	7277.38
815.036	7275.8
815.365	7234.89
815.693	7186.76
816.022	7162.58
816.351	7148.8
816.68	7114.9
817.008	7090.49
817.337	7049.81
817.665	7058.4
817.994	6984.73
818.322	7062.24
818.651	7046.65
818.979	7024.28
819.307	6967.56
819.636	6994.9
819.964	6938.18
820.292	6954.68
820.62	6959.2
820.948	6907.67
821.276	6968.23
821.604	6911.74
821.932	6963.49
822.259	6951.96
822.587	6896.15
822.915	6892.08
823.243	6942.25
823.57	6896.6
823.898	6887.33
824.225	6857.73
824.553	6856.15
824.88	6937.5
825.207	6946.99
825.535	6916.94
825.862	6861.57
826.189	6829.71
826.516	6870.84
826.843	6907.9
827.17	6887.56
827.497	6921
827.824	6900.44
828.151	6858.63
828.478	6864.28
828.805	6913.1
829.131	6868.58
829.458	6856.15
829.785	6833.32
830.111	6808.24
830.438	6848.24
830.764	6829.93
831.09	6874
831.417	6779.77
831.743	6787.22
832.069	6840.78
832.395	6822.02
832.722	6826.09
833.048	6782.03
833.374	6821.57
833.7	6804.62
834.026	6772.31
834.351	6805.08
834.677	6767.56
835.003	6804.85
835.329	6764.85
835.654	6740.22
835.98	6721.91
836.306	6659.99
836.631	6659.09
836.956	6697.28
837.282	6694.57
837.607	6679.2
837.932	6707.22
838.258	6653.89
838.583	6647.57
838.908	6609.15
839.233	6623.16
839.558	6595.14
839.883	6608.47
840.208	6611.18
840.533	6550.62
840.858	6561.69
841.182	6576.61
841.507	6534.12
841.832	6515.37
842.156	6503.16
842.481	6471.07
842.805	6474.91
843.13	6479.89
843.454	6440.34
843.778	6432.88
844.103	6403.05
844.427	6389.49
844.751	6379.55
845.075	6427.68
845.399	6416.84
845.723	6281.25
846.047	6342.71
846.371	6304.75
846.695	6224.3
847.019	6286.44
847.343	6193.79
847.666	6191.53
847.99	6179.33
848.313	6146.79
848.637	6071.76
848.96	6090.74
849.284	6078.54
849.607	6069.95
849.931	5993.12
850.254	5995.83
850.577	5957.64
850.9	5897.98
851.223	5914.25
851.546	5886
851.869	5880.81
852.192	5909.05
852.515	5846.23
852.838	5883.29
853.161	5784.54
853.483	5804.42
853.806	5766.46
854.129	5725.56
854.451	5771.2
854.774	5729.62
855.096	5718.55
855.419	5706.8
855.741	5658.44
856.063	5685.56
856.385	5630.87
856.708	5639
857.03	5562.62
857.352	5621.83
857.674	5594.03
857.996	5551.1
858.318	5541.15
858.64	5559.68
858.961	5554.49
859.283	5543.87
859.605	5449.18
859.926	5495.51
860.248	5448.95
860.57	5444.43
860.891	5463.42
861.212	5418.67
861.534	5418.67
861.855	5439.91
862.176	5431.78
862.498	5384.77
862.819	5404.66
863.14	5392.23
863.461	5360.14
863.782	5337.09
864.103	5355.62
864.424	5342.06
864.745	5343.64
865.065	5297.54
865.386	5327.83
865.707	5269.3
866.027	5270.88
866.348	5261.61
866.668	5279.01
866.989	5308.39
867.309	5226.81
867.63	5295.28
867.95	5252.57
868.27	5253.93
868.59	5233.59
868.91	5207.83
869.23	5173.03
869.55	5206.93
869.87	5200.15
870.19	5189.98
870.51	5185.46
870.83	5215.74
871.15	5097.1
871.469	5124.67
871.789	5194.5
872.109	5153.82
872.428	5128.96
872.748	5105.46
873.067	5088.06
873.386	5078.79
873.706	5090.54
874.025	5048.29
874.344	5087.61
874.663	5052.8
874.982	5056.65
875.301	5012.13
875.62	5009.64
875.939	5008.51
876.258	5078.57
876.577	5034.73
876.896	5017.55
877.214	4986.14
877.533	4977.1
877.852	4978.91
878.17	4979.81
878.489	4993.37
878.807	4972.81
879.125	5020.94
879.444	5025.46
879.762	4931.68
880.08	4956.31
880.398	4900.04
880.716	4892.81
881.034	4949.3
881.352	4935.52
881.67	4912.47
881.988	4894.84
882.306	4887.84
882.624	4880.38
882.941	4866.37
883.259	4847.16
883.577	4865.01
883.894	4827.27
884.212	4832.92
884.529	4823.88
884.846	4830.21
885.164	4824.56
885.481	4796.99
885.798	4815.75
886.115	4791.12
886.432	4761.74
886.75	4793.83
887.067	4725.13
887.383	4740.27
887.7	4720.61
888.017	4682.87
888.334	4708.18
888.651	4719.93
888.967	4717.67
889.284	4699.59
889.6	4658.69
889.917	4635.64
890.233	4681.74
890.55	4605.36
890.866	4622.76
891.182	4611.91
891.498	4607.62
891.815	4550.45
892.131	4545.02
892.447	4601.52
892.763	4525.36
893.079	4521.29
893.395	4535.3
893.71	4515.19
894.026	4524.91
894.342	4481.75
894.657	4515.42
894.973	4456.44
895.289	4456.66
895.604	4449.21
895.92	4444.46
896.235	4427.74
896.55	4405.82
896.865	4418.02
897.181	4443.33
897.496	4376.66
897.811	4393.16
898.126	4309.55
898.441	4334.63
898.756	4343.22
899.071	4293.95
899.386	4326.27
899.7	4278.36
900.015	4248.08
900.33	4268.87
900.644	4211.02
900.959	4227.52
901.273	4208.76
901.588	4201.08
901.902	4176.67
902.216	4152.72
902.531	4143.68
902.845	4151.36
903.159	4130.8
903.473	4110.91
903.787	4070.01
904.101	4062.77
904.415	4069.1
904.729	4056.22
905.042	4059.84
905.356	4060.29
905.67	4033.4
905.984	4019.39
906.297	4025.26
906.611	3981.42
906.924	4020.29
907.237	3963.57
907.551	3961.31
907.864	3919.5
908.177	3933.74
908.491	3940.97
908.804	3914.53
909.117	3888.09
909.43	3842.44
909.743	3870.01
910.056	3823.23
910.368	3828.2
910.681	3841.09
910.994	3803.8
911.307	3797.47
911.619	3779.84
911.932	3799.73
912.244	3729.22
912.557	3750.47
912.869	3727.42
913.181	3698.49
913.494	3724.48
913.806	3677.02
914.118	3667.3
914.43	3611.71
914.742	3637.7
915.054	3612.39
915.366	3633.18
915.678	3626.85
915.99	3602.45
916.302	3606.52
916.613	3553.86
916.925	3547.99
917.236	3547.53
917.548	3524.71
917.859	3552.73
918.171	3545.5
918.482	3471.6
918.794	3502.11
919.105	3450.14
919.416	3432.51
919.727	3459.17
920.038	3437.93
920.349	3439.97
920.66	3418.27
920.971	3441.55
921.282	3401.55
921.593	3400.87
921.903	3362.23
922.214	3361.32
922.525	3337.6
922.835	3313.19
923.146	3332.17
923.456	3324.26
923.767	3338.27
924.077	3319.74
924.387	3238.84
924.697	3240.2
925.008	3283.59
925.318	3212.18
925.628	3191.61
925.938	3208.79
926.248	3158.39
926.558	3162.23
926.867	3194.32
927.177	3200.42
927.487	3166.07
927.796	3158.62
928.106	3136.92
928.416	3096.47
928.725	3127.66
929.034	3084.5
929.344	3093.99
929.653	3063.48
929.962	3077.04
930.271	3029.58
930.581	3006.98
930.89	3006.98
931.199	2992.75
931.508	2991.84
931.817	2986.42
932.125	2958.85
932.434	2995.68
932.743	2970.37
933.051	2931.28
933.36	2932.18
933.669	2938.06
933.977	2940.32
934.286	2926.99
934.594	2906.42
934.902	2893.54
935.21	2908.23
935.519	2867.78
935.827	2889.25
936.135	2828.91
936.443	2832.3
936.751	2814.9
937.059	2799.53
937.367	2815.12
937.674	2798.4
937.982	2801.34
938.29	2778.29
938.597	2805.86
938.905	2743.71
939.213	2749.81
939.52	2755.69
939.827	2711.17
940.135	2715.01
940.442	2723.15
940.749	2699.87
941.056	2714.11
941.363	2710.72
941.67	2711.85
941.977	2686.54
942.284	2671.62
942.591	2644.96
942.898	2632.3
943.205	2651.29
943.511	2632.3
943.818	2639.31
944.125	2609.93
944.431	2583.94
944.738	2561.57
945.044	2580.33
945.35	2558.18
945.657	2545.53
945.963	2552.98
946.269	2560.22
946.575	2502.82
946.881	2511.4
947.187	2548.46
947.493	2517.73
947.799	2524.51
948.105	2482.7
948.41	2447
948.716	2465.3
949.022	2464.17
949.327	2464.85
949.633	2401.58
949.938	2429.6
950.244	2415.59
950.549	2384.63
950.854	2392.76
951.16	2378.53
951.465	2362.71
951.77	2364.74
952.075	2359.99
952.38	2361.58
952.685	2346.21
952.99	2341.24
953.294	2333.55
953.599	2343.27
953.904	2307.11
954.209	2333.33
954.513	2290.39
954.818	2275.7
955.122	2293.78
955.426	2256.49
955.731	2257.4
956.035	2253.56
956.339	2242.94
956.643	2226.89
956.948	2200.45
957.252	2192.09
957.556	2231.41
957.86	2209.94
958.163	2194.8
958.467	2210.39
958.771	2187.8
959.075	2162.71
959.378	2129.04
959.682	2164.07
959.985	2146.21
960.289	2137.85
960.592	2118.42
960.896	2115.26
961.199	2133.11
961.502	2105.31
961.805	2099.89
962.108	2088.82
962.411	2090.4
962.714	2070.28
963.017	2068.93
963.32	2060.57
963.623	2067.35
963.926	2072.32
964.228	2073.9
964.531	2025.99
964.833	2024.18
965.136	1977.86
965.438	2015.6
965.741	1978.99
966.043	1991.64
966.345	1983.28
966.648	1992.32
966.95	1976.95
967.252	1984.86
967.554	1956.62
967.856	1957.97
968.158	1956.84
968.46	1939.67
968.761	1924.3
969.063	1894.92
969.365	1920.91
969.666	1947.35
969.968	1884.07
970.269	1881.14
970.571	1853.57
970.872	1913.23
971.174	1880.23
971.475	1887.92
971.776	1869.39
972.077	1868.71
972.378	1864.19
972.679	1856.73
972.98	1829.61
973.281	1836.39
973.582	1858.09
973.883	1830.52
974.183	1828.03
974.484	1782.38
974.785	1812.21
975.085	1828.71
975.386	1799.33
975.686	1775.15
975.986	1803.4
976.287	1771.08
976.587	1751.65
976.887	1767.92
977.187	1781.7
977.487	1753.68
977.787	1748.49
978.087	1734.02
978.387	1734.93
978.687	1722.05
978.987	1729.28
979.286	1722.72
979.586	1648.83
979.885	1683.63
980.185	1681.14
980.484	1679.79
980.784	1654.25
981.083	1685.89
981.382	1656.06
981.682	1625.78
981.981	1659.22
982.28	1656.28
982.579	1640.92
982.878	1654.7
983.177	1616.06
983.475	1603.18
983.774	1562.05
984.073	1602.27
984.372	1576.29
984.67	1581.03
984.969	1596.85
985.267	1600.01
985.566	1595.49
985.864	1583.52
986.162	1522.5
986.461	1541.94
986.759	1569.51
987.057	1534.48
987.355	1512.11
987.653	1557.08
987.951	1538.1
988.249	1529.28
988.547	1510.75
988.844	1505.55
989.142	1515.95
989.44	1487.7
989.737	1476.85
990.035	1490.19
990.332	1463.29
990.63	1485.22
990.927	1490.64
991.224	1457.87
991.521	1456.97
991.819	1462.62
992.116	1450.64
992.413	1436.85
992.71	1412
993.006	1434.6
993.303	1422.62
993.6	1425.1
993.897	1410.41
994.193	1415.16
994.49	1422.62
994.787	1432.11
995.083	1379.91
995.379	1389.17
995.676	1372.22
995.972	1371.09
996.268	1363.18
996.565	1374.71
996.861	1340.36
997.157	1346.46
997.453	1329.97
997.749	1343.07
998.044	1322.06
998.34	1326.8
998.636	1325.9
998.932	1327.48
999.227	1317.76
999.523	1286.35
999.818	1312.11
1000.114	1274.83
1000.409	1270.08
1000.704	1247.48
1001	1265.56
1001.295	1251.32
1001.59	1270.76
1001.885	1304.2
1002.18	1244.77
1002.475	1241.61
1002.77	1223.53
1003.065	1219.01
1003.359	1211.1
1003.654	1215.17
1003.949	1224.21
1004.243	1203.87
1004.538	1189.86
1004.832	1213.36
1005.127	1210.19
1005.421	1197.99
1005.715	1202.51
1006.009	1172.91
1006.304	1164.55
1006.598	1166.81
1006.892	1135.17
1007.186	1173.13
1007.48	1147.14
1007.773	1147.14
1008.067	1122.29
1008.361	1148.95
1008.655	1117.77
1008.948	1130.87
1009.242	1097.88
1009.535	1115.28
1009.829	1092.91
1010.122	1089.75
1010.415	1101.5
1010.708	1075.96
1011.001	1079.12
1011.295	1084.1
1011.588	1066.47
1011.881	1078.67
1012.173	1077.32
1012.466	1060.37
1012.759	1059.69
1013.052	1085
1013.344	1060.37
1013.637	1055.62
1013.93	1013.36
1014.222	1006.58
1014.514	1019.69
1014.807	1026.24
1015.099	994.15
1015.391	1012.23
1015.683	1000.93
1015.976	1006.58
1016.268	969.75
1016.56	992.35
1016.851	998.9
1017.143	993.48
1017.435	985.79
1017.727	971.78
1018.018	940.37
1018.31	947.15
1018.602	970.2
1018.893	962.29
1019.185	943.08
1019.476	955.74
1019.767	924.1
1020.058	948.96
1020.35	933.37
1020.641	920.48
1020.932	892.24
1021.223	911.22
1021.514	920.71
1021.804	900.82
1022.095	891.56
1022.386	902.63
1022.677	900.6
1022.967	881.16
1023.258	876.19
1023.548	884.55
1023.839	871.9
1024.129	849.53
1024.419	866.93
1024.709	855.63
1025	835.29
1025.29	859.24
1025.58	840.03
1025.87	853.14
1026.16	819.47
1026.449	827.83
1026.739	820.83
1027.029	814.27
1027.319	804.1
1027.608	798.45
1027.898	809.53
1028.187	799.81
1028.477	783.76
1028.766	813.82
1029.055	779.7
1029.344	783.54
1029.634	787.83
1029.923	786.02
1030.212	795.52
1030.501	781.28
1030.79	762.3
1031.078	747.38
1031.367	762.07
1031.656	754.61
1031.945	745.8
1032.233	762.97
1032.522	736.08
1032.81	749.19
1033.099	737.66
1033.387	726.82
1033.675	729.53
1033.963	733.14
1034.251	720.94
1034.54	720.94
1034.828	729.08
1035.116	703.31
1035.403	710.55
1035.691	720.49
1035.979	697.44
1036.267	685.01
1036.554	684.78
1036.842	695.18
1037.129	678
1037.417	676.2
1037.704	675.29
1037.992	684.56
1038.279	654.95
1038.566	654.28
1038.853	654.28
1039.14	654.28
