Data from tablewood_brown_FLMS001491_039.txt Node
Date: Tue Feb 07 11:10:23 GMT 2017
User: dcchb
Spectrometer: FLMS00149
Trigger mode: 0
Integration Time (sec): 2.000000E-2
Scans to average: 10
Electric dark correction enabled: true
Nonlinearity correction enabled: false
Boxcar width: 0
XAxis mode: Wavelengths
Number of Pixels in Spectrum: 2048
>>>>>Begin Spectral Data<<<<<
341.393	-21.65
341.776	-21.65
342.16	-21.65
342.543	-61.42
342.927	-70.92
343.31	-72.95
343.693	-82.44
344.077	-69.33
344.46	-86.96
344.843	-31.14
345.226	-46.74
345.61	-10.13
345.993	-0.86
346.376	-27.08
346.759	14.73
347.142	36.43
347.525	37.1
347.908	68.97
348.291	76.2
348.674	95.86
349.057	98.34
349.44	113.94
349.823	143.32
350.206	158.91
350.588	221.96
350.971	195.74
351.354	225.57
351.737	249.08
352.119	252.47
352.502	265.12
352.884	280.71
353.267	282.29
353.65	297.89
354.032	294.72
354.414	317.77
354.797	328.85
355.179	348.96
355.562	334.72
355.944	333.59
356.326	346.7
356.709	343.08
357.091	340.37
357.473	335.85
357.855	343.76
358.238	337.21
358.62	346.25
359.002	361.16
359.384	342.18
359.766	355.51
360.148	356.64
360.53	324.33
360.912	342.86
361.294	341.73
361.676	338.11
362.057	354.61
362.439	348.06
362.821	332.91
363.203	339.69
363.584	328.62
363.966	327.49
364.348	333.82
364.729	335.4
365.111	333.37
365.493	346.7
365.874	328.62
366.256	343.31
366.637	334.5
367.019	330.43
367.4	312.12
367.781	338.11
368.163	336.08
368.544	326.81
368.925	327.94
369.306	334.5
369.688	305.57
370.069	347.38
370.45	329.07
370.831	325.01
371.212	327.49
371.593	335.85
371.974	335.4
372.355	329.98
372.736	357.1
373.117	351.67
373.498	341.28
373.879	356.42
374.26	343.99
374.641	330.88
375.021	335.85
375.402	343.99
375.783	350.77
376.163	342.63
376.544	383.08
376.925	345.12
377.305	374.5
377.686	343.31
378.066	367.04
378.447	355.74
378.827	341.73
379.208	357.55
379.588	367.94
379.968	350.77
380.349	362.07
380.729	357.32
381.109	361.61
381.489	363.42
381.87	381.05
382.25	391.22
382.63	357.55
383.01	396.87
383.39	379.47
383.77	379.69
384.15	376.98
384.53	391.9
384.91	393.93
385.29	399.81
385.67	397.09
386.049	399.58
386.429	392.12
386.809	377.66
387.189	389.41
387.568	391.44
387.948	389.64
388.328	386.92
388.707	414.04
389.087	400.71
389.466	422.63
389.846	416.75
390.225	434.16
390.605	421.95
390.984	417.66
391.363	420.37
391.743	428.05
392.122	439.35
392.501	433.48
392.881	449.97
393.26	447.71
393.639	442.74
394.018	435.96
394.397	450.88
394.776	446.13
395.155	463.31
395.534	472.57
395.913	480.26
396.292	466.7
396.671	456.3
397.05	479.13
397.429	475.28
397.808	505.34
398.186	510.76
398.565	498.11
398.944	483.87
399.323	490.88
399.701	496.53
400.08	520.03
400.458	499.92
400.837	511.22
401.215	518.67
401.594	510.09
401.972	524.1
402.351	523.87
402.729	525.68
403.107	524.55
403.486	523.19
403.864	542.85
404.242	549.41
404.62	531.33
404.999	571.78
405.377	554.83
405.755	561.38
406.133	590.99
406.511	565.45
406.889	578.33
407.267	596.86
407.645	596.18
408.023	581.95
408.401	602.06
408.779	588.95
409.156	628.95
409.534	629.18
409.912	631.66
410.29	622.17
410.667	643.42
411.045	661.49
411.422	668.95
411.8	642.96
412.178	671.66
412.555	649.52
412.933	677.99
413.31	664.88
413.687	693.81
414.065	689.97
414.442	680.48
414.819	696.75
415.197	730.64
415.574	743.07
415.951	707.82
416.328	696.97
416.705	734.26
417.082	740.81
417.46	727.25
417.837	755.28
418.214	741.04
418.591	767.03
418.967	766.35
419.344	767.48
419.721	766.8
420.098	749.85
420.475	761.38
420.852	785.11
421.228	802.51
421.605	789.17
421.982	801.83
422.358	791.21
422.735	819.68
423.111	819.23
423.488	833.01
423.864	810.19
424.241	864.43
424.617	863.07
424.994	854.03
425.37	831.21
425.746	857.42
426.123	850.42
426.499	878.44
426.875	877.31
427.251	892
427.627	901.49
428.003	903.3
428.379	914.14
428.756	926.8
429.132	943.07
429.507	964.31
429.883	957.98
430.259	992.56
430.635	962.28
431.011	1020.35
431.387	992.78
431.763	1028.04
432.138	1045.89
432.514	1028.72
432.89	1034.82
433.265	1086.12
433.641	1067.36
434.016	1049.28
434.392	1095.15
434.767	1133.8
435.143	1094.7
435.518	1108.71
435.894	1139.9
436.269	1139.22
436.644	1147.13
437.02	1191.88
437.395	1180.12
437.77	1206.34
438.145	1195.49
438.52	1241.37
438.895	1218.77
439.271	1231.65
439.646	1268.94
440.021	1268.94
440.395	1275.72
440.77	1254.92
441.145	1299.9
441.52	1336.5
441.895	1312.32
442.27	1303.51
442.645	1323.4
443.019	1341.48
443.394	1327.69
443.769	1371.76
444.143	1368.82
444.518	1366.56
444.892	1367.24
445.267	1397.07
445.641	1395.94
446.016	1376.28
446.39	1424.64
446.764	1425.32
447.139	1441.13
447.513	1469.38
447.887	1454.02
448.262	1440
448.636	1437.07
449.01	1465.31
449.384	1485.88
449.758	1503.05
450.132	1519.1
450.506	1529.49
450.88	1538.98
451.254	1545.09
451.628	1532.88
452.002	1575.14
452.376	1550.96
452.75	1569.72
453.123	1575.14
453.497	1622.37
453.871	1630.28
454.244	1662.82
454.618	1667.34
454.992	1691.3
455.365	1673.9
455.739	1769.04
456.112	1725.42
456.486	1749.83
456.859	1777.4
457.232	1832.31
457.606	1790.96
457.979	1807.9
458.352	1852.2
458.725	1905.3
459.099	1913.89
459.472	1968.58
459.845	1957.73
460.218	1980.56
460.591	2015.36
460.964	2026.43
461.337	2046.99
461.71	2056.94
462.083	2117.95
462.456	2096.26
462.829	2151.17
463.201	2167.22
463.574	2186.88
463.947	2199.76
464.32	2250.15
464.692	2265.75
465.065	2267.78
465.438	2317.04
465.81	2366.53
466.183	2399.75
466.555	2427.55
466.928	2450.15
467.3	2460.32
467.672	2482.01
468.045	2606.08
468.417	2556.59
468.789	2578.73
469.161	2593.87
469.534	2691.05
469.906	2736.24
470.278	2769.46
470.65	2807.65
471.022	2831.83
471.394	2895.33
471.766	2917.71
472.138	2962.45
472.51	3013.97
472.882	3091.71
473.253	3126.97
473.625	3157.93
473.997	3235.66
474.369	3227.98
474.74	3326.73
475.112	3410.57
475.484	3465.26
475.855	3557.69
476.227	3562.89
476.598	3681.75
476.97	3713.39
477.341	3788.87
477.713	3898.92
478.084	3895.31
478.455	4032.25
478.827	4052.37
479.198	4244.68
479.569	4216.65
479.94	4331.91
480.311	4383.2
480.682	4480.6
481.053	4589.75
481.424	4700.94
481.795	4749.07
482.166	4802.4
482.537	4855.28
482.908	5003.53
483.279	5022.28
483.65	5156.52
484.021	5258.21
484.391	5302.05
484.762	5369.84
485.133	5460.01
485.503	5531.65
485.874	5671.98
486.244	5683.28
486.615	5856.84
486.985	5908.36
487.356	6009.38
487.726	6044.63
488.097	6225.64
488.467	6303.83
488.837	6376.37
489.207	6431.74
489.578	6515.58
489.948	6613.65
490.318	6732.75
490.688	6753.09
491.058	6832.86
491.428	6938.84
491.798	7025.17
492.168	7163.02
492.538	7166.41
492.908	7306.97
493.278	7394.42
493.648	7420.41
494.017	7458.15
494.387	7580.41
494.757	7697.24
495.126	7685.26
495.496	7793.51
495.866	7814.75
496.235	7965.03
496.605	8021.75
496.974	8040.96
497.344	8166.16
497.713	8194.86
498.082	8337.45
498.452	8312.59
498.821	8429.43
499.19	8432.81
499.559	8574.28
499.928	8554.85
500.298	8679.36
500.667	8725.46
501.036	8786.93
501.405	8829.64
501.774	8878.45
502.143	8977.21
502.512	8967.26
502.88	9091.55
503.249	9153.93
503.618	9221.72
503.987	9276.63
504.356	9351.66
504.724	9364.77
505.093	9441.38
505.462	9482.73
505.83	9587.59
506.199	9624.2
506.567	9829.39
506.936	9734.48
507.304	9847.47
507.672	9965.88
508.041	9976.96
508.409	10075.94
508.777	10149.61
509.145	10246.33
509.514	10267.12
509.882	10388.24
510.25	10488.35
510.618	10543.72
510.986	10515.7
511.354	10746.88
511.722	10790.72
512.09	10896.71
512.458	10904.39
512.826	10990.71
513.193	11080.2
513.561	11136.92
513.929	11267.54
514.297	11288.11
514.664	11471.83
515.032	11569.46
515.4	11622.34
515.767	11660.75
516.135	11714.31
516.502	11750.92
516.869	11932.16
517.237	12013.29
517.604	12004.25
517.972	12152.49
518.339	12217.35
518.706	12339.15
519.073	12359.94
519.44	12534.4
519.808	12639.94
520.175	12652.37
520.542	12912.02
520.909	12924.67
521.276	12983.66
521.643	13145.69
522.009	13184.55
522.376	13328.05
522.743	13441.04
523.11	13574.37
523.477	13664.99
523.843	13820.24
524.21	13953.8
524.577	13984.08
524.943	14107.92
525.31	14257.07
525.676	14404.86
526.043	14444.18
526.409	14616.83
526.776	14737.28
527.142	14768.92
527.508	14858.18
527.874	14944.51
528.241	14949.71
528.607	15192.19
528.973	15375.46
529.339	15274.22
529.705	15445.06
530.071	15534.55
530.437	15666.52
530.803	15810.47
531.169	15818.16
531.535	15857.93
531.901	15999.62
532.267	16118.71
532.632	16180.86
532.998	16196
533.364	16367.97
533.73	16346.73
534.095	16569.1
534.461	16556.9
534.826	16660.17
535.192	16812.03
535.557	16946.49
535.923	16958.01
536.288	16976.32
536.653	17055.87
537.019	17017.67
537.384	17224
537.749	17285.24
538.114	17340.15
538.479	17346.93
538.845	17409.08
539.21	17444.78
539.575	17569.98
539.94	17620.14
540.305	17677.32
540.67	17663.08
541.034	17748.05
541.399	17845.22
541.764	17923.19
542.129	17910.76
542.494	18016.74
542.858	18110.98
543.223	18042.28
543.587	18222.84
543.952	18301.93
544.316	18269.17
544.681	18339.45
545.045	18445.21
545.41	18517.07
545.774	18658.76
546.138	18651.53
546.503	18790.96
546.867	18784.63
547.231	18989.6
547.595	18999.09
547.959	19001.58
548.324	19104.4
548.688	19069.82
549.052	19282.7
549.416	19310.5
549.779	19425.75
550.143	19521.79
550.507	19662.58
550.871	19723.59
551.235	19681.78
551.599	19809.24
551.962	19959.07
552.326	20014.43
552.689	20186.18
553.053	20195.67
553.417	20297.59
553.78	20481.99
554.143	20382.56
554.507	20604.25
554.87	20684.92
555.234	20910.68
555.597	20903.22
555.96	21021.41
556.323	21114.52
556.686	21199.71
557.05	21443.55
557.413	21495.97
557.776	21643.99
558.139	21805.57
558.502	21782.97
558.865	22008.96
559.228	22175.73
559.59	22334.6
559.953	22492.56
560.316	22687.81
560.679	22663.4
561.041	22881.47
561.404	23106.55
561.767	23180.68
562.129	23254.35
562.492	23622.7
562.854	23589.03
563.217	23724.84
563.579	23894.78
563.941	24080.99
564.304	24270.59
564.666	24446.41
565.028	24561.66
565.39	24775.44
565.753	24888.88
566.115	25080.06
566.477	25348.08
566.839	25365.03
567.201	25466.49
567.563	25640.72
567.925	26090.66
568.287	26100.6
568.648	26216.08
569.01	26344.43
569.372	26633.24
569.734	26623.3
570.095	26810.64
570.457	27113.45
570.819	27171.98
571.18	27426.21
571.542	27635.93
571.903	27661.91
572.265	27915.01
572.626	28065.97
572.987	28265.29
573.349	28400.65
573.71	28631.61
574.071	28724.26
574.432	28866.18
574.794	29146.62
575.155	29207.41
575.516	29204.92
575.877	29417.35
576.238	29606.5
576.599	29728.07
576.96	29791.12
577.32	29891.01
577.681	30148.4
578.042	30303.65
578.403	30347.49
578.763	30521.73
579.124	30725.56
579.485	30745
579.845	31014.82
580.206	30971.66
580.566	30964.88
580.927	31285.55
581.287	31438.99
581.648	31302.95
582.008	31485.54
582.368	31489.38
582.728	31637.85
583.089	31605.09
583.449	31625.65
583.809	31827.45
584.169	31972.99
584.529	31951.52
584.889	32130.27
585.249	32104.73
585.609	32111.29
585.969	32300.66
586.329	32248.23
586.688	32361.68
587.048	32276.03
587.408	32277.39
587.768	32539.3
588.127	32447.78
588.487	32422.01
588.846	32658.17
589.206	32579.52
589.565	32593.08
589.925	32632.63
590.284	32646.64
590.643	32852.06
591.003	32802.57
591.362	32938.61
591.721	32949.01
592.08	32962.79
592.44	32977.71
592.799	33064.48
593.158	32993.75
593.517	33035.33
593.876	33125.05
594.235	33055.67
594.593	33040.08
594.952	33195.33
595.311	33053.41
595.67	33247.53
596.029	33380.41
596.387	33229
596.746	33426.51
597.104	33346.74
597.463	33321.43
597.822	33455.21
598.18	33350.35
598.538	33350.58
598.897	33623.11
599.255	33332.95
599.613	33747.18
599.972	33660.4
600.33	33567.3
600.688	33467.41
601.046	33543.79
601.404	33799.61
601.762	33782.66
602.12	33933.16
602.478	33927.51
602.836	33822.2
603.194	33684.13
603.552	33835.08
603.91	33747.18
604.268	34004.35
604.625	33845.03
604.983	34122.76
605.341	33963.67
605.698	34129.09
606.056	34187.17
606.413	34021.07
606.771	34102.42
607.128	34174.74
607.485	34227.62
607.843	34207.28
608.2	34232.59
608.557	34393.26
608.914	34280.27
609.272	34451.57
609.629	34398.01
609.986	34519.13
610.343	34407.73
610.7	34661.5
611.057	34589.87
611.414	34568.4
611.771	34631.45
612.127	34779.47
612.484	34770.2
612.841	34767.49
613.198	34859.24
613.554	34762.74
613.911	34909.18
614.267	35010.65
614.624	35050.87
614.98	35070.98
615.337	35203.18
615.693	35179.68
616.05	35134.94
616.406	35307.36
616.762	35159.12
617.118	35248.16
617.475	35180.36
617.831	35255.84
618.187	35265.1
618.543	35262.84
618.899	35504.87
619.255	35437.53
619.611	35470.52
619.967	35481.82
620.323	35513.46
620.678	35560.24
621.034	35411.31
621.39	35444.76
621.746	35346.68
622.101	35805.65
622.457	35620.12
622.812	35676.39
623.168	35620.35
623.523	35556.62
623.879	35750.29
624.234	35478.21
624.589	35521.59
624.945	35564.98
625.3	35710.29
625.655	35608.15
626.01	35643.62
626.365	35808.59
626.72	35638.88
627.075	35659.9
627.43	35578.54
627.785	35586.9
628.14	35657.86
628.495	35623.74
628.85	35477.08
629.205	35418.77
629.559	35644.98
629.914	35480.47
630.269	35508.26
630.623	35470.97
630.978	35364.54
631.332	35478.21
631.687	35568.15
632.041	35410.41
632.396	35483.63
632.75	35241.6
633.104	35324.99
633.459	35174.48
633.813	35158.89
634.167	35208.83
634.521	35023.75
634.875	35255.16
635.229	35144.43
635.583	34927.94
635.937	35009.97
636.291	35030.99
636.645	34946.02
636.999	34854.72
637.352	34901.27
637.706	34751.9
638.06	34883.19
638.413	34750.77
638.767	34684.1
639.121	34798
639.474	34517.55
639.828	34593.26
640.181	34683.88
640.534	34637.55
640.888	34442.98
641.241	34442.98
641.594	34383.77
641.947	34414.5
642.301	34401.62
642.654	34413.6
643.007	34306.71
643.36	34380.16
643.713	34236.2
644.066	34292.02
644.419	34192.14
644.771	34010.22
645.124	33864.46
645.477	33746.27
645.83	33502.89
646.182	33264.25
646.535	33191.94
646.888	33302.9
647.24	33129.11
647.593	33279.62
647.945	33356.68
648.298	33183.58
648.65	32958.05
649.002	33051.83
649.355	33029
649.707	33024.71
650.059	33180.86
650.411	33496.11
650.763	33530.69
651.115	33794.63
651.467	33802.32
651.819	33949.21
652.171	33789.44
652.523	33719.38
652.875	33760.96
653.227	33648.65
653.578	33886.83
653.93	33756.44
654.282	33628.31
654.633	33550.57
654.985	33562.55
655.337	33737.46
655.688	33647.52
656.039	33776.56
656.391	33434.87
656.742	33617.46
657.094	33569.78
657.445	33638.25
657.796	33485.49
658.147	33570.46
658.498	33476
658.849	33587.41
659.2	33447.52
659.551	33475.32
659.902	33695.2
660.253	33498.6
660.604	33523
660.955	33498.14
661.306	33617.46
661.656	33537.69
662.007	33553.51
662.358	33495.21
662.708	33415.66
663.059	33441.2
663.409	33236.91
663.76	33397.36
664.11	33349.9
664.461	33499.05
664.811	33402.33
665.161	33507.86
665.511	33511.03
665.862	33313.29
666.212	33463.12
666.562	33433.06
666.912	33377.7
667.262	33387.87
667.612	33259.51
667.962	33447.75
668.312	33363.46
668.662	33380.41
669.011	33229
669.361	33231.03
669.711	33265.83
670.06	33211.15
670.41	33128.66
670.76	33171.83
671.109	33211.6
671.459	33115.78
671.808	33070.81
672.157	33111.94
672.507	32849.35
672.856	32905.62
673.205	32940.87
673.554	32913.08
673.904	32833.53
674.253	33004.15
674.602	32942.23
674.951	32582.01
675.3	32457.95
675.649	32854.32
675.998	32758.96
676.346	32857.71
676.695	32880.99
677.044	32756.7
677.393	32749.24
677.741	32811.16
678.09	32707.2
678.438	32661.33
678.787	32765.73
679.135	32573.42
679.484	32355.58
679.832	32523.71
680.181	32290.49
680.529	32456.82
680.877	32393.09
681.225	32341.79
681.573	32446.87
681.922	32206.2
682.27	32216.82
682.618	32188.35
682.966	32095.7
683.314	32104.28
683.661	31840.34
684.009	31886.89
684.357	31848.7
684.705	31731.19
685.053	31741.13
685.4	31687.57
685.748	31497.29
686.095	31486.9
686.443	31443.51
686.79	31391.76
687.138	31361.7
687.485	31247.81
687.832	31417.97
688.18	31236.74
688.527	31140.01
688.874	31159.22
689.221	31019.79
689.568	30938.66
689.915	30757.88
690.262	30734.6
690.609	30751.1
690.956	30667.71
691.303	30627.94
691.65	30472.91
691.997	30431.56
692.344	30214.62
692.69	30193.82
693.037	30121.06
693.383	29975.53
693.73	30110.21
694.077	29873.16
694.423	29740.05
694.769	29724.01
695.116	29637.23
695.462	29539.15
695.808	29321.08
696.155	29426.39
696.501	29205.83
696.847	29201.99
697.193	29017.36
697.539	29114.76
697.885	28827.31
698.231	28716.12
698.577	28830.24
698.923	28681.32
699.269	28709.12
699.614	28439.75
699.96	28429.35
700.306	28392.29
700.651	28176.93
700.997	28083.37
701.342	28004.73
701.688	27897.39
702.033	27912.08
702.379	27919.99
702.724	27754.34
703.069	27840.44
703.415	27513.67
703.76	27471.18
704.105	27350.96
704.45	27362.71
704.795	27071.42
705.14	27001.14
705.485	27099.89
705.83	26985.32
706.175	27002.95
706.52	26948.49
706.865	26846.12
707.209	26809.73
707.554	26690.19
707.899	26767.7
708.243	26583.98
708.588	26480.02
708.932	26338.56
709.277	26349.41
709.621	26346.92
709.966	25970.21
710.31	26151.9
710.654	26004.1
710.998	25967.72
711.342	25929.98
711.687	25753.94
712.031	25874.62
712.375	25649.31
712.719	25791
713.063	25725.24
713.407	25721.63
713.75	25633.72
714.094	25687.5
714.438	25393.72
714.782	25488.86
715.125	25343.33
715.469	25353.27
715.812	25243.45
716.156	25170
716.499	25116.44
716.843	25166.84
717.186	25092.94
717.53	25203
717.873	25214.75
718.216	25097.91
718.559	25004.81
718.902	24872.16
719.246	24966.84
719.589	24877.58
719.932	24848.65
720.275	24783.12
720.617	24771.59
720.96	24707.19
721.303	24756.45
721.646	24792.84
721.989	24610.69
722.331	24602.56
722.674	24549.23
723.016	24567.76
723.359	24471.72
723.701	24505.84
724.044	24327.99
724.386	24247.31
724.729	24460.64
725.071	24252.29
725.413	24408.89
725.755	24316.24
726.097	24312.85
726.439	24174.32
726.782	24177.03
727.124	24333.64
727.465	24255.68
727.807	24243.7
728.149	24123.02
728.491	24168.45
728.833	24085.74
729.175	24050.94
729.516	24049.35
729.858	24065.17
730.199	24140.88
730.541	23991.73
730.882	23991.5
731.224	24067.21
731.565	23867.21
731.906	23959.41
732.248	23908.11
732.589	23859.08
732.93	23855.01
733.271	23765.97
733.612	23871.51
733.953	23942.01
734.294	23830.38
734.635	23812.75
734.976	23942.46
735.317	23758.74
735.658	23734.11
735.999	23865.63
736.339	23718.97
736.68	23780.89
737.021	23667.44
737.361	23637.16
737.702	23815.46
738.042	23781.79
738.383	23739.98
738.723	23798.74
739.063	23694.11
739.404	23786.54
739.744	23611.62
740.084	23610.27
740.424	23615.24
740.764	23598.29
741.104	23656.14
741.444	23610.95
741.784	23559.42
742.124	23709.25
742.464	23492.76
742.804	23446.88
743.143	23507.22
743.483	23514
743.823	23535.69
744.162	23478.97
744.502	23482.14
744.841	23476.04
745.181	23456.83
745.52	23467
745.86	23467.22
746.199	23504.51
746.538	23498.63
746.877	23519.42
747.216	23510.84
747.556	23467.22
747.895	23452.99
748.234	23379.99
748.573	23445.08
748.911	23389.48
749.25	23400.11
749.589	23327.11
749.928	23333.89
750.267	23447.11
750.605	23277.62
750.944	23307.45
751.283	23170.28
751.621	23261.13
751.96	23055.93
752.298	23170.96
752.636	23242.37
752.975	23027.01
753.313	23017.97
753.651	23182.03
753.989	22991.53
754.327	22950.17
754.666	22889.84
755.004	22907.24
755.342	22915.6
755.679	22909.5
756.017	22836.05
756.355	22828.14
756.693	22701.59
757.031	22736.17
757.368	22584.31
757.706	22714.47
758.044	22657.75
758.381	22612.1
758.719	22482.84
759.056	22599.45
759.394	22622.95
759.731	22336.4
760.068	22365.33
760.405	22233.13
760.743	22195.84
761.08	22219.8
761.417	22029.07
761.754	22080.37
762.091	22049.86
762.428	21961.72
762.765	21844.67
763.102	21872.24
763.438	21719.47
763.775	21701.84
764.112	21788.4
764.449	21720.15
764.785	21628.17
765.122	21504.34
765.458	21469.08
765.795	21404.45
766.131	21327.62
766.467	21261.86
766.804	21137.57
767.14	21092.37
767.476	21038.13
767.812	20917.23
768.148	20973.95
768.485	20931.47
768.821	20758.14
769.157	20689.89
769.492	20665.71
769.828	20619.61
770.164	20491.03
770.5	20407.64
770.836	20343.01
771.171	20256.23
771.507	20359.06
771.842	20129.91
772.178	20120.19
772.513	20113.64
772.849	19939.18
773.184	19974.66
773.519	19902.34
773.855	19857.83
774.19	19799.07
774.525	19648.57
774.86	19686.76
775.195	19593.88
775.53	19520.43
775.865	19471.62
776.2	19328.8
776.535	19241.8
776.87	19266.43
777.205	19176.71
777.539	19001.58
777.874	19040.45
778.209	18895.36
778.543	18794.35
778.878	18755.03
779.212	18797.51
779.547	18646.78
779.881	18649.5
780.215	18481.82
780.55	18523.85
780.884	18367.24
781.218	18311.43
781.552	18371.31
781.886	18270.97
782.22	18175.61
782.554	17972.45
782.888	17862.85
783.222	17877.54
783.556	17822.62
783.889	17793.25
784.223	17702.63
784.557	17592.57
784.89	17692.01
785.224	17545.8
785.557	17459.24
785.891	17412.69
786.224	17377.89
786.558	17310.1
786.891	17178.57
787.224	17173.6
787.557	17057.9
787.891	17069.88
788.224	17043.44
788.557	17017
788.89	16986.94
789.223	17082.08
789.556	16793.05
789.888	16816.1
790.221	16631.02
790.554	16569.32
790.887	16519.61
791.219	16400.06
791.552	16443
791.884	16405.94
792.217	16335.43
792.549	16251.37
792.882	16121.65
793.214	16163.23
793.546	16155.78
793.879	16038.49
794.211	15966.18
794.543	15978.83
794.875	15947.65
795.207	16032.84
795.539	15887.99
795.871	15843.92
796.203	15731.38
796.535	15678.95
796.867	15629.69
797.198	15614.1
797.53	15631.27
797.862	15494.78
798.193	15469.47
798.525	15452.74
798.856	15345.4
799.188	15245.52
799.519	15216.82
799.85	15157.16
800.182	15111.96
800.513	15109.25
800.844	14944.06
801.175	14992.64
801.506	15016.6
801.837	14903.38
802.168	14850.27
802.499	14817.05
802.83	14740.9
803.161	14657.51
803.491	14730.95
803.822	14695.02
804.153	14571.41
804.483	14501.13
804.814	14493.9
805.145	14359.21
805.475	14405.09
805.805	14317.86
806.136	14402.15
806.466	14305.43
806.796	14252.77
807.126	14153.12
807.457	14118.32
807.787	14125.32
808.117	14129.16
808.447	13993.35
808.777	14048.94
809.107	14004.65
809.436	13959
809.766	13958.32
810.096	13939.34
810.426	13831.32
810.755	13737.31
811.085	13788.83
811.414	13759.45
811.744	13588.61
812.073	13586.58
812.403	13600.81
812.732	13518.11
813.061	13515.85
813.39	13533.25
813.719	13465.68
814.049	13531.44
814.378	13407.15
814.707	13395.85
815.036	13340.71
815.365	13302.29
815.693	13160.15
816.022	13181.62
816.351	13140.26
816.68	13054.16
817.008	13086.93
817.337	13029.98
817.665	12939.14
817.994	13027.5
818.322	13098.91
818.651	12875.64
818.979	12895.97
819.307	12865.01
819.636	12895.07
819.964	12824.56
820.292	12863.66
820.62	12875.41
820.948	12847.61
821.276	12808.07
821.604	12815.52
821.932	12841.06
822.259	12730.1
822.587	12756.77
822.915	12727.62
823.243	12817.78
823.57	12700.05
823.898	12685.13
824.225	12623.67
824.553	12772.59
824.88	12711.8
825.207	12719.03
825.535	12783.21
825.862	12769.65
826.189	12806.03
826.516	12779.59
826.843	12788.41
827.17	12786.15
827.497	12778.92
827.824	12765.58
828.151	12792.93
828.478	12816.43
828.805	12861.85
829.131	12677.45
829.458	12693.27
829.785	12711.57
830.111	12690.78
830.438	12737.79
830.764	12734.4
831.09	12786.6
831.417	12660.27
831.743	12676.09
832.069	12736.43
832.395	12571.92
832.722	12611.46
833.048	12650.11
833.374	12677.45
833.7	12558.36
834.026	12527.4
834.351	12621.18
834.677	12584.8
835.003	12576.21
835.329	12491.01
835.654	12487.85
835.98	12439.04
836.306	12576.21
836.631	12517.45
836.956	12406.27
837.282	12440.62
837.607	12546.38
837.932	12456.89
838.258	12361.3
838.583	12395.42
838.908	12384.8
839.233	12340.96
839.558	12407.17
839.883	12288.53
840.208	12238.36
840.533	12240.85
840.858	12220.51
841.182	12305.93
841.507	12153.62
841.832	12161.3
842.156	12107.75
842.481	12089.67
842.805	12065.49
843.13	12105.26
843.454	12033.4
843.778	11987.3
844.103	11957.47
844.427	11919.73
844.751	11886.74
845.075	11879.96
845.399	11808.32
845.723	11829.34
846.047	11876.57
846.371	11701.88
846.695	11611.94
847.019	11601.09
847.343	11519.29
847.666	11528.78
847.99	11427.31
848.313	11384.38
848.637	11285.62
848.96	11377.37
849.284	11334.66
849.607	11207.21
849.931	11218.73
850.254	11176.02
850.577	11103.25
850.9	11012.63
851.223	10948.46
851.546	11019.64
851.869	10918.85
852.192	10955.91
852.515	10748.91
852.838	10751.4
853.161	10819.87
853.483	10740.78
853.806	10676.37
854.129	10731.74
854.451	10591.85
854.774	10643.83
855.096	10533.78
855.419	10496.26
855.741	10524.96
856.063	10442.93
856.385	10433.67
856.708	10394.57
857.03	10350.5
857.352	10353.22
857.674	10333.78
857.996	10320.67
858.318	10167.68
858.64	10233.9
858.961	10146.44
859.283	10172.66
859.605	10057.18
859.926	10098.08
860.248	10100.12
860.57	10118.65
860.891	10040.46
861.212	9996.62
861.534	9955.26
861.855	9985.32
862.176	9946
862.498	9942.15
862.819	9922.49
863.14	9905.32
863.461	9806.56
863.782	9843.63
864.103	9869.84
864.424	9760.69
864.745	9794.81
865.065	9733.12
865.386	9720.24
865.707	9669.39
866.027	9693.57
866.348	9699.22
866.668	9678.43
866.989	9612.9
867.309	9584.2
867.63	9638.21
867.95	9597.76
868.27	9574.48
868.59	9528.15
868.91	9554.59
869.23	9510.3
869.55	9516.18
869.87	9545.55
870.19	9542.84
870.51	9440.7
870.83	9463.97
871.15	9415.16
871.469	9418.78
871.789	9440.25
872.109	9431.43
872.428	9401.15
872.748	9368.61
873.067	9400.7
873.386	9367.71
873.706	9366.12
874.025	9287.26
874.344	9270.08
874.663	9331.77
874.982	9314.37
875.301	9246.13
875.62	9246.13
875.939	9192.8
876.258	9226.92
876.577	9203.19
876.896	9206.58
877.214	9145.56
877.533	9144.66
877.852	9207.26
878.17	9200.93
878.489	9118.22
878.807	9087.94
879.125	9061.95
879.444	9073.25
879.762	9011.56
880.08	9040.26
880.398	9038
880.716	9023.76
881.034	8926.81
881.352	8939.47
881.67	8981.5
881.988	9005.46
882.306	8939.02
882.624	8901.73
882.941	8897.89
883.259	8820.38
883.577	8801.62
883.894	8729.98
884.212	8786.25
884.529	8725.01
884.846	8719.59
885.164	8748.96
885.481	8676.2
885.798	8706.25
886.115	8612.47
886.432	8673.94
886.75	8613.15
887.067	8668.29
887.383	8571.57
887.7	8615.86
888.017	8565.69
888.334	8598.23
888.651	8550.1
888.967	8496.09
889.284	8466.71
889.6	8396.43
889.917	8410.67
890.233	8446.15
890.55	8351.69
890.866	8356.21
891.182	8315.98
891.498	8297
891.815	8244.8
892.131	8246.38
892.447	8216.78
892.763	8188.98
893.079	8211.35
893.395	8145.82
893.71	8157.12
894.026	8104.91
894.342	8100.39
894.657	8002.09
894.973	8055.88
895.289	8056.78
895.604	8019.49
895.92	7948.76
896.235	7952.83
896.55	7865.6
896.865	7827.18
897.181	7813.85
897.496	7862.43
897.811	7823.34
898.126	7788.31
898.441	7763.91
898.756	7746.05
899.071	7691.59
899.386	7698.15
899.7	7646.17
900.015	7601.88
900.33	7568.2
900.644	7553.52
900.959	7559.84
901.273	7520.52
901.588	7474.65
901.902	7403.01
902.216	7433.75
902.531	7382.67
902.845	7363.01
903.159	7341.32
903.473	7325.73
903.787	7263.58
904.101	7233.98
904.415	7250.47
904.729	7180.19
905.042	7139.97
905.356	7178.16
905.67	7116.24
905.984	7132.96
906.297	7082.12
906.611	7054.77
906.924	7035.56
907.237	7019.74
907.551	6932.74
907.864	6965.28
908.177	6917.15
908.491	6952.85
908.804	6902.01
909.117	6820.65
909.43	6783.37
909.743	6788.79
910.056	6809.58
910.368	6703.59
910.681	6684.61
910.994	6772.52
911.307	6666.31
911.619	6687.55
911.932	6655.69
912.244	6534.11
912.557	6613.43
912.869	6498.18
913.181	6488.23
913.494	6493.88
913.806	6462.47
914.118	6428.35
914.43	6413.89
914.742	6386.09
915.054	6315.36
915.366	6316.03
915.678	6248.92
915.99	6242.82
916.302	6210.5
916.613	6194.46
916.925	6190.39
917.236	6155.13
917.548	6092.76
917.859	6156.26
918.171	6086.89
918.482	6036.27
918.794	6043.5
919.105	6024.06
919.416	5933.45
919.727	5973.9
920.038	5978.42
920.349	5913.79
920.66	5901.36
920.971	5841.92
921.282	5844.86
921.593	5811.41
921.903	5773.45
922.214	5780.46
922.525	5701.36
922.835	5750.63
923.146	5683.28
923.456	5649.84
923.767	5631.98
924.077	5623.62
924.387	5625.21
924.697	5573.46
925.008	5576.84
925.318	5528.94
925.628	5502.5
925.938	5478.32
926.248	5462.27
926.558	5433.12
926.867	5429.05
927.177	5360.13
927.487	5378.21
927.796	5317.42
928.106	5308.15
928.416	5320.13
928.725	5296.4
929.034	5273.8
929.344	5314.93
929.653	5256.63
929.962	5193.13
930.271	5233.8
930.581	5113.81
930.89	5159.23
931.199	5086.69
931.508	5090.3
931.817	5074.49
932.125	5063.41
932.434	5044.43
932.743	4954.49
933.051	4947.03
933.36	4958.78
933.669	4944.55
933.977	4899.8
934.286	4908.16
934.594	4908.84
934.902	4863.64
935.21	4850.76
935.519	4842.63
935.827	4838.33
936.135	4765.34
936.443	4736.64
936.751	4689.41
937.059	4728.28
937.367	4697.77
937.674	4712.69
937.982	4688.51
938.29	4645.8
938.597	4625.23
938.905	4551.11
939.213	4532.58
939.52	4570.54
939.827	4576.42
940.135	4476.08
940.442	4477.66
940.749	4479.7
941.056	4478.12
941.363	4429.76
941.67	4465.91
941.977	4411.23
942.284	4419.14
942.591	4371
942.898	4363.77
943.205	4387.95
943.511	4330.1
943.818	4322.64
944.125	4281.06
944.431	4262.76
944.738	4242.19
945.044	4275.64
945.35	4222.08
945.657	4162.64
945.963	4190.44
946.269	4154.96
946.575	4196.99
946.881	4106.15
947.187	4123.55
947.493	4100.73
947.799	4077.45
948.105	4059.14
948.41	4010.11
948.716	4041.07
949.022	3993.38
949.327	3964.23
949.633	3957.9
949.938	3982.31
950.244	3915.19
950.549	3887.85
950.854	3920.17
951.16	3900.5
951.465	3889.66
951.77	3824.12
952.075	3830.45
952.38	3835.42
952.685	3811.24
952.99	3721.3
953.294	3745.48
953.599	3747.06
953.904	3712.71
954.209	3700.74
954.513	3706.39
954.818	3721.75
955.122	3706.39
955.426	3657.57
955.731	3634.98
956.035	3627.74
956.339	3577.35
956.643	3605.15
956.948	3569.89
957.252	3529.44
957.556	3545.03
957.86	3511.14
958.163	3575.54
958.467	3501.65
958.771	3494.64
959.075	3522.66
959.378	3448.77
959.682	3442.89
959.985	3425.04
960.289	3420.52
960.592	3413.29
960.896	3382.1
961.199	3354.53
961.502	3389.78
961.805	3375.55
962.108	3318.37
962.411	3326.51
962.714	3289
963.017	3295.1
963.32	3285.83
963.623	3264.59
963.926	3248.32
964.228	3220.3
964.531	3245.61
964.833	3231.6
965.136	3194.53
965.438	3172.16
965.741	3147.98
966.043	3156.12
966.345	3123.35
966.648	3120.41
966.95	3154.54
967.252	3076.35
967.554	3071.6
967.856	3070.24
968.158	3056.69
968.46	3054.2
968.761	3054.88
969.063	3009.68
969.365	3022.11
969.666	2992.73
969.968	2978.04
970.269	2969.46
970.571	2970.59
970.872	2922
971.174	2956.35
971.475	2925.16
971.776	2907.54
972.077	2870.25
972.378	2875.45
972.679	2853.75
972.98	2852.4
973.281	2867.31
973.582	2784.83
973.883	2821.21
974.183	2776.47
974.484	2784.38
974.785	2778.5
975.085	2811.04
975.386	2756.13
975.686	2757.03
975.986	2722.23
976.287	2717.49
976.587	2654.89
976.887	2689.01
977.187	2687.43
977.487	2691.5
977.787	2654.89
978.087	2641.55
978.387	2649.46
978.687	2654.66
978.987	2611.05
979.286	2605.17
979.586	2601.78
979.885	2598.39
980.185	2578.73
980.484	2586.64
980.784	2561.78
981.083	2523.37
981.382	2552.97
981.682	2490.6
981.981	2515.91
982.28	2506.87
982.579	2521.33
982.878	2468.45
983.177	2475.01
983.475	2467.1
983.774	2418.74
984.073	2457.38
984.372	2412.86
984.67	2390.71
984.969	2367.89
985.267	2398.85
985.566	2379.41
985.864	2401.34
986.162	2370.15
986.461	2340.32
986.759	2336.48
987.057	2347.33
987.355	2322.24
987.653	2314.78
987.951	2295.35
988.249	2256.03
988.547	2279.08
988.844	2299.19
989.142	2288.34
989.44	2241.79
989.737	2239.31
990.035	2233.66
990.332	2240.89
990.63	2202.92
990.927	2216.93
991.224	2184.84
991.521	2170.38
991.819	2189.36
992.116	2165.41
992.413	2142.81
992.71	2137.16
993.006	2110.5
993.303	2106.43
993.6	2144.84
993.897	2090.83
994.193	2086.77
994.49	2069.59
994.787	2060.78
995.083	2065.07
995.379	2041.34
995.676	2026.88
995.972	2061.68
996.268	2020.1
996.565	2023.94
996.861	1990.05
997.157	1979.88
997.453	1978.3
997.749	1951.18
998.044	1939.88
998.34	1951.63
998.636	1935.36
998.932	1901.01
999.227	1932.87
999.523	1932.87
999.818	1900.78
1000.114	1909.14
1000.409	1885.87
1000.704	1924.74
1001	1870.05
1001.295	1842.03
1001.59	1825.08
1001.885	1850.16
1002.18	1827.34
1002.475	1846.1
1002.77	1811.97
1003.065	1787.34
1003.359	1779.66
1003.654	1810.16
1003.949	1750.5
1004.243	1755.48
1004.538	1752.09
1004.832	1747.34
1005.127	1755.48
1005.421	1742.37
1005.715	1705.08
1006.009	1709.6
1006.304	1702.37
1006.598	1671.64
1006.892	1684.52
1007.186	1665.08
1007.48	1689.72
1007.773	1622.15
1008.067	1626.44
1008.361	1644.74
1008.655	1637.29
1008.948	1635.93
1009.242	1588.02
1009.535	1591.19
1009.829	1584.63
1010.122	1570.62
1010.415	1578.08
1010.708	1572.66
1011.001	1547.8
1011.295	1535.37
1011.588	1527.23
1011.881	1514.8
1012.173	1530.62
1012.466	1545.99
1012.759	1489.95
1013.052	1514.58
1013.344	1485.88
1013.637	1498.99
1013.93	1494.69
1014.222	1468.03
1014.514	1470.96
1014.807	1433
1015.099	1421.25
1015.391	1455.37
1015.683	1440.68
1015.976	1433.23
1016.268	1438.42
1016.56	1406.79
1016.851	1384.86
1017.143	1392.77
1017.435	1356.62
1017.727	1370.63
1018.018	1369.72
1018.31	1350.52
1018.602	1316.84
1018.893	1344.41
1019.185	1303.06
1019.476	1296.51
1019.767	1313.45
1020.058	1298.09
1020.35	1282.72
1020.641	1275.72
1020.932	1287.24
1021.223	1247.24
1021.514	1272.55
1021.804	1241.82
1022.095	1231.65
1022.386	1237.75
1022.677	1223.74
1022.967	1219.9
1023.258	1229.84
1023.548	1210.41
1023.839	1204.53
1024.129	1186.68
1024.419	1173.34
1024.709	1154.59
1025	1149.39
1025.29	1142.61
1025.58	1161.59
1025.87	1135.83
1026.16	1149.16
1026.449	1139.45
1026.739	1102.61
1027.029	1121.59
1027.319	1113.69
1027.608	1087.7
1027.898	1114.59
1028.187	1111.2
1028.477	1098.09
1028.766	1087.92
1029.055	1069.84
1029.344	1056.74
1029.634	1073.23
1029.923	1027.13
1030.212	1037.3
1030.501	1019
1030.79	1030.98
1031.078	1025.33
1031.367	1037.08
1031.656	1018.32
1031.945	1005.89
1032.233	1000.69
1032.522	997.76
1032.81	1011.54
1033.099	985.55
1033.387	957.76
1033.675	956.4
1033.963	964.54
1034.251	960.24
1034.54	942.16
1034.828	934.26
1035.116	950.07
1035.403	937.64
1035.691	953.01
1035.979	928.15
1036.267	916.85
1036.554	909.4
1036.842	895.39
1037.129	933.58
1037.417	888.38
1037.704	901.71
1037.992	877.76
1038.279	872.34
1038.566	885.22
1038.853	885.22
1039.14	885.22
