Data from tablewood_brown_FLMS001491_079.txt Node
Date: Tue Feb 07 11:11:00 GMT 2017
User: dcchb
Spectrometer: FLMS00149
Trigger mode: 0
Integration Time (sec): 2.000000E-2
Scans to average: 10
Electric dark correction enabled: true
Nonlinearity correction enabled: false
Boxcar width: 0
XAxis mode: Wavelengths
Number of Pixels in Spectrum: 2048
>>>>>Begin Spectral Data<<<<<
341.393	-9.94
341.776	-9.94
342.16	-9.94
342.543	-49.94
342.927	-67.34
343.31	-77.96
343.693	-70.96
344.077	-81.13
344.46	-58.08
344.843	-47
345.226	-40.22
345.61	-39.32
345.993	-9.72
346.376	11.98
346.759	14.24
347.142	31.64
347.525	51.75
347.908	57.63
348.291	64.41
348.674	102.37
349.057	90.39
349.44	128.36
349.823	132.2
350.206	169.04
350.588	211.29
350.971	199.77
351.354	236.38
351.737	238.86
352.119	244.97
352.502	252.2
352.884	264.63
353.267	294
353.65	304.62
354.032	295.13
354.414	313.21
354.797	297.85
355.179	323.61
355.562	335.81
355.944	325.19
356.326	339.65
356.709	335.81
357.091	340.1
357.473	343.95
357.855	336.71
358.238	337.84
358.62	341.01
359.002	351.63
359.384	343.04
359.766	330.61
360.148	359.09
360.53	362.7
360.912	341.46
361.294	342.82
361.676	344.85
362.057	353.21
362.439	339.43
362.821	329.48
363.203	334.23
363.584	347.34
363.966	327.45
364.348	334.91
364.729	340.33
365.111	327.45
365.493	326.09
365.874	316.38
366.256	343.27
366.637	328.8
367.019	342.14
367.4	317.96
367.781	316.38
368.163	332.87
368.544	326.32
368.925	321.8
369.306	316.15
369.688	338.3
370.069	319.99
370.45	321.12
370.831	333.1
371.212	312.53
371.593	312.08
371.974	306.88
372.355	338.07
372.736	332.19
373.117	329.93
373.498	324.74
373.879	305.98
374.26	331.52
374.641	323.38
375.021	343.72
375.402	348.69
375.783	343.27
376.163	357.5
376.544	347.56
376.925	338.07
377.305	330.16
377.686	344.17
378.066	342.59
378.447	354.57
378.827	356.37
379.208	338.07
379.588	340.33
379.968	350.95
380.349	363.61
380.729	351.18
381.109	348.47
381.489	370.84
381.87	356.15
382.25	357.28
382.63	348.47
383.01	367.67
383.39	381.46
383.77	369.93
384.15	353.66
384.53	390.95
384.91	371.52
385.29	383.27
385.67	380.55
386.049	381.01
386.429	386.2
386.809	376.71
387.189	366.77
387.568	391.63
387.948	405.41
388.328	405.19
388.707	398.63
389.087	393.44
389.466	400.44
389.846	387.56
390.225	406.99
390.605	416.71
390.984	415.36
391.363	399.09
391.743	423.94
392.122	414
392.501	411.51
392.881	456.71
393.26	417.16
393.639	445.19
394.018	425.53
394.397	432.76
394.776	449.25
395.155	452.87
395.534	443.83
395.913	454
396.292	464.17
396.671	463.04
397.05	458.29
397.429	463.72
397.808	455.58
398.186	458.74
398.565	459.87
398.944	479.76
399.323	477.73
399.701	480.89
400.08	495.13
400.458	501
400.837	486.31
401.215	491.29
401.594	492.87
401.972	503.49
402.351	515.01
402.729	502.13
403.107	495.58
403.486	500.33
403.864	517.95
404.242	519.76
404.62	545.3
404.999	507.11
405.377	535.58
405.755	541.23
406.133	548.23
406.511	576.03
406.889	545.97
407.267	546.88
407.645	560.21
408.023	574
408.401	580.55
408.779	578.06
409.156	585.07
409.534	577.61
409.912	579.19
410.29	590.04
410.667	601.57
411.045	599.76
411.422	645.86
411.8	611.51
412.178	610.83
412.555	619.19
412.933	622.36
413.31	616.71
413.687	649.25
414.065	656.93
414.442	646.08
414.819	673.43
415.197	638.18
415.574	677.27
415.951	675.46
416.328	673.65
416.705	656.71
417.082	690.15
417.46	707.78
417.837	687.89
418.214	732.64
418.591	698.06
418.967	693.99
419.344	704.61
419.721	707.78
420.098	704.39
420.475	721.79
420.852	763.6
421.228	757.27
421.605	758.17
421.982	751.17
422.358	779.64
422.735	750.94
423.111	750.26
423.488	787.32
423.864	758.62
424.241	777.38
424.617	774.67
424.994	791.39
425.37	817.61
425.746	804.5
426.123	813.31
426.499	830.49
426.875	839.3
427.251	822.13
427.627	854.44
428.003	862.35
428.379	875.23
428.756	875.23
429.132	875.46
429.507	891.05
429.883	898.96
430.259	906.64
430.635	925.17
431.011	934.89
431.387	966.53
431.763	940.77
432.138	967.43
432.514	978.73
432.89	995.45
433.265	1012.85
433.641	983.7
434.016	1036.13
434.392	1017.83
434.767	1017.37
435.143	1049.69
435.518	1076.58
435.894	1051.5
436.269	1068.67
436.644	1096.02
437.02	1076.36
437.395	1126.98
437.77	1124.72
438.145	1137.15
438.52	1140.99
438.895	1145.28
439.271	1143.92
439.646	1158.39
440.021	1202.23
440.395	1179.4
440.77	1184.83
441.145	1221.44
441.52	1220.76
441.895	1232.74
442.27	1255.79
442.645	1236.8
443.019	1250.59
443.394	1275.22
443.769	1274.77
444.143	1260.08
444.518	1261.21
444.892	1273.86
445.267	1300.53
445.641	1310.47
446.016	1328.33
446.39	1310.25
446.764	1339.85
447.139	1332.85
447.513	1329.91
447.887	1348.21
448.262	1323.13
448.636	1364.03
449.01	1343.24
449.384	1396.57
449.758	1380.75
450.132	1401.32
450.506	1409
450.88	1412.84
451.254	1424.6
451.628	1454.65
452.002	1447.42
452.376	1496.68
452.75	1488.55
453.123	1503.46
453.497	1506.4
453.871	1556.8
454.244	1561.99
454.618	1557.02
454.992	1615.1
455.365	1566.74
455.739	1641.99
456.112	1644.7
456.486	1659.17
456.859	1672.27
457.232	1719.05
457.606	1667.3
457.979	1702.33
458.352	1734.64
458.725	1757.69
459.099	1783.23
459.472	1819.61
459.845	1840.63
460.218	1818.26
460.591	1856.67
460.964	1871.36
461.337	1922.44
461.71	1953.39
462.083	1950.01
462.456	1961.53
462.829	2011.92
463.201	1956.33
463.574	2034.3
463.947	2064.35
464.32	2099.38
464.692	2117.91
465.065	2163.33
465.438	2150
465.81	2203.56
466.183	2223.22
466.555	2246.27
466.928	2270.45
467.3	2267.29
467.672	2326.94
468.045	2413.95
468.417	2416.21
468.789	2401.07
469.161	2454.4
469.534	2502.53
469.906	2541.18
470.278	2552.93
470.65	2608.74
471.022	2676.54
471.394	2707.95
471.766	2729.19
472.138	2786.14
472.51	2841.06
472.882	2859.36
473.253	2948.4
473.625	3002.63
473.997	3040.82
474.369	3084.66
474.74	3088.51
475.112	3201.5
475.484	3262.74
475.855	3288.05
476.227	3355.39
476.598	3434.94
476.97	3496.63
477.341	3610.3
477.713	3624.99
478.084	3667.02
478.455	3731.65
478.827	3797.19
479.198	3933.46
479.569	3975.71
479.94	4038.31
480.311	4135.03
480.682	4248.48
481.053	4343.61
481.424	4412.31
481.795	4455.02
482.166	4554.91
482.537	4648.01
482.908	4706.54
483.279	4756.03
483.65	4876.93
484.021	4952.19
484.391	5027.66
484.762	5113.76
485.133	5186.76
485.503	5212.29
485.874	5357.6
486.244	5370.93
486.615	5528.44
486.985	5608.67
487.356	5676.23
487.726	5776.8
488.097	5830.36
488.467	5880.75
488.837	6034.64
489.207	6097.92
489.578	6168.88
489.948	6245.94
490.318	6356.9
490.688	6361.87
491.058	6481.64
491.428	6590.79
491.798	6647.06
492.168	6801.63
492.538	6866.49
492.908	6910.78
493.278	7023.77
493.648	7042.07
494.017	7125.69
494.387	7216.08
494.757	7269.87
495.126	7348.06
495.496	7357.55
495.866	7407.26
496.235	7518.9
496.605	7595.28
496.974	7621.49
497.344	7720.7
497.713	7827.14
498.082	7857.42
498.452	7939.45
498.821	7973.8
499.19	7992.11
499.559	8139.9
499.928	8142.38
500.298	8169.05
500.667	8299.67
501.036	8251.53
501.405	8385.32
501.774	8469.83
502.143	8474.81
502.512	8520.91
502.88	8617.85
503.249	8623.73
503.618	8682.03
503.987	8768.81
504.356	8814.46
504.724	8849.26
505.093	8941.46
505.462	8999.09
505.83	9051.74
506.199	9185.52
506.567	9280.89
506.936	9286.99
507.304	9428.68
507.672	9465.97
508.041	9528.11
508.409	9593.42
508.777	9646.3
509.145	9827.99
509.514	9775.11
509.882	9879.06
510.25	9935.33
510.618	9957.93
510.986	10055.33
511.354	10087.42
511.722	10183.69
512.09	10278.83
512.458	10237.7
512.826	10465.94
513.193	10532.38
513.561	10601.76
513.929	10629.55
514.297	10817.12
514.664	10864.8
515.032	10930.79
515.4	11098.69
515.767	11063.66
516.135	11144.11
516.502	11171.23
516.869	11305.69
517.237	11336.65
517.604	11396.08
517.972	11583.2
518.339	11631.33
518.706	11668.85
519.073	11794.27
519.44	11869.52
519.808	12057.08
520.175	12069.29
520.542	12263.18
520.909	12314.7
521.276	12369.17
521.643	12462.95
522.009	12546.34
522.376	12654.81
522.743	12721.7
523.11	12917.63
523.477	13145.64
523.843	13108.58
524.21	13279.88
524.577	13302.7
524.943	13403.94
525.31	13547.44
525.676	13648.45
526.043	13768.45
526.409	13796.02
526.776	13984.27
527.142	14003.93
527.508	14187.42
527.874	14255.22
528.241	14372.05
528.607	14368.66
528.973	14536.34
529.339	14556.45
529.705	14737.47
530.071	14827.63
530.437	14849.1
530.803	14984.01
531.169	15000.28
531.535	15079.6
531.901	15176.32
532.267	15245.25
532.632	15298.58
532.998	15331.57
533.364	15510.78
533.73	15553.72
534.095	15678.23
534.461	15759.36
534.826	15777.44
535.192	15852.01
535.557	15958.68
535.923	15934.95
536.288	16154.6
536.653	16106.47
537.019	16173.81
537.384	16228.05
537.749	16399.34
538.114	16419.46
538.479	16380.13
538.845	16450.19
539.21	16531.77
539.575	16598.66
539.94	16605.67
540.305	16802.04
540.67	16774.7
541.034	16854.25
541.399	16925.2
541.764	17040.46
542.129	17022.15
542.494	17072.77
542.858	17153.22
543.223	17213.56
543.587	17247.68
543.952	17257.4
544.316	17374.46
544.681	17357.06
545.045	17456.72
545.41	17567.9
545.774	17672.53
546.138	17730.61
546.503	17694.45
546.867	17835.01
547.231	17877.5
547.595	17908.68
547.959	18016.93
548.324	18099.64
548.688	17984.61
549.052	18172.4
549.416	18191.16
549.779	18429.12
550.143	18359.29
550.507	18596.12
550.871	18674.31
551.235	18671.6
551.599	18836.34
551.962	18831.6
552.326	18976.9
552.689	18982.78
553.053	19009.9
553.417	19072.27
553.78	19403.56
554.143	19387.74
554.507	19512.48
554.87	19546.15
555.234	19872.7
555.597	19752.93
555.96	19889.19
556.323	20057.33
556.686	20067.49
557.05	20240.6
557.413	20342.97
557.776	20432.91
558.139	20683.75
558.502	20664.99
558.865	20828.83
559.228	21060.46
559.59	21058.43
559.953	21110.18
560.316	21492.32
560.679	21434.24
561.041	21696.15
561.404	21811.18
561.767	22056.14
562.129	22052.53
562.492	22254.1
562.854	22369.13
563.217	22394.67
563.579	22518.5
563.941	22856.57
564.304	23048.89
564.666	23138.6
565.028	23225.15
565.39	23380.4
565.753	23540.17
566.115	23656.78
566.477	23833.5
566.839	23959.82
567.201	24194.62
567.563	24373.6
567.925	24582.86
568.287	24686.36
568.648	24812.91
569.01	25005.44
569.372	25109.4
569.734	25211.31
570.095	25508.93
570.457	25713.9
570.819	25836.61
571.18	25924.97
571.542	26044.29
571.903	26198.18
572.265	26335.58
572.626	26654.89
572.987	26637.49
573.349	26887.88
573.71	26982.79
574.071	27129.91
574.432	27360.18
574.794	27559.5
575.155	27703.9
575.516	27685.37
575.877	27904.35
576.238	28070.9
576.599	28212.82
576.96	28394.06
577.32	28454.62
577.681	28594.95
578.042	28708.17
578.403	28850.31
578.763	28918.11
579.124	28983.64
579.485	29142.06
579.845	29207.59
580.206	29475.84
580.566	29474.25
580.927	29643.29
581.287	29787.92
581.648	29734.81
582.008	29932.77
582.368	29752.66
582.728	30044.18
583.089	30065.42
583.449	30112.2
583.809	30141.35
584.169	30260.67
584.529	30364.63
584.889	30506.32
585.249	30526.43
585.609	30479.2
585.969	30664.28
586.329	30678.97
586.688	30749.25
587.048	30843.03
587.408	30760.77
587.768	30764.84
588.127	30824.27
588.487	30807.1
588.846	31145.17
589.206	30824.05
589.565	30904.5
589.925	31162.12
590.284	31073.31
590.643	31182
591.003	31164.83
591.362	31224.04
591.721	31220.2
592.08	31275.79
592.44	31362.79
592.799	31154.89
593.158	31232.85
593.517	31347.88
593.876	31384.03
594.235	31342
594.593	31378.61
594.952	31382.23
595.311	31362.57
595.67	31541.77
596.029	31706.28
596.387	31667.87
596.746	31708.09
597.104	31515.56
597.463	31641.2
597.822	31803.91
598.18	31536.35
598.538	31707.87
598.897	31874.19
599.255	31515.56
599.613	32012.27
599.972	31770.92
600.33	31937.47
600.688	31900.18
601.046	32085.26
601.404	32185.59
601.762	32117.35
602.12	32178.14
602.478	32093.39
602.836	32189.21
603.194	31995.09
603.552	32072.15
603.91	32008.88
604.268	32293.84
604.625	32186.95
604.983	32355.53
605.341	32142.66
605.698	32385.36
606.056	32325.7
606.413	32362.99
606.771	32449.77
607.128	32528.18
607.485	32415.42
607.843	32342.2
608.2	32489.09
608.557	32513.27
608.914	32485.93
609.272	32662.42
609.629	32608.41
609.986	32793.26
610.343	32626.71
610.7	32931.79
611.057	32758.69
611.414	32879.81
611.771	32804.79
612.127	32929.53
612.484	32903.32
612.841	33177.21
613.198	32930.21
613.554	33096.3
613.911	33170.88
614.267	33150.77
614.624	33224.89
614.98	33252.23
615.337	33243.19
615.693	33271.22
616.05	33258.33
616.406	33397.09
616.762	33374.72
617.118	33332.46
617.475	33412
617.831	33489.97
618.187	33561.38
618.543	33546.69
618.899	33780.81
619.255	33540.14
619.611	33489.06
619.967	33459.23
620.323	33637.76
620.678	33579.46
621.034	33510.98
621.39	33584.43
621.746	33576.74
622.101	34026.45
622.457	33640.7
622.812	33816.74
623.168	33820.13
623.523	33701.71
623.879	33900.13
624.234	33641.15
624.589	33717.76
624.945	33784.2
625.3	33804.53
625.655	33731.32
626.01	33860.35
626.365	33763.86
626.72	33908.71
627.075	33692
627.43	33732.45
627.785	33653.8
628.14	33888.15
628.495	33862.84
628.85	33693.13
629.205	33698.77
629.559	33732.22
629.914	33621.26
630.269	33626.69
630.623	33677.08
630.978	33408.39
631.332	33621.04
631.687	33683.18
632.041	33579.46
632.396	33607.25
632.75	33489.74
633.104	33416.52
633.459	33374.26
633.813	33291.78
634.167	33434.83
634.521	33323.42
634.875	33385.34
635.229	33341.95
635.583	33074.16
635.937	33152.35
636.291	33213.59
636.645	33160.48
636.999	33061.5
637.352	33224.66
637.706	32940.38
638.06	33063.54
638.413	32930.43
638.767	32803.88
639.121	32999.36
639.474	32652.7
639.828	32856.09
640.181	32776.99
640.534	32784
640.888	32685.24
641.241	32555.08
641.594	32619.48
641.947	32650.89
642.301	32569.09
642.654	32697.67
643.007	32593.95
643.36	32522.53
643.713	32504
644.066	32616.32
644.419	32346.95
644.771	32218.59
645.124	31978.82
645.477	32038.25
645.83	31675.55
646.182	31644.59
646.535	31393.3
646.888	31556.01
647.24	31280.99
647.593	31488.44
647.945	31353.98
648.298	31326.18
648.65	31234.21
649.002	31012.74
649.355	31178.62
649.707	31249.12
650.059	31579.96
650.411	31877.35
650.763	31774.76
651.115	32025.15
651.467	31906.05
651.819	31988.76
652.171	31970.23
652.523	31718.94
652.875	31981.08
653.227	31726.4
653.578	32005.03
653.93	31840.52
654.282	31781.54
654.633	31823.34
654.985	31809.33
655.337	31772.27
655.688	31813.17
656.039	31884.13
656.391	31633.07
656.742	31841.65
657.094	31814.3
657.445	32026.05
657.796	31822.21
658.147	31764.36
658.498	31797.81
658.849	31809.11
659.2	31840.97
659.551	31721.65
659.902	31676.46
660.253	31674.42
660.604	31718.26
660.955	31547.65
661.306	31649.56
661.656	31586.29
662.007	31711.03
662.358	31742.67
662.708	31625.16
663.059	31627.19
663.409	31492.51
663.76	31774.53
664.11	31780.18
664.461	31767.98
664.811	31544.03
665.161	31571.6
665.511	31542.45
665.862	31647.53
666.212	31679.84
666.562	31727.3
666.912	31455.9
667.262	31503.35
667.612	31568.89
667.962	31627.64
668.312	31610.02
668.662	31753.52
669.011	31645.04
669.361	31424.03
669.711	31498.38
670.06	31400.98
670.41	31517.59
670.76	31471.71
671.109	31454.09
671.459	31397.14
671.808	31302.23
672.157	31402.11
672.507	31107.2
672.856	31152.63
673.205	31228.78
673.554	31286.18
673.904	31108.79
674.253	31245.51
674.602	31272.62
674.951	30810.49
675.3	30689.36
675.649	31072.4
675.998	31061.1
676.346	31000.77
676.695	31049.13
677.044	30800.55
677.393	30890.49
677.741	30995.12
678.09	30924.61
678.438	30871.28
678.787	30888.23
679.135	30831.28
679.484	30641.68
679.832	30794.9
680.181	30635.58
680.529	30694.11
680.877	30500.89
681.225	30574.79
681.573	30719.87
681.922	30432.87
682.27	30332.99
682.618	30471.74
682.966	30146.1
683.314	30383.16
683.661	30192.2
684.009	30054.58
684.357	30024.97
684.705	30012.77
685.053	30117.4
685.4	29918.76
685.748	29845.99
686.095	29840.57
686.443	29751.08
686.79	29598.32
687.138	29749.95
687.485	29682.84
687.832	29526.23
688.18	29560.58
688.527	29487.13
688.874	29377.31
689.221	29227.03
689.568	29254.82
689.915	29125.79
690.262	29108.61
690.609	29021.61
690.956	28900.26
691.303	28898.22
691.65	28698.91
691.997	28642.86
692.344	28491.23
692.69	28515.63
693.037	28467.27
693.383	28258.01
693.73	28368.52
694.077	28082.65
694.423	28065.02
694.769	28142.99
695.116	28006.27
695.462	28006.95
695.808	27732.38
696.155	27761.3
696.501	27613.74
696.847	27457.13
697.193	27342.78
697.539	27548.65
697.885	27284.48
698.231	27256.46
698.577	27334.2
698.923	27280.19
699.269	26959.97
699.614	26804.72
699.96	26743.25
700.306	26726.53
700.651	26587.78
700.997	26514.78
701.342	26551.62
701.688	26489.47
702.033	26339.87
702.379	26335.8
702.724	26215.13
703.069	26181.01
703.415	25816.27
703.76	25921.8
704.105	25908.25
704.45	25891.07
704.795	25655.6
705.14	25600
705.485	25594.13
705.83	25497.41
706.175	25344.42
706.52	25322.27
706.865	25178.77
707.209	25082.73
707.554	25050.87
707.899	25200.69
708.243	25054.93
708.588	25017.2
708.932	24792.34
709.277	24762.29
709.621	24832.12
709.966	24625.79
710.31	24736.3
710.654	24435.06
710.998	24426.93
711.342	24465.12
711.687	24489.3
712.031	24346.48
712.375	24360.26
712.719	24362.98
713.063	24263.54
713.407	24226.93
713.75	24101.06
714.094	24100.16
714.438	24028.97
714.782	24031.23
715.125	23911.69
715.469	24049.54
715.812	23889.09
716.156	23731.35
716.499	23727.29
716.843	23756.66
717.186	23678.47
717.53	23716.44
717.873	23664.91
718.216	23634.18
718.559	23699.94
718.902	23518.7
719.246	23428.76
719.589	23336.11
719.932	23379.05
720.275	23211.59
720.617	23333.17
720.96	23270.57
721.303	23325.04
721.646	23323.68
721.989	23197.36
722.331	23190.35
722.674	23129.11
723.016	23187.19
723.359	23109
723.701	23112.84
724.044	22950.13
724.386	22898.15
724.729	22978.6
725.071	22963.69
725.413	22987.64
725.755	22935.22
726.097	22854.09
726.439	22878.95
726.782	22831.94
727.124	22968.21
727.465	22862.9
727.807	22775.9
728.149	22807.99
728.491	22771.15
728.833	22705.62
729.175	22762.57
729.516	22783.81
729.858	22670.36
730.199	22754.66
730.541	22592.4
730.882	22644.15
731.224	22681.21
731.565	22628.56
731.906	22611.83
732.248	22622
732.589	22457.94
732.93	22402.8
733.271	22490.48
733.612	22581.1
733.953	22602.8
734.294	22551.27
734.635	22473.99
734.976	22586.07
735.317	22407.77
735.658	22391.73
735.999	22411.84
736.339	22417.04
736.68	22438.73
737.021	22400.54
737.361	22348.56
737.702	22476.7
738.042	22387.21
738.383	22320.09
738.723	22373.2
739.063	22245.06
739.404	22374.1
739.744	22281.67
740.084	22243.48
740.424	22401.67
740.764	22304.72
741.104	22407.09
741.444	22305.85
741.784	22158.06
742.124	22264.5
742.464	22307.44
742.804	22201.9
743.143	22228.34
743.483	22267.89
743.823	22115.12
744.162	22190.38
744.502	22231.05
744.841	22120.1
745.181	22156.03
745.52	22254.78
745.86	22187.21
746.199	22131.62
746.538	22105.63
746.877	22186.54
747.216	22176.59
747.556	22063.15
747.895	22095.46
748.234	21922.36
748.573	22001.91
748.911	22053.43
749.25	22137.72
749.589	21955.58
749.928	22008.91
750.267	22023.15
750.605	21970.72
750.944	21940.21
751.283	21869.93
751.621	21896.15
751.96	21777.05
752.298	21815.7
752.636	21896.6
752.975	21676.27
753.313	21646.89
753.651	21861.35
753.989	21702.71
754.327	21719.65
754.666	21624.74
755.004	21668.81
755.342	21678.07
755.679	21706.1
756.017	21443.96
756.355	21557.63
756.693	21506.33
757.031	21486.89
757.368	21418.65
757.706	21336.39
758.044	21258.2
758.381	21410.28
758.719	21158.54
759.056	21351.08
759.394	21208.71
759.731	21046.45
760.068	21078.99
760.405	21084.87
760.743	21006
761.08	21036.51
761.417	20915.16
761.754	20834.48
762.091	20749.28
762.428	20786.57
762.765	20572.79
763.102	20741.83
763.438	20563.53
763.775	20418.45
764.112	20463.42
764.449	20479.24
764.785	20369.18
765.122	20343.65
765.458	20269.07
765.795	20136.42
766.131	20159.47
766.467	20072.69
766.804	20067.04
767.14	19918.8
767.476	19849.65
767.812	19804
768.148	19822.76
768.485	19646.26
768.821	19672.25
769.157	19552.48
769.492	19455.31
769.828	19441.75
770.164	19283.33
770.5	19279.04
770.836	19277.69
771.171	19226.16
771.507	19120.63
771.842	18928.77
772.178	19024.36
772.513	18987.75
772.849	18866.17
773.184	18908.2
773.519	18865.49
773.855	18733.97
774.19	18644.93
774.525	18510.7
774.86	18589.34
775.195	18524.03
775.53	18390.48
775.865	18415.11
776.2	18248.56
776.535	18150.26
776.87	18110.26
777.205	18021.45
777.539	17943.93
777.874	17912.07
778.209	17774.67
778.543	17748.23
778.878	17586.88
779.212	17654.9
779.547	17474.79
779.881	17582.14
780.215	17425.08
780.55	17446.09
780.884	17334.23
781.218	17300.34
781.552	17272.77
781.886	17239.09
782.22	17121.58
782.554	17006.11
782.888	16984.19
783.222	16890.4
783.556	16890.86
783.889	16792.33
784.223	16527.93
784.557	16598.89
784.89	16622.84
785.224	16492.22
785.557	16468.49
785.891	16415.61
786.224	16348.95
786.558	16301.27
786.891	16237.09
787.224	16161.38
787.557	16029.41
787.891	16026.7
788.224	16060.14
788.557	15882.29
788.89	15909.64
789.223	15865.35
789.556	15790.77
789.888	15784.67
790.221	15814.05
790.554	15553.94
790.887	15587.61
791.219	15625.8
791.552	15492.7
791.884	15405.92
792.217	15442.98
792.549	15390.56
792.882	15284.12
793.214	15232.59
793.546	15227.4
793.879	15164.12
794.211	15020.85
794.543	15120.28
794.875	14995.31
795.207	14980.4
795.539	14885.26
795.871	14880.96
796.203	14856.78
796.535	14685.49
796.867	14645.04
797.198	14653.63
797.53	14628.32
797.862	14546.74
798.193	14560.75
798.525	14533.86
798.856	14527.08
799.188	14315.33
799.519	14294.77
799.85	14174.77
800.182	14210.7
800.513	14163.24
800.844	14153.07
801.175	14139.74
801.506	14176.35
801.837	14023.81
802.168	14077.37
802.499	13932.29
802.83	13889.13
803.161	13864.27
803.491	13850.94
803.822	13812.29
804.153	13744.05
804.483	13577.5
804.814	13570.26
805.145	13556.71
805.475	13596.03
805.805	13516.71
806.136	13579.76
806.466	13517.16
806.796	13450.72
807.126	13376.82
807.457	13290.5
807.787	13316.49
808.117	13290.72
808.447	13238.75
808.777	13259.54
809.107	13167.34
809.436	13143.38
809.766	13109.49
810.096	13066.1
810.426	12995.36
810.755	12911.07
811.085	13019.54
811.414	12961.24
811.744	12896.61
812.073	12842.6
812.403	12881.92
812.732	12740.68
813.061	12776.61
813.39	12699.55
813.719	12683.06
814.049	12745.2
814.378	12676.95
814.707	12578.65
815.036	12648.48
815.365	12449.39
815.693	12407.81
816.022	12433.8
816.351	12370.07
816.68	12324.42
817.008	12383.18
817.337	12168.49
817.665	12307.47
817.994	12220.92
818.322	12171.66
818.651	12168.27
818.979	12174.37
819.307	12178.21
819.636	12160.13
819.964	12103.86
820.292	12114.71
820.62	12087.82
820.948	12051.21
821.276	12065.67
821.604	11952.91
821.932	11995.84
822.259	12014.37
822.587	11944.54
822.915	11976.86
823.243	12007.14
823.57	11943.19
823.898	11940.03
824.225	11977.31
824.553	11989.52
824.88	11937.77
825.207	11945.67
825.535	11894.15
825.862	11971.89
826.189	11910.42
826.516	11963.08
826.843	12024.32
827.17	12007.59
827.497	11983.87
827.824	11957.88
828.151	12017.76
828.478	11965.79
828.805	12089.63
829.131	12042.17
829.458	11872.23
829.785	11819.35
830.111	11867.03
830.438	11973.7
830.764	11991.78
831.09	11865.45
831.417	11810.54
831.743	11838.78
832.069	11854.38
832.395	11783.87
832.722	11839.91
833.048	11789.97
833.374	11843.53
833.7	11733.02
834.026	11821.38
834.351	11836.3
834.677	11812.8
835.003	11842.63
835.329	11785.45
835.654	11711.1
835.98	11635.4
836.306	11679.47
836.631	11757.66
836.956	11760.37
837.282	11721.73
837.607	11650.77
837.932	11599.24
838.258	11686.47
838.583	11590.43
838.908	11542.3
839.233	11543.2
839.558	11569.64
839.883	11522.86
840.208	11436.54
840.533	11564.67
840.858	11432.47
841.182	11444.67
841.507	11375.29
841.832	11360.15
842.156	11382.98
842.481	11340.72
842.805	11260.95
843.13	11194.73
843.454	11284.68
843.778	11230.21
844.103	11214.62
844.427	11132.36
844.751	11190.67
845.075	11130.1
845.399	11113.61
845.723	11041.07
846.047	11072.93
846.371	10913.39
846.695	10903.89
847.019	10876.78
847.343	10839.26
847.666	10795.87
847.99	10751.13
848.313	10733.5
848.637	10622.32
848.96	10587.52
849.284	10622.09
849.607	10469.33
849.931	10511.36
850.254	10457.13
850.577	10410.35
850.9	10324.93
851.223	10306.85
851.546	10207.87
851.869	10155.21
852.192	10252.61
852.515	10125.84
852.838	10113.86
853.161	10109.56
853.483	10064.59
853.806	10010.58
854.129	10023.01
854.451	9920.42
854.774	9919.06
855.096	9849.91
855.419	9849.01
855.741	9772.17
856.063	9757.71
856.385	9778.73
856.708	9783.7
857.03	9656.24
857.352	9700.31
857.674	9674.77
857.996	9615.57
858.318	9624.15
858.64	9555.68
858.961	9588
859.283	9539.41
859.605	9459.64
859.926	9441.11
860.248	9402.24
860.57	9457.38
860.891	9437.04
861.212	9360.21
861.534	9321.56
861.855	9285.63
862.176	9362.69
862.498	9250.6
862.819	9261.9
863.14	9250.15
863.461	9230.49
863.782	9186.2
864.103	9236.82
864.424	9156.37
864.745	9145.3
865.065	9154.34
865.386	9134.22
865.707	9134.68
866.027	9119.08
866.348	9105.75
866.668	9111.62
866.989	9043.6
867.309	9061.46
867.63	9041.34
867.95	9009.71
868.27	8960.44
868.59	8938.52
868.91	8919.77
869.23	8901.91
869.55	8912.08
869.87	8936.26
870.19	8935.13
870.51	8930.39
870.83	8864.85
871.15	8875.7
871.469	8785.53
871.789	8839.54
872.109	8759.54
872.428	8777.4
872.748	8835.02
873.067	8779.66
873.386	8840.67
873.706	8739.43
874.025	8735.36
874.344	8715.03
874.663	8750.05
874.982	8709.15
875.301	8649.72
875.62	8614.91
875.939	8624.63
876.258	8700.34
876.577	8556.61
876.896	8569.27
877.214	8609.94
877.533	8568.36
877.852	8567.68
878.17	8550.28
878.489	8557.52
878.807	8502.15
879.125	8420.8
879.444	8466.44
879.762	8473.68
880.08	8464.86
880.398	8411.76
880.716	8443.17
881.034	8434.81
881.352	8378.76
881.67	8344.19
881.988	8349.38
882.306	8355.94
882.624	8349.38
882.941	8299.67
883.259	8318.2
883.577	8250.86
883.894	8284.53
884.212	8228.26
884.529	8211.99
884.846	8208.15
885.164	8197.52
885.481	8122.95
885.798	8199.78
886.115	8142.16
886.432	8157.07
886.75	8072.78
887.067	8098.77
887.383	8019.45
887.7	8098.32
888.017	8018.77
888.334	8054.25
888.651	7965.21
888.967	7957.08
889.284	7904.42
889.6	7928.38
889.917	7869.85
890.233	7906.23
890.55	7823.75
890.866	7888.61
891.182	7836.86
891.498	7740.14
891.815	7734.26
892.131	7747.82
892.447	7658.33
892.763	7676.18
893.079	7647.26
893.395	7636.41
893.71	7633.92
894.026	7563.87
894.342	7582.17
894.657	7516.64
894.973	7550.76
895.289	7555.28
895.604	7510.31
895.92	7413.14
896.235	7420.37
896.55	7398.22
896.865	7347.83
897.181	7384.89
897.496	7313.71
897.811	7302.41
898.126	7258.57
898.441	7224.89
898.756	7176.76
899.071	7209.53
899.386	7139.93
899.7	7053.83
900.015	7057.89
900.33	7055.63
900.644	7044.33
900.959	7070.1
901.273	6995.3
901.588	6991.45
901.902	6967.27
902.216	6887.95
902.531	6868.75
902.845	6856.32
903.159	6847.28
903.473	6866.49
903.787	6848.63
904.101	6763.66
904.415	6781.97
904.729	6765.47
905.042	6677.79
905.356	6670.11
905.67	6668.07
905.984	6672.82
906.297	6653.61
906.611	6611.13
906.924	6599.15
907.237	6498.36
907.551	6509.89
907.864	6504.46
908.177	6511.92
908.491	6464.24
908.804	6391.7
909.117	6404.8
909.43	6354.18
909.743	6327.52
910.056	6412.26
910.368	6272.15
910.681	6259.5
910.994	6240.97
911.307	6250.01
911.619	6168.2
911.932	6181.31
912.244	6144.02
912.557	6106.96
912.869	6121.65
913.181	6082.1
913.494	6089.11
913.806	6043.46
914.118	6000.29
914.43	5956.23
914.742	5927.98
915.054	5983.35
915.366	5889.34
915.678	5890.47
915.99	5866.74
916.302	5829.9
916.613	5863.57
916.925	5804.14
917.236	5836.68
917.548	5785.61
917.859	5724.37
918.171	5668.78
918.482	5699.06
918.794	5658.38
919.105	5657.25
919.416	5643.69
919.727	5603.24
920.038	5563.47
920.349	5561.89
920.66	5492.51
920.971	5497.48
921.282	5482.12
921.593	5391.5
921.903	5416.81
922.214	5413.42
922.525	5415.68
922.835	5338.84
923.146	5318.28
923.456	5283.02
923.767	5308.34
924.077	5288.22
924.387	5207.55
924.697	5151.5
925.008	5205.74
925.318	5160.54
925.628	5187.43
925.938	5141.56
926.248	5099.98
926.558	5108.34
926.867	5086.42
927.177	5036.03
927.487	5013.43
927.796	4962.81
928.106	4951.73
928.416	4966.65
928.725	4958.97
929.034	4952.41
929.344	4925.52
929.653	4936.82
929.962	4853.21
930.271	4867.67
930.581	4795.35
930.89	4816.6
931.199	4756.71
931.508	4758.52
931.817	4741.12
932.125	4744.06
932.434	4669.71
932.743	4645.98
933.051	4655.02
933.36	4630.61
933.669	4633.32
933.977	4608.69
934.286	4556.49
934.594	4570.73
934.902	4501.12
935.21	4491.18
935.519	4518.3
935.827	4528.24
936.135	4503.16
936.443	4448.92
936.751	4422.03
937.059	4409.6
937.367	4405.99
937.674	4411.86
937.982	4374.57
938.29	4355.59
938.597	4330.06
938.905	4294.8
939.213	4315.82
939.52	4298.19
939.827	4213.45
940.135	4221.81
940.442	4233.34
940.749	4233.56
941.056	4228.36
941.363	4190.62
941.67	4133
941.977	4101.59
942.284	4118.99
942.591	4143.85
942.898	4056.39
943.205	4064.07
943.511	4063.4
943.818	4027.69
944.125	4011.42
944.431	3984.08
944.738	3953.34
945.044	3958.77
945.35	3965.77
945.657	3942.5
945.963	3945.88
946.269	3888.26
946.575	3888.94
946.881	3844.19
947.187	3851.2
947.493	3827.7
947.799	3785.21
948.105	3798.32
948.41	3738.66
948.716	3767.58
949.022	3777.53
949.327	3715.38
949.633	3691.88
949.938	3683.07
950.244	3722.61
950.549	3629.74
950.854	3677.19
951.16	3671.32
951.465	3573.69
951.77	3609.85
952.075	3560.13
952.38	3613.69
952.685	3574.6
952.99	3527.14
953.294	3533.01
953.599	3507.03
953.904	3518.33
954.209	3520.81
954.513	3534.82
954.818	3455.95
955.122	3459.57
955.426	3458.21
955.731	3436.52
956.035	3363.08
956.339	3380.25
956.643	3366.47
956.948	3316.3
957.252	3344.09
957.556	3316.75
957.86	3344.54
958.163	3309.52
958.467	3296.41
958.771	3283.76
959.075	3280.37
959.378	3260.71
959.682	3209.63
959.985	3205.34
960.289	3193.59
960.592	3217.09
960.896	3209.18
961.199	3165.57
961.502	3129.18
961.805	3123.99
962.108	3142.97
962.411	3120.14
962.714	3067.94
963.017	3048.06
963.32	3081.27
963.623	3037.21
963.926	3065.91
964.228	3014.84
964.531	3011.9
964.833	2990.2
965.136	2980.03
965.438	2983.42
965.741	2952.69
966.043	2961.05
966.345	2945.23
966.648	2937.1
966.95	2916.99
967.252	2913.82
967.554	2890.32
967.856	2922.18
968.158	2825.24
968.46	2841.51
968.761	2900.49
969.063	2847.61
969.365	2857.55
969.666	2798.8
969.968	2778.01
970.269	2791.57
970.571	2775.07
970.872	2776.2
971.174	2744.11
971.475	2721.74
971.776	2727.84
972.077	2690.78
972.378	2738.69
972.679	2678.12
972.98	2715.41
973.281	2675.18
973.582	2626.82
973.883	2657.11
974.183	2652.13
974.484	2616.88
974.785	2638.35
975.085	2620.27
975.386	2636.99
975.686	2586.6
975.986	2587.95
976.287	2579.59
976.587	2544.34
976.887	2524
977.187	2526.94
977.487	2533.04
977.787	2496.43
978.087	2484.68
978.387	2488.75
978.687	2479.71
978.987	2480.39
979.286	2440.39
979.586	2456.88
979.885	2417.56
980.185	2401.74
980.484	2401.07
980.784	2408.3
981.083	2402.87
981.382	2392.71
981.682	2395.42
981.981	2380.05
982.28	2343.44
982.579	2314.52
982.878	2314.74
983.177	2296.44
983.475	2287.85
983.774	2294.63
984.073	2307.96
984.372	2301.63
984.67	2280.17
984.969	2283.56
985.267	2250.56
985.566	2225.48
985.864	2213.5
986.162	2244.46
986.461	2219.38
986.759	2167.63
987.057	2193.84
987.355	2200.17
987.653	2202.88
987.951	2153.16
988.249	2145.03
988.547	2170.34
988.844	2110
989.142	2153.84
989.44	2120.17
989.737	2123.56
990.035	2097.35
990.332	2096.67
990.63	2035.65
990.927	2092.6
991.224	2044.47
991.521	2032.26
991.819	2041.75
992.116	2092.83
992.413	2030
992.71	2048.76
993.006	2032.94
993.303	2005.37
993.6	2005.15
993.897	1993.17
994.193	1968.08
994.49	1963.56
994.787	1960.4
995.083	1966.28
995.379	1960.63
995.676	1904.58
995.972	1921.98
996.268	1915.66
996.565	1903
996.861	1877.69
997.157	1889.67
997.453	1867.97
997.749	1867.52
998.044	1844.92
998.34	1826.39
998.636	1855.09
998.932	1831.59
999.227	1854.41
999.523	1825.94
999.818	1795.21
1000.114	1764.02
1000.409	1782.78
1000.704	1764.93
1001	1743.46
1001.295	1752.72
1001.59	1730.8
1001.885	1745.94
1002.18	1767.64
1002.475	1734.42
1002.77	1701.2
1003.065	1670.92
1003.359	1700.07
1003.654	1682.67
1003.949	1679.05
1004.243	1648.32
1004.538	1642.22
1004.832	1666.62
1005.127	1658.71
1005.421	1641.99
1005.715	1619.62
1006.009	1628.43
1006.304	1589.56
1006.598	1618.71
1006.892	1585.95
1007.186	1567.64
1007.48	1562.9
1007.773	1552.05
1008.067	1536.68
1008.361	1543.91
1008.655	1538.26
1008.948	1542.78
1009.242	1529.23
1009.535	1511.15
1009.829	1519.28
1010.122	1488.55
1010.415	1505.72
1010.708	1479.28
1011.001	1466.18
1011.295	1460.75
1011.588	1451.49
1011.881	1464.37
1012.173	1436.12
1012.466	1441.09
1012.759	1438.38
1013.052	1410.36
1013.344	1399.51
1013.637	1371.72
1013.93	1389.34
1014.222	1353.86
1014.514	1374.88
1014.807	1378.72
1015.099	1350.92
1015.391	1366.29
1015.683	1330.59
1015.976	1347.54
1016.268	1333.52
1016.56	1338.95
1016.851	1325.84
1017.143	1301.21
1017.435	1311.15
1017.727	1317.03
1018.018	1304.82
1018.31	1281.55
1018.602	1278.16
1018.893	1264.83
1019.185	1257.37
1019.476	1235.9
1019.767	1231.83
1020.058	1236.13
1020.35	1232.51
1020.641	1216.47
1020.932	1213.75
1021.223	1187.77
1021.514	1230.25
1021.804	1195.67
1022.095	1200.42
1022.386	1174.21
1022.677	1203.58
1022.967	1177.37
1023.258	1195.22
1023.548	1151.61
1023.839	1166.97
1024.129	1122.68
1024.419	1130.59
1024.709	1097.37
1025	1116.13
1025.29	1093.3
1025.58	1100.99
1025.87	1071.61
1026.16	1109.35
1026.449	1102.12
1026.739	1087.88
1027.029	1083.59
1027.319	1047.2
1027.608	1047.43
1027.898	1052.63
1028.187	1012.63
1028.477	1038.39
1028.766	1037.94
1029.055	1028.67
1029.344	1003.14
1029.634	1006.08
1029.923	998.17
1030.212	1005.85
1030.501	993.42
1030.79	988.9
1031.078	964.72
1031.367	968.56
1031.656	968.56
1031.945	985.06
1032.233	943.7
1032.522	959.52
1032.81	937.38
1033.099	933.99
1033.387	944.83
1033.675	913.42
1033.963	923.82
1034.251	921.56
1034.54	905.74
1034.828	917.72
1035.116	898.96
1035.403	887.21
1035.691	890.15
1035.979	915.23
1036.267	881.33
1036.554	899.19
1036.842	880.65
1037.129	877.72
1037.417	844.05
1037.704	858.96
1037.992	838.17
1038.279	812.86
1038.566	839.53
1038.853	839.53
1039.14	839.53
