Data from tablewood_dark_bookshelf_FLMS001491_00053.txt Node
Date: Wed Feb 08 14:15:04 GMT 2017
User: dcchb
Spectrometer: FLMS00149
Trigger mode: 0
Integration Time (sec): 2.000000E-2
Scans to average: 10
Electric dark correction enabled: true
Nonlinearity correction enabled: false
Boxcar width: 0
XAxis mode: Wavelengths
Number of Pixels in Spectrum: 2048
>>>>>Begin Spectral Data<<<<<
341.393	-3.21
341.776	-3.21
342.16	-3.21
342.543	-83.2
342.927	-68.29
343.31	-78.91
343.693	-65.8
344.077	-76.42
344.46	-57.67
344.843	-66.48
345.226	-48.63
345.61	-19.48
345.993	-16.31
346.376	1.77
346.759	13.06
347.142	25.27
347.525	51.71
347.908	59.62
348.291	74.53
348.674	93.06
349.057	110.69
349.44	125.6
349.823	157.69
350.206	160.18
350.588	198.6
350.971	197.92
351.354	208.09
351.737	203.79
352.119	249.22
352.502	245.37
352.884	272.49
353.267	274.53
353.65	276.33
354.032	289.44
354.414	308.65
354.797	301.19
355.179	285.6
355.562	325.82
355.944	319.27
356.326	326.28
356.709	318.14
357.091	329.67
357.473	324.47
357.855	318.59
358.238	328.99
358.62	321.53
359.002	337.8
359.384	324.92
359.766	338.48
360.148	321.98
360.53	335.09
360.912	326.5
361.294	313.17
361.676	330.34
362.057	325.6
362.439	322.44
362.821	309.78
363.203	310.46
363.584	299.38
363.966	333.96
364.348	314.53
364.729	332.6
365.111	319.5
365.493	308.2
365.874	330.34
366.256	296.45
366.637	306.62
367.019	305.26
367.4	322.44
367.781	307.75
368.163	327.86
368.544	330.34
368.925	304.36
369.306	299.38
369.688	292.15
370.069	324.24
370.45	305.03
370.831	305.26
371.212	306.62
371.593	306.62
371.974	315.88
372.355	317.92
372.736	316.79
373.117	303.45
373.498	315.88
373.879	346.16
374.26	319.5
374.641	324.92
375.021	335.54
375.402	289.89
375.783	330.57
376.163	348.2
376.544	338.48
376.925	341.42
377.305	342.32
377.686	334.41
378.066	320.18
378.447	358.82
378.827	334.64
379.208	338.93
379.588	352.94
379.968	348.2
380.349	333.28
380.729	327.63
381.109	363.56
381.489	350
381.87	316.11
382.25	356.11
382.63	347.29
383.01	332.6
383.39	350
383.77	354.98
384.15	345.49
384.53	367.86
384.91	361.3
385.29	361.08
385.67	366.05
386.049	361.98
386.429	364.69
386.809	359.5
387.189	362.21
387.568	390.23
387.948	371.47
388.328	360.63
388.707	368.08
389.087	395.43
389.466	372.83
389.846	385.48
390.225	402.43
390.605	404.69
390.984	396.78
391.363	413.28
391.743	377.57
392.122	390
392.501	407.4
392.881	406.5
393.26	381.87
393.639	384.35
394.018	405.37
394.397	408.76
394.776	434.75
395.155	416.44
395.534	431.81
395.913	404.24
396.292	416.44
396.671	436.78
397.05	401.75
397.429	431.13
397.808	419.38
398.186	410.57
398.565	440.4
398.944	433.62
399.323	452.83
399.701	423.9
400.08	439.27
400.458	449.21
400.837	437.46
401.215	448.31
401.594	443.79
401.972	451.47
402.351	457.12
402.729	477.46
403.107	436.78
403.486	465.26
403.864	479.04
404.242	469.78
404.62	467.29
404.999	470.91
405.377	483.79
405.755	484.69
406.133	494.63
406.511	511.81
406.889	498.7
407.267	519.94
407.645	506.84
408.023	524.92
408.401	513.62
408.779	501.19
409.156	527.85
409.534	527.4
409.912	528.31
410.29	545.48
410.667	552.03
411.045	525.82
411.422	558.36
411.8	544.12
412.178	562.88
412.555	584.35
412.933	566.95
413.31	573.95
413.687	573.95
414.065	597.68
414.442	572.37
414.819	578.47
415.197	584.8
415.574	603.78
415.951	614.63
416.328	606.04
416.705	592.94
417.082	609.43
417.46	615.31
417.837	637.45
418.214	610.11
418.591	616.44
418.967	636.55
419.344	652.37
419.721	643.33
420.098	641.07
420.475	647.62
420.852	636.1
421.228	662.31
421.605	669.09
421.982	656.21
422.358	696.44
422.735	683.56
423.111	674.74
423.488	692.14
423.864	673.16
424.241	716.77
424.617	722.2
424.994	716.32
425.37	715.19
425.746	711.58
426.123	727.4
426.499	723.78
426.875	720.16
427.251	750.22
427.627	775.3
428.003	764.91
428.379	770.11
428.756	754.97
429.132	769.2
429.507	815.3
429.883	786.6
430.259	815.53
430.635	818.24
431.011	831.12
431.387	843.78
431.763	860.27
432.138	843.33
432.514	886.26
432.89	858.01
433.265	883.78
433.641	850.33
434.016	886.49
434.392	904.11
434.767	926.03
435.143	912.48
435.518	923.55
435.894	949.54
436.269	941.85
436.644	939.59
437.02	954.96
437.395	972.36
437.77	991.12
438.145	978.01
438.52	967.39
438.895	979.14
439.271	1022.08
439.646	1024.79
440.021	1038.12
440.395	1035.41
440.77	1010.55
441.145	1026.82
441.52	1037.44
441.895	1043.32
442.27	1068.86
442.645	1053.49
443.019	1058.23
443.394	1066.82
443.769	1070.21
444.143	1053.49
444.518	1102.3
444.892	1094.84
445.267	1112.7
445.641	1114.28
446.016	1099.59
446.39	1128.52
446.764	1128.97
447.139	1152.7
447.513	1147.72
447.887	1167.38
448.262	1184.79
448.636	1179.81
449.01	1186.59
449.384	1174.62
449.758	1191.56
450.132	1206.93
450.506	1239.25
450.88	1220.49
451.254	1231.11
451.628	1242.18
452.002	1246.03
452.376	1261.17
452.75	1254.39
453.123	1295.06
453.497	1306.59
453.871	1333.48
454.244	1333.48
454.618	1332.35
454.992	1351.56
455.365	1364.22
455.739	1376.87
456.112	1385.68
456.486	1402.86
456.859	1430.43
457.232	1485.34
457.606	1431.56
457.979	1444.89
458.352	1482.4
458.725	1500.48
459.099	1512.69
459.472	1519.24
459.845	1518.79
460.218	1575.28
460.591	1559.46
460.964	1561.95
461.337	1600.14
461.71	1648.05
462.083	1671.78
462.456	1652.34
462.829	1683.08
463.201	1720.14
463.574	1717.88
463.947	1734.83
464.32	1737.99
464.692	1786.8
465.065	1779.57
465.438	1773.24
465.81	1833.81
466.183	1861.15
466.555	1888.04
466.928	1863.19
467.3	1887.37
467.672	1922.39
468.045	1999.68
468.417	1973.01
468.789	1982.73
469.161	2006.01
469.534	2058.21
469.906	2106.12
470.278	2084.87
470.65	2129.85
471.022	2152.44
471.394	2186.11
471.766	2234.48
472.138	2239.22
472.51	2297.52
472.882	2307.47
473.253	2309.05
473.625	2390.4
473.997	2406.22
474.369	2410.97
474.74	2410.74
475.112	2514.24
475.484	2526.44
475.855	2575.71
476.227	2610.06
476.598	2668.14
476.97	2687.57
477.341	2740.22
477.713	2775.25
478.084	2794.01
478.455	2834.46
478.827	2865.19
479.198	2939.77
479.569	2918.75
479.94	3045.53
480.311	3054.79
480.682	3128.24
481.053	3182.47
481.424	3252.08
481.795	3252.53
482.166	3317.61
482.537	3322.58
482.908	3403.26
483.279	3468.34
483.65	3506.08
484.021	3598.51
484.391	3604.38
484.762	3639.41
485.133	3699.07
485.503	3738.16
485.874	3819.52
486.244	3829.24
486.615	3906.97
486.985	3958.27
487.356	3995.11
487.726	4030.36
488.097	4094.77
488.467	4203.01
488.837	4251.37
489.207	4258.83
489.578	4298.83
489.948	4382.22
490.318	4431.48
490.688	4425.15
491.058	4545.6
491.428	4547.41
491.798	4628.08
492.168	4704.47
492.538	4691.36
492.908	4719.83
493.278	4815.42
493.648	4816.1
494.017	4928.42
494.387	4959.38
494.757	4974.52
495.126	5011.35
495.496	5069.2
495.866	5056.55
496.235	5169.99
496.605	5236.43
496.974	5228.75
497.344	5248.18
497.713	5286.15
498.082	5338.8
498.452	5403.66
498.821	5444.11
499.19	5457.22
499.559	5509.64
499.928	5522.52
500.298	5582.41
500.667	5624.44
501.036	5633.71
501.405	5718.45
501.774	5709.64
502.143	5758.68
502.512	5841.84
502.88	5870.76
503.249	5839.13
503.618	5906.24
503.987	5959.35
504.356	5993.47
504.724	6002.96
505.093	6035.96
505.462	6065.33
505.83	6065.33
506.199	6174.03
506.567	6294.93
506.936	6242.28
507.304	6342.84
507.672	6324.09
508.041	6400.02
508.409	6384.42
508.777	6504.65
509.145	6511.42
509.514	6505.55
509.882	6598.43
510.25	6624.19
510.618	6661.93
510.986	6719.1
511.354	6805.2
511.722	6807.69
512.09	6863.51
512.458	6886.78
512.826	6953.9
513.193	6977.63
513.561	7011.3
513.929	7059.21
514.297	7138.98
514.664	7249.94
515.032	7258.75
515.4	7292.65
515.767	7299.88
516.135	7377.39
516.502	7359.76
516.869	7493.32
517.237	7503.26
517.604	7522.47
517.972	7572.41
518.339	7706.65
518.706	7698.74
519.073	7707.78
519.44	7781.22
519.808	7845.4
520.175	7898.73
520.542	8007.2
520.909	8034.77
521.276	8065.06
521.643	8138.73
522.009	8200.42
522.376	8283.58
522.743	8332.85
523.11	8385.05
523.477	8477.02
523.843	8549.56
524.21	8676.57
524.577	8689.67
524.943	8693.51
525.31	8758.37
525.676	8830.91
526.043	8921.76
526.409	8927.63
526.776	9077.23
527.142	9082.88
527.508	9141.41
527.874	9275.42
528.241	9237.91
528.607	9279.26
528.973	9392.71
529.339	9374.63
529.705	9517.9
530.071	9594.06
530.437	9613.49
530.803	9672.7
531.169	9745.01
531.535	9752.47
531.901	9774.39
532.267	9840.6
532.632	9940.26
532.998	9975.51
533.364	10031.33
533.73	10066.81
534.095	10098.68
534.461	10252.12
534.826	10216.19
535.192	10290.08
535.557	10310.65
535.923	10380.02
536.288	10321.49
536.653	10424.99
537.019	10432.45
537.384	10514.71
537.749	10533.01
538.114	10477.2
538.479	10582.5
538.845	10678.32
539.21	10618.89
539.575	10660.24
539.94	10751.31
540.305	10777.75
540.67	10763.74
541.034	10864.76
541.399	10946.11
541.764	10948.37
542.129	11043.06
542.494	11081.47
542.858	11105.88
543.223	11078.31
543.587	11139.78
543.952	11142.49
544.316	11258.19
544.681	11236.27
545.045	11297.74
545.41	11353.11
545.774	11398.53
546.138	11373.22
546.503	11444.18
546.867	11443.95
547.231	11584.06
547.595	11575.7
547.959	11596.71
548.324	11546.09
548.688	11700.89
549.052	11718.07
549.416	11696.6
549.779	11793.77
550.143	11831.74
550.507	11888.23
550.871	11887.78
551.235	11968.46
551.599	12065.63
551.962	12048.45
552.326	12156.02
552.689	12160.77
553.053	12175.68
553.417	12172.29
553.78	12299.75
554.143	12348.11
554.507	12391.72
554.87	12487.54
555.234	12502.91
555.597	12436.69
555.96	12562.34
556.323	12664.48
556.686	12656.35
557.05	12748.32
557.413	12799.62
557.776	12794.88
558.139	12905.16
558.502	12976.79
558.865	12981.31
559.228	13147.86
559.59	13148.76
559.953	13248.2
560.316	13334.3
560.679	13371.58
561.041	13430.34
561.404	13500.62
561.767	13617
562.129	13588.98
562.492	13770.22
562.854	13692.03
563.217	13730.44
563.579	13768.86
563.941	13955.52
564.304	14015.63
564.666	14077.78
565.028	14096.54
565.39	14183.54
565.753	14345.12
566.115	14297.89
566.477	14409.97
566.839	14563.87
567.201	14547.82
567.563	14527.71
567.925	14690.42
568.287	14693.58
568.648	14748.04
569.01	14853.35
569.372	14933.8
569.734	14939.68
570.095	15030.97
570.457	15168.15
570.819	15192.78
571.18	15231.65
571.542	15295.37
571.903	15343.28
572.265	15364.07
572.626	15463.28
572.987	15479.32
573.349	15602.03
573.71	15658.08
574.071	15697.4
574.432	15858.07
574.794	15939.88
575.155	15962.93
575.516	16006.99
575.877	16076.82
576.238	16082.02
576.599	16162.92
576.96	16234.78
577.32	16176.93
577.681	16262.58
578.042	16392.29
578.403	16459.86
578.763	16493.08
579.124	16608.33
579.485	16656.02
579.845	16727.2
580.206	16748.44
580.566	16630.25
580.927	16750.7
581.287	16850.36
581.648	16830.7
582.008	16886.07
582.368	16932.62
582.728	17022.11
583.089	16960.19
583.449	17080.41
583.809	17143.01
584.169	17092.16
584.529	17110.92
584.889	17312.27
585.249	17132.16
585.609	17227.3
585.969	17328.09
586.329	17237.92
586.688	17402.89
587.048	17386.17
587.408	17440.4
587.768	17411.48
588.127	17423.23
588.487	17454.87
588.846	17529.44
589.206	17515.66
589.565	17567.63
589.925	17606.05
590.284	17678.59
590.643	17680.62
591.003	17719.27
591.362	17781.64
591.721	17844.23
592.08	17795.65
592.44	17924.23
592.799	17918.81
593.158	17872.26
593.517	17938.24
593.876	17948.86
594.235	17987.28
594.593	18045.81
594.952	18072.48
595.311	18159.03
595.67	18196.99
596.029	18256.2
596.387	18288.29
596.746	18284.67
597.104	18239.25
597.463	18200.83
597.822	18349.53
598.18	18208.97
598.538	18251.23
598.897	18409.64
599.255	18311.79
599.613	18617.32
599.972	18436.08
600.33	18446.25
600.688	18485.8
601.046	18632.91
601.404	18675.62
601.762	18642.86
602.12	18739.58
602.478	18832.91
602.836	18759.01
603.194	18665.23
603.552	18829.97
603.91	18790.2
604.268	18800.82
604.625	18786.81
604.983	18897.31
605.341	18854.38
605.698	19053.24
606.056	19066.12
606.413	18984.09
606.771	19050.3
607.128	19013.47
607.485	19012.79
607.843	19043.75
608.2	19077.65
608.557	19261.82
608.914	19218.66
609.272	19282.84
609.629	19313.12
609.986	19424.53
610.343	19350.41
610.7	19467.47
611.057	19390.41
611.414	19460.01
611.771	19494.13
612.127	19486.45
612.484	19488.94
612.841	19615.26
613.198	19537.75
613.554	19557.64
613.911	19643.06
614.267	19700.23
614.624	19697.29
614.98	19617.75
615.337	19818.87
615.693	19835.14
616.05	19748.59
616.406	19852.99
616.762	19853.45
617.118	19803.73
617.475	19838.76
617.831	19897.06
618.187	19875.82
618.543	19983.84
618.899	20042.14
619.255	19989.71
619.611	19938.42
619.967	20088.24
620.323	20101.12
620.678	20008.92
621.034	20064.74
621.39	20119.2
621.746	20004.18
622.101	20286.66
622.457	20076.72
622.812	20155.36
623.168	20185.87
623.523	20178.41
623.879	20305.64
624.234	20148.81
624.589	20158.75
624.945	20172.53
625.3	20300.67
625.655	20127.56
626.01	20288.01
626.365	20192.42
626.72	20224.06
627.075	20128.24
627.43	20163.27
627.785	20175.25
628.14	20132.99
628.495	20197.84
628.85	20184.74
629.205	20111.52
629.559	20268.58
629.914	20234
630.269	20112.42
630.623	20051.63
630.978	19991.75
631.332	20182.93
631.687	20208.92
632.041	20037.4
632.396	20090.5
632.75	19971.64
633.104	20095.25
633.459	20008.92
633.813	19977.51
634.167	20090.05
634.521	19896.61
634.875	19977.06
635.229	19969.38
635.583	19925.31
635.937	19907.46
636.291	19909.72
636.645	19934.35
636.999	19728.03
637.352	19922.37
637.706	19694.36
638.06	19862.94
638.413	19827.23
638.767	19778.87
639.121	19759.44
639.474	19617.07
639.828	19738.65
640.181	19650.29
640.534	19777.97
640.888	19657.29
641.241	19555.38
641.594	19663.17
641.947	19643.51
642.301	19656.62
642.654	19629.27
643.007	19567.8
643.36	19560.35
643.713	19495.49
644.066	19648.25
644.419	19508.15
644.771	19379.79
645.124	19189.96
645.477	19126.23
645.83	19059.12
646.182	18872.91
646.535	18951.32
646.888	18916.52
647.24	18846.92
647.593	18866.35
647.945	18900.48
648.298	18788.16
648.65	18750.2
649.002	18680.6
649.355	18728.5
649.707	18776.64
650.059	18834.72
650.411	19133.47
650.763	19209.62
651.115	19410.52
651.467	19322.84
651.819	19250.52
652.171	19192.45
652.523	19139.34
652.875	19213.46
653.227	19027.71
653.578	19180.24
653.93	19032.9
654.282	19044.88
654.633	19064.54
654.985	19016.18
655.337	19133.47
655.688	19100.25
656.039	19134.37
656.391	19032.68
656.742	18974.6
657.094	19095.05
657.445	19118.78
657.796	19050.76
658.147	19067.93
658.498	19048.5
658.849	19023.64
659.2	19010.08
659.551	18913.13
659.902	19144.54
660.253	19081.49
660.604	19027.25
660.955	18994.03
661.306	19008.95
661.656	19000.36
662.007	19047.59
662.358	18972.11
662.708	18991.55
663.059	19033.58
663.409	18938.22
663.76	19006.24
664.11	19070.19
664.461	19042.62
664.811	19051.21
665.161	18985.45
665.511	19003.98
665.862	19046.24
666.212	19157.65
666.562	19079.68
666.912	19057.54
667.262	19055.5
667.612	19041.49
667.962	18988.38
668.312	19011.66
668.662	19083.3
669.011	19098.89
669.361	18896.41
669.711	18956.52
670.06	18949.29
670.41	18853.02
670.76	18978.44
671.109	18962.17
671.459	18999.46
671.808	18975.73
672.157	18997.88
672.507	18898.22
672.856	18980.48
673.205	18859.35
673.554	18933.25
673.904	18930.08
674.253	18987.25
674.602	18853.7
674.951	18658.45
675.3	18544.78
675.649	18886.24
675.998	18827.94
676.346	18846.69
676.695	18929.86
677.044	18740.26
677.393	18820.03
677.741	18845.56
678.09	18803.08
678.438	18748.17
678.787	18718.34
679.135	18853.25
679.484	18661.61
679.832	18780.03
680.181	18684.66
680.529	18756.3
680.877	18689.86
681.225	18588.17
681.573	18696.64
681.922	18572.12
682.27	18564.44
682.618	18544.55
682.966	18580.71
683.314	18636.76
683.661	18448.74
684.009	18440.6
684.357	18338.68
684.705	18255.75
685.053	18325.8
685.4	18329.19
685.748	18255.3
686.095	18321.28
686.443	18256.88
686.79	18188.41
687.138	18131.23
687.485	18189.54
687.832	18094.85
688.18	18084.23
688.527	18020.5
688.874	18039.48
689.221	17960.62
689.568	18002.42
689.915	17812.14
690.262	17961.75
690.609	17860.28
690.956	17789.32
691.303	17818.25
691.65	17666.39
691.997	17705.93
692.344	17563.79
692.69	17664.58
693.037	17577.8
693.383	17542.1
693.73	17452.15
694.077	17378.48
694.423	17423.23
694.769	17269.33
695.116	17277.24
695.462	17279.5
695.808	17312.95
696.155	17284.93
696.501	17173.97
696.847	17171.26
697.193	17030.92
697.539	17156.12
697.885	16991.83
698.231	16970.58
698.577	16884.71
698.923	16899.17
699.269	16825.28
699.614	16731.5
699.96	16694.66
700.306	16824.83
700.651	16625.74
700.997	16493.08
701.342	16603.81
701.688	16488.11
702.033	16487.66
702.379	16541.22
702.724	16419.86
703.069	16436.59
703.415	16310.26
703.76	16335.8
704.105	16304.84
704.45	16262.35
704.795	16183.49
705.14	16053.09
705.485	16166.76
705.83	16085.64
706.175	16083.83
706.52	16020.33
706.865	16018.75
707.209	15956.15
707.554	15891.29
707.899	15927.67
708.243	15836.83
708.588	15889.26
708.932	15751.86
709.277	15786.44
709.621	15682.71
709.966	15642.71
710.31	15720.67
710.654	15515.48
710.998	15627.12
711.342	15542.6
711.687	15468.25
712.031	15474.35
712.375	15419.21
712.719	15470.29
713.063	15433.45
713.407	15481.36
713.75	15408.82
714.094	15344.19
714.438	15269.61
714.782	15334.02
715.125	15128.37
715.469	15286.11
715.812	15234.81
716.156	15173.57
716.499	15119.56
716.843	15169.5
717.186	14979.45
717.53	15114.81
717.873	15094.48
718.216	15018.32
718.559	15052.9
718.902	14982.61
719.246	14979.68
719.589	14988.49
719.932	14889.06
720.275	14854.48
720.617	14901.49
720.96	14780.81
721.303	14858.78
721.646	14863.97
721.989	14754.6
722.331	14888.38
722.674	14808.38
723.016	14844.09
723.359	14871.21
723.701	14742.62
724.044	14591.89
724.386	14701.72
724.729	14738.33
725.071	14666.92
725.413	14650.87
725.755	14662.17
726.097	14682.51
726.439	14562.06
726.782	14531.78
727.124	14647.48
727.465	14605.68
727.807	14485.9
728.149	14435.06
728.491	14520.93
728.833	14520.48
729.175	14527.49
729.516	14429.86
729.858	14430.54
730.199	14457.43
730.541	14438
730.882	14380.14
731.224	14419.69
731.565	14364.78
731.906	14456.53
732.248	14462.18
732.589	14275.29
732.93	14351.9
733.271	14370.43
733.612	14366.81
733.953	14321.16
734.294	14285.01
734.635	14249.3
734.976	14287.27
735.317	14221.73
735.658	14207.95
735.999	14268.73
736.339	14240.71
736.68	14259.7
737.021	14247.49
737.361	14138.79
737.702	14288.4
738.042	14216.98
738.383	14240.26
738.723	14209.98
739.063	14187.16
739.404	14273.93
739.744	14136.54
740.084	14220.15
740.424	14208.62
740.764	14082.3
741.104	14080.72
741.444	14071.45
741.784	14049.76
742.124	14108.51
742.464	14042.53
742.804	14029.87
743.143	14024.22
743.483	13988.74
743.823	14032.58
744.162	13999.82
744.502	13948.07
744.841	13937.9
745.181	14016.99
745.52	13994.84
745.86	14042.3
746.199	13941.06
746.538	13996.88
746.877	13941.51
747.216	13953.72
747.556	13967.95
747.895	13949.2
748.234	13877.56
748.573	13883.66
748.911	13942.87
749.25	13914.62
749.589	13863.77
749.928	13811.12
750.267	13939.03
750.605	13886.82
750.944	13850.89
751.283	13843.21
751.621	13842.31
751.96	13788.52
752.298	13740.84
752.636	13773.61
752.975	13720.95
753.313	13655.19
753.651	13722.08
753.989	13726.83
754.327	13624.91
754.666	13554.4
755.004	13574.29
755.342	13768.18
755.679	13500.85
756.017	13513.5
756.355	13583.33
756.693	13506.5
757.031	13496.1
757.368	13470.11
757.706	13417.91
758.044	13386.27
758.381	13376.33
758.719	13314.86
759.056	13380.62
759.394	13355.99
759.731	13146.96
760.068	13209.1
760.405	13183.11
760.743	13127.52
761.08	13110.57
761.417	13074.87
761.754	13072.61
762.091	12975.89
762.428	12992.38
762.765	12881.88
763.102	12901.09
763.438	12881.2
763.775	12849.79
764.112	12841.43
764.449	12801.65
764.785	12708.55
765.122	12683.47
765.458	12632.39
765.795	12634.88
766.131	12606.63
766.467	12579.74
766.804	12511.27
767.14	12356.47
767.476	12366.41
767.812	12356.47
768.148	12369.35
768.485	12252.74
768.821	12210.03
769.157	12245.29
769.492	12146.53
769.828	12149.92
770.164	12084.61
770.5	12066.31
770.836	11964.84
771.171	11951.73
771.507	11985.63
771.842	11858.63
772.178	11873.32
772.513	11876.48
772.849	11707.45
773.184	11796.71
773.519	11685.07
773.855	11683.49
774.19	11526.21
774.525	11546.09
774.86	11564.85
775.195	11553.78
775.53	11495.47
775.865	11357.63
776.2	11270.17
776.535	11297.06
776.87	11266.1
777.205	11274.24
777.539	11160.12
777.874	11164.64
778.209	11078.76
778.543	11097.52
778.878	11041.7
779.212	11027.01
779.547	10934.13
779.881	10967.58
780.215	10837.86
780.55	10897.98
780.884	10801.26
781.218	10721.03
781.552	10724.87
781.886	10689.17
782.22	10680.13
782.554	10608.94
782.888	10512.22
783.222	10469.96
783.556	10457.31
783.889	10453.92
784.223	10403.98
784.557	10373.92
784.89	10347.26
785.224	10227.26
785.557	10215.06
785.891	10167.15
786.224	10116.75
786.558	10160.82
786.891	10040.6
787.224	10035.4
787.557	9990.43
787.891	9988.4
788.224	9945.46
788.557	9898.23
788.89	9867.27
789.223	9897.55
789.556	9749.08
789.888	9768.97
790.221	9693.94
790.554	9654.39
790.887	9732.81
791.219	9644.9
791.552	9611.46
791.884	9570.1
792.217	9524.68
792.549	9536.43
792.882	9427.28
793.214	9378.47
793.546	9467.05
793.879	9367.39
794.211	9294.63
794.543	9356.1
794.875	9297.34
795.207	9282.65
795.539	9270.67
795.871	9270.22
796.203	9182.09
796.535	9107.51
796.867	9094.41
797.198	9098.25
797.53	9014.64
797.862	9025.48
798.193	8994.98
798.525	8894.86
798.856	8914.53
799.188	8865.26
799.519	8801.53
799.85	8704.36
800.182	8758.6
800.513	8751.59
800.844	8693.29
801.175	8754.76
801.506	8725.83
801.837	8609.67
802.168	8621.65
802.499	8666.62
802.83	8591.82
803.161	8551.6
803.491	8571.26
803.822	8551.15
804.153	8474.31
804.483	8425.27
804.814	8370.58
805.145	8359.29
805.475	8350.25
805.805	8410.13
806.136	8357.03
806.466	8394.77
806.796	8350.25
807.126	8228.44
807.457	8206.3
807.787	8247.2
808.117	8189.35
808.447	8200.65
808.777	8191.83
809.107	8154.32
809.436	8169.01
809.766	8085.62
810.096	8082.68
810.426	8062.57
810.755	8067.99
811.085	7969.01
811.414	8000.65
811.744	7945.96
812.073	7925.4
812.403	7921.33
812.732	7867.77
813.061	7892.86
813.39	7840.66
813.719	7784.39
814.049	7766.31
814.378	7788
814.707	7711.39
815.036	7803.59
815.365	7665.07
815.693	7624.84
816.022	7610.38
816.351	7587.78
816.68	7483.15
817.008	7580.32
817.337	7468.91
817.665	7511.85
817.994	7588.91
818.322	7537.61
818.651	7459.65
818.979	7481.79
819.307	7499.2
819.636	7463.04
819.964	7375.13
820.292	7408.12
820.62	7427.33
820.948	7357.28
821.276	7371.97
821.604	7416.03
821.932	7387.11
822.259	7425.07
822.587	7397.28
822.915	7352.31
823.243	7363.15
823.57	7379.65
823.898	7342.82
824.225	7344.62
824.553	7395.02
824.88	7384.85
825.207	7357.5
825.535	7310.05
825.862	7436.82
826.189	7299.65
826.516	7363.38
826.843	7402.02
827.17	7388.24
827.497	7383.49
827.824	7371.97
828.151	7296.71
828.478	7300.1
828.805	7386.43
829.131	7297.84
829.458	7339.2
829.785	7247.9
830.111	7351.63
830.438	7378.75
830.764	7404.96
831.09	7365.19
831.417	7342.14
831.743	7350.27
832.069	7340.78
832.395	7262.37
832.722	7315.92
833.048	7222.82
833.374	7233.67
833.7	7210.62
834.026	7246.77
834.351	7268.02
834.677	7219.43
835.003	7200.9
835.329	7214.46
835.654	7180.56
835.98	7113.89
836.306	7164.29
836.631	7142.14
836.956	7205.42
837.282	7162.71
837.607	7119.09
837.932	7102.37
838.258	7114.35
838.583	7085.42
838.908	7073.22
839.233	7082.71
839.558	7059.43
839.883	7034.35
840.208	7018.53
840.533	7008.36
840.858	6975.59
841.182	7049.26
841.507	6938.53
841.832	6975.37
842.156	6979.44
842.481	6987.12
842.805	6902.38
843.13	6933.79
843.454	6849.5
843.778	6854.92
844.103	6837.52
844.427	6799.55
844.751	6821.93
845.075	6778.99
845.399	6839.1
845.723	6757.52
846.047	6836.16
846.371	6755.03
846.695	6765.2
847.019	6680.46
847.343	6652.44
847.666	6642.04
847.99	6596.85
848.313	6539.9
848.637	6506.23
848.96	6556.4
849.284	6514.81
849.607	6513.91
849.931	6451.99
850.254	6440.92
850.577	6439.79
850.9	6332.45
851.223	6302.16
851.546	6346.23
851.869	6288.61
852.192	6335.38
852.515	6271.66
852.838	6218.78
853.161	6254.48
853.483	6182.85
853.806	6148.5
854.129	6165.45
854.451	6152.11
854.774	6124.77
855.096	6063.98
855.419	6084.32
855.741	6093.13
856.063	5966.13
856.385	5992.34
856.708	5999.8
857.03	5979.91
857.352	5947.6
857.674	5976.75
857.996	5956.19
858.318	5878.22
858.64	5903.53
858.961	5885
859.283	5849.97
859.605	5790.54
859.926	5859.92
860.248	5843.87
860.57	5798.45
860.891	5773.14
861.212	5836.19
861.534	5773.82
861.855	5713.48
862.176	5755.51
862.498	5741.28
862.819	5825.34
863.14	5730.65
863.461	5737.89
863.782	5683.65
864.103	5697.21
864.424	5729.98
864.745	5666.7
865.065	5667.83
865.386	5668.28
865.707	5600.26
866.027	5634.84
866.348	5633.48
866.668	5691.56
866.989	5597.32
867.309	5567.04
867.63	5581.96
867.95	5593.48
868.27	5544.67
868.59	5534.5
868.91	5572.24
869.23	5575.63
869.55	5475.52
869.87	5569.3
870.19	5533.37
870.51	5527.72
870.83	5482.98
871.15	5541.05
871.469	5510.55
871.789	5519.13
872.109	5504.9
872.428	5491.11
872.748	5496.76
873.067	5443.88
873.386	5435.75
873.706	5435.75
874.025	5397.33
874.344	5419.02
874.663	5433.71
874.982	5395.3
875.301	5402.98
875.62	5357.56
875.939	5394.17
876.258	5346.94
876.577	5361.4
876.896	5363.21
877.214	5337.44
877.533	5334.28
877.852	5363.88
878.17	5338.57
878.489	5366.6
878.807	5311.91
879.125	5318.24
879.444	5324.56
879.762	5296.77
880.08	5249.54
880.398	5238.46
880.716	5281.17
881.034	5246.83
881.352	5229.65
881.67	5208.18
881.988	5275.07
882.306	5228.07
882.624	5238.46
882.941	5200.05
883.259	5171.35
883.577	5157.56
883.894	5194.62
884.212	5198.92
884.529	5172.7
884.846	5115.98
885.164	5049.09
885.481	5149.43
885.798	5059.71
886.115	5071.91
886.432	5089.99
886.75	5095.19
887.067	5112.14
887.383	5064.91
887.7	5010.67
888.017	5060.62
888.334	5048.19
888.651	5017.9
888.967	5025.59
889.284	4985.36
889.6	4926.38
889.917	4877.12
890.233	4922.54
890.55	4934.97
890.866	4993.72
891.182	4904.69
891.498	4904.91
891.815	4859.04
892.131	4892.26
892.447	4886.83
892.763	4849.32
893.079	4846.16
893.395	4803.67
893.71	4820.4
894.026	4814.75
894.342	4796.44
894.657	4742.88
894.973	4772.26
895.289	4776.78
895.604	4701.75
895.92	4684.35
896.235	4724.35
896.55	4729.1
896.865	4692.04
897.181	4694.52
897.496	4663.34
897.811	4658.37
898.126	4678.48
898.441	4605.26
898.756	4604.13
899.071	4572.27
899.386	4547.63
899.7	4502.21
900.015	4583.79
900.33	4565.26
900.644	4518.26
900.959	4537.92
901.273	4475.77
901.588	4524.36
901.902	4470.35
902.216	4469.22
902.531	4441.42
902.845	4419.05
903.159	4413.85
903.473	4443.91
903.787	4381.76
904.101	4392.16
904.415	4379.73
904.729	4341.76
905.042	4315.1
905.356	4337.24
905.67	4304.03
905.984	4284.14
906.297	4254.99
906.611	4233.74
906.924	4235.55
907.237	4225.84
907.551	4198.04
907.864	4175.89
908.177	4237.13
908.491	4225.16
908.804	4141.09
909.117	4159.17
909.43	4147.42
909.743	4128.89
910.056	4102.22
910.368	4092.28
910.681	4054.31
910.994	4034.2
911.307	4037.82
911.619	4014.54
911.932	4006.86
912.244	4008.44
912.557	3986.52
912.869	4009.12
913.181	3969.12
913.494	3969.8
913.806	3954.43
914.118	3946.29
914.43	3906.3
914.742	3887.31
915.054	3888.67
915.366	3865.17
915.678	3874.66
915.99	3792.63
916.302	3775.23
916.613	3837.14
916.925	3801.89
917.236	3785.17
917.548	3749.01
917.859	3764.15
918.171	3703.59
918.482	3724.61
918.794	3700.43
919.105	3737.26
919.416	3705.17
919.727	3655.91
920.038	3692.52
920.349	3617.04
920.66	3673.08
920.971	3575.23
921.282	3599.64
921.593	3553.54
921.903	3578.39
922.214	3587.66
922.525	3566.42
922.835	3560.77
923.146	3529.36
923.456	3515.8
923.767	3507.44
924.077	3497.27
924.387	3501.79
924.697	3466.76
925.008	3487.1
925.318	3471.05
925.628	3428.12
925.938	3399.87
926.248	3358.51
926.558	3400.77
926.867	3372.52
927.177	3335.01
927.487	3342.24
927.796	3339.3
928.106	3315.8
928.416	3347.44
928.725	3318.74
929.034	3269.7
929.344	3303.15
929.653	3306.99
929.962	3260.44
930.271	3264.05
930.581	3241.91
930.89	3176.82
931.199	3205.75
931.508	3197.16
931.817	3203.72
932.125	3227.44
932.434	3149.93
932.743	3167.33
933.051	3128.01
933.36	3158.97
933.669	3123.27
933.977	3122.59
934.286	3114.68
934.594	3111.97
934.902	3084.85
935.21	3064.96
935.519	3107.45
935.827	3019.99
936.135	3010.5
936.443	3011.86
936.751	3003.04
937.059	3028.8
937.367	2967.11
937.674	2944.51
937.982	2968.92
938.29	2969.37
938.597	2935.7
938.905	2914.68
939.213	2913.55
939.52	2920.78
939.827	2908.81
940.135	2886.66
940.442	2898.64
940.749	2876.72
941.056	2857.74
941.363	2823.84
941.67	2842.14
941.977	2792.2
942.284	2825.19
942.591	2786.55
942.898	2820
943.205	2788.81
943.511	2769.83
943.818	2761.69
944.125	2742.94
944.431	2739.55
944.738	2749.49
945.044	2722.15
945.35	2743.61
945.657	2710.39
945.963	2699.77
946.269	2693.22
946.575	2655.71
946.881	2641.47
947.187	2623.17
947.493	2631.3
947.799	2625.43
948.105	2624.75
948.41	2604.86
948.716	2630.85
949.022	2607.35
949.327	2589.27
949.633	2557.4
949.938	2594.01
950.244	2541.81
950.549	2544.98
950.854	2550.17
951.16	2514.24
951.465	2516.95
951.77	2493
952.075	2502.04
952.38	2511.3
952.685	2486.9
952.99	2472.43
953.294	2473.56
953.599	2444.64
953.904	2446.9
954.209	2431.98
954.513	2436.28
954.818	2415.49
955.122	2436.28
955.426	2407.13
955.731	2370.74
956.035	2381.59
956.339	2403.74
956.643	2387.47
956.948	2375.94
957.252	2376.17
957.556	2350.63
957.86	2356.05
958.163	2352.89
958.467	2342.27
958.771	2340.24
959.075	2321.93
959.378	2262.72
959.682	2309.73
959.985	2287.58
960.289	2269.95
960.592	2251.88
960.896	2249.84
961.199	2228.37
961.502	2253.23
961.805	2203.52
962.108	2227.92
962.411	2206.45
962.714	2178.88
963.017	2197.19
963.32	2198.77
963.623	2192.67
963.926	2196.96
964.228	2173.69
964.531	2122.39
964.833	2143.4
965.136	2133.46
965.438	2123.74
965.741	2151.09
966.043	2091.65
966.345	2116.29
966.648	2121.48
966.95	2080.81
967.252	2066.34
967.554	2074.25
967.856	2050.53
968.158	2057.76
968.46	2046.23
968.761	2083.07
969.063	2036.29
969.365	2045.33
969.666	2009.4
969.968	2027.47
970.269	2015.05
970.571	1996.97
970.872	1972.11
971.174	1992.45
971.475	1952.22
971.776	1955.61
972.077	1978.66
972.378	1941.6
972.679	1946.8
972.98	1949.06
973.281	1936.86
973.582	1934.37
973.883	1934.14
974.183	1933.69
974.484	1883.3
974.785	1903.64
975.085	1887.82
975.386	1900.92
975.686	1893.02
975.986	1839.46
976.287	1871.55
976.587	1871.77
976.887	1863.41
977.187	1851.43
977.487	1843.75
977.787	1829.51
978.087	1829.51
978.387	1821.6
978.687	1806.69
978.987	1805.33
979.286	1822.06
979.586	1799.01
979.885	1749.29
980.185	1780.93
980.484	1777.09
980.784	1772.11
981.083	1751.78
981.382	1735.73
981.682	1731.66
981.981	1752.68
982.28	1742.06
982.579	1723.75
982.878	1703.87
983.177	1691.21
983.475	1691.21
983.774	1650.76
984.073	1703.42
984.372	1650.54
984.67	1690.99
984.969	1650.99
985.267	1673.36
985.566	1644.43
985.864	1627.49
986.162	1647.37
986.461	1622.97
986.759	1633.36
987.057	1610.54
987.355	1653.93
987.653	1603.31
987.951	1592.01
988.249	1606.02
988.547	1603.53
988.844	1600.82
989.142	1599.69
989.44	1587.71
989.737	1571.22
990.035	1580.48
990.332	1542.29
990.63	1572.35
990.927	1538.9
991.224	1513.59
991.521	1533.93
991.819	1532.35
992.116	1533.93
992.413	1528.96
992.71	1505.68
993.006	1504.78
993.303	1513.59
993.6	1473.59
993.897	1458.22
994.193	1463.2
994.49	1481.95
994.787	1453.48
995.083	1446.93
995.379	1464.1
995.676	1453.93
995.972	1396.98
996.268	1399.02
996.565	1450.99
996.861	1418
997.157	1385.46
997.453	1406.93
997.749	1411.67
998.044	1400.15
998.34	1372.35
998.636	1379.81
998.932	1367.61
999.227	1386.14
999.523	1389.07
999.818	1381.16
1000.114	1329.64
1000.409	1360.37
1000.704	1336.19
1001	1357.44
1001.295	1356.08
1001.59	1333.71
1001.885	1335.29
1002.18	1298
1002.475	1287.38
1002.77	1312.01
1003.065	1281.51
1003.359	1313.14
1003.654	1290.32
1003.949	1261.62
1004.243	1267.27
1004.538	1255.29
1004.832	1262.07
1005.127	1253.48
1005.421	1235.63
1005.715	1272.92
1006.009	1230.89
1006.304	1247.38
1006.598	1254.61
1006.892	1201.96
1007.186	1223.2
1007.48	1204.67
1007.773	1197.89
1008.067	1190.66
1008.361	1184.56
1008.655	1185.69
1008.948	1173.49
1009.242	1170.77
1009.535	1189.76
1009.829	1155.18
1010.122	1166.48
1010.415	1138.01
1010.708	1119.7
1011.001	1158.12
1011.295	1138.91
1011.588	1136.88
1011.881	1121.51
1012.173	1100.49
1012.466	1137.1
1012.759	1082.87
1013.052	1131.45
1013.344	1106.82
1013.637	1088.97
1013.93	1080.38
1014.222	1085.58
1014.514	1073.83
1014.807	1062.3
1015.099	1053.49
1015.391	1078.8
1015.683	1043.77
1015.976	1073.38
1016.268	1045.13
1016.56	1015.75
1016.851	1025.24
1017.143	1025.69
1017.435	1016.2
1017.727	1010.1
1018.018	1004.68
1018.31	1018.24
1018.602	991.57
1018.893	989.08
1019.185	996.32
1019.476	992.7
1019.767	996.99
1020.058	989.54
1020.35	976.66
1020.641	972.14
1020.932	944.34
1021.223	937.33
1021.514	963.1
1021.804	949.99
1022.095	948.18
1022.386	936.43
1022.677	932.14
1022.967	932.81
1023.258	935.3
1023.548	893.95
1023.839	914.74
1024.129	909.54
1024.419	881.97
1024.709	884.23
1025	879.03
1025.29	893.27
1025.58	872.48
1025.87	860.73
1026.16	864.79
1026.449	855.98
1026.739	859.82
1027.029	850.56
1027.319	838.81
1027.608	838.81
1027.898	852.36
1028.187	838.58
1028.477	835.64
1028.766	824.34
1029.055	820.5
1029.344	836.55
1029.634	820.95
1029.923	828.64
1030.212	799.94
1030.501	788.19
1030.79	777.56
1031.078	792.03
1031.367	777.11
1031.656	783.21
1031.945	780.95
1032.233	770.78
1032.522	778.24
1032.81	769.43
1033.099	738.47
1033.387	767.62
1033.675	734.85
1033.963	770.78
1034.251	780.5
1034.54	733.27
1034.828	756.1
1035.116	710
1035.403	725.36
1035.691	706.83
1035.979	717.45
1036.267	717.68
1036.554	703.22
1036.842	703.44
1037.129	712.26
1037.417	705.25
1037.704	703.44
1037.992	706.15
1038.279	675.42
1038.566	664.8
1038.853	664.8
1039.14	664.8
