Data from tablewood_brown_FLMS001491_040.txt Node
Date: Tue Feb 07 11:10:23 GMT 2017
User: dcchb
Spectrometer: FLMS00149
Trigger mode: 0
Integration Time (sec): 2.000000E-2
Scans to average: 10
Electric dark correction enabled: true
Nonlinearity correction enabled: false
Boxcar width: 0
XAxis mode: Wavelengths
Number of Pixels in Spectrum: 2048
>>>>>Begin Spectral Data<<<<<
341.393	-20.06
341.776	-20.06
342.16	-20.06
342.543	-41.07
342.927	-81.98
343.31	-72.26
343.693	-83.11
344.077	-60.73
344.46	-55.76
344.843	-39.26
345.226	-47.4
345.61	-31.81
345.993	-8.76
346.376	-9.89
346.759	22.43
347.142	27.63
347.525	29.66
347.908	78.02
348.291	54.52
348.674	101.3
349.057	95.42
349.44	127.74
349.823	149.43
350.206	168.87
350.588	195.31
350.971	216.55
351.354	219.49
351.737	243.89
352.119	292.7
352.502	233.95
352.884	285.25
353.267	301.29
353.65	300.61
354.032	300.84
354.414	306.49
354.797	301.74
355.179	316.66
355.562	320.05
355.944	340.84
356.326	341.06
356.709	334.51
357.091	329.54
357.473	323.21
357.855	350.56
358.238	344.91
358.62	360.27
359.002	353.49
359.384	340.84
359.766	362.31
360.148	358.01
360.53	370.67
360.912	346.04
361.294	351.23
361.676	327.05
362.057	343.55
362.439	339.48
362.821	321.86
363.203	328.64
363.584	345.58
363.966	316.66
364.348	331.35
364.729	308.52
365.111	343.78
365.493	327.05
365.874	326.83
366.256	330.44
366.637	332.93
367.019	319.82
367.4	342.65
367.781	334.28
368.163	326.83
368.544	342.87
368.925	315.3
369.306	323.89
369.688	316.66
370.069	311.91
370.45	329.09
370.831	365.02
371.212	323.66
371.593	337
371.974	339.93
372.355	325.47
372.736	322.08
373.117	313.49
373.498	336.54
373.879	327.73
374.26	331.35
374.641	351.69
375.021	339.71
375.402	346.71
375.783	325.25
376.163	343.32
376.544	343.1
376.925	358.01
377.305	360.95
377.686	344.45
378.066	368.18
378.447	349.43
378.827	343.1
379.208	347.39
379.588	338.8
379.968	326.38
380.349	367.5
380.729	367.28
381.109	359.6
381.489	367.96
381.87	386.04
382.25	372.48
382.63	358.92
383.01	395.53
383.39	375.19
383.77	366.37
384.15	380.16
384.53	388.07
384.91	396.66
385.29	395.98
385.67	382.65
386.049	402.53
386.429	396.43
386.809	418.12
387.189	413.83
387.568	405.7
387.948	406.83
388.328	389.42
388.707	385.58
389.087	422.42
389.466	408.63
389.846	415.19
390.225	428.97
390.605	432.59
390.984	439.14
391.363	421.97
391.743	435.53
392.122	458.8
392.501	435.98
392.881	475.98
393.26	450.89
393.639	462.64
394.018	452.25
394.397	466.71
394.776	452.7
395.155	449.31
395.534	469.42
395.913	447.95
396.292	457.22
396.671	441.85
397.05	475.07
397.429	490.44
397.808	470.55
398.186	485.47
398.565	488.18
398.944	484.79
399.323	494.73
399.701	480.95
400.08	494.51
400.458	501.29
400.837	510.55
401.215	495.86
401.594	513.94
401.972	535.86
402.351	533.83
402.729	511.46
403.107	527.27
403.486	538.35
403.864	548.52
404.242	543.77
404.62	544.22
404.999	542.64
405.377	560.72
405.755	584
406.133	581.74
406.511	553.49
406.889	572.47
407.267	570.44
407.645	578.57
408.023	593.71
408.401	631
408.779	593.04
409.156	615.63
409.534	579.7
409.912	623.99
410.29	632.13
410.667	640.27
411.045	639.59
411.422	653.37
411.8	673.26
412.178	665.12
412.555	669.87
412.933	694.05
413.31	671
413.687	689.3
414.065	711.22
414.442	688.4
414.819	714.84
415.197	711.9
415.574	674.62
415.951	727.27
416.328	718.46
416.705	739.7
417.082	721.17
417.46	737.21
417.837	749.87
418.214	763.88
418.591	747.16
418.967	754.16
419.344	780.15
419.721	759.58
420.098	759.58
420.475	773.37
420.852	776.99
421.228	804.33
421.605	812.92
421.982	797.55
422.358	810.66
422.735	830.77
423.111	808.17
423.488	826.25
423.864	819.92
424.241	845.68
424.617	832.58
424.994	867.15
425.37	863.31
425.746	855.18
426.123	866.47
426.499	860.15
426.875	887.04
427.251	884.1
427.627	888.39
428.003	947.83
428.379	938.56
428.756	912.35
429.132	951.44
429.507	952.57
429.883	949.18
430.259	955.96
430.635	976.08
431.011	983.08
431.387	1018.79
431.763	1030.54
432.138	1026.24
432.514	1044.77
432.89	1041.61
433.265	1082.06
433.641	1076.86
434.016	1068.28
434.392	1084.32
434.767	1108.05
435.143	1120.48
435.518	1158.22
435.894	1124.09
436.269	1127.26
436.644	1175.17
437.02	1179.01
437.395	1193.47
437.77	1215.17
438.145	1242.06
438.52	1221.95
438.895	1227.82
439.271	1222.85
439.646	1277.99
440.021	1260.14
440.395	1291.32
440.77	1243.41
441.145	1299.46
441.52	1301.27
441.895	1313.69
442.27	1344.43
442.645	1310.53
443.019	1326.8
443.394	1355.05
443.769	1341.94
444.143	1367.25
444.518	1381.49
444.892	1371.77
445.267	1389.4
445.641	1383.52
446.016	1387.14
446.39	1386.69
446.764	1431.21
447.139	1438.44
447.513	1437.31
447.887	1471.88
448.262	1420.58
448.636	1438.21
449.01	1500.58
449.384	1507.59
449.758	1493.58
450.132	1492.45
450.506	1518.66
450.88	1508.27
451.254	1533.8
451.628	1570.64
452.002	1584.2
452.376	1583.74
452.75	1568.83
453.123	1569.96
453.497	1636.4
453.871	1625.32
454.244	1650.86
454.618	1681.14
454.992	1698.54
455.365	1709.84
455.739	1738.09
456.112	1740.8
456.486	1770.86
456.859	1753.46
457.232	1823.74
457.606	1808.82
457.979	1823.29
458.352	1855.15
458.725	1888.82
459.099	1872.1
459.472	1930.4
459.845	1945.99
460.218	1983.06
460.591	1972.89
460.964	1979.89
461.337	2049.72
461.71	2042.94
462.083	2103.73
462.456	2116.39
462.829	2124.07
463.201	2174.69
463.574	2169.94
463.947	2181.92
464.32	2243.16
464.692	2251.97
465.065	2282.26
465.438	2318.19
465.81	2377.17
466.183	2376.04
466.555	2416.26
466.928	2400.67
467.3	2430.05
467.672	2459.2
468.045	2577.62
468.417	2588.46
468.789	2590.95
469.161	2621.68
469.534	2659.87
469.906	2713.43
470.278	2748.68
470.65	2810.83
471.022	2860.09
471.394	2886.99
471.766	2929.7
472.138	2970.15
472.51	3038.17
472.882	3079.75
473.253	3128.34
473.625	3183.02
473.997	3274.32
474.369	3276.81
474.74	3338.95
475.112	3393.19
475.484	3444.03
475.855	3521.09
476.227	3571.04
476.598	3698.04
476.97	3668.21
477.341	3826.4
477.713	3851.03
478.084	3915.66
478.455	4029.56
478.827	4044.92
479.198	4242.66
479.569	4223.45
479.94	4314.75
480.311	4392.26
480.682	4454.18
481.053	4571.91
481.424	4668.18
481.795	4732.14
482.166	4823.43
482.537	4915.18
482.908	4933.03
483.279	5041.96
483.65	5159.02
484.021	5228.62
484.391	5312.91
484.762	5399.01
485.133	5418.22
485.503	5469.97
485.874	5700.25
486.244	5753.13
486.615	5744.54
486.985	5911.09
487.356	6053.23
487.726	6086.9
488.097	6221.59
488.467	6252.32
488.837	6358.31
489.207	6465.65
489.578	6547.68
489.948	6587.23
490.318	6706.77
490.688	6752.42
491.058	6858.18
491.428	6968.46
491.798	7005.97
492.168	7218.17
492.538	7199.42
492.908	7301.79
493.278	7319.19
493.648	7337.26
494.017	7523.93
494.387	7576.58
494.757	7737.71
495.126	7734.09
495.496	7860.41
495.866	7885.95
496.235	7926.85
496.605	8021.99
496.974	8076.23
497.344	8125.27
497.713	8182.89
498.082	8300.86
498.452	8354.64
498.821	8412.72
499.19	8421.98
499.559	8549.21
499.928	8566.84
500.298	8614.52
500.667	8754.85
501.036	8733.39
501.405	8817.45
501.774	8882.31
502.143	9008.63
502.512	9010.89
502.88	9138.57
503.249	9150.32
503.618	9190.55
503.987	9260.15
504.356	9284.78
504.724	9422.63
505.093	9441.84
505.462	9490.2
505.83	9568.39
506.199	9688.62
506.567	9814.04
506.936	9786.47
507.304	9849.97
507.672	9936.97
508.041	9987.36
508.409	10068.72
508.777	10142.39
509.145	10273.23
509.514	10243.18
509.882	10431.65
510.25	10384.19
510.618	10519.78
510.986	10604.75
511.354	10705.76
511.722	10805.65
512.09	10886.78
512.458	10870.73
512.826	11032.99
513.193	11114.57
513.561	11148.69
513.929	11211.51
514.297	11425.52
514.664	11497.61
515.032	11536.93
515.4	11571.05
515.767	11707.55
516.135	11782.8
516.502	11740.09
516.869	11891.72
517.237	12066.18
517.604	12029.34
517.972	12202.45
518.339	12224.82
518.706	12258.94
519.073	12389.56
519.44	12563.79
519.808	12657.35
520.175	12737.12
520.542	12892.6
520.909	12903.45
521.276	13016.89
521.643	13034.06
522.009	13219.37
522.376	13345.92
522.743	13394.73
523.11	13582.3
523.477	13757.66
523.843	13728.96
524.21	13928.96
524.577	14069.97
524.943	14162.4
525.31	14237.2
525.676	14274.71
526.043	14454.82
526.409	14554.93
526.776	14730.29
527.142	14744.75
527.508	14792.66
527.874	15027.46
528.241	15049.38
528.607	15121.01
528.973	15263.84
529.339	15358.07
529.705	15494.11
530.071	15666.76
530.437	15748.57
530.803	15796.48
531.169	15890.49
531.535	15943.82
531.901	15954.44
532.267	16039.63
532.632	16141.78
532.998	16239.86
533.364	16384.03
533.73	16394.43
534.095	16484.37
534.461	16605.5
534.826	16657.47
535.192	16817.24
535.557	16942.21
535.923	16965.03
536.288	17003.23
536.653	17011.59
537.019	17081.42
537.384	17183.56
537.749	17296.78
538.114	17272.82
538.479	17376.1
538.845	17394.18
539.21	17350.33
539.575	17564.57
539.94	17590.55
540.305	17826.25
540.67	17663.09
541.034	17819.25
541.399	17844.79
541.764	17944.67
542.129	18055.4
542.494	18035.51
542.858	18093.82
543.223	18154.16
543.587	18266.92
543.952	18236.41
544.316	18367.03
544.681	18324.55
545.045	18463.75
545.41	18613.13
545.774	18619.91
546.138	18748.49
546.503	18794.82
546.867	18865.55
547.231	19028.71
547.595	18940.35
547.959	19056.28
548.324	19065.09
548.688	19222.38
549.052	19235.03
549.416	19257.18
549.779	19318.19
550.143	19444.07
550.507	19649.94
550.871	19705.98
551.235	19764.51
551.599	19892.19
551.962	19957.5
552.326	19930.15
552.689	20180.32
553.053	20076.14
553.417	20214.21
553.78	20429.35
554.143	20449.91
554.507	20626.63
554.87	20622.79
555.234	20902.78
555.597	20888.77
555.96	20927.19
556.323	21096
556.686	21241.76
557.05	21386.61
557.413	21468.19
557.776	21591.58
558.139	21896.88
558.502	21837
558.865	21974.85
559.228	22264.56
559.59	22348.17
559.953	22399.92
560.316	22715.84
560.679	22760.14
561.041	22985.67
561.404	23107.25
561.767	23352.89
562.129	23347.01
562.492	23641.92
562.854	23568.02
563.217	23769.15
563.579	23927.79
563.941	24075.81
564.304	24163.04
564.666	24407.78
565.028	24596.92
565.39	24702.68
565.753	24903.58
566.115	24970.47
566.477	25232.61
566.839	25356.9
567.201	25587.18
567.563	25718.02
567.925	26007.51
568.287	26064
568.648	26159.37
569.01	26515.74
569.372	26709.64
569.734	26667.83
570.095	26847.26
570.457	27078.89
570.819	27287.25
571.18	27343.29
571.542	27508.94
571.903	27720.91
572.265	27941.02
572.626	28076.83
572.987	28151.41
573.349	28341.68
573.71	28668.46
574.071	28683.14
574.432	28866.64
574.794	29124.94
575.155	29108.44
575.516	29159.29
575.877	29439.73
576.238	29471.15
576.599	29740.29
576.96	29884.02
577.32	29948.2
577.681	30126.04
578.042	30260.05
578.403	30323.1
578.763	30481.51
579.124	30700.27
579.485	30754.95
579.845	30919.47
580.206	30955.17
580.566	31106.58
580.927	31210.99
581.287	31376.41
581.648	31238.33
582.008	31608.26
582.368	31502.51
582.728	31626.57
583.089	31791.99
583.449	31745.66
583.809	31847.35
584.169	31985.66
584.529	31973.45
584.889	32341.58
585.249	32016.39
585.609	31969.84
585.969	32281.02
586.329	32135.26
586.688	32310.62
587.048	32394.91
587.408	32312.88
587.768	32330.73
588.127	32365.53
588.487	32543.61
588.846	32653.89
589.206	32594.68
589.565	32548.81
589.925	32767.78
590.284	32696.82
590.643	32770.95
591.003	32792.41
591.362	32988.34
591.721	32923.48
592.08	32965.52
592.44	33106.3
592.799	33152.18
593.158	32941.34
593.517	33036.25
593.876	33095.46
594.235	33022.24
594.593	32930.49
594.952	33231.95
595.311	33087.32
595.67	33220.43
596.029	33269.92
596.387	33354.21
596.746	33373.42
597.104	33296.58
597.463	33361.89
597.822	33574.54
598.18	33338.16
598.538	33378.61
598.897	33602.34
599.255	33392.4
599.613	33760.52
599.972	33653.18
600.33	33653.18
600.688	33470.14
601.046	33637.59
601.404	33736.34
601.762	33634.43
602.12	33982.21
602.478	33927.07
602.836	33824.03
603.194	33692.96
603.552	33812.05
603.91	33872.39
604.268	33942.67
604.625	33894.31
604.983	34007.98
605.341	33886.4
605.698	34112.38
606.056	34136.79
606.413	34042.33
606.771	34091.36
607.128	34308.08
607.485	34106.96
607.843	34148.76
608.2	34298.59
608.557	34338.59
608.914	34253.17
609.272	34424.24
609.629	34401.41
609.986	34581.75
610.343	34388.53
610.7	34629.2
611.057	34579.71
611.414	34638.69
611.771	34630.78
612.127	34865.58
612.484	34776.77
612.841	35020.83
613.198	34854.28
613.554	34681.63
613.911	35090.43
614.267	35004.11
614.624	34951
614.98	34918.69
615.337	35265.34
615.693	35081.39
616.05	35094.5
616.406	35184.67
616.762	35113.48
617.118	35240.94
617.475	35095.86
617.831	35142.41
618.187	35250.43
618.543	35356.19
618.899	35506.02
619.255	35437.77
619.611	35360.03
619.967	35565.22
620.323	35618.55
620.678	35521.16
621.034	35494.49
621.39	35508.73
621.746	35444.32
622.101	35715.28
622.457	35505.34
622.812	35641.83
623.168	35747.59
623.523	35673.69
623.879	35746.69
624.234	35487.94
624.589	35699.68
624.945	35541.95
625.3	35759.57
625.655	35702.39
626.01	35713.69
626.365	35677.99
626.72	35677.31
627.075	35620.81
627.43	35590.99
627.785	35513.47
628.14	35702.39
628.495	35666.46
628.85	35520.03
629.205	35419.01
629.559	35655.84
629.914	35434.15
630.269	35388.05
630.623	35471.44
630.978	35310.77
631.332	35516.41
631.687	35440.25
632.041	35467.15
632.396	35474.38
632.75	35262.63
633.104	35405
633.459	35208.85
633.813	35156.42
634.167	35242.97
634.521	35204.55
634.875	35239.81
635.229	35100.15
635.583	34940.61
635.937	34998.01
636.291	34955.3
636.645	34847.95
636.999	34837.33
637.352	34838.01
637.706	34766.83
638.06	34741.74
638.413	34749.65
638.767	34625.81
639.121	34805.69
639.474	34549.88
639.828	34590.56
640.181	34542.2
640.534	34681.4
640.888	34406.38
641.241	34424.01
641.594	34450
641.947	34553.27
642.301	34362.99
642.654	34429.43
643.007	34341.98
643.36	34322.54
643.713	34268.31
644.066	34376.1
644.419	34160.29
644.771	33985.6
645.124	33651.6
645.477	33681.43
645.83	33347.43
646.182	33337.03
646.535	33336.36
646.888	33328.9
647.24	33116.7
647.593	33304.72
647.945	33197.6
648.298	32981.56
648.65	33088.9
649.002	33168.45
649.355	33117.6
649.707	32975.69
650.059	33141.56
650.411	33459.06
650.763	33578.38
651.115	33945.38
651.467	33737.47
651.819	33811.14
652.171	33734.54
652.523	33699.96
652.875	33731.37
653.227	33679.17
653.578	33856.12
653.93	33663.13
654.282	33566.18
654.633	33547.87
654.985	33545.84
655.337	33658.15
655.688	33522.34
656.039	33706.97
656.391	33503.81
656.742	33520.53
657.094	33617.48
657.445	33766.85
657.796	33438.73
658.147	33486.63
658.498	33492.96
658.849	33577.48
659.2	33636.46
659.551	33479.18
659.902	33639.4
660.253	33548.78
660.604	33550.36
660.955	33268.33
661.306	33549.46
661.656	33389.69
662.007	33386.98
662.358	33367.99
662.708	33425.17
663.059	33425.17
663.409	33167.09
663.76	33407.99
664.11	33440.53
664.461	33540.64
664.811	33584.03
665.161	33474.66
665.511	33244.61
665.862	33414.77
666.212	33468.78
666.562	33466.07
666.912	33414.32
667.262	33419.29
667.612	33217.04
667.962	33350.37
668.312	33304.04
668.662	33505.84
669.011	33309.01
669.361	33309.92
669.711	33250.26
670.06	33191.95
670.41	33204.61
670.76	33266.98
671.109	33210.93
671.459	33175.91
671.808	33174.1
672.157	33154.44
672.507	32961.9
672.856	32907.67
673.205	33108.11
673.554	33047.78
673.904	33011.39
674.253	33118.96
674.602	33024.05
674.951	32561.01
675.3	32363.27
675.649	32976.36
675.998	32900.66
676.346	32823.83
676.695	32803.26
677.044	32789.93
677.393	32876.48
677.741	32817.95
678.09	32660.67
678.438	32639.42
678.787	32687.33
679.135	32587.22
679.484	32401.46
679.832	32511.07
680.181	32279.89
680.529	32431.29
680.877	32348.58
681.225	32339.77
681.573	32306.1
681.922	32211.41
682.27	32110.85
682.618	32269.49
682.966	32180.68
683.314	32096.84
683.661	31958.99
684.009	31842.16
684.357	31740.92
684.705	31682.16
685.053	31770.97
685.4	31746.11
685.748	31568.27
686.095	31492.56
686.443	31409.17
686.79	31307.26
687.138	31509.28
687.485	31344.09
687.832	31288.5
688.18	31240.14
688.527	31139.12
688.874	31152.68
689.221	31156.07
689.568	31024.78
689.915	30808.74
690.262	30878.57
690.609	30692.81
690.956	30536.43
691.303	30475.41
691.65	30516.09
691.997	30441.29
692.344	30251.46
692.69	30279.49
693.037	30119.94
693.383	29816
693.73	30090.79
694.077	29803.11
694.423	29743.46
694.769	29711.59
695.116	29563.35
695.462	29511.6
695.808	29378.27
696.155	29525.16
696.501	29152.28
696.847	29248.78
697.193	29008.33
697.539	29048.11
697.885	28838.85
698.231	28722.92
698.577	28806.08
698.923	28695.12
699.269	28533.77
699.614	28452.64
699.96	28389.37
700.306	28341.01
700.651	28244.06
700.997	28094.69
701.342	28123.61
701.688	28015.82
702.033	27939.66
702.379	27861.7
702.724	27742.6
703.069	27702.6
703.415	27412.67
703.76	27373.35
704.105	27507.81
704.45	27345.33
704.795	27268.04
705.14	27079.57
705.485	27132.22
705.83	27056.07
706.175	26965.22
706.52	26899.01
706.865	26842.29
707.209	26769.3
707.554	26623.99
707.899	26724.78
708.243	26495.63
708.588	26582.18
708.932	26294.73
709.277	26352.13
709.621	26312.36
709.966	26110.56
710.31	26239.82
710.654	25959.6
710.998	26082.08
711.342	25986.04
711.687	25911.47
712.031	25861.3
712.375	25737.91
712.719	25856.55
713.063	25670.34
713.407	25781.3
713.75	25542.21
714.094	25563.9
714.438	25347.41
714.782	25508.99
715.125	25310.58
715.469	25431.03
715.812	25283.91
716.156	25146.51
716.499	25048.44
716.843	25198.49
717.186	25025.61
717.53	25139.73
717.873	25146.06
718.216	25207.98
718.559	25064.93
718.902	24900.64
719.246	25057.48
719.589	24869.01
719.932	24790.59
720.275	24922.79
720.617	24788.11
720.96	24793.75
721.303	24774.55
721.646	24714.43
721.989	24645.51
722.331	24664.27
722.674	24572.52
723.016	24603.93
723.359	24503.59
723.701	24574.55
724.044	24351.05
724.386	24233.32
724.729	24346.53
725.071	24353.54
725.413	24434.44
725.755	24381.34
726.097	24249.36
726.439	24297.5
726.782	24219.76
727.124	24356.48
727.465	24244.39
727.807	24245.07
728.149	24129.82
728.491	24202.13
728.833	24166.88
729.175	24123.49
729.516	24109.93
729.858	24037.62
730.199	24047.11
730.541	23983.38
730.882	24001.23
731.224	24029.26
731.565	23948.35
731.906	24009.59
732.248	24045.07
732.589	23796.49
732.93	23824.29
733.271	23828.36
733.612	23862.03
733.953	23932.31
734.294	23818.64
734.635	23791.75
734.976	23987.22
735.317	23747.45
735.658	23760.34
735.999	23770.73
736.339	23740.68
736.68	23759.66
737.021	23854.12
737.361	23794.91
737.702	23906.09
738.042	23684.63
738.383	23641.92
738.723	23799.66
739.063	23651.41
739.404	23747.68
739.744	23667.91
740.084	23516.95
740.424	23741.13
740.764	23597.63
741.104	23755.14
741.444	23664.74
741.784	23459.78
742.124	23729.15
742.464	23574.58
742.804	23529.38
743.143	23426.79
743.483	23533.22
743.823	23413
744.162	23455.71
744.502	23519.89
744.841	23570.28
745.181	23542.26
745.52	23540
745.86	23589.94
746.199	23467.01
746.538	23434.02
746.877	23607.8
747.216	23550.62
747.556	23489.61
747.895	23506.78
748.234	23398.76
748.573	23438.31
748.911	23395.83
749.25	23407.12
749.589	23343.17
749.928	23270.86
750.267	23380.01
750.605	23243.51
750.944	23210.75
751.283	23204.87
751.621	23232.21
751.96	23033.12
752.298	23048.72
752.636	23166.45
752.975	23057.98
753.313	22986.12
753.651	23087.81
753.989	22977.53
754.327	23002.39
754.666	22897.31
755.004	22871.09
755.342	22872.68
755.679	22853.47
756.017	22815.28
756.355	22807.59
756.693	22772.79
757.031	22822.06
757.368	22655.28
757.706	22716.52
758.044	22695.5
758.381	22613.47
758.719	22611.44
759.056	22563.76
759.394	22509.07
759.731	22359.24
760.068	22247.61
760.405	22272.24
760.743	22194.73
761.08	22304.33
761.417	22105.92
761.754	22081.06
762.091	21964.22
762.428	21850.33
762.765	21813.95
763.102	21874.06
763.438	21752.7
763.775	21684.68
764.112	21725.59
764.449	21643.56
764.785	21535.08
765.122	21403.79
765.458	21374.64
765.795	21389.78
766.131	21323.34
766.467	21206.73
766.804	21053.74
767.14	21062.78
767.476	21143.46
767.812	21009.9
768.148	20976.45
768.485	20887.19
768.821	20766.29
769.157	20708.66
769.492	20700.98
769.828	20718.16
770.164	20481.55
770.5	20368.33
770.836	20527.65
771.171	20291.27
771.507	20310.03
771.842	20120.66
772.178	20192.29
772.513	20013.32
772.849	20094.22
773.184	19921.79
773.519	19811.29
773.855	19777.62
774.19	19617.17
774.525	19631.63
774.86	19670.27
775.195	19615.13
775.53	19404.52
775.865	19332.2
776.2	19308.7
776.535	19218.08
776.87	19127.46
777.205	19076.62
777.539	19073.45
777.874	19039.33
778.209	18892.67
778.543	18788.04
778.878	18716.63
779.212	18719.11
779.547	18614.03
779.881	18688.83
780.215	18559.12
780.55	18536.07
780.884	18393.92
781.218	18317.77
781.552	18382.62
781.886	18242.29
782.22	18108.51
782.554	18030.32
782.888	17873.94
783.222	17847.5
783.556	17743.09
783.889	17764.56
784.223	17673.04
784.557	17658.35
784.89	17626.94
785.224	17488.18
785.557	17523.44
785.891	17489.77
786.224	17385.14
786.558	17372.03
786.891	17235.99
787.224	17133.17
787.557	17150.57
787.891	17094.3
788.224	17095.65
788.557	17057.91
788.89	16941.53
789.223	16913.96
789.556	16768.2
789.888	16729.56
790.221	16693.18
790.554	16525.72
790.887	16620.64
791.219	16419.29
791.552	16470.81
791.884	16376.58
792.217	16335.45
792.549	16239.86
792.882	16125.73
793.214	16084.15
793.546	16187.88
793.879	16064.04
794.211	15935
794.543	15979.75
794.875	15931.16
795.207	15989.24
795.539	15874.67
795.871	15890.49
796.203	15645.52
796.535	15642.81
796.867	15701.56
797.198	15511.29
797.53	15590.16
797.862	15451.4
798.193	15503.15
798.525	15330.05
798.856	15326.21
799.188	15162.37
799.519	15229.49
799.85	15169.15
800.182	15095.93
800.513	15071.98
800.844	14974.35
801.175	14979.1
801.506	14985.2
801.837	14830.4
802.168	14891.64
802.499	14830.63
802.83	14731.87
803.161	14663.4
803.491	14671.76
803.822	14600.58
804.153	14606.9
804.483	14531.43
804.814	14368.49
805.145	14480.13
805.475	14398.55
805.805	14409.62
806.136	14326.23
806.466	14356.06
806.796	14254.14
807.126	14238.33
807.457	14138.22
807.787	14151.1
808.117	14126.46
808.447	14019.57
808.777	14038.33
809.107	14041.72
809.436	13968.5
809.766	13948.39
810.096	13909.52
810.426	13872.91
810.755	13864.1
811.085	13710.43
811.414	13768.96
811.744	13648.96
812.073	13632.69
812.403	13625.46
812.732	13549.3
813.061	13588.63
813.39	13484
813.719	13510.44
814.049	13578.68
814.378	13404
814.707	13387.95
815.036	13375.3
815.365	13244
815.693	13213.27
816.022	13227.73
816.351	13109.77
816.68	13083.33
817.008	13115.42
817.337	13068.19
817.665	13000.39
817.994	13054.63
818.322	13065.02
818.651	12936.89
818.979	12894.86
819.307	12988.42
819.636	12917.23
819.964	12841.3
820.292	12855.31
820.62	12825.71
820.948	12827.06
821.276	12811.7
821.604	12822.54
821.932	12837.46
822.259	12691.47
822.587	12685.6
822.915	12797.46
823.243	12780.29
823.57	12723.56
823.898	12734.18
824.225	12678.14
824.553	12741.19
824.88	12726.5
825.207	12761.3
825.535	12729.44
825.862	12758.14
826.189	12733.73
826.516	12822.32
826.843	12856.22
827.17	12710.68
827.497	12705.26
827.824	12757.24
828.151	12757.24
828.478	12747.29
828.805	12789.55
829.131	12651.25
829.458	12648.54
829.785	12594.3
830.111	12623
830.438	12715.65
830.764	12653.06
831.09	12692.38
831.417	12698.25
831.743	12661.64
832.069	12695.09
832.395	12555.43
832.722	12623.68
833.048	12565.38
833.374	12681.08
833.7	12538.48
834.026	12577.13
834.351	12613.74
834.677	12626.39
835.003	12572.16
835.329	12584.36
835.654	12554.53
835.98	12483.8
836.306	12554.3
836.631	12470.69
836.956	12468.2
837.282	12514.98
837.607	12428.2
837.932	12352.5
838.258	12462.55
838.583	12385.72
838.908	12337.13
839.233	12383.69
839.558	12351.14
839.883	12293.29
840.208	12233.18
840.533	12231.37
840.858	12264.14
841.182	12257.59
841.507	12216.91
841.832	12098.72
842.156	12174.88
842.481	12101.21
842.805	12040.19
843.13	12006.52
843.454	11978.05
843.778	12026.41
844.103	11940.08
844.427	11934.43
844.751	11894.66
845.075	11833.64
845.399	11823.25
845.723	11737.37
846.047	11772.18
846.371	11742.12
846.695	11657.6
847.019	11659.64
847.343	11534.44
847.666	11433.2
847.99	11432.98
848.313	11477.95
848.637	11375.35
848.96	11421
849.284	11303.49
849.607	11232.53
849.931	11165.41
850.254	11094
850.577	11101.23
850.9	11039.77
851.223	10999.32
851.546	10998.64
851.869	10873.89
852.192	10966.1
852.515	10852.43
852.838	10805.42
853.161	10805.87
853.483	10708.93
853.806	10661.92
854.129	10658.53
854.451	10606.33
854.774	10557.07
855.096	10568.82
855.419	10511.19
855.741	10453.79
856.063	10437.3
856.385	10411.76
856.708	10344.87
857.03	10341.93
857.352	10359.11
857.674	10325.66
857.996	10256.74
858.318	10230.75
858.64	10201.6
858.961	10207.02
859.283	10129.51
859.605	10147.13
859.926	10161.6
860.248	10111.43
860.57	10075.27
860.891	10080.24
861.212	10002.28
861.534	9947.14
861.855	9934.94
862.176	9924.77
862.498	9983.97
862.819	9913.92
863.14	9920.02
863.461	9879.8
863.782	9809.74
864.103	9863.07
864.424	9815.39
864.745	9729.07
865.065	9754.83
865.386	9737.43
865.707	9681.61
866.027	9783.53
866.348	9663.31
866.668	9671.21
866.989	9705.11
867.309	9576.53
867.63	9567.49
867.95	9609.07
868.27	9516.19
868.59	9613.36
868.91	9580.37
869.23	9541.5
869.55	9446.59
869.87	9565.45
870.19	9533.37
870.51	9456.08
870.83	9486.36
871.15	9480.26
871.469	9420.83
871.789	9471.45
872.109	9417.21
872.428	9383.76
872.748	9409.3
873.067	9376.08
873.386	9407.49
873.706	9384.89
874.025	9292.02
874.344	9365.01
874.663	9324.56
874.982	9308.29
875.301	9279.36
875.62	9259.02
875.939	9240.49
876.258	9222.64
876.577	9190.55
876.896	9209.08
877.214	9153.49
877.533	9251.56
877.852	9143.54
878.17	9193.94
878.489	9153.04
878.807	9126.82
879.125	9098.57
879.444	9106.48
879.762	8994.17
880.08	9071.68
880.398	9028.97
880.716	9032.81
881.034	8966.37
881.352	9002.53
881.67	8912.36
881.988	8957.79
882.306	8948.07
882.624	8840.73
882.941	8776.1
883.259	8848.64
883.577	8807.06
883.894	8818.81
884.212	8786.04
884.529	8790.11
884.846	8681.18
885.164	8685.03
885.481	8685.7
885.798	8669.43
886.115	8644.12
886.432	8686.61
886.75	8609.1
887.067	8647.96
887.383	8549.44
887.7	8608.64
888.017	8568.19
888.334	8535.43
888.651	8567.97
888.967	8546.5
889.284	8483
889.6	8525.03
889.917	8395.54
890.233	8402.77
890.55	8352.83
890.866	8380.85
891.182	8366.39
891.498	8335.2
891.815	8307.63
892.131	8269.22
892.447	8154.64
892.763	8187.64
893.079	8145.83
893.395	8117.13
893.71	8115.1
894.026	8111.93
894.342	8125.04
894.657	8070.13
894.973	8067.64
895.289	8032.61
895.604	8039.39
895.92	7926.85
896.235	7870.81
896.55	7903.35
896.865	7897.02
897.181	7863.35
897.496	7852.73
897.811	7798.72
898.126	7777.93
898.441	7778.16
898.756	7739.74
899.071	7724.37
899.386	7733.64
899.7	7622.91
900.015	7638.5
900.33	7522.8
900.644	7585.85
900.959	7486.19
901.273	7526.64
901.588	7480.99
901.902	7406.64
902.216	7384.72
902.531	7412.52
902.845	7406.42
903.159	7373.65
903.473	7319.86
903.787	7263.82
904.101	7221.11
904.415	7257.49
904.729	7236.48
905.042	7170.26
905.356	7087.1
905.67	7094.56
905.984	7137.95
906.297	7093.2
906.611	6986.99
906.924	7014.34
907.237	6919.2
907.551	6981.34
907.864	6930.27
908.177	6954
908.491	6925.3
908.804	6829.93
909.117	6901.34
909.43	6775.02
909.743	6778.18
910.056	6737.96
910.368	6728.24
910.681	6675.14
910.994	6714
911.307	6678.07
911.619	6599.66
911.932	6682.37
912.244	6588.13
912.557	6528.02
912.869	6541.35
913.181	6469.04
913.494	6547.91
913.806	6412.54
914.118	6409.61
914.43	6395.37
914.742	6348.14
915.054	6351.3
915.366	6303.39
915.678	6298.42
915.99	6292.77
916.302	6199.22
916.613	6199.22
916.925	6159.44
917.236	6228.59
917.548	6140.69
917.859	6124.42
918.171	6100.46
918.482	6072.89
918.794	5979.79
919.105	6039.9
919.416	5998.54
919.727	5981.14
920.038	5902.73
920.349	5940.92
920.66	5879.9
920.971	5849.39
921.282	5859.34
921.593	5861.15
921.903	5742.5
922.214	5757.19
922.525	5756.06
922.835	5660.47
923.146	5733.69
923.456	5675.84
923.767	5696.4
924.077	5643.98
924.387	5569.63
924.697	5577.31
925.008	5535.28
925.318	5582.51
925.628	5492.12
925.938	5565.33
926.248	5391.55
926.558	5399.01
926.867	5382.51
927.177	5439.46
927.487	5393.14
927.796	5337.09
928.106	5318.79
928.416	5340.03
928.725	5246.47
929.034	5251.22
929.344	5261.84
929.653	5265.91
929.962	5209.19
930.271	5203.99
930.581	5165.57
930.89	5132.12
931.199	5138.68
931.508	5075.63
931.817	5072.92
932.125	5077.44
932.434	5072.47
932.743	5030.88
933.051	4994.73
933.36	4986.37
933.669	4916.99
933.977	4940.27
934.286	4911.34
934.594	4867.27
934.902	4860.27
935.21	4848.74
935.519	4826.14
935.827	4762.87
936.135	4792.02
936.443	4735.53
936.751	4703.89
937.059	4672.7
937.367	4695.75
937.674	4695.07
937.982	4684.23
938.29	4655.08
938.597	4572.82
938.905	4561.74
939.213	4564.68
939.52	4530.78
939.827	4594.51
940.135	4507.96
940.442	4485.14
940.749	4492.14
941.056	4462.99
941.363	4460.73
941.67	4432.71
941.977	4451.46
942.284	4359.04
942.591	4405.82
942.898	4373.27
943.205	4393.16
943.511	4342.54
943.818	4314.75
944.125	4215.31
944.431	4259.83
944.738	4222.77
945.044	4227.52
945.35	4205.14
945.657	4219.38
945.963	4160.63
946.269	4145.71
946.575	4137.8
946.881	4117.46
947.187	4063
947.493	4074.07
947.799	4029.33
948.105	4045.83
948.41	3975.09
948.716	4026.62
949.022	4013.28
949.327	3996.34
949.633	3965.83
949.938	3956.11
950.244	3920.18
950.549	3900.97
950.854	3896
951.16	3893.97
951.465	3857.13
951.77	3849.22
952.075	3860.97
952.38	3810.58
952.685	3784.59
952.99	3780.3
953.294	3745.49
953.599	3767.64
953.904	3733.52
954.209	3687.42
954.513	3675.21
954.818	3720.86
955.122	3702.33
955.426	3679.73
955.731	3634.09
956.035	3621.43
956.339	3627.08
956.643	3616.23
956.948	3561.09
957.252	3542.11
957.556	3529.68
957.86	3546.4
958.163	3519.74
958.467	3543.92
958.771	3487.65
959.075	3473.64
959.378	3466.86
959.682	3449.46
959.985	3441.1
960.289	3456.69
960.592	3355.9
960.896	3388.44
961.199	3385.73
961.502	3382.79
961.805	3309.12
962.108	3307.77
962.411	3311.38
962.714	3272.06
963.017	3294.89
963.32	3317.03
963.623	3227.99
963.926	3283.36
964.228	3253.76
964.531	3209.01
964.833	3214.89
965.136	3194.55
965.438	3230.48
965.741	3194.32
966.043	3119.97
966.345	3178.73
966.648	3153.65
966.95	3124.04
967.252	3084.04
967.554	3100.54
967.856	3092.63
968.158	3069.35
968.46	3060.77
968.761	3079.3
969.063	2994.55
969.365	2980.09
969.666	2975.8
969.968	2969.92
970.269	2954.56
970.571	2946.87
970.872	2917.72
971.174	2935.35
971.475	2922.01
971.776	2913.65
972.077	2925.63
972.378	2868.23
972.679	2891.05
972.98	2866.42
973.281	2863.03
973.582	2855.35
973.883	2829.36
974.183	2817.61
974.484	2813.09
974.785	2809.93
975.085	2753.2
975.386	2781.45
975.686	2783.26
975.986	2698.29
976.287	2736.93
976.587	2673.43
976.887	2689.7
977.187	2674.56
977.487	2677.95
977.787	2673.88
978.087	2662.36
978.387	2623.04
978.687	2630.95
978.987	2616.71
979.286	2617.16
979.586	2609.93
979.885	2588.01
980.185	2566.09
980.484	2576.94
980.784	2573.1
981.083	2568.58
981.382	2523.15
981.682	2503.49
981.981	2504.62
982.28	2515.02
982.579	2494
982.878	2478.64
983.177	2452.65
983.475	2466.21
983.774	2458.07
984.073	2463.95
984.372	2424.63
984.67	2410.61
984.969	2368.81
985.267	2402.93
985.566	2399.77
985.864	2405.19
986.162	2379.65
986.461	2310.5
986.759	2353.67
987.057	2353.67
987.355	2318.41
987.653	2288.36
987.951	2286.78
988.249	2313.44
988.547	2269.83
988.844	2261.92
989.142	2309.37
989.44	2228.7
989.737	2233.44
990.035	2219.21
990.332	2219.66
990.63	2181.92
990.927	2157.06
991.224	2180.56
991.521	2211.98
991.819	2197.74
992.116	2153.9
992.413	2149.6
992.71	2121.13
993.006	2113.45
993.303	2150.28
993.6	2122.03
993.897	2092.66
994.193	2110.28
994.49	2077.52
994.787	2093.33
995.083	2063.96
995.379	2060.34
995.676	2035.94
995.972	2062.15
996.268	1999.33
996.565	2017.18
996.861	2005.2
997.157	1999.78
997.453	1986.9
997.749	1972.43
998.044	1947.58
998.34	1962.72
998.636	1951.42
998.932	1965.88
999.227	1944.86
999.523	1946.67
999.818	1928.14
1000.114	1911.19
1000.409	1891.76
1000.704	1849.5
1001	1898.31
1001.295	1857.18
1001.59	1836.84
1001.885	1856.96
1002.18	1811.31
1002.475	1813.12
1002.77	1823.06
1003.065	1778.99
1003.359	1797.75
1003.654	1781.03
1003.949	1789.61
1004.243	1766.79
1004.538	1745.55
1004.832	1735.6
1005.127	1741.93
1005.421	1718.43
1005.715	1708.03
1006.009	1710.29
1006.304	1706.68
1006.598	1688.6
1006.892	1715.72
1007.186	1688.37
1007.48	1662.39
1007.773	1680.92
1008.067	1609.28
1008.361	1653.35
1008.655	1611.77
1008.948	1595.04
1009.242	1610.64
1009.535	1596.4
1009.829	1547.81
1010.122	1556.4
1010.415	1564.31
1010.708	1553.91
1011.001	1580.58
1011.295	1546.23
1011.588	1522.95
1011.881	1537.42
1012.173	1516.63
1012.466	1514.82
1012.759	1493.58
1013.052	1486.8
1013.344	1513.01
1013.637	1515.04
1013.93	1453.8
1014.222	1455.61
1014.514	1437.53
1014.807	1456.97
1015.099	1443.41
1015.391	1449.51
1015.683	1411.54
1015.976	1416.29
1016.268	1414.26
1016.56	1395.5
1016.851	1410.87
1017.143	1373.13
1017.435	1384.43
1017.727	1381.94
1018.018	1335.16
1018.31	1330.64
1018.602	1328.84
1018.893	1330.42
1019.185	1290.19
1019.476	1315.95
1019.767	1302.4
1020.058	1307.14
1020.35	1301.49
1020.641	1268.95
1020.932	1280.93
1021.223	1256.29
1021.514	1266.24
1021.804	1237.09
1022.095	1254.71
1022.386	1216.07
1022.677	1227.37
1022.967	1212.23
1023.258	1226.46
1023.548	1205.67
1023.839	1200.48
1024.129	1197.54
1024.419	1188.95
1024.709	1174.49
1025	1148.95
1025.29	1167.48
1025.58	1127.71
1025.87	1129.97
1026.16	1114.83
1026.449	1143.08
1026.739	1116.64
1027.029	1118.9
1027.319	1122.06
1027.608	1103.08
1027.898	1098.56
1028.187	1068.73
1028.477	1063.98
1028.766	1082.29
1029.055	1074.83
1029.344	1057.88
1029.634	1019.46
1029.923	1061.5
1030.212	1004.1
1030.501	1034.38
1030.79	1031.22
1031.078	1004.78
1031.367	1031.89
1031.656	1008.84
1031.945	1017.88
1032.233	998.22
1032.522	995.28
1032.81	961.61
1033.099	979.47
1033.387	993.7
1033.675	967.71
1033.963	950.31
1034.251	960.71
1034.54	940.37
1034.828	926.59
1035.116	938.56
1035.403	932.91
1035.691	941.5
1035.979	912.8
1036.267	911.22
1036.554	915.96
1036.842	920.94
1037.129	907.38
1037.417	910.32
1037.704	879.58
1037.992	885
1038.279	879.81
1038.566	879.13
1038.853	879.13
1039.14	879.13
