Data from tablewood_brown_FLMS001491_057.txt Node
Date: Tue Feb 07 11:10:42 GMT 2017
User: dcchb
Spectrometer: FLMS00149
Trigger mode: 0
Integration Time (sec): 2.000000E-2
Scans to average: 10
Electric dark correction enabled: true
Nonlinearity correction enabled: false
Boxcar width: 0
XAxis mode: Wavelengths
Number of Pixels in Spectrum: 2048
>>>>>Begin Spectral Data<<<<<
341.393	-6.55
341.776	-6.55
342.16	-6.55
342.543	-60.34
342.927	-55.37
343.31	-69.83
343.693	-59.89
344.077	-48.36
344.46	-66.21
344.843	-71.18
345.226	-60.34
345.61	-47
345.993	-12.66
346.376	-22.6
346.759	-12.2
347.142	18.3
347.525	65.99
347.908	57.4
348.291	80.45
348.674	107.34
349.057	140.79
349.44	142.6
349.823	151.63
350.206	158.87
350.588	218.07
350.971	235.02
351.354	247
351.737	223.5
352.119	272.99
352.502	269.6
352.884	302.36
353.267	291.52
353.65	286.77
354.032	315.7
354.414	318.86
354.797	303.04
355.179	332.65
355.562	348.24
355.944	347.11
356.326	329.48
356.709	353.21
357.091	349.14
357.473	355.47
357.855	372.19
358.238	357.05
358.62	342.59
359.002	363.83
359.384	345.98
359.766	365.19
360.148	349.82
360.53	347.56
360.912	368.8
361.294	338.75
361.676	358.86
362.057	351.63
362.439	335.13
362.821	346.88
363.203	353.44
363.584	333.78
363.966	321.35
364.348	342.36
364.729	352.99
365.111	324.96
365.493	339.65
365.874	344.17
366.256	330.39
366.637	347.79
367.019	335.13
367.4	341.01
367.781	334.23
368.163	367.9
368.544	347.11
368.925	336.49
369.306	335.81
369.688	341.46
370.069	332.65
370.45	362.02
370.831	348.01
371.212	359.54
371.593	340.78
371.974	330.39
372.355	338.75
372.736	343.72
373.117	349.6
373.498	348.47
373.879	357.96
374.26	364.51
374.641	355.7
375.021	342.59
375.402	344.4
375.783	376.71
376.163	366.09
376.544	361.35
376.925	354.57
377.305	359.31
377.686	375.13
378.066	363.15
378.447	347.79
378.827	369.26
379.208	378.07
379.588	374.45
379.968	386.43
380.349	375.13
380.729	382.81
381.109	399.76
381.489	395.24
381.87	383.49
382.25	405.19
382.63	395.02
383.01	419.42
383.39	406.77
383.77	395.7
384.15	394.79
384.53	402.25
384.91	408.8
385.29	401.8
385.67	399.99
386.049	414.68
386.429	397.28
386.809	406.09
387.189	430.72
387.568	422.59
387.948	421.68
388.328	424.85
388.707	424.62
389.087	413.32
389.466	420.55
389.846	433.21
390.225	451.29
390.605	457.39
390.984	441.34
391.363	437.28
391.743	463.94
392.122	448.12
392.501	447.22
392.881	465.52
393.26	476.82
393.639	441.34
394.018	459.65
394.397	477.28
394.776	463.26
395.155	488.35
395.534	492.87
395.913	490.83
396.292	500.55
396.671	484.51
397.05	496.48
397.429	534.45
397.808	489.25
398.186	512.98
398.565	507.56
398.944	500.55
399.323	510.27
399.701	512.53
400.08	534.9
400.458	532.42
400.837	555.92
401.215	549.36
401.594	548.46
401.972	545.97
402.351	574.45
402.729	550.04
403.107	582.36
403.486	536.71
403.864	581.91
404.242	569.02
404.62	569.02
404.999	591.85
405.377	575.13
405.755	575.8
406.133	590.04
406.511	608.57
406.889	614.9
407.267	612.41
407.645	622.81
408.023	632.3
408.401	623.71
408.779	663.49
409.156	637.27
409.534	655.35
409.912	659.19
410.29	657.16
410.667	675.46
411.045	679.08
411.422	677.72
411.8	696.25
412.178	694.9
412.555	736.93
412.933	700.77
413.31	724.05
413.687	726.53
414.065	731.28
414.442	742.13
414.819	728.57
415.197	770.83
415.574	769.47
415.951	792.97
416.328	784.84
416.705	773.76
417.082	784.16
417.46	771.05
417.837	818.51
418.214	837.72
418.591	829.81
418.967	799.3
419.344	832.07
419.721	818.74
420.098	825.74
420.475	864.61
420.852	865.06
421.228	870.49
421.605	854.44
421.982	868.68
422.358	859.86
422.735	893.99
423.111	897.83
423.488	868
423.864	918.17
424.241	930.37
424.617	947.32
424.994	947.09
425.37	931.27
425.746	933.99
426.123	936.92
426.499	948
426.875	973.53
427.251	1002.69
427.627	988.67
428.003	1003.59
428.379	989.13
428.756	1032.29
429.132	1049.69
429.507	1048.56
429.883	1056.47
430.259	1084.27
430.635	1084.49
431.011	1075.9
431.387	1112.06
431.763	1110.48
432.138	1128.33
432.514	1134.43
432.89	1136.92
433.265	1185.51
433.641	1166.07
434.016	1198.39
434.392	1208.78
434.767	1223.92
435.143	1206.07
435.518	1229.57
435.894	1234.32
436.269	1296.92
436.644	1282.68
437.02	1289.23
437.395	1316.12
437.77	1318.61
438.145	1343.92
438.52	1344.82
438.895	1364.71
439.271	1387.99
439.646	1412.62
440.021	1414.88
440.395	1401.55
440.77	1392.73
441.145	1423.92
441.52	1454.2
441.895	1425.5
442.27	1452.62
442.645	1470.02
443.019	1477.48
443.394	1493.75
443.769	1495.55
444.143	1500.98
444.518	1514.99
444.892	1503.01
445.267	1528.77
445.641	1546.85
446.016	1563.57
446.39	1587.3
446.764	1573.52
447.139	1574.65
447.513	1609.68
447.887	1609
448.262	1617.58
448.636	1596.79
449.01	1629.34
449.384	1659.62
449.758	1683.35
450.132	1669.33
450.506	1672.05
450.88	1708.88
451.254	1712.05
451.628	1739.16
452.002	1741.2
452.376	1741.42
452.75	1797.01
453.123	1748.88
453.497	1826.62
453.871	1830.69
454.244	1829.1
454.618	1879.95
454.992	1896.45
455.365	1915.2
455.739	1952.72
456.112	1960.4
456.486	1975.99
456.859	1990.68
457.232	2013.96
457.606	2034.3
457.979	2092.37
458.352	2096.89
458.725	2151.13
459.099	2138.47
459.472	2159.27
459.845	2177.8
460.218	2218.47
460.591	2230.45
460.964	2251.24
461.337	2302.76
461.71	2343.67
462.083	2387.06
462.456	2361.29
462.829	2395.87
463.201	2445.36
463.574	2440.84
463.947	2521.52
464.32	2513.61
464.692	2539.82
465.065	2597.9
465.438	2669.08
465.81	2662.53
466.183	2676.09
466.555	2745.92
466.928	2758.12
467.3	2768.29
467.672	2799.47
468.045	2851.9
468.417	2893.94
468.789	2891.9
469.161	2957.89
469.534	3020.26
469.906	3071.33
470.278	3095.29
470.65	3154.49
471.022	3208.73
471.394	3299.8
471.766	3318.33
472.138	3321.04
472.51	3441.72
472.882	3511.77
473.253	3515.39
473.625	3619.34
473.997	3683.74
474.369	3710.64
474.74	3776.17
475.112	3827.02
475.484	3864.76
475.855	3971.2
476.227	4064.75
476.598	4188.36
476.97	4169.16
477.341	4268.14
477.713	4423.61
478.084	4407.57
478.455	4560.78
478.827	4634.91
479.198	4766.43
479.569	4723.27
479.94	4922.58
480.311	4955.58
480.682	5085.06
481.053	5162.8
481.424	5283.93
481.795	5340.88
482.166	5449.12
482.537	5539.74
482.908	5664.48
483.279	5773.41
483.65	5836.68
484.021	5977.02
484.391	6059.05
484.762	6103.34
485.133	6245.26
485.503	6264.24
485.874	6433.5
486.244	6471.02
486.615	6612.03
486.985	6706.49
487.356	6817.9
487.726	6864.23
488.097	7087.05
488.467	7121.85
488.837	7243.43
489.207	7289.53
489.578	7438.67
489.948	7519.35
490.318	7623.98
490.688	7673.02
491.058	7762.51
491.428	7890.19
491.798	8004.31
492.168	8156.85
492.538	8222.61
492.908	8306.22
493.278	8439.33
493.648	8454.02
494.017	8579.89
494.387	8696.04
494.757	8752.99
495.126	8858.98
495.496	8864.63
495.866	8954.34
496.235	8972.87
496.605	9081.12
496.974	9176.26
497.344	9315.46
497.713	9355.23
498.082	9338.74
498.452	9444.72
498.821	9574.66
499.19	9610.59
499.559	9788.67
499.928	9762.91
500.298	9861.21
500.667	9933.07
501.036	10007.42
501.405	10071.15
501.774	10100.98
502.143	10247.64
502.512	10256.91
502.88	10391.82
503.249	10392.27
503.618	10554.75
503.987	10502.55
504.356	10665.48
504.724	10707.97
505.093	10786.16
505.462	10853.95
505.83	10928.75
506.199	11078.8
506.567	11221.4
506.936	11180.05
507.304	11361.28
507.672	11415.29
508.041	11415.07
508.409	11559.7
508.777	11605.8
509.145	11801.72
509.514	11815.51
509.882	11954.71
510.25	11897.77
510.618	12072
510.986	12139.57
511.354	12171.43
511.722	12376.62
512.09	12477.86
512.458	12488.49
512.826	12591.31
513.193	12657.97
513.561	12761.25
513.929	12943.16
514.297	13101.8
514.664	13143.61
515.032	13238.07
515.4	13324.85
515.767	13442.81
516.135	13537.72
516.502	13514.67
516.869	13714.22
517.237	13814.55
517.604	13794.89
517.972	13960.76
518.339	14139.06
518.706	14160.31
519.073	14335.89
519.44	14315.33
519.808	14572.27
520.175	14617.69
520.542	14762.32
520.909	14914.41
521.276	14928.65
521.643	15063.78
522.009	15197.57
522.376	15325.7
522.743	15428.29
523.11	15610.21
523.477	15699.25
523.843	15837.32
524.21	15913.25
524.577	16101.72
524.943	16259.23
525.31	16317.99
525.676	16553.24
526.043	16509.62
526.409	16638.21
526.776	16868.93
527.142	16970.4
527.508	17104.18
527.874	17341.24
528.241	17395.02
528.607	17443.16
528.973	17619.42
529.339	17616.26
529.705	17856.25
530.071	18001.56
530.437	18096.93
530.803	18177.83
531.169	18314.09
531.535	18297.6
531.901	18379.63
532.267	18448.55
532.632	18701.66
532.998	18664.59
533.364	18842.67
533.73	18762.9
534.095	19053.51
534.461	19087.63
534.826	19267.52
535.192	19303.67
535.557	19418.7
535.923	19398.81
536.288	19512.03
536.653	19596.77
537.019	19584.8
537.384	19681.52
537.749	19859.82
538.114	19841.96
538.479	19944.11
538.845	20033.15
539.21	20039.93
539.575	20164.89
539.94	20242.41
540.305	20375.74
540.67	20362.4
541.034	20466.13
541.399	20550.42
541.764	20577.76
542.129	20785.22
542.494	20817.53
542.858	20868.83
543.223	20935.72
543.587	21067.69
543.952	21111.08
544.316	21078.32
544.681	21119.44
545.045	21336.16
545.41	21363.05
545.774	21512.65
546.138	21378.87
546.503	21496.38
546.867	21612.31
547.231	21709.71
547.595	21811.63
547.959	21848.92
548.324	21933.43
548.688	22007.1
549.052	22197.83
549.416	22179.53
549.779	22377.94
550.143	22361.45
550.507	22584.26
550.871	22772.73
551.235	22518.73
551.599	22891.38
551.962	22930.92
552.326	23035.1
552.689	23207.3
553.053	23123.01
553.417	23258.6
553.78	23639.6
554.143	23628.98
554.507	23713.27
554.87	23782.65
555.234	24084.79
555.597	24015.41
555.96	24221.06
556.323	24239.36
556.686	24459.7
557.05	24554.83
557.413	24652.23
557.776	24800.03
558.139	25128.83
558.502	25296.28
558.865	25270.07
559.228	25446.56
559.59	25480.69
559.953	25669.38
560.316	26011.29
560.679	26043.61
561.041	26341.45
561.404	26433.88
561.767	26749.35
562.129	26662.12
562.492	26939.86
562.854	27020.98
563.217	27106.41
563.579	27442.22
563.941	27613.29
564.304	27775.54
564.666	27883.56
565.028	28031.58
565.39	28250.78
565.753	28541.62
566.115	28647.83
566.477	28863.42
566.839	28977.32
567.201	29266.12
567.563	29337.99
567.925	29522.61
568.287	29650.07
568.648	29859.78
569.01	30131.64
569.372	30279.43
569.734	30354.23
570.095	30601
570.457	30833.77
570.819	31038.73
571.18	31066.3
571.542	31548.77
571.903	31617.93
572.265	31752.61
572.626	31972.27
572.987	32003
573.349	32324.8
573.71	32500.39
574.071	32601.4
574.432	32759.59
574.794	33133.14
575.155	33186.47
575.516	33251.56
575.877	33444.32
576.238	33564.99
576.599	33685.67
576.96	33845.21
577.32	34003.4
577.681	34150.97
578.042	34302.6
578.403	34423.73
578.763	34480.68
579.124	34600.9
579.485	34956.82
579.845	35009.93
580.206	35111.17
580.566	35058.97
580.927	35209.47
581.287	35395.68
581.648	35327.66
582.008	35653.75
582.368	35607.65
582.728	35823.69
583.089	35689.23
583.449	35847.42
583.809	36072.05
584.169	36043.57
584.529	36147.52
584.889	36447.86
585.249	36236.79
585.609	35966.74
585.969	36405.82
586.329	36374.64
586.688	36661.86
587.048	36549.55
587.408	36360.4
587.768	36374.64
588.127	36546.84
588.487	36548.19
588.846	36840.84
589.206	36554.29
589.565	36726.49
589.925	36989.76
590.284	36833.38
590.643	36752.71
591.003	37111.57
591.362	37110.66
591.721	37058.23
592.08	37099.14
592.44	37141.62
592.799	37295.06
593.158	37154.05
593.517	37184.56
593.876	37285.8
594.235	37107.72
594.593	37260.04
594.952	37368.06
595.311	37308.62
595.67	37396.76
596.029	37632.46
596.387	37540.93
596.746	37663.42
597.104	37309.98
597.463	37564.89
597.822	37771.89
598.18	37726.69
598.538	37599.46
598.897	37833.36
599.255	37507.94
599.613	38116.96
599.972	37937.76
600.33	37972.11
600.688	37804.66
601.046	37932.79
601.404	38071.77
601.762	38015.5
602.12	38216.62
602.478	38265.66
602.836	38177.53
603.194	38140.69
603.552	38141.14
603.91	37992.22
604.268	38172.56
604.625	38110.18
604.983	38317.41
605.341	38212.78
605.698	38338.88
606.056	38528.25
606.413	38389.27
606.771	38488.48
607.128	38654.35
607.485	38463.17
607.843	38590.17
608.2	38623.62
608.557	38902.93
608.914	38625.88
609.272	38780.22
609.629	38843.05
609.986	38892.08
610.343	38782.26
610.7	39015.7
611.057	39071.06
611.414	39018.86
611.771	39067
612.127	39133.66
612.484	39111.06
612.841	39164.39
613.198	39199.42
613.554	39231.51
613.911	39465.85
614.267	39356.48
614.624	39335.46
614.98	39369.81
615.337	39516.48
615.693	39464.73
616.05	39391.51
616.406	39585.85
616.762	39517.15
617.118	39503.37
617.475	39588.79
617.831	39737.26
618.187	39747.88
618.543	39876.01
618.899	39891.38
619.255	39883.02
619.611	39946.75
619.967	39908.33
620.323	40074.88
620.678	39924.15
621.034	39900.19
621.39	39854.55
621.746	39796.02
622.101	40286.17
622.457	39986.75
622.812	39977.93
623.168	40078.04
623.523	40152.62
623.879	40373.63
624.234	39981.1
624.589	40228.09
624.945	40153.29
625.3	40133.86
625.655	40094.76
626.01	40270.58
626.365	40211.15
626.72	40129.11
627.075	40085.73
627.43	39987.42
627.785	39859.06
628.14	40085.05
628.495	40004.82
628.85	40117.82
629.205	39859.52
629.559	40026.74
629.914	39852.06
630.269	39954.43
630.623	39873.53
630.978	39722.57
631.332	39909.46
631.687	40002.79
632.041	39794.43
632.396	39784.72
632.75	39627.66
633.104	39657.71
633.459	39502.69
633.813	39518.73
634.167	39546.53
634.521	39558.73
634.875	39679.41
635.229	39509.92
635.583	39381.79
635.937	39449.13
636.291	39448.23
636.645	39411.62
636.999	39296.14
637.352	39379.53
637.706	39151.96
638.06	39122.14
638.413	39181.79
638.767	39151.74
639.121	39151.74
639.474	38829.26
639.828	39006.88
640.181	39019.09
640.534	38874.01
640.888	38753.11
641.241	38615.93
641.594	38706.33
641.947	38672.43
642.301	38751.98
642.654	38687.12
643.007	38601.02
643.36	38567.8
643.713	38631.07
644.066	38676.72
644.419	38450.06
644.771	38347.69
645.124	38175.72
645.477	37961.26
645.83	37678.11
646.182	37457.32
646.535	37411.22
646.888	37342.52
647.24	37401.95
647.593	37408.96
647.945	37304.56
648.298	37125.35
648.65	37078.57
649.002	36981.17
649.355	37203.99
649.707	37200.6
650.059	37371.22
650.411	37763.3
650.763	37847.59
651.115	38217.98
651.467	38034.25
651.819	37917.42
652.171	37918.33
652.523	38008.49
652.875	37758.78
653.227	37744.77
653.578	37893.92
653.93	37719.91
654.282	37693.92
654.633	37664.77
654.985	37764.2
655.337	37710.65
655.688	37745.45
656.039	37826.8
656.391	37545.68
656.742	37588.84
657.094	37631.55
657.445	37726.47
657.796	37723.3
658.147	37550.88
658.498	37474.49
658.849	37763.75
659.2	37686.47
659.551	37629.07
659.902	37734.6
660.253	37608.95
660.604	37682.17
660.955	37444.44
661.306	37643.53
661.656	37355.85
662.007	37501.61
662.358	37534.83
662.708	37476.98
663.059	37373.93
663.409	37164.9
663.76	37472.24
664.11	37441.28
664.461	37522.4
664.811	37408.73
665.161	37432.24
665.511	37393.14
665.862	37434.72
666.212	37520.6
666.562	37476.3
666.912	37497.32
667.262	37440.82
667.612	37408.51
667.962	37305.01
668.312	37300.49
668.662	37543.87
669.011	37397.21
669.361	37285.8
669.711	37210.1
670.06	37218.23
670.41	37126.26
670.76	37211.45
671.109	37175.75
671.459	37112.02
671.808	37147.95
672.157	37076.09
672.507	36931.23
672.856	36909.76
673.205	37077.9
673.554	37026.15
673.904	36951.12
674.253	37132.13
674.602	36925.81
674.951	36453.96
675.3	36182.1
675.649	36896.43
675.998	36827.73
676.346	36846.71
676.695	36797.68
677.044	36563.33
677.393	36815.53
677.741	36791.8
678.09	36602.88
678.438	36635.42
678.787	36571.69
679.135	36555.2
679.484	36364.47
679.832	36541.64
680.181	36230.46
680.529	36521.98
680.877	36288.76
681.225	36215.09
681.573	36370.8
681.922	36236.34
682.27	35952.5
682.618	36092.61
682.966	35915.44
683.314	36019.84
683.661	35844.48
684.009	35668.44
684.357	35500.31
684.705	35740.98
685.053	35608.56
685.4	35616.69
685.748	35446.07
686.095	35551.38
686.443	35184.16
686.79	35277.94
687.138	35147.78
687.485	35219.64
687.832	35023.49
688.18	35106.2
688.527	34788.01
688.874	34883.6
689.221	34793.44
689.568	34721.8
689.915	34607.45
690.262	34579.66
690.609	34527.91
690.956	34327.68
691.303	34340.79
691.65	34106.45
691.997	34276.84
692.344	33970.18
692.69	33910.75
693.037	33922.05
693.383	33645.44
693.73	33786.46
694.077	33633.92
694.423	33503.75
694.769	33369.97
695.116	33341.27
695.462	33276.87
695.808	33110.99
696.155	33234.38
696.501	32864.9
696.847	32938.34
697.193	32545.81
697.539	32790.1
697.885	32401.86
698.231	32373.84
698.577	32359.38
698.923	32377.68
699.269	32065.37
699.614	31934.75
699.96	31729.34
700.306	31840.07
700.651	31701.77
700.997	31622.45
701.342	31530.02
701.688	31455.67
702.033	31397.37
702.379	31303.81
702.724	31055.23
703.069	31343.81
703.415	30787.44
703.76	30902.46
704.105	30882.13
704.45	30818.62
704.795	30595.58
705.14	30597.84
705.485	30443.95
705.83	30304.06
706.175	30362.59
706.52	30322.59
706.865	30101.13
707.209	30123.73
707.554	29865.2
707.899	30012.09
708.243	29887.35
708.588	29880.57
708.932	29621.37
709.277	29641.03
709.621	29588.83
709.966	29406.91
710.31	29529.62
710.654	29297.08
710.998	29318.33
711.342	29291.43
711.687	29300.7
712.031	29091.66
712.375	28952.01
712.719	29040.59
713.063	28913.14
713.407	29096.64
713.75	28926.02
714.094	28766.48
714.438	28640.6
714.782	28668.4
715.125	28559.25
715.469	28620.72
715.812	28609.42
716.156	28352.7
716.499	28318.58
716.843	28364.9
717.186	28230.44
717.53	28210.56
717.873	28325.81
718.216	28270.22
718.559	28246.04
718.902	28006.04
719.246	28047.62
719.589	27911.36
719.932	27868.65
720.275	27773.96
720.617	27769.67
720.96	27848.76
721.303	27785.71
721.646	27805.6
721.989	27603.34
722.331	27773.73
722.674	27611.7
723.016	27686.5
723.359	27587.3
723.701	27720.85
724.044	27463.91
724.386	27254.88
724.729	27509.11
725.071	27466.85
725.413	27379.39
725.755	27399.51
726.097	27311.6
726.439	27197.25
726.782	27251.94
727.124	27429.56
727.465	27233.18
727.807	27199.96
728.149	27078.38
728.491	26990.02
728.833	27181.21
729.175	27044.03
729.516	26947.09
729.858	27067.54
730.199	27054.2
730.541	27058.72
730.882	26926.07
731.224	27053.07
731.565	26844.27
731.906	26850.59
732.248	26911.61
732.589	26863.25
732.93	26749.81
733.271	26874.55
733.612	26806.75
733.953	26854.44
734.294	26743.03
734.635	26643.82
734.976	26709.58
735.317	26723.37
735.658	26739.64
735.999	26648.34
736.339	26575.35
736.68	26646.53
737.021	26684.5
737.361	26425.29
737.702	26658.51
738.042	26590.49
738.383	26603.59
738.723	26606.98
739.063	26546.87
739.404	26642.01
739.744	26511.39
740.084	26461.23
740.424	26492.41
740.764	26482.92
741.104	26584.16
741.444	26396.82
741.784	26312.53
742.124	26484.5
742.464	26358.4
742.804	26216.49
743.143	26170.16
743.483	26343.04
743.823	26143.72
744.162	26149.82
744.502	26332.41
744.841	26206.32
745.181	26429.81
745.52	26157.05
745.86	26380.1
746.199	26313.43
746.538	26266.65
746.877	26215.36
747.216	26274.34
747.556	26179.88
747.895	26154.79
748.234	26088.81
748.573	26122.7
748.911	26044.74
749.25	26087.45
749.589	25904.18
749.928	25885.42
750.267	26051.52
750.605	25903.27
750.944	25907.57
751.283	25738.08
751.621	25869.6
751.96	25863.95
752.298	25748.25
752.636	25888.81
752.975	25647.24
753.313	25618.99
753.651	25800.68
753.989	25552.55
754.327	25653.34
754.666	25425.55
755.004	25517.97
755.342	25475.49
755.679	25474.81
756.017	25327.92
756.355	25427.35
756.693	25343.51
757.031	25313.91
757.368	25200.47
757.706	25096.97
758.044	25031.21
758.381	24988.27
758.719	24932
759.056	24969.06
759.394	24960.47
759.731	24752.57
760.068	24763.42
760.405	24583.99
760.743	24685.45
761.08	24628.96
761.417	24409.53
761.754	24548.51
762.091	24319.81
762.428	24271.68
762.765	24232.81
763.102	24293.6
763.438	24179.48
763.775	24051.57
764.112	24009.09
764.449	24018.35
764.785	24054.96
765.122	23784.01
765.458	23770.45
765.795	23686.38
766.131	23709.21
766.467	23533.17
766.804	23355.09
767.14	23375.66
767.476	23319.16
767.812	23169.11
768.148	23208.2
768.485	23089.79
768.821	23041.2
769.157	22919.62
769.492	22860.87
769.828	22882.56
770.164	22651.38
770.5	22693.64
770.836	22643.02
771.171	22501.1
771.507	22462.46
771.842	22302.92
772.178	22346.76
772.513	22246.19
772.849	22155.12
773.184	22027.22
773.519	22030.83
773.855	22060.89
774.19	21942.02
774.525	21683.95
774.86	21777.73
775.195	21771.86
775.53	21614.12
775.865	21510.62
776.2	21361.7
776.535	21268.82
776.87	21224.98
777.205	21135.26
777.539	21079.9
777.874	21095.04
778.209	20908.38
778.543	20853.91
778.878	20775.72
779.212	20703.86
779.547	20561.95
779.881	20716.07
780.215	20489.86
780.55	20479.46
780.884	20313.82
781.218	20345
781.552	20238.79
781.886	20126.7
782.22	20053.94
782.554	19963.09
782.888	19918.8
783.222	19828.18
783.556	19688.3
783.889	19699.37
784.223	19439.94
784.557	19488.3
784.89	19512.26
785.224	19422.09
785.557	19265.93
785.891	19257.35
786.224	19120.18
786.558	19100.29
786.891	18959.5
787.224	18924.7
787.557	18872.95
787.891	18888.32
788.224	18893.51
788.557	18841.76
788.89	18721.54
789.223	18714.54
789.556	18624.6
789.888	18541.89
790.221	18481.77
790.554	18324.72
790.887	18326.75
791.219	18187.32
791.552	18170.37
791.884	18114.55
792.217	18029.81
792.549	18020.09
792.882	17882.92
793.214	17855.8
793.546	17888.8
793.879	17708.69
794.211	17637.05
794.543	17617.84
794.875	17528.13
795.207	17646.77
795.539	17462.59
795.871	17529.03
796.203	17396.6
796.535	17270.96
796.867	17173.56
797.198	17116.16
797.53	17205.42
797.862	17053.34
798.193	17112.77
798.525	16888.37
798.856	17046.56
799.188	16759.11
799.519	16767.69
799.85	16732.44
800.182	16709.39
800.513	16614.25
800.844	16428.72
801.175	16610.86
801.506	16503.07
801.837	16470.3
802.168	16379
802.499	16361.38
802.83	16247.93
803.161	16237.31
803.491	16223.98
803.822	16249.06
804.153	15983.99
804.483	15941.95
804.814	16036.64
805.145	15896.08
805.475	15912.58
805.805	15854.72
806.136	15908.73
806.466	15816.31
806.796	15798.91
807.126	15611.79
807.457	15654.73
807.787	15624.67
808.117	15617.22
808.447	15520.5
808.777	15471.68
809.107	15406.15
809.436	15344.23
809.766	15349.88
810.096	15346.04
810.426	15229.2
810.755	15259.71
811.085	15190.79
811.414	15185.82
811.744	15012.49
812.073	14951.02
812.403	15037.12
812.732	14965.03
813.061	14928.2
813.39	14887.74
813.719	14938.82
814.049	14986.95
814.378	14799.61
814.707	14812.49
815.036	14790.35
815.365	14672.16
815.693	14480.07
816.022	14533.63
816.351	14535.21
816.68	14382.45
817.008	14414.76
817.337	14323.69
817.665	14379.51
817.994	14371.37
818.322	14277.36
818.651	14294.31
818.979	14174.09
819.307	14229
819.636	14173.19
819.964	14132.06
820.292	14188.33
820.62	14183.36
820.948	14137.48
821.276	14194.43
821.604	14033.98
821.932	14114.21
822.259	14151.04
822.587	14081.44
822.915	14060.42
823.243	14142
823.57	14104.49
823.898	14075.11
824.225	13975.68
824.553	13902.46
824.88	13994.43
825.207	14071.04
825.535	14025.17
825.862	14067.65
826.189	13991.27
826.516	14087.31
826.843	14009.12
827.17	14047.54
827.497	14015
827.824	14019.74
828.151	14023.59
828.478	14094.77
828.805	14083.92
829.131	14003.93
829.458	13964.38
829.785	13959.86
830.111	13982.01
830.438	14101.78
830.764	14007.77
831.09	14017.94
831.417	13878.96
831.743	13921.89
832.069	13993.53
832.395	14014.55
832.722	13909.46
833.048	13838.28
833.374	13889.13
833.7	13856.58
834.026	13848
834.351	13863.82
834.677	13888
835.003	13936.13
835.329	13812.97
835.654	13800.54
835.98	13716.7
836.306	13736.36
836.631	13710.6
836.956	13746.76
837.282	13718.74
837.607	13721.67
837.932	13657.04
838.258	13610.72
838.583	13596.93
838.908	13475.8
839.233	13499.76
839.558	13492.07
839.883	13429.03
840.208	13473.32
840.533	13423.15
840.858	13423.38
841.182	13470.15
841.507	13422.47
841.832	13349.93
842.156	13305.41
842.481	13314.23
842.805	13306.99
843.13	13239.65
843.454	13237.84
843.778	13187.45
844.103	13182.7
844.427	13045.53
844.751	13099.54
845.075	13059.77
845.399	13001.69
845.723	12930.73
846.047	12980.45
846.371	12750.63
846.695	12815.93
847.019	12695.03
847.343	12643.06
847.666	12639.89
847.99	12507.47
848.313	12560.57
848.637	12475.83
848.96	12388.15
849.284	12447.81
849.607	12304.54
849.931	12315.16
850.254	12307.7
850.577	12132.56
850.9	12127.82
851.223	12068.38
851.546	12065.45
851.869	11989.52
852.192	12010.08
852.515	11907.48
852.838	11863.87
853.161	11784.32
853.483	11746.36
853.806	11732.12
854.129	11689.41
854.451	11631.78
854.774	11684.89
855.096	11600.15
855.419	11548.4
855.741	11525.57
856.063	11427.5
856.385	11420.94
856.708	11432.02
857.03	11387.5
857.352	11436.54
857.674	11336.43
857.996	11269.99
858.318	11169.65
858.64	11243.32
858.961	11182.53
859.283	11182.08
859.605	11166.94
859.926	11078.58
860.248	11045.36
860.57	11018.69
860.891	11094.17
861.212	11000.39
861.534	10937.79
861.855	10907.96
862.176	10960.39
862.498	10907.96
862.819	10872.71
863.14	10822.77
863.461	10814.63
863.782	10772.6
864.103	10837
864.424	10769.21
864.745	10727.18
865.065	10684.46
865.386	10680.62
865.707	10679.49
866.027	10643.56
866.348	10644.01
866.668	10667.74
866.989	10654.18
867.309	10532.83
867.63	10521.76
867.95	10561.76
868.27	10458.71
868.59	10546.62
868.91	10442.21
869.23	10448.31
869.55	10473.85
869.87	10418.71
870.19	10399.05
870.51	10467.75
870.83	10460.97
871.15	10358.82
871.469	10369.67
871.789	10375.09
872.109	10293.29
872.428	10284.48
872.748	10293.29
873.067	10324.47
873.386	10292.61
873.706	10227.53
874.025	10162.67
874.344	10205.83
874.663	10265.04
874.982	10171.26
875.301	10102.33
875.62	10186.85
875.939	10091.26
876.258	10114.99
876.577	10130.36
876.896	10085.16
877.214	10016.46
877.533	10020.75
877.852	10080.86
878.17	10011.94
878.489	9993.41
878.807	9943.69
879.125	9882.23
879.444	9910.02
879.762	9883.58
880.08	9885.84
880.398	9876.35
880.716	9807.43
881.034	9830.7
881.352	9789.57
881.67	9867.31
881.988	9795.45
882.306	9762
882.624	9761.55
882.941	9721.33
883.259	9701.44
883.577	9648.56
883.894	9642.91
884.212	9655.34
884.529	9597.26
884.846	9525.85
885.164	9518.39
885.481	9567.88
885.798	9554.78
886.115	9459.19
886.432	9477.04
886.75	9424.38
887.067	9393.2
887.383	9355.91
887.7	9375.35
888.017	9304.61
888.334	9346.19
888.651	9263.26
888.967	9289.25
889.284	9260.32
889.6	9238.63
889.917	9122.92
890.233	9190.72
890.55	9084.96
890.866	9136.71
891.182	9148.23
891.498	9046.32
891.815	9070.04
892.131	9009.03
892.447	9010.38
892.763	8953.89
893.079	8956.6
893.395	8924.96
893.71	8925.64
894.026	8835.93
894.342	8844.97
894.657	8833.89
894.973	8736.04
895.289	8709.6
895.604	8757.74
895.92	8642.03
896.235	8618.08
896.55	8558.65
896.865	8561.58
897.181	8528.14
897.496	8590.51
897.811	8530.17
898.126	8522.71
898.441	8369.27
898.756	8470.06
899.071	8371.76
899.386	8355.71
899.7	8357.75
900.015	8323.4
900.33	8270.07
900.644	8283.4
900.959	8248.37
901.273	8194.13
901.588	8155.27
901.902	8171.54
902.216	8140.58
902.531	8071.43
902.845	8061.26
903.159	8020.81
903.473	8011.77
903.787	7951.88
904.101	7937.42
904.415	7952.56
904.729	7891.09
905.042	7914.37
905.356	7817.87
905.67	7840.25
905.984	7776.07
906.297	7688.39
906.611	7746.46
906.924	7761.6
907.237	7642.96
907.551	7641.61
907.864	7615.17
908.177	7573.59
908.491	7607.71
908.804	7517.09
909.117	7501.95
909.43	7399.81
909.743	7398.68
910.056	7444.32
910.368	7349.86
910.681	7334.04
910.994	7311.67
911.307	7240.94
911.619	7237.1
911.932	7259.92
912.244	7133.37
912.557	7129.53
912.869	7118.46
913.181	7118.68
913.494	7104.67
913.806	7103.99
914.118	7064
914.43	6925.02
914.742	6967.5
915.054	6909.87
915.366	6915.52
915.678	6883.89
915.99	6827.17
916.302	6806.15
916.613	6765.02
916.925	6749.43
917.236	6709.65
917.548	6720.28
917.859	6727.28
918.171	6695.87
918.482	6648.64
918.794	6578.58
919.105	6560.28
919.416	6511.02
919.727	6487.06
920.038	6494.07
920.349	6417.46
920.66	6437.34
920.971	6361.87
921.282	6424.92
921.593	6323.45
921.903	6301.3
922.214	6260.17
922.525	6267.86
922.835	6192.38
923.146	6231.25
923.456	6172.04
923.767	6193.28
924.077	6164.13
924.387	6114.64
924.697	6127.3
925.008	6047.98
925.318	6039.39
925.628	6050.91
925.938	5999.39
926.248	5965.72
926.558	5867.19
926.867	5930.01
927.177	5872.39
927.487	5866.06
927.796	5799.85
928.106	5807.53
928.416	5819.06
928.725	5799.17
929.034	5727.98
929.344	5763.46
929.653	5702
929.962	5671.26
930.271	5628.78
930.581	5632.39
930.89	5582.9
931.199	5589.01
931.508	5588.1
931.817	5557.82
932.125	5549.01
932.434	5489.57
932.743	5464.49
933.051	5406.41
933.36	5430.59
933.669	5437.82
933.977	5356.92
934.286	5334.77
934.594	5367.09
934.902	5280.99
935.21	5240.09
935.519	5247.55
935.827	5250.03
936.135	5215.23
936.443	5174.1
936.751	5187.43
937.059	5177.26
937.367	5069.7
937.674	5138.17
937.982	5067.89
938.29	5075.12
938.597	5045.97
938.905	4948.34
939.213	4969.36
939.52	4937.05
939.827	4958.74
940.135	4909.48
940.442	4918.29
940.749	4883.71
941.056	4907.89
941.363	4835.81
941.67	4822.92
941.977	4829.48
942.284	4750.84
942.591	4803.26
942.898	4756.03
943.205	4739.99
943.511	4694.79
943.818	4725.75
944.125	4662.48
944.431	4648.92
944.738	4671.52
945.044	4591.52
945.35	4560.33
945.657	4547.45
945.963	4543.16
946.269	4541.35
946.575	4500.67
946.881	4481.92
947.187	4466.1
947.493	4416.16
947.799	4405.99
948.105	4371.18
948.41	4382.94
948.716	4356.27
949.022	4335.25
949.327	4333.67
949.633	4313.78
949.938	4292.77
950.244	4276.05
950.549	4256.16
950.854	4247.8
951.16	4190.4
951.465	4206.9
951.77	4187.01
952.075	4182.04
952.38	4180.46
952.685	4130.51
952.99	4126.45
953.294	4074.7
953.599	4048.93
953.904	4047.58
954.209	4033.79
954.513	4051.42
954.818	4030.18
955.122	4012.32
955.426	3943.4
955.731	3955.38
956.035	3950.18
956.339	3923.96
956.643	3908.15
956.948	3882.16
957.252	3859.56
957.556	3874.47
957.86	3809.39
958.163	3842.16
958.467	3808.94
958.771	3798.54
959.075	3794.93
959.378	3733.69
959.682	3749.96
959.985	3721.48
960.289	3711.31
960.592	3676.97
960.896	3655.72
961.199	3685.55
961.502	3657.98
961.805	3576.63
962.108	3581.37
962.411	3602.39
962.714	3534.6
963.017	3559.68
963.32	3588.83
963.623	3527.36
963.926	3569.4
964.228	3508.83
964.531	3498.67
964.833	3532.34
965.136	3470.19
965.438	3446.24
965.741	3422.06
966.043	3404.43
966.345	3370.53
966.648	3394.94
966.95	3399.91
967.252	3369.63
967.554	3384.09
967.856	3355.39
968.158	3286.69
968.46	3299.8
968.761	3281.5
969.063	3271.78
969.365	3296.18
969.666	3258.67
969.968	3203.53
970.269	3202.18
970.571	3228.16
970.872	3194.49
971.174	3157.66
971.475	3170.54
971.776	3141.84
972.077	3125.34
972.378	3097.32
972.679	3112.91
972.98	3094.83
973.281	3087.83
973.582	3060.26
973.883	3067.04
974.183	3017.77
974.484	3041.95
974.785	3001.73
975.085	3013.93
975.386	3016.64
975.686	3012.35
975.986	2921.05
976.287	2928.51
976.587	2967.61
976.887	2923.76
977.187	2915.4
977.487	2931
977.787	2914.5
978.087	2888.74
978.387	2815.07
978.687	2846.7
978.987	2843.77
979.286	2849.19
979.586	2828.63
979.885	2803.09
980.185	2787.95
980.484	2778.46
980.784	2763.77
981.083	2760.83
981.382	2720.61
981.682	2723.32
981.981	2709.99
982.28	2729.65
982.579	2701.62
982.878	2673.38
983.177	2682.87
983.475	2680.16
983.774	2667.5
984.073	2593.38
984.372	2624.34
984.67	2617.78
984.969	2604
985.267	2594.73
985.566	2576.88
985.864	2563.32
986.162	2525.13
986.461	2537.33
986.759	2519.03
987.057	2529.2
987.355	2507.96
987.653	2487.62
987.951	2498.01
988.249	2453.95
988.547	2457.11
988.844	2456.88
989.142	2478.58
989.44	2397.68
989.737	2387.96
990.035	2406.94
990.332	2384.57
990.63	2392.71
990.927	2358.58
991.224	2351.12
991.521	2343.67
991.819	2359.94
992.116	2339.15
992.413	2334.85
992.71	2322.2
993.006	2299.37
993.303	2289.66
993.6	2250.34
993.897	2302.76
994.193	2246.49
994.49	2255.31
994.787	2249.66
995.083	2210.79
995.379	2234.97
995.676	2246.49
995.972	2204.01
996.268	2184.58
996.565	2191.81
996.861	2155.42
997.157	2136.67
997.453	2171.24
997.749	2116.1
998.044	2078.82
998.34	2141.86
998.636	2114.97
998.932	2105.03
999.227	2095.54
999.523	2110.68
999.818	2063.22
1000.114	2038.36
1000.409	2058.02
1000.704	2038.14
1001	2010.79
1001.295	2003.79
1001.59	2024.81
1001.885	2007.63
1002.18	1975.09
1002.475	1942.55
1002.77	1968.99
1003.065	1921.31
1003.359	1926.05
1003.654	1925.83
1003.949	1931.47
1004.243	1903.68
1004.538	1906.84
1004.832	1864.81
1005.127	1857.35
1005.421	1848.99
1005.715	1878.14
1006.009	1818.94
1006.304	1818.94
1006.598	1837.47
1006.892	1823
1007.186	1790.01
1007.48	1797.47
1007.773	1780.74
1008.067	1782.78
1008.361	1732.38
1008.655	1749.33
1008.948	1724.7
1009.242	1725.83
1009.535	1721.08
1009.829	1707.75
1010.122	1713.18
1010.415	1673.85
1010.708	1658.94
1011.001	1681.76
1011.295	1644.02
1011.588	1633.18
1011.881	1650.58
1012.173	1661.65
1012.466	1629.79
1012.759	1634.08
1013.052	1617.13
1013.344	1602.67
1013.637	1589.56
1013.93	1604.25
1014.222	1586.62
1014.514	1556.12
1014.807	1576.91
1015.099	1544.59
1015.391	1521.09
1015.683	1517.02
1015.976	1524.71
1016.268	1526.51
1016.56	1526.29
1016.851	1498.49
1017.143	1485.61
1017.435	1483.12
1017.727	1469.79
1018.018	1457.59
1018.31	1452.17
1018.602	1444.03
1018.893	1447.87
1019.185	1428.44
1019.476	1413.52
1019.767	1392.51
1020.058	1390.47
1020.35	1378.27
1020.641	1382.34
1020.932	1366.29
1021.223	1332.17
1021.514	1338.72
1021.804	1344.82
1022.095	1330.81
1022.386	1325.16
1022.677	1320.64
1022.967	1285.16
1023.258	1288.55
1023.548	1281.1
1023.839	1296.01
1024.129	1263.02
1024.419	1279.97
1024.709	1258.5
1025	1264.15
1025.29	1249.46
1025.58	1225.05
1025.87	1225.5
1026.16	1192.51
1026.449	1202.68
1026.739	1194.54
1027.029	1209.69
1027.319	1177.6
1027.608	1150.7
1027.898	1171.72
1028.187	1183.02
1028.477	1159.29
1028.766	1139.41
1029.055	1142.34
1029.344	1148.9
1029.634	1100.08
1029.923	1142.34
1030.212	1125.85
1030.501	1084.04
1030.79	1091.72
1031.078	1098.28
1031.367	1092.17
1031.656	1076.36
1031.945	1079.29
1032.233	1054.66
1032.522	1086.07
1032.81	1054.21
1033.099	1026.19
1033.387	1052.18
1033.675	1040.65
1033.963	1043.59
1034.251	1013.76
1034.54	1002.01
1034.828	1019.63
1035.116	993.19
1035.403	978.05
1035.691	985.28
1035.979	982.12
1036.267	1007.88
1036.554	957.71
1036.842	974.21
1037.129	965.85
1037.417	957.71
1037.704	941.44
1037.992	934.21
1038.279	934.21
1038.566	905.74
1038.853	905.74
1039.14	905.74
