Data from tablewood_brown_FLMS001491_093.txt Node
Date: Tue Feb 07 11:11:17 GMT 2017
User: dcchb
Spectrometer: FLMS00149
Trigger mode: 0
Integration Time (sec): 2.000000E-2
Scans to average: 10
Electric dark correction enabled: true
Nonlinearity correction enabled: false
Boxcar width: 0
XAxis mode: Wavelengths
Number of Pixels in Spectrum: 2048
>>>>>Begin Spectral Data<<<<<
341.393	-13.47
341.776	-13.47
342.16	-13.47
342.543	-62.74
342.927	-65.68
343.31	-58.22
343.693	-77.65
344.077	-66.35
344.46	-53.25
344.843	-72.91
345.226	-32
345.61	-39.24
345.993	-28.16
346.376	0.31
346.759	-12.34
347.142	31.04
347.525	40.31
347.908	66.98
348.291	80.76
348.674	92.29
349.057	128.44
349.44	120.31
349.823	144.04
350.206	159.63
350.588	199.63
350.971	221.32
351.354	228.55
351.737	226.52
352.119	238.95
352.502	270.81
352.884	296.35
353.267	264.48
353.65	282.79
354.032	309.91
354.414	309
354.797	322.34
355.179	321.88
355.562	335.67
355.944	346.29
356.326	349.91
356.709	312.17
357.091	315.78
357.473	335.22
357.855	347.19
358.238	346.74
358.62	341.09
359.002	330.92
359.384	331.6
359.766	319.17
360.148	356.69
360.53	348.32
360.912	350.36
361.294	350.36
361.676	330.02
362.057	315.1
362.439	307.65
362.821	326.4
363.203	340.87
363.584	316.46
363.966	331.6
364.348	352.39
364.729	293.18
365.111	323.92
365.493	333.64
365.874	338.15
366.256	320.98
366.637	342.67
367.019	319.4
367.4	331.15
367.781	325.95
368.163	326.4
368.544	330.7
368.925	309.46
369.306	323.92
369.688	332.05
370.069	348.1
370.45	338.83
370.831	330.02
371.212	323.01
371.593	338.83
371.974	329.57
372.355	347.65
372.736	326.86
373.117	349.45
373.498	324.37
373.879	340.87
374.26	322.79
374.641	306.52
375.021	335.22
375.402	338.15
375.783	327.31
376.163	337.93
376.544	341.77
376.925	364.59
377.305	337.7
377.686	342.22
378.066	345.61
378.447	350.36
378.827	376.8
379.208	375.22
379.588	372.05
379.968	356.01
380.349	363.69
380.729	377.02
381.109	344.48
381.489	351.94
381.87	377.02
382.25	378.61
382.63	358.72
383.01	376.12
383.39	365.72
383.77	394.42
384.15	379.51
384.53	373.18
384.91	387.19
385.29	386.52
385.67	382.45
386.049	392.62
386.429	411.6
386.809	401.66
387.189	406.4
387.568	395.1
387.948	423.35
388.328	400.75
388.707	382.9
389.087	408.44
389.466	407.31
389.846	417.93
390.225	403.92
390.605	416.34
390.984	421.09
391.363	417.93
391.743	413.63
392.122	435.55
392.501	462.9
392.881	444.37
393.26	440.07
393.639	435.78
394.018	441.2
394.397	456.8
394.776	473.29
395.155	469.22
395.534	458.83
395.913	467.87
396.292	473.07
396.671	471.94
397.05	475.33
397.429	480.75
397.808	485.04
398.186	456.57
398.565	476.68
398.944	499.28
399.323	476.23
399.701	496.57
400.08	508.32
400.458	486.63
400.837	510.35
401.215	500.64
401.594	512.39
401.972	515.1
402.351	522.33
402.729	540.41
403.107	522.33
403.486	524.14
403.864	513.52
404.242	535.89
404.62	552.84
404.999	543.57
405.377	546.51
405.755	552.61
406.133	562.56
406.511	559.17
406.889	539.51
407.267	588.54
407.645	586.28
408.023	599.62
408.401	586.06
408.779	591.48
409.156	608.43
409.534	616.79
409.912	591.48
410.29	617.02
410.667	620.86
411.045	617.24
411.422	626.28
411.8	640.75
412.178	653.17
412.555	642.55
412.933	659.95
413.31	665.38
413.687	686.62
414.065	674.42
414.442	668.32
414.819	666.96
415.197	673.74
415.574	701.99
415.951	708.09
416.328	715.77
416.705	707.86
417.082	704.25
417.46	734.08
417.837	742.44
418.214	732.49
418.591	748.31
418.967	764.58
419.344	760.06
419.721	765.26
420.098	755.09
420.475	762.55
420.852	774.53
421.228	800.97
421.605	798.48
421.982	801.87
422.358	785.37
422.735	822.21
423.111	809.1
423.488	824.02
423.864	828.54
424.241	845.49
424.617	832.38
424.994	848.2
425.37	838.03
425.746	851.14
426.123	856.11
426.499	874.19
426.875	863.34
427.251	903.79
427.627	906.95
428.003	929.78
428.379	919.61
428.756	938.37
429.132	949.21
429.507	946.5
429.883	945.6
430.259	980.85
430.635	980.4
431.011	984.92
431.387	994.18
431.763	1006.61
432.138	1027.18
432.514	1049.1
432.89	1050.9
433.265	1074.86
433.641	1070.34
434.016	1113.28
434.392	1096.55
434.767	1111.24
435.143	1125.25
435.518	1115.54
435.894	1138.13
436.269	1184.46
436.644	1163.22
437.02	1193.73
437.395	1200.28
437.77	1201.86
438.145	1212.93
438.52	1198.47
438.895	1224.69
439.271	1212.93
439.646	1246.15
440.021	1240.96
440.395	1269.66
440.77	1269.66
441.145	1267.17
441.52	1282.31
441.895	1290.67
442.27	1316.89
442.645	1319.15
443.019	1354.17
443.394	1322.54
443.769	1341.74
444.143	1365.92
444.518	1366.6
444.892	1351.01
445.267	1367.05
445.641	1366.6
446.016	1417.9
446.39	1414.28
446.764	1398.24
447.139	1395.3
447.513	1434.4
447.887	1445.02
448.262	1473.72
448.636	1486.15
449.01	1477.79
449.384	1497.22
449.758	1479.14
450.132	1509.65
450.506	1513.49
450.88	1522.76
451.254	1544.45
451.628	1536.77
452.002	1531.12
452.376	1548.74
452.75	1593.72
453.123	1628.52
453.497	1620.83
453.871	1621.96
454.244	1642.75
454.618	1653.83
454.992	1675.29
455.365	1662.19
455.739	1728.85
456.112	1750.55
456.486	1760.49
456.859	1783.09
457.232	1787.16
457.606	1787.38
457.979	1789.42
458.352	1846.82
458.725	1866.93
459.099	1880.26
459.472	1909.41
459.845	1911.45
460.218	1980.15
460.591	1976.98
460.964	1976.76
461.337	2035.29
461.71	2044.78
462.083	2066.92
462.456	2061.95
462.829	2134.94
463.201	2167.94
463.574	2147.6
463.947	2185.11
464.32	2218.78
464.692	2234.15
465.065	2273.25
465.438	2295.84
465.81	2328.16
466.183	2356.86
466.555	2414.71
466.928	2448.61
467.3	2430.98
467.672	2474.14
468.045	2565.89
468.417	2539.45
468.789	2572.22
469.161	2602.05
469.534	2655.61
469.906	2703.06
470.278	2681.14
470.65	2748.26
471.022	2829.39
471.394	2869.16
471.766	2903.06
472.138	2930.86
472.51	3001.59
472.882	3058.99
473.253	3151.87
473.625	3162.04
473.997	3235.48
474.369	3263.05
474.74	3297.4
475.112	3399.32
475.484	3482.25
475.855	3526.32
476.227	3525.87
476.598	3677.05
476.97	3654.9
477.341	3739.42
477.713	3862.36
478.084	3893.77
478.455	3983.03
478.827	4040.88
479.198	4154.1
479.569	4185.51
479.94	4274.32
480.311	4427.09
480.682	4466.63
481.053	4569.68
481.424	4611.26
481.795	4726.51
482.166	4769.22
482.537	4882.44
482.908	4971.25
483.279	5041.31
483.65	5104.81
484.021	5221.64
484.391	5293.28
484.762	5355.65
485.133	5466.16
485.503	5548.87
485.874	5653.5
486.244	5737.79
486.615	5827.95
486.985	5907.05
487.356	6006.93
487.726	6098.68
488.097	6175.74
488.467	6259.58
488.837	6336.42
489.207	6441.5
489.578	6526.01
489.948	6576.41
490.318	6662.06
490.688	6746.8
491.058	6852.33
491.428	6916.74
491.798	7062.27
492.168	7126.45
492.538	7161.48
492.908	7263.85
493.278	7362.38
493.648	7393.34
494.017	7502.94
494.387	7628.58
494.757	7627.91
495.126	7817.51
495.496	7770.73
495.866	7861.8
496.235	7925.75
496.605	8003.72
496.974	8069.7
497.344	8160.1
497.713	8202.81
498.082	8273.09
498.452	8325.97
498.821	8361.45
499.19	8419.3
499.559	8518.28
499.928	8530.26
500.298	8646.19
500.667	8759.18
501.036	8770.25
501.405	8838.95
501.774	8887.31
502.143	8982.22
502.512	8992.62
502.88	9152.16
503.249	9110.13
503.618	9266.73
503.987	9227.41
504.356	9374.75
504.724	9355.77
505.093	9433.28
505.462	9517.57
505.83	9556.44
506.199	9640.28
506.567	9800.73
506.936	9798.02
507.304	9907.62
507.672	9930.22
508.041	9982.2
508.409	10164.56
508.777	10261.74
509.145	10245.92
509.514	10275.07
509.882	10426.48
510.25	10475.06
510.618	10486.36
510.986	10618.34
511.354	10723.64
511.722	10779.46
512.09	10889.74
512.458	10837.77
512.826	10942.85
513.193	11118.44
513.561	11173.35
513.929	11278.21
514.297	11376.73
514.664	11510.74
515.032	11488.6
515.4	11569.95
515.767	11723.62
516.135	11769.72
516.502	11737.63
516.869	11956.83
517.237	11984.85
517.604	12046.32
517.972	12244.28
518.339	12315.92
518.706	12411.96
519.073	12475.69
519.44	12533.77
519.808	12836.36
520.175	12735.57
520.542	12889.24
520.909	12888.33
521.276	13073.41
521.643	13197.93
522.009	13299.85
522.376	13379.62
522.743	13483.57
523.11	13640.4
523.477	13700.52
523.843	13813.28
524.21	13981.86
524.577	14016.21
524.943	14200.16
525.31	14261.63
525.676	14447.84
526.043	14577.55
526.409	14612.13
526.776	14769.19
527.142	14843.31
527.508	15002.85
527.874	15102.74
528.241	15185
528.607	15207.82
528.973	15408.72
529.339	15420.7
529.705	15517.64
530.071	15691.88
530.437	15702.72
530.803	15923.51
531.169	15859.1
531.535	15932.55
531.901	15966.22
532.267	16121.24
532.632	16152.43
532.998	16370.05
533.364	16428.81
533.73	16589.25
534.095	16598.29
534.461	16711.06
534.826	16775.01
535.192	16858.62
535.557	16947.44
535.923	16979.3
536.288	17130.71
536.653	17204.15
537.019	17186.75
537.384	17245.28
537.749	17263.36
538.114	17426.07
538.479	17358.5
538.845	17565.05
539.21	17555.56
539.575	17638.49
539.94	17761.88
540.305	17800.07
540.67	17852.27
541.034	17912.38
541.399	17964.81
541.764	17963.45
542.129	18034.64
542.494	18078.71
542.858	18222.2
543.223	18173.84
543.587	18352.82
543.952	18429.2
544.316	18425.59
544.681	18563.89
545.045	18606.83
545.41	18759.37
545.774	18771.79
546.138	18854.28
546.503	18831.68
546.867	18899.47
547.231	19088.85
547.595	19146.25
547.959	19162.52
548.324	19225.12
548.688	19326.81
549.052	19428.05
549.416	19438.22
549.779	19532
550.143	19563.41
550.507	19742.16
550.871	19838.66
551.235	19912.1
551.599	20067.81
551.962	20129.5
552.326	20207.24
552.689	20420.11
553.053	20430.96
553.417	20321.36
553.78	20731.52
554.143	20685.19
554.507	20804.74
554.87	20893.09
555.234	21158.62
555.597	21067.33
555.96	21232.29
556.323	21279.07
556.686	21384.83
557.05	21630.7
557.413	21845.39
557.776	21861.88
558.139	22025.27
558.502	22159.05
558.865	22218.71
559.228	22411.25
559.59	22524.69
559.953	22591.13
560.316	22960.16
560.679	22901.18
561.041	23129.65
561.404	23293.48
561.767	23558.11
562.129	23570.54
562.492	23841.72
562.854	23950.64
563.217	24026.57
563.579	24038.55
563.941	24273.34
564.304	24494.36
564.666	24750.62
565.028	24779.09
565.39	24964.17
565.753	25153.32
566.115	25286.43
566.477	25380.43
566.839	25600.77
567.201	26008.21
567.563	25953.53
567.925	26287.08
568.287	26385.38
568.648	26500.86
569.01	26670.12
569.372	26998.24
569.734	26934.52
570.095	27282.53
570.457	27446.82
570.819	27549.64
571.18	27599.13
571.542	27880.48
571.903	27899.69
572.265	28165.9
572.626	28466.68
572.987	28405.44
573.349	28617.64
573.71	28875.48
574.071	29134.23
574.432	29176.49
574.794	29583.71
575.155	29628.91
575.516	29657.84
575.877	29894.89
576.238	29946.42
576.599	30097.6
576.96	30270.48
577.32	30507.98
577.681	30485.61
578.042	30665.72
578.403	30856.22
578.763	30842.44
579.124	31118.36
579.485	31347.96
579.845	31347.51
580.206	31362.65
580.566	31485.58
580.927	31478.35
581.287	31670.66
581.648	31806.71
582.008	31840.6
582.368	31871.79
582.728	32048.28
583.089	32105
583.449	32168.5
583.809	32243.3
584.169	32371.66
584.529	32310.87
584.889	32621.37
585.249	32510.42
585.609	32513.58
585.969	32739.11
586.329	32563.75
586.688	32799.67
587.048	32774.36
587.408	32714.48
587.768	32824.08
588.127	32991.76
588.487	32841.71
588.846	33204.18
589.206	32877.86
589.565	32968.71
589.925	33193.34
590.284	33047.13
590.643	33231.3
591.003	33364.86
591.362	33432.88
591.721	33324.41
592.08	33461.13
592.44	33536.6
592.799	33496.61
593.158	33405.99
593.517	33493.44
593.876	33587.9
594.235	33543.38
594.593	33633.32
594.952	33606.66
595.311	33589.71
595.67	33832.19
596.029	33868.35
596.387	33814.34
596.746	34053.2
597.104	33777.95
597.463	33787.9
597.822	33895.46
598.18	33730.27
598.538	33847.56
598.897	34080.09
599.255	33887.56
599.613	34223.59
599.972	34061.34
600.33	34103.14
600.688	33966.88
601.046	34191.05
601.404	34275.79
601.762	34230.82
602.12	34360.99
602.478	34290.26
602.836	34347.2
603.194	34239.18
603.552	34343.36
603.91	34308.56
604.268	34443.7
604.625	34295.45
604.983	34414.32
605.341	34312.4
605.698	34594.2
606.056	34594.88
606.413	34439.63
606.771	34800.98
607.128	34816.12
607.485	34538.16
607.843	34688.44
608.2	34763.24
608.557	34984.7
608.914	34665.16
609.272	35000.97
609.629	34893.4
609.986	35007.75
610.343	34891.6
610.7	35162.55
611.057	35083
611.414	35008.88
611.771	35174.3
612.127	35205.94
612.484	35162.78
612.841	35276.22
613.198	35069.45
613.554	35278.03
613.911	35510.11
614.267	35403.45
614.624	35416.1
614.98	35495.65
615.337	35688.86
615.693	35575.87
616.05	35607.96
616.406	35753.49
616.762	35661.97
617.118	35790.1
617.475	35719.6
617.831	35943.32
618.187	35798.24
618.543	35862.64
618.899	35954.85
619.255	35953.49
619.611	35877.79
619.967	35937.44
620.323	36021.74
620.678	35899.71
621.034	35889.54
621.39	35977.67
621.746	35777.22
622.101	36206.36
622.457	36046.59
622.812	36029.19
623.168	36174.95
623.523	36141.96
623.879	36327.27
624.234	35888.63
624.589	36197.55
624.945	36172.92
625.3	36279.13
625.655	36078.23
626.01	36368.62
626.365	36171.79
626.72	36205.23
627.075	36199.81
627.43	36077.78
627.785	35896.54
628.14	36095.18
628.495	36220.6
628.85	36097.44
629.205	36018.12
629.559	36145.8
629.914	35884.56
630.269	36099.47
630.623	35811.57
630.978	35900.16
631.332	35978.12
631.687	35956.65
632.041	35840.05
632.396	35880.05
632.75	35696.32
633.104	35899.93
633.459	35678.47
633.813	35697.9
634.167	35675.98
634.521	35661.29
634.875	35694.06
635.229	35609.32
635.583	35555.53
635.937	35396.67
636.291	35400.96
636.645	35509.66
636.999	35402.54
637.352	35465.82
637.706	35243.68
638.06	35327.74
638.413	35247.52
638.767	35274.19
639.121	35276.9
639.474	34970.69
639.828	35090.46
640.181	35242.77
640.534	35288.42
640.888	35078.48
641.241	34891.14
641.594	35060.41
641.947	35011.59
642.301	34944.93
642.654	34963.69
643.007	34941.09
643.36	34921.43
643.713	34817.02
644.066	35055.21
644.419	34735.44
644.771	34415.68
645.124	34319.63
645.477	34120.77
645.83	33772.3
646.182	33823.6
646.535	33603.27
646.888	33681.01
647.24	33490.73
647.593	33728.01
647.945	33676.94
648.298	33532.54
648.65	33411.64
649.002	33346.78
649.355	33612.31
649.707	33472.88
650.059	33588.58
650.411	34097.95
650.763	34030.15
651.115	34512.4
651.467	34338.16
651.819	34214.33
652.171	34284.83
652.523	34108.34
652.875	34107.21
653.227	34147.66
653.578	34280.31
653.93	34222.91
654.282	33885.07
654.633	33837.16
654.985	34097.72
655.337	34084.39
655.688	34157.15
656.039	34188.56
656.391	33890.49
656.742	33920.55
657.094	34018.63
657.445	34102.24
657.796	33965.52
658.147	33933.2
658.498	33928.01
658.849	34085.29
659.2	33937.72
659.551	33817.5
659.902	34142.92
660.253	33969.36
660.604	33963.71
660.955	33769.14
661.306	33927.78
661.656	33850.27
662.007	33970.49
662.358	33917.39
662.708	33914.45
663.059	33850.72
663.409	33712.42
663.76	33839.87
664.11	33790.61
664.461	33862.7
664.811	33901.79
665.161	33793.09
665.511	33809.82
665.862	33769.82
666.212	33783.15
666.562	33779.31
666.912	33859.31
667.262	33774.11
667.612	33844.17
667.962	33744.51
668.312	33725.3
668.662	33888.69
669.011	33689.37
669.361	33717.39
669.711	33555.36
670.06	33559.2
670.41	33638.3
670.76	33456.15
671.109	33674.23
671.459	33468.36
671.808	33537.06
672.157	33530.5
672.507	33477.4
672.856	33350.17
673.205	33524.4
673.554	33428.13
673.904	33464.29
674.253	33554.46
674.602	33414.57
674.951	33030.4
675.3	32765.32
675.649	33335.48
675.998	33250.51
676.346	33138.65
676.695	33362.15
677.044	33075.83
677.393	33253
677.741	33173.22
678.09	33048.93
678.438	33004.87
678.787	33026.11
679.135	32992.44
679.484	32774.59
679.832	32962.16
680.181	32783.18
680.529	32827.24
680.877	32854.81
681.225	32741.6
681.573	32882.84
681.922	32602.62
682.27	32575.27
682.618	32615.5
682.966	32501.15
683.314	32469.97
683.661	32393.13
684.009	32254.83
684.357	32272
684.705	32203.08
685.053	32257.54
685.4	32234.94
685.748	31899.81
686.095	31871.11
686.443	31630.89
686.79	31711.57
687.138	31841.96
687.485	31685.13
687.832	31611.23
688.18	31615.98
688.527	31531.46
688.874	31366.72
689.221	31286.27
689.568	31246.04
689.915	31170.56
690.262	31120.17
690.609	31038.36
690.956	31020.51
691.303	30972.6
691.65	30816.22
691.997	30649.9
692.344	30533.52
692.69	30630.01
693.037	30453.3
693.383	30153.64
693.73	30357.48
694.077	30020.99
694.423	30092.85
694.769	29952.29
695.116	29942.12
695.462	29851.28
695.808	29742.81
696.155	29826.87
696.501	29613.09
696.847	29600.21
697.193	29389.59
697.539	29572.41
697.885	29198.87
698.231	29151.41
698.577	29100.56
698.923	29047.46
699.269	28833.22
699.614	28820.34
699.96	28663.29
700.306	28619.67
700.651	28562.27
700.997	28482.5
701.342	28448.83
701.688	28229.4
702.033	28222.62
702.379	28282.28
702.724	28041.38
703.069	28106.92
703.415	27764.33
703.76	27798.45
704.105	27796.64
704.45	27787.83
704.795	27511.23
705.14	27457.67
705.485	27393.94
705.83	27231.69
706.175	27311.23
706.52	27261.06
706.865	27037.79
707.209	27065.36
707.554	26993.95
707.899	26964.35
708.243	26852.49
708.588	26755.77
708.932	26678.93
709.277	26643.45
709.621	26682.1
709.966	26498.37
710.31	26624.24
710.654	26307.87
710.998	26209.34
711.342	26374.53
711.687	26297.25
712.031	26184.93
712.375	26109.23
712.719	26004.15
713.063	25944.26
713.407	25981.77
713.75	25873.98
714.094	25949.01
714.438	25787.66
714.782	25884.38
715.125	25579.3
715.469	25702.01
715.812	25631.73
716.156	25398.06
716.499	25550.6
716.843	25520.77
717.186	25422.02
717.53	25458.4
717.873	25456.14
718.216	25352.41
718.559	25245.07
718.902	25169.59
719.246	25188.12
719.589	25151.29
719.932	25039.2
720.275	24991.97
720.617	25006.43
720.96	24942.93
721.303	25018.41
721.646	24978.41
721.989	24813.44
722.331	24901.35
722.674	24928.92
723.016	24872.2
723.359	24944.29
723.701	24875.14
724.044	24711.53
724.386	24553.56
724.729	24725.08
725.071	24566.44
725.413	24568.25
725.755	24650.51
726.097	24533
726.439	24396.96
726.782	24431.53
727.124	24564.86
727.465	24394.02
727.807	24446.22
728.149	24365.09
728.491	24412.78
728.833	24404.41
729.175	24263.63
729.516	24392.66
729.858	24277.64
730.199	24397.18
730.541	24213.46
730.882	24329.16
731.224	24335.04
731.565	24171.2
731.906	24269.73
732.248	24302.95
732.589	24092.78
732.93	23983.63
733.271	24123.52
733.612	24110.41
733.953	24098.21
734.294	24069.96
734.635	24008.04
734.976	24134.14
735.317	24004.88
735.658	24011.88
735.999	24041.49
736.339	24006.69
736.68	24012.11
737.021	24056.85
737.361	23889.63
737.702	24062.28
738.042	24015.27
738.383	24035.84
738.723	23926.24
739.063	23953.81
739.404	23929.4
739.744	23921.49
740.084	23844.43
740.424	23952.68
740.764	23871.77
741.104	24029.06
741.444	23777.09
741.784	23840.81
742.124	23917.65
742.464	23820.02
742.804	23815.28
743.143	23763.98
743.483	23866.35
743.823	23705
744.162	23697.99
744.502	23705.9
744.841	23736.64
745.181	23884.43
745.52	23680.14
745.86	23752.68
746.199	23757.88
746.538	23662.06
746.877	23806.01
747.216	23783.41
747.556	23697.77
747.895	23687.6
748.234	23588.84
748.573	23611.67
748.911	23566.92
749.25	23626.58
749.589	23434.5
749.928	23491.67
750.267	23556.53
750.605	23526.92
750.944	23501.39
751.283	23421.62
751.621	23617.77
751.96	23407.6
752.298	23360.6
752.636	23415.51
752.975	23241.28
753.313	23354.05
753.651	23319.92
753.989	23295.97
754.327	23202.86
754.666	23100.95
755.004	23118.35
755.342	23249.42
755.679	23088.29
756.017	23062.98
756.355	23000.38
756.693	23093.26
757.031	23050.55
757.368	22969.88
757.706	22905.92
758.044	22818.02
758.381	22734.4
758.719	22768.3
759.056	22740.05
759.394	22680.17
759.731	22493.73
760.068	22563.56
760.405	22515.42
760.743	22481.75
761.08	22536.44
761.417	22342.32
761.754	22336.67
762.091	22364.69
762.428	22166.96
762.765	22115.44
763.102	22096.9
763.438	22038.83
763.775	21985.72
764.112	21950.92
764.449	22038.83
764.785	21868.44
765.122	21749.57
765.458	21654.2
765.795	21594.32
766.131	21625.28
766.467	21598.16
766.804	21343.03
767.14	21311.16
767.476	21320.2
767.812	21219.87
768.148	21271.84
768.485	21153.2
768.821	21055.12
769.157	21003.15
769.492	20962.47
769.828	20906.88
770.164	20742.59
770.5	20790.5
770.836	20741.69
771.171	20586.44
771.507	20512.31
771.842	20421.92
772.178	20332.21
772.513	20423.5
772.849	20182.83
773.184	20199.78
773.519	20169.72
773.855	20001.59
774.19	19880.47
774.525	19889.96
774.86	19865.1
775.195	19793.46
775.53	19812.67
775.865	19594.6
776.2	19575.62
776.535	19502.85
776.87	19404.09
777.205	19331.33
777.539	19267.83
777.874	19253.82
778.209	19066.7
778.543	19041.84
778.878	18966.82
779.212	18972.24
779.547	18885.46
779.881	18839.36
780.215	18634.4
780.55	18664.68
780.884	18636.43
781.218	18613.61
781.552	18559.14
781.886	18383.1
782.22	18326.61
782.554	18334.07
782.888	18096.56
783.222	18069.21
783.556	17959.16
783.889	18005.49
784.223	17934.08
784.557	17847.3
784.89	17838.94
785.224	17684.59
785.557	17688.66
785.891	17662.22
786.224	17546.97
786.558	17547.87
786.891	17424.94
787.224	17311.49
787.557	17296.81
787.891	17267.43
788.224	17155.57
788.557	17247.77
788.89	17189.24
789.223	17137.26
789.556	16851.85
789.888	16952.63
790.221	16886.65
790.554	16691.62
790.887	16677.16
791.219	16688.46
791.552	16588.35
791.884	16566.88
792.217	16514.9
792.549	16583.38
792.882	16255.25
793.214	16226.32
793.546	16359.43
793.879	16224.29
794.211	16070.4
794.543	16139.55
794.875	16136.61
795.207	16066.55
795.539	16024.3
795.871	16073.33
796.203	15870.18
796.535	15770.97
796.867	15787.92
797.198	15713.57
797.53	15777.75
797.862	15567.13
798.193	15674.25
798.525	15471.77
798.856	15543.63
799.188	15415.5
799.519	15295.28
799.85	15251.44
800.182	15273.81
800.513	15326.24
800.844	15167.6
801.175	15253.47
801.506	15147.48
801.837	15061.84
802.168	15001.5
802.499	14942.97
802.83	14873.14
803.161	14883.08
803.491	14862.97
803.822	14749.98
804.153	14725.12
804.483	14603.99
804.814	14595.63
805.145	14623.88
805.475	14567.61
805.805	14455.98
806.136	14511.12
806.466	14433.15
806.796	14417.33
807.126	14304.79
807.457	14317
807.787	14304.79
808.117	14194.06
808.447	14174.4
808.777	14112.71
809.107	14166.27
809.436	14109.09
809.766	14014.63
810.096	13959.49
810.426	13958.81
810.755	13974.63
811.085	13874.97
811.414	13881.3
811.744	13815.99
812.073	13795.88
812.403	13695.32
812.732	13701.42
813.061	13645.15
813.39	13551.37
813.719	13565.83
814.049	13635.43
814.378	13576.22
814.707	13422.78
815.036	13449
815.365	13387.08
815.693	13243.13
816.022	13268.21
816.351	13249.45
816.68	13194.77
817.008	13245.61
817.337	13090.36
817.665	13018.5
817.994	13122.45
818.322	13111.83
818.651	13016.24
818.979	12945.06
819.307	12999.29
819.636	12920.87
819.964	12869.8
820.292	12992.74
820.62	12879.29
820.948	12903.47
821.276	12876.13
821.604	12848.79
821.932	12837.26
822.259	12894.66
822.587	12891.5
822.915	12839.97
823.243	12897.15
823.57	12856.7
823.898	12870.48
824.225	12776.02
824.553	12863.25
824.88	12892.18
825.207	12885.62
825.535	12821.44
825.862	12853.31
826.189	12794.32
826.516	12833.87
826.843	12889.92
827.17	12817.37
827.497	12902.8
827.824	12828.9
828.151	12834.55
828.478	12837.94
828.805	12867.54
829.131	12725.63
829.458	12780.09
829.785	12773.53
830.111	12748.9
830.438	12805.17
830.764	12770.6
831.09	12871.16
831.417	12664.38
831.743	12808.34
832.069	12780.54
832.395	12760.43
832.722	12743.7
833.048	12699.64
833.374	12703.71
833.7	12676.36
834.026	12680.2
834.351	12749.35
834.677	12648.79
835.003	12649.92
835.329	12649.02
835.654	12585.97
835.98	12557.49
836.306	12533.31
836.631	12636.36
836.956	12558.17
837.282	12562.01
837.607	12474.78
837.932	12454.9
838.258	12449.47
838.583	12479.3
838.908	12305.3
839.233	12396.59
839.558	12345.07
839.883	12352.98
840.208	12295.13
840.533	12235.7
840.858	12326.31
841.182	12223.72
841.507	12236.83
841.832	12149.14
842.156	12221.46
842.481	12248.58
842.805	12162.25
843.13	12068.92
843.454	12099.43
843.778	12060.78
844.103	11970.39
844.427	12010.16
844.751	12007
845.075	11969.94
845.399	11916.83
845.723	11813.33
846.047	11846.78
846.371	11768.59
846.695	11730.17
847.019	11700.57
847.343	11566.79
847.666	11479.33
847.99	11518.65
848.313	11531.31
848.637	11400.01
848.96	11433.68
849.284	11359.56
849.607	11294.48
849.931	11227.59
850.254	11159.11
850.577	11089.28
850.9	11028.04
851.223	11049.06
851.546	11011.32
851.869	10920.25
852.192	11059.45
852.515	10864.88
852.838	10757.32
853.161	10844.55
853.483	10800.48
853.806	10793.25
854.129	10715.74
854.451	10700.37
854.774	10640.03
855.096	10584.67
855.419	10563.42
855.741	10521.39
856.063	10518.45
856.385	10477.32
856.708	10393.03
857.03	10393.26
857.352	10440.04
857.674	10307.84
857.996	10340.15
858.318	10311.23
858.64	10252.47
858.961	10194.17
859.283	10231.45
859.605	10155.98
859.926	10148.97
860.248	10132.7
860.57	10067.16
860.891	10041.4
861.212	10039.82
861.534	10011.12
861.855	10002.76
862.176	10041.63
862.498	10014.51
862.819	9912.14
863.14	9985.81
863.461	9905.36
863.782	9814.74
864.103	9900.62
864.424	9795.08
864.745	9836.21
865.065	9800.96
865.386	9754.18
865.707	9819.04
866.027	9711.24
866.348	9770.68
866.668	9717.8
866.989	9715.76
867.309	9688.87
867.63	9628.76
867.95	9636.22
868.27	9592.15
868.59	9572.94
868.91	9592.15
869.23	9590.12
869.55	9530.68
869.87	9664.01
870.19	9574.97
870.51	9503.56
870.83	9495.88
871.15	9497.24
871.469	9501.08
871.789	9450.23
872.109	9437.12
872.428	9418.59
872.748	9463.11
873.067	9417.24
873.386	9395.54
873.706	9437.35
874.025	9348.77
874.344	9299.95
874.663	9313.51
874.982	9303.12
875.301	9347.41
875.62	9288.88
875.939	9202.1
876.258	9313.74
876.577	9245.94
876.896	9237.58
877.214	9260.41
877.533	9139.51
877.852	9134.08
878.17	9119.17
878.489	9156.91
878.807	9139.96
879.125	9075.78
879.444	9105.83
879.762	9101.31
880.08	9056.8
880.398	8997.59
880.716	9088.89
881.034	9028.1
881.352	9009.11
881.67	8962.79
881.988	8943.35
882.306	8997.14
882.624	8942.67
882.941	8924.6
883.259	8849.12
883.577	8837.14
883.894	8825.16
884.212	8852.51
884.529	8849.57
884.846	8760.76
885.164	8756.92
885.481	8772.28
885.798	8821.77
886.115	8687.99
886.432	8672.63
886.75	8648.9
887.067	8648.22
887.383	8572.51
887.7	8614.1
888.017	8584.27
888.334	8590.59
888.651	8501.78
888.967	8552.18
889.284	8504.27
889.6	8491.61
889.917	8464.49
890.233	8411.16
890.55	8417.94
890.866	8430.82
891.182	8357.38
891.498	8324.39
891.815	8254.33
892.131	8264.73
892.447	8283.03
892.763	8245.97
893.079	8166.2
893.395	8208.68
893.71	8166.2
894.026	8158.29
894.342	8147.67
894.657	8091.85
894.973	8038.29
895.289	8065.18
895.604	8027.44
895.92	7944.06
896.235	7917.84
896.55	7924.85
896.865	7914.68
897.181	7914.68
897.496	7890.27
897.811	7832.65
898.126	7803.04
898.441	7799.43
898.756	7745.87
899.071	7761.46
899.386	7770.73
899.7	7612.99
900.015	7627.68
900.33	7565.99
900.644	7591.3
900.959	7630.17
901.273	7512.88
901.588	7458.87
901.902	7514.46
902.216	7458.87
902.531	7460.23
902.845	7449.83
903.159	7377.29
903.473	7376.84
903.787	7332.1
904.101	7259.78
904.415	7311.08
904.729	7227.92
905.042	7251.19
905.356	7213.68
905.67	7149.5
905.984	7178.88
906.297	7156.51
906.611	7041.48
906.924	7046
907.237	7054.14
907.551	6951.09
907.864	6977.98
908.177	6976.62
908.491	6956.51
908.804	6883.29
909.117	6902.5
909.43	6787.48
909.743	6789.28
910.056	6784.54
910.368	6761.94
910.681	6725.78
910.994	6702.96
911.307	6665.67
911.619	6655.73
911.932	6634.71
912.244	6623.19
912.557	6569.4
912.869	6546.58
913.181	6492.57
913.494	6519.01
913.806	6466.13
914.118	6479.01
914.43	6411.89
914.742	6394.94
915.054	6300.03
915.366	6359.47
915.678	6292.35
915.99	6309.75
916.302	6205.35
916.613	6167.38
916.925	6270.88
917.236	6201.5
917.548	6135.52
917.859	6145.91
918.171	6073.82
918.482	6087.83
918.794	6048.51
919.105	6016.88
919.416	5998.8
919.727	5980.27
920.038	5950.89
920.349	5888.29
920.66	5962.64
920.971	5881.29
921.282	5872.7
921.593	5828.18
921.903	5769.2
922.214	5793.6
922.525	5799.48
922.835	5703.44
923.146	5702.76
923.456	5704.79
923.767	5640.84
924.077	5675.87
924.387	5631.12
924.697	5594.51
925.008	5579.15
925.318	5528.07
925.628	5548.41
925.938	5502.09
926.248	5460.05
926.558	5408.98
926.867	5446.04
927.177	5401.07
927.487	5386.84
927.796	5383.67
928.106	5321.07
928.416	5328.76
928.725	5308.19
929.034	5263.9
929.344	5252.83
929.653	5296.67
929.962	5151.36
930.271	5180.51
930.581	5148.88
930.89	5109.1
931.199	5121.53
931.508	5120.4
931.817	5115.66
932.125	5031.14
932.434	5089.89
932.743	5022.78
933.051	4937.81
933.36	4981.2
933.669	4934.42
933.977	4937.81
934.286	4960.18
934.594	4952.5
934.902	4860.3
935.21	4850.58
935.519	4881.99
935.827	4827.98
936.135	4781.2
936.443	4772.39
936.751	4725.16
937.059	4763.58
937.367	4712.5
937.674	4734.88
937.982	4692.84
938.29	4647.42
938.597	4660.75
938.905	4590.92
939.213	4563.13
939.52	4554.99
939.827	4571.72
940.135	4522.9
940.442	4493.98
940.749	4458.5
941.056	4486.75
941.363	4452.17
941.67	4440.19
941.977	4373.76
942.284	4417.82
942.591	4415.34
942.898	4397.26
943.205	4355.68
943.511	4326.3
943.818	4333.76
944.125	4273.42
944.431	4265.74
944.738	4236.36
945.044	4230.71
945.35	4255.11
945.657	4212.86
945.963	4185.29
946.269	4157.04
946.575	4170.37
946.881	4094.67
947.187	4067.55
947.493	4107.1
947.799	4120.43
948.105	4069.13
948.41	4072.75
948.716	4024.61
949.022	4030.04
949.327	4006.08
949.633	3928.8
949.938	3957.04
950.244	3961.79
950.549	3952.52
950.854	3872.3
951.16	3899.87
951.465	3920.89
951.77	3892.86
952.075	3835.92
952.38	3845.63
952.685	3815.13
952.99	3749.36
953.294	3789.14
953.599	3743.72
953.904	3702.36
954.209	3699.65
954.513	3751.62
954.818	3685.86
955.122	3678.86
955.426	3672.53
955.731	3599.99
956.035	3628.01
956.339	3629.14
956.643	3587.79
956.948	3596.15
957.252	3590.5
957.556	3571.97
957.86	3519.77
958.163	3540.56
958.467	3501.01
958.771	3477.06
959.075	3479.77
959.378	3499.43
959.682	3468.02
959.985	3449.26
960.289	3399.09
960.592	3417.62
960.896	3374.23
961.199	3352.31
961.502	3402.93
961.805	3366.1
962.108	3334.91
962.411	3327.68
962.714	3328.81
963.017	3287.91
963.32	3312.77
963.623	3255.14
963.926	3259.21
964.228	3260.79
964.531	3214.69
964.833	3225.31
965.136	3200.68
965.438	3172.43
965.741	3188.7
966.043	3149.83
966.345	3145.99
966.648	3155.71
966.95	3139.21
967.252	3082.94
967.554	3116.16
967.856	3079.78
968.158	3038.2
968.46	3045.65
968.761	3015.15
969.063	3033.68
969.365	3009.27
969.666	2997.75
969.968	2950.74
970.269	3000.46
970.571	2946.9
970.872	2955.71
971.174	2924.75
971.475	2934.92
971.776	2924.08
972.077	2898.99
972.378	2888.37
972.679	2892.66
972.98	2844.3
973.281	2872.55
973.582	2849.28
973.883	2838.43
974.183	2817.64
974.484	2817.64
974.785	2796.17
975.085	2783.06
975.386	2786.23
975.686	2783.51
975.986	2733.57
976.287	2746.23
976.587	2672.1
976.887	2717.3
977.187	2667.13
977.487	2670.07
977.787	2671.2
978.087	2662.61
978.387	2626.68
978.687	2638.43
978.987	2597.76
979.286	2601.15
979.586	2634.37
979.885	2545.78
980.185	2585.1
980.484	2553.46
980.784	2559.11
981.083	2520.92
981.382	2567.7
981.682	2511.21
981.981	2504.88
982.28	2492.45
982.579	2489.51
982.878	2501.26
983.177	2493.13
983.475	2492.45
983.774	2440.92
984.073	2421.72
984.372	2417.42
984.67	2400.25
984.969	2409.29
985.267	2410.42
985.566	2418.55
985.864	2385.56
986.162	2370.42
986.461	2367.25
986.759	2366.58
987.057	2362.73
987.355	2321.83
987.653	2305.33
987.951	2296.97
988.249	2286.35
988.547	2305.56
988.844	2276.18
989.142	2276.86
989.44	2253.36
989.737	2271.21
990.035	2202.06
990.332	2221.95
990.63	2182.85
990.927	2208.61
991.224	2182.85
991.521	2209.74
991.819	2197.99
992.116	2169.07
992.413	2146.92
992.71	2133.36
993.006	2163.19
993.303	2115.06
993.6	2101.5
993.897	2110.76
994.193	2100.37
994.49	2073.25
994.787	2067.83
995.083	2038.9
995.379	2041.84
995.676	2031.44
995.972	2046.58
996.268	2016.53
996.565	2047.94
996.861	1987.83
997.157	1989.18
997.453	1980.6
997.749	1961.62
998.044	1958.9
998.34	1983.76
998.636	1937.21
998.932	1952.8
999.227	1897.66
999.523	1890.88
999.818	1920.03
1000.114	1900.15
1000.409	1888.17
1000.704	1861.28
1001	1858.57
1001.295	1844.78
1001.59	1870.54
1001.885	1859.02
1002.18	1852.69
1002.475	1814.5
1002.77	1814.05
1003.065	1805.69
1003.359	1798.68
1003.654	1802.07
1003.949	1775.63
1004.243	1767.5
1004.538	1762.98
1004.832	1749.42
1005.127	1738.57
1005.421	1759.13
1005.715	1740.6
1006.009	1693.6
1006.304	1703.54
1006.598	1701.73
1006.892	1692.02
1007.186	1650.44
1007.48	1668.97
1007.773	1673.94
1008.067	1670.1
1008.361	1621.96
1008.655	1627.16
1008.948	1632.36
1009.242	1611.34
1009.535	1600.27
1009.829	1594.39
1010.122	1568.41
1010.415	1583.32
1010.708	1542.42
1011.001	1529.08
1011.295	1512.14
1011.588	1557.78
1011.881	1515.07
1012.173	1554.85
1012.466	1510.1
1012.759	1524.34
1013.052	1541.97
1013.344	1492.02
1013.637	1469.88
1013.93	1500.16
1014.222	1452.02
1014.514	1461.74
1014.807	1444.79
1015.099	1450.89
1015.391	1454.06
1015.683	1438.24
1015.976	1414.28
1016.268	1402.31
1016.56	1409.09
1016.851	1363.21
1017.143	1375.64
1017.435	1365.25
1017.727	1369.99
1018.018	1368.86
1018.31	1348.07
1018.602	1321.63
1018.893	1322.54
1019.185	1306.72
1019.476	1323.89
1019.767	1322.76
1020.058	1307.17
1020.35	1308.07
1020.641	1299.03
1020.932	1281.63
1021.223	1278.7
1021.514	1289.99
1021.804	1234.18
1022.095	1271.46
1022.386	1234.18
1022.677	1229.43
1022.967	1208.19
1023.258	1222.88
1023.548	1214.29
1023.839	1192.6
1024.129	1193.05
1024.419	1189.43
1024.709	1160.96
1025	1198.47
1025.29	1168.87
1025.58	1170.22
1025.87	1126.16
1026.16	1154.4
1026.449	1143.33
1026.739	1136.1
1027.029	1155.31
1027.319	1124.57
1027.608	1094.52
1027.898	1113.5
1028.187	1090.9
1028.477	1084.58
1028.766	1059.94
1029.055	1064.92
1029.344	1074.18
1029.634	1063.79
1029.923	1062.2
1030.212	1051.81
1030.501	1036.22
1030.79	1003.67
1031.078	1019.94
1031.367	1010
1031.656	1045.93
1031.945	1012.49
1032.233	1014.07
1032.522	988.76
1032.81	982.66
1033.099	1014.97
1033.387	973.84
1033.675	957.35
1033.963	976.1
1034.251	971.81
1034.54	941.08
1034.828	937.24
1035.116	933.39
1035.403	944.24
1035.691	928.65
1035.979	927.97
1036.267	915.09
1036.554	915.77
1036.842	925.48
1037.129	928.87
1037.417	890.46
1037.704	903.79
1037.992	892.26
1038.279	894.52
1038.566	908.31
1038.853	908.31
1039.14	908.31
