Data from tablewood_brown_FLMS001491_029.txt Node
Date: Tue Feb 07 11:10:15 GMT 2017
User: dcchb
Spectrometer: FLMS00149
Trigger mode: 0
Integration Time (sec): 2.000000E-2
Scans to average: 10
Electric dark correction enabled: true
Nonlinearity correction enabled: false
Boxcar width: 0
XAxis mode: Wavelengths
Number of Pixels in Spectrum: 2048
>>>>>Begin Spectral Data<<<<<
341.393	-10.56
341.776	-10.56
342.16	-10.56
342.543	-46.27
342.927	-36.33
343.31	-60.05
343.693	-61.41
344.077	-62.99
344.46	-62.99
344.843	-81.98
345.226	-36.1
345.61	-12.82
345.993	-0.85
346.376	-9.66
346.759	-7.63
347.142	7.74
347.525	30.56
347.908	46.83
348.291	87.74
348.674	108.75
349.057	114.86
349.44	125.7
349.823	155.08
350.206	163.44
350.588	187.4
350.971	209.32
351.354	206.6
351.737	243.89
352.119	240.73
352.502	253.61
352.884	270.11
353.267	287.28
353.65	271.46
354.032	287.05
354.414	301.29
354.797	304
355.179	320.27
355.562	313.72
355.944	336.32
356.326	328.41
356.709	329.99
357.091	336.77
357.473	330.67
357.855	311.01
358.238	348.3
358.62	328.41
359.002	319.37
359.384	371.12
359.766	341.06
360.148	348.97
360.53	337
360.912	318.69
361.294	338.13
361.676	329.99
362.057	329.31
362.439	348.75
362.821	349.88
363.203	312.36
363.584	346.49
363.966	319.82
364.348	332.93
364.729	351.69
365.111	317.34
365.493	330.9
365.874	335.41
366.256	310.1
366.637	329.77
367.019	327.28
367.4	318.47
367.781	339.26
368.163	311.01
368.544	335.19
368.925	305.36
369.306	332.93
369.688	307.85
370.069	327.96
370.45	332.03
370.831	328.86
371.212	325.47
371.593	301.74
371.974	318.69
372.355	335.19
372.736	314.4
373.117	323.89
373.498	322.08
373.879	322.08
374.26	328.64
374.641	352.59
375.021	318.01
375.402	317.34
375.783	324.79
376.163	325.92
376.544	327.73
376.925	334.51
377.305	336.77
377.686	341.06
378.066	347.84
378.447	341.29
378.827	331.8
379.208	343.78
379.588	339.26
379.968	348.07
380.349	347.39
380.729	329.31
381.109	346.26
381.489	358.69
381.87	347.17
382.25	361.63
382.63	365.47
383.01	360.05
383.39	363.89
383.77	345.81
384.15	361.4
384.53	346.94
384.91	367.5
385.29	358.24
385.67	358.47
386.049	371.8
386.429	359.6
386.809	363.89
387.189	396.66
387.568	375.64
387.948	387.62
388.328	400.05
388.707	383.32
389.087	384.23
389.466	380.61
389.846	388.75
390.225	391.23
390.605	391.91
390.984	385.13
391.363	413.83
391.743	406.83
392.122	410.22
392.501	411.35
392.881	409.76
393.26	427.62
393.639	418.12
394.018	423.32
394.397	422.87
394.776	440.72
395.155	445.69
395.534	438.01
395.913	457.67
396.292	432.36
396.671	431.46
397.05	455.19
397.429	458.12
397.808	453.83
398.186	435.3
398.565	450.89
398.944	467.39
399.323	452.02
399.701	453.83
400.08	455.19
400.458	458.58
400.837	491.57
401.215	474.39
401.594	495.18
401.972	475.52
402.351	490.89
402.729	466.26
403.107	509.87
403.486	459.48
403.864	478.91
404.242	496.54
404.62	493.83
404.999	502.42
405.377	489.76
405.755	527.95
406.133	532.7
406.511	522.98
406.889	545.13
407.267	512.59
407.645	541.51
408.023	555.3
408.401	524.79
408.779	554.84
409.156	544.45
409.534	586.03
409.912	571.34
410.29	562.53
410.667	576.99
411.045	570.44
411.422	601.17
411.8	581.96
412.178	582.19
412.555	600.94
412.933	621.51
413.31	604.33
413.687	618.8
414.065	619.48
414.442	627.84
414.819	666.48
415.197	641.4
415.574	635.75
415.951	644.11
416.328	665.58
416.705	656.31
417.082	660.6
417.46	659.02
417.837	668.29
418.214	677.78
418.591	693.37
418.967	677.1
419.344	674.84
419.721	651.56
420.098	685.24
420.475	692.47
420.852	683.2
421.228	693.15
421.605	723.2
421.982	742.41
422.358	731.11
422.735	745.8
423.111	736.08
423.488	748.29
423.864	756.42
424.241	757.32
424.617	753.26
424.994	743.31
425.37	773.6
425.746	762.3
426.123	765.46
426.499	780.6
426.875	796.87
427.251	801.17
427.627	815.63
428.003	814.27
428.379	847.94
428.756	835.29
429.132	824.89
429.507	850.88
429.883	870.99
430.259	869.19
430.635	883.2
431.011	879.58
431.387	887.72
431.763	892.69
432.138	901.5
432.514	924.33
432.89	915.74
433.265	936.98
433.641	932.91
434.016	954.16
434.392	989.41
434.767	976.08
435.143	983.76
435.518	978.11
435.894	1000.03
436.269	1006.81
436.644	1014.49
437.02	1047.49
437.395	1031.22
437.77	1044.77
438.145	1074.83
438.52	1089.75
438.895	1075.96
439.271	1100.14
439.646	1085.68
440.021	1101.95
440.395	1104.43
440.77	1110.99
441.145	1122.74
441.52	1149.18
441.895	1169.74
442.27	1152.12
442.645	1140.37
443.019	1167.71
443.394	1165
443.769	1173.36
444.143	1198.67
444.518	1214.94
444.892	1195.28
445.267	1214.94
445.641	1207.71
446.016	1215.39
446.39	1232.34
446.764	1258.1
447.139	1267.82
447.513	1268.27
447.887	1277.31
448.262	1278.89
448.636	1270.76
449.01	1281.38
449.384	1302.17
449.758	1301.27
450.132	1308.95
450.506	1336.52
450.88	1348.95
451.254	1334.03
451.628	1348.5
452.002	1327.03
452.376	1350.3
452.75	1360.25
453.123	1397.31
453.497	1426.91
453.871	1423.75
454.244	1437.53
454.618	1455.61
454.992	1470.53
455.365	1443.18
455.739	1502.62
456.112	1515.72
456.486	1522.5
456.859	1554.14
457.232	1537.64
457.606	1576.29
457.979	1568.15
458.352	1598.21
458.725	1620.35
459.099	1640.47
459.472	1633.69
459.845	1671.65
460.218	1667.13
460.591	1714.36
460.964	1716.17
461.337	1753.46
461.71	1771.99
462.083	1784.19
462.456	1850.4
462.829	1825.32
463.201	1861.48
463.574	1845.66
463.947	1912.32
464.32	1929.5
464.692	1942.38
465.065	1951.19
465.438	1995.26
465.81	2022.6
466.183	2034.35
466.555	2083.17
466.928	2095.59
467.3	2107.12
467.672	2124.07
468.045	2157.51
468.417	2183.95
468.789	2222.6
469.161	2218.98
469.534	2273.44
469.906	2362.25
470.278	2353.21
470.65	2388.92
471.022	2441.12
471.394	2492.19
471.766	2505.98
472.138	2570.61
472.51	2604.96
472.882	2636.37
473.253	2687.9
473.625	2755.92
473.997	2769.48
474.369	2812.19
474.74	2874.78
475.112	2896.03
475.484	2966.31
475.855	3039.75
476.227	3087.43
476.598	3187.32
476.97	3203.14
477.341	3295.79
477.713	3370.36
478.084	3388.44
478.455	3486.52
478.827	3470.02
479.198	3626.4
479.569	3649.45
479.94	3745.04
480.311	3792.27
480.682	3892.16
481.053	3962.21
481.424	4025.04
481.795	4140.06
482.166	4150.68
482.537	4250.79
482.908	4320.39
483.279	4396.33
483.65	4498.92
484.021	4550.9
484.391	4659.14
484.762	4666.6
485.133	4742.76
485.503	4789.99
485.874	4945.92
486.244	4954.95
486.615	5066.14
486.985	5172.12
487.356	5229.52
487.726	5280.6
488.097	5398.56
488.467	5426.35
488.837	5528.95
489.207	5623.64
489.578	5634.71
489.948	5747.02
490.318	5809.62
490.688	5892.56
491.058	5930.75
491.428	6031.76
491.798	6091.65
492.168	6233.11
492.538	6278.08
492.908	6357.86
493.278	6412.77
493.648	6451.19
494.017	6549.49
494.387	6543.39
494.757	6651.63
495.126	6752.65
495.496	6848.01
495.866	6820.89
496.235	6922.81
496.605	6971.85
496.974	7033.32
497.344	7060.66
497.713	7121.23
498.082	7205.97
498.452	7247.55
498.821	7268.34
499.19	7320.77
499.559	7411.16
499.928	7441.44
500.298	7473.31
500.667	7570.48
501.036	7573.19
501.405	7623.13
501.774	7662.23
502.143	7745.39
502.512	7819.06
502.88	7959.4
503.249	7942.22
503.618	8040.98
503.987	8077.36
504.356	8097.24
504.724	8129.11
505.093	8156.68
505.462	8251.14
505.83	8363.45
506.199	8390.34
506.567	8472.38
506.936	8499.04
507.304	8597.8
507.672	8598.7
508.041	8711.24
508.409	8765.7
508.777	8864.23
509.145	8959.59
509.514	8884.12
509.882	8994.62
510.25	9068.74
510.618	9128.18
510.986	9204.56
511.354	9298.12
511.722	9373.82
512.09	9470.54
512.458	9452.92
512.826	9572.23
513.193	9651.1
513.561	9667.82
513.929	9783.08
514.297	9887.25
514.664	9983.3
515.032	10052.67
515.4	10119.56
515.767	10242.27
516.135	10213.35
516.502	10169.96
516.869	10410.86
517.237	10506.22
517.604	10402.49
517.972	10622.38
518.339	10698.31
518.706	10762.26
519.073	10807.68
519.44	10956.38
519.808	11113.66
520.175	11077.51
520.542	11286.77
520.909	11281.12
521.276	11281.34
521.643	11489.7
522.009	11508.68
522.376	11616.7
522.743	11692.4
523.11	11772.63
523.477	11929.23
523.843	11986.18
524.21	12217.81
524.577	12322.67
524.943	12390.24
525.31	12396.11
525.676	12507.98
526.043	12670.46
526.409	12706.62
526.776	12871.13
527.142	12872.49
527.508	13017.57
527.874	13073.84
528.241	13122.42
528.607	13224.57
528.973	13331.01
529.339	13403.09
529.705	13452.81
530.071	13695.29
530.437	13662.07
530.803	13764.89
531.169	13870.43
531.535	13878.79
531.901	13933.25
532.267	13977.99
532.632	14124.66
532.998	14162.4
533.364	14245.78
533.73	14324.65
534.095	14509.05
534.461	14402.39
534.826	14497.53
535.192	14607.13
535.557	14679.9
535.923	14642.61
536.288	14743.17
536.653	14851.19
537.019	14790.63
537.384	14937.52
537.749	15017.51
538.114	15061.81
538.479	15089.38
538.845	15160.56
539.21	15162.82
539.575	15215.25
539.94	15303.83
540.305	15381.8
540.67	15329.37
541.034	15583.38
541.399	15470.16
541.764	15573.21
542.129	15690.49
542.494	15735.91
542.858	15750.38
543.223	15819.3
543.587	15949.47
543.952	15870.83
544.316	15946.3
544.681	16010.03
545.045	16035.57
545.41	16120.31
545.774	16172.74
546.138	16184.94
546.503	16289.35
546.867	16393.98
547.231	16554.88
547.595	16541.32
547.959	16669
548.324	16660.18
548.688	16678.71
549.052	16760.07
549.416	16832.38
549.779	16843.23
550.143	16971.81
550.507	17108.31
550.871	17108.31
551.235	17253.84
551.599	17233.28
551.962	17366.61
552.326	17474.85
552.689	17605.92
553.053	17515.75
553.417	17749.19
553.78	17886.14
554.143	17884.56
554.507	17983.76
554.87	18099.69
555.234	18272.8
555.597	18207.26
555.96	18346.01
556.323	18549.17
556.686	18624.65
557.05	18696.29
557.413	18954.59
557.776	18950.52
558.139	19128.82
558.502	19213.79
558.865	19211.98
559.228	19470.73
559.59	19606.09
559.953	19692.42
560.316	19920.89
560.679	19878.63
561.041	20165.4
561.404	20306.87
561.767	20346.19
562.129	20463.25
562.492	20660.3
562.854	20659.63
563.217	21001.09
563.579	20895.1
563.941	21127.18
564.304	21316.78
564.666	21595.19
565.028	21473.39
565.39	21797.45
565.753	21923.55
566.115	22103.88
566.477	22185.01
566.839	22264.1
567.201	22534.38
567.563	22642.17
567.925	22869.06
568.287	22939.11
568.648	22981.6
569.01	23148.6
569.372	23379.78
569.734	23437.41
570.095	23665.87
570.457	23862.93
570.819	24047.11
571.18	24138.18
571.542	24360.32
571.903	24445.29
572.265	24590.37
572.626	24765.06
572.987	24896.58
573.349	25060.41
573.71	25190.58
574.071	25273.06
574.432	25496.56
574.794	25670.57
575.155	25845.93
575.516	25853.61
575.877	26009.99
576.238	26078.69
576.599	26396.2
576.96	26414.05
577.32	26555.74
577.681	26715.06
578.042	26813.14
578.403	26849.52
578.763	27027.14
579.124	27200.7
579.485	27290.41
579.845	27430.75
580.206	27390.3
580.566	27436.85
580.927	27651.53
581.287	27831.64
581.648	27771.3
582.008	28042.71
582.368	27994.35
582.728	28118.64
583.089	28162.71
583.449	28180.11
583.809	28348.24
584.169	28319.76
584.529	28347.11
584.889	28553.88
585.249	28390.95
585.609	28397.28
585.969	28628.91
586.329	28522.24
586.688	28663.48
587.048	28621
587.408	28658.96
587.768	28746.87
588.127	28768.79
588.487	28762.24
588.846	29028.67
589.206	28763.37
589.565	28914.55
589.925	29178.72
590.284	29013.98
590.643	29202.68
591.003	29116.35
591.362	29239.97
591.721	29152.74
592.08	29257.82
592.44	29327.42
592.799	29359.28
593.158	29305.73
593.517	29372.84
593.876	29401.32
594.235	29455.78
594.593	29272.96
594.952	29376.23
595.311	29412.39
595.67	29395.67
596.029	29624.14
596.387	29699.39
596.746	29687.64
597.104	29536.91
597.463	29682.89
597.822	29725.83
598.18	29768.09
598.538	29654.64
598.897	29797.69
599.255	29629.11
599.613	30037.91
599.972	29831.14
600.33	29906.39
600.688	29734.87
601.046	29920.63
601.404	29983.67
601.762	29924.69
602.12	30134.41
602.478	30112.71
602.836	30206.04
603.194	30029.55
603.552	30196.55
603.91	30136.89
604.268	30227.51
604.625	30127.63
604.983	30148.42
605.341	30075.42
605.698	30283.33
606.056	30349.77
606.413	30366.94
606.771	30374.85
607.128	30402.65
607.485	30240.62
607.843	30246.04
608.2	30461.85
608.557	30557.67
608.914	30418.24
609.272	30575.98
609.629	30614.84
609.986	30745.46
610.343	30537.33
610.7	30796.31
611.057	30784.33
611.414	30778.23
611.771	30652.81
612.127	30819.13
612.484	30802.64
612.841	30970.77
613.198	30940.94
613.554	30993.82
613.911	31022.29
614.267	31091.22
614.624	31069.75
614.98	31078.11
615.337	31298.44
615.693	31122.4
616.05	31184.77
616.406	31377.99
616.762	31192
617.118	31297.54
617.475	31244.66
617.831	31388.16
618.187	31417.76
618.543	31432.22
618.899	31550.87
619.255	31590.64
619.611	31417.76
619.967	31606.01
620.323	31527.36
620.678	31473.81
621.034	31471.55
621.39	31585.21
621.746	31577.53
622.101	31829.95
622.457	31542.28
622.812	31730.07
623.168	31821.37
623.523	31824.53
623.879	31690.97
624.234	31606.46
624.589	31744.31
624.945	31709.28
625.3	31766
625.655	31695.95
626.01	31751.54
626.365	31779.56
626.72	31671.54
627.075	31704.76
627.43	31698.21
627.785	31639.45
628.14	31736.17
628.495	31747.92
628.85	31584.08
629.205	31422.06
629.559	31701.6
629.914	31582.95
630.269	31507.93
630.623	31485.1
630.978	31377.76
631.332	31639.22
631.687	31609.39
632.041	31336.41
632.396	31407.82
632.75	31421.83
633.104	31436.52
633.459	31278.78
633.813	31230.65
634.167	31358.78
634.521	31324.43
634.875	31354.94
635.229	31265.68
635.583	31015.29
635.937	31017.32
636.291	31001.73
636.645	31045.34
636.999	31013.48
637.352	30982.97
637.706	30824.78
638.06	30950.2
638.413	30860.26
638.767	30844.9
639.121	30953.14
639.474	30722.86
639.828	30678.8
640.181	30795.18
640.534	30740.49
640.888	30782.3
641.241	30549.08
641.594	30583.66
641.947	30711.57
642.301	30661.4
642.654	30555.19
643.007	30627.05
643.36	30422.31
643.713	30462.98
644.066	30504.57
644.419	30432.93
644.771	30248.98
645.124	29870.68
645.477	29966.27
645.83	29662.1
646.182	29637.02
646.535	29603.57
646.888	29663.23
647.24	29427.53
647.593	29650.58
647.945	29382.56
648.298	29357.02
648.65	29382.79
649.002	29270.93
649.355	29492.16
649.707	29371.26
650.059	29496.46
650.411	29865.03
650.763	29827.07
651.115	30156.55
651.467	30040.85
651.819	30032.26
652.171	30057.8
652.523	29953.85
652.875	29960.17
653.227	29842.66
653.578	30057.8
653.93	29962.66
654.282	29858.03
654.633	29791.14
654.985	29846.28
655.337	29836.56
655.688	29813.06
656.039	30034.97
656.391	29609
656.742	29834.3
657.094	29786.84
657.445	29921.3
657.796	29783.68
658.147	29730.8
658.498	29673.17
658.849	29890.12
659.2	29760.63
659.551	29651.25
659.902	29762.66
660.253	29687.64
660.604	29741.87
660.955	29648.99
661.306	29738.03
661.656	29712.5
662.007	29569
662.358	29682.89
662.708	29716.11
663.059	29702.1
663.409	29434.08
663.76	29643.34
664.11	29718.37
664.461	29639.05
664.811	29729.44
665.161	29752.04
665.511	29558.6
665.862	29662.1
666.212	29743.91
666.562	29736
666.912	29618.71
667.262	29690.8
667.612	29618.26
667.962	29658.71
668.312	29601.76
668.662	29789.78
669.011	29633.4
669.361	29565.83
669.711	29534.65
670.06	29460.52
670.41	29399.06
670.76	29345.5
671.109	29603.57
671.459	29422.56
671.808	29423.01
672.157	29561.54
672.507	29224.37
672.856	29373.97
673.205	29402.67
673.554	29413.07
673.904	29295.56
674.253	29317.93
674.602	29369.68
674.951	28803.14
675.3	28686.53
675.649	29041.33
675.998	29070.93
676.346	29142.57
676.695	29157.26
677.044	28995.23
677.393	29002.01
677.741	29101.89
678.09	28922.69
678.438	29037.71
678.787	28954.55
679.135	28963.81
679.484	28704.61
679.832	28915.45
680.181	28846.53
680.529	28884.49
680.877	28763.37
681.225	28800.88
681.573	28838.39
681.922	28549.59
682.27	28469.36
682.618	28466.88
682.966	28506.43
683.314	28469.59
683.661	28354.34
684.009	28244.29
684.357	28164.06
684.705	28182.14
685.053	28122.71
685.4	28069.6
685.748	27959.77
686.095	27974.46
686.443	27820.79
686.79	27752.55
687.138	27745.32
687.485	27818.76
687.832	27809.27
688.18	27795.94
688.527	27571.08
688.874	27399.56
689.221	27468.71
689.568	27348.49
689.915	27377.64
690.262	27418.54
690.609	27140.81
690.956	27184.65
691.303	27169.96
691.65	26933.13
691.997	26949.4
692.344	26764.1
692.69	26711.67
693.037	26702.63
693.383	26470.32
693.73	26611.79
694.077	26404.56
694.423	26508.06
694.769	26347.39
695.116	26167.73
695.462	26223.77
695.808	26052.25
696.155	26062.2
696.501	25872.6
696.847	25859.26
697.193	25626.73
697.539	25765.93
697.885	25569.1
698.231	25423.79
698.577	25499.5
698.923	25397.35
699.269	25349.67
699.614	25250.24
699.96	25136.57
700.306	25103.13
700.651	24929.57
700.997	24889.8
701.342	24846.41
701.688	24850.7
702.033	24591.27
702.379	24584.72
702.724	24554.89
703.069	24577.49
703.415	24257.95
703.76	24238.29
704.105	24313.54
704.45	24226.31
704.795	23977.51
705.14	24017.96
705.485	23989.03
705.83	23813.67
706.175	23893.89
706.52	23827.68
706.865	23664.52
707.209	23663.84
707.554	23500.46
707.899	23609.15
708.243	23488.03
708.588	23441.25
708.932	23269.95
709.277	23315.83
709.621	23315.38
709.966	23043.52
710.31	23153.12
710.654	22909.96
710.998	22948.15
711.342	23003.52
711.687	22846.46
712.031	22781.38
712.375	22781.83
712.719	22839.23
713.063	22824.32
713.407	22773.02
713.75	22707.03
714.094	22642.62
714.438	22574.38
714.782	22561.72
715.125	22416.19
715.469	22537.54
715.812	22367.83
716.156	22366.02
716.499	22269.53
716.843	22277.89
717.186	22179.13
717.53	22341.16
717.873	22209.64
718.216	22106.59
718.559	22177.55
718.902	21956.99
719.246	22100.94
719.589	22014.39
719.932	21958.58
720.275	21955.64
720.617	21914.96
720.96	21941.85
721.303	21874.06
721.646	21772.59
721.989	21791.35
722.331	21825.25
722.674	21711.58
723.016	21775.08
723.359	21728.75
723.701	21761.29
724.044	21652.37
724.386	21562.88
724.729	21723.1
725.071	21571.69
725.413	21600.84
725.755	21597
726.097	21522.2
726.439	21305.26
726.782	21434.3
727.124	21614.86
727.465	21387.74
727.807	21331.25
728.149	21337.35
728.491	21419.61
728.833	21313.62
729.175	21227.07
729.516	21275.88
729.858	21338.7
730.199	21298.48
730.541	21186.84
730.882	21251.7
731.224	21357.69
731.565	21248.09
731.906	21089.22
732.248	21282.43
732.589	21124.7
732.93	21158.37
733.271	21154.75
733.612	21207.86
733.953	21158.82
734.294	21133.51
734.635	21077.92
734.976	21141.42
735.317	20997.47
735.658	21049.45
735.999	21113.85
736.339	21101.42
736.68	21079.73
737.021	21016.45
737.361	20882.45
737.702	21158.82
738.042	21029.11
738.383	21010.35
738.723	21048.09
739.063	21027.98
739.404	21012.16
739.744	21060.52
740.084	20998.37
740.424	21050.8
740.764	20951.14
741.104	21001.99
741.444	20813.97
741.784	20887.64
742.124	20919.05
742.464	20905.5
742.804	20870.92
743.143	20932.39
743.483	20945.95
743.823	20756.57
744.162	20816.68
744.502	20874.76
744.841	20853.07
745.181	20968.54
745.52	20764.26
745.86	20793.18
746.199	20770.58
746.538	20778.04
746.877	20803.58
747.216	20779.85
747.556	20695.33
747.895	20686.74
748.234	20624.6
748.573	20672.06
748.911	20731.71
749.25	20687.2
749.589	20595.45
749.928	20660.98
750.267	20591.15
750.605	20603.13
750.944	20619.4
751.283	20653.98
751.621	20614.66
751.96	20555.22
752.298	20515.9
752.636	20503.02
752.975	20415.11
753.313	20443.13
753.651	20475
753.989	20387.54
754.327	20357.49
754.666	20232.97
755.004	20408.11
755.342	20311.61
755.679	20281.33
756.017	20216.25
756.355	20123.14
756.693	20096.03
757.031	20176.02
757.368	20021.45
757.706	20024.16
758.044	20025.74
758.381	20097.16
758.719	19858.97
759.056	19970.83
759.394	19827.78
759.731	19734.45
760.068	19733.32
760.405	19607.68
760.743	19576.94
761.08	19748.69
761.417	19574.68
761.754	19450.17
762.091	19382.37
762.428	19427.12
762.765	19307.8
763.102	19303.96
763.438	19378.76
763.775	19214.47
764.112	19263.73
764.449	19206.78
764.785	19130.4
765.122	19035.94
765.458	18926.79
765.795	19006.34
766.131	18905.1
766.467	18835.04
766.804	18793.23
767.14	18664.65
767.476	18647.48
767.812	18601.15
768.148	18574.71
768.485	18484.09
768.821	18446.58
769.157	18374.04
769.492	18298.56
769.828	18340.14
770.164	18176.75
770.5	18066.7
770.836	18025.35
771.171	17956.87
771.507	17932.24
771.842	17814.96
772.178	17793.94
772.513	17760.49
772.849	17684.34
773.184	17611.57
773.519	17593.49
773.855	17562.98
774.19	17392.82
774.525	17448.64
774.86	17429.2
775.195	17346.95
775.53	17261.98
775.865	17155.99
776.2	17041.87
776.535	17008.87
776.87	16923.23
777.205	16965.71
777.539	16866.73
777.874	16797.35
778.209	16673.29
778.543	16655.66
778.878	16506.52
779.212	16529.11
779.547	16353.3
779.881	16618.83
780.215	16368.44
780.55	16423.35
780.884	16229.46
781.218	16201.44
781.552	16211.61
781.886	16050.93
782.22	16014.1
782.554	16000.77
782.888	15821.56
783.222	15753.99
783.556	15775.01
783.889	15637.61
784.223	15619.53
784.557	15600.32
784.89	15553.32
785.224	15534.34
785.557	15459.54
785.891	15468.58
786.224	15382.48
786.558	15324.85
786.891	15217.28
787.224	15161.47
787.557	15088.25
787.891	15050.51
788.224	15035.82
788.557	14970.28
788.89	14991.07
789.223	15012.54
789.556	14871.3
789.888	14866.78
790.221	14776.39
790.554	14644.87
790.887	14741.14
791.219	14561.03
791.552	14577.53
791.884	14561.71
792.217	14431.09
792.549	14371.43
792.882	14279.68
793.214	14207.37
793.546	14295.73
793.879	14184.54
794.211	14114.94
794.543	14105.45
794.875	14142.28
795.207	14140.7
795.539	13963.53
795.871	14025.9
796.203	13904.1
796.535	13853.48
796.867	13782.29
797.198	13699.13
797.53	13716.08
797.862	13661.17
798.193	13641.28
798.525	13556.08
798.856	13525.12
799.188	13456.88
799.519	13360.38
799.85	13302.76
800.182	13352.93
800.513	13341.17
800.844	13205.36
801.175	13294.4
801.506	13263.66
801.837	13164.91
802.168	13101.41
802.499	13035.65
802.83	13059.15
803.161	12966.72
803.491	12992.03
803.822	12955.87
804.153	12893.28
804.483	12768.31
804.814	12745.94
805.145	12801.98
805.475	12708.42
805.805	12742.32
806.136	12668.2
806.466	12705.71
806.796	12612.15
807.126	12574.19
807.457	12456.23
807.787	12472.27
808.117	12489.9
808.447	12446.06
808.777	12456
809.107	12348.43
809.436	12279.51
809.766	12315.44
810.096	12230.7
810.426	12251.03
810.755	12237.25
811.085	12182.11
811.414	12117.48
811.744	12103.69
812.073	12013.98
812.403	11994.77
812.732	11955.67
813.061	11988.44
813.39	11853.76
813.719	11882.23
814.049	11949.57
814.378	11841.1
814.707	11774.21
815.036	11784.83
815.365	11719.3
815.693	11643.82
816.022	11700.54
816.351	11639.52
816.68	11528.11
817.008	11621.45
817.337	11511.39
817.665	11431.17
817.994	11508.45
818.322	11535.35
818.651	11414.22
818.979	11354.56
819.307	11364.28
819.636	11296.26
819.964	11368.12
820.292	11325.18
820.62	11300.1
820.948	11377.16
821.276	11327.22
821.604	11288.8
821.932	11338.97
822.259	11300.78
822.587	11322.02
822.915	11321.11
823.243	11298.97
823.57	11236.6
823.898	11275.69
824.225	11193.89
824.553	11161.12
824.88	11209.93
825.207	11225.07
825.535	11224.17
825.862	11284.96
826.189	11275.47
826.516	11275.47
826.843	11277.5
827.17	11243.15
827.497	11278.18
827.824	11239.76
828.151	11264.39
828.478	11203.15
828.805	11317.73
829.131	11257.84
829.458	11164.28
829.785	11091.52
830.111	11159.31
830.438	11187.56
830.764	11243.15
831.09	11307.56
831.417	11153.89
831.743	11223.26
832.069	11273.66
832.395	11155.02
832.722	11152.08
833.048	11160.44
833.374	11140.78
833.7	11057.62
834.026	11097.39
834.351	11182.36
834.677	11176.26
835.003	11171.51
835.329	11145.07
835.654	11061.46
835.98	11059.43
836.306	11129.93
836.631	11010.84
836.956	11044.96
837.282	10967.45
837.607	11011.52
837.932	10911.18
838.258	10950.28
838.583	10931.97
838.908	10809.72
839.233	10811.52
839.558	10821.24
839.883	10811.75
840.208	10765.2
840.533	10787.8
840.858	10790.73
841.182	10754.8
841.507	10758.19
841.832	10683.39
842.156	10653.79
842.481	10645.43
842.805	10646.1
843.13	10542.15
843.454	10575.37
843.778	10519.55
844.103	10528.14
844.427	10505.77
844.751	10481.81
845.075	10422.38
845.399	10441.36
845.723	10400.24
846.047	10414.02
846.371	10341.48
846.695	10356.85
847.019	10222.84
847.343	10186.23
847.666	10120.47
847.99	10106.68
848.313	10070.3
848.637	10012.67
848.96	10014.93
849.284	9945.78
849.607	9904.2
849.931	9875.73
850.254	9817.65
850.577	9811.32
850.9	9721.83
851.223	9688.39
851.546	9636.41
851.869	9549.86
852.192	9574.95
852.515	9614.49
852.838	9484.33
853.161	9445.46
853.483	9377.44
853.806	9366.14
854.129	9375.63
854.451	9422.41
854.774	9285.69
855.096	9271.23
855.419	9303.54
855.741	9297.67
856.063	9241.4
856.385	9129.08
856.708	9150.55
857.03	9107.61
857.352	9092.02
857.674	9088.41
857.996	9020.61
858.318	9003.21
858.64	8954.4
858.961	8983.55
859.283	8936.32
859.605	8891.35
859.926	8932.25
860.248	8942.42
860.57	8848.41
860.891	8822.65
861.212	8824.01
861.534	8764.35
861.855	8762.76
862.176	8769.54
862.498	8797.57
862.819	8732.26
863.14	8723.44
863.461	8706.27
863.782	8697.91
864.103	8668.3
864.424	8651.13
864.745	8672.6
865.065	8602.09
865.386	8562.77
865.707	8607.06
866.027	8567.97
866.348	8573.84
866.668	8532.49
866.989	8548.31
867.309	8452.49
867.63	8550.34
867.95	8470.57
868.27	8420.17
868.59	8441.87
868.91	8432.6
869.23	8396.45
869.55	8390.57
869.87	8472.38
870.19	8357.8
870.51	8416.56
870.83	8379.95
871.15	8305.37
871.469	8267.86
871.789	8347.41
872.109	8224.7
872.428	8284.81
872.748	8290.91
873.067	8210.24
873.386	8254.08
873.706	8245.26
874.025	8230.57
874.344	8175.43
874.663	8212.95
874.982	8179.28
875.301	8146.06
875.62	8107.41
875.939	8161.2
876.258	8170.46
876.577	8092.73
876.896	8061.31
877.214	8057.92
877.533	8022.22
877.852	8027.19
878.17	8083.91
878.489	8087.53
878.807	8044.14
879.125	8038.04
879.444	7977.47
879.762	7945.61
880.08	7920.75
880.398	7918.04
880.716	8005.72
881.034	7944.71
881.352	7931.6
881.67	7878.95
881.988	7920.53
882.306	7852.05
882.624	7834.65
882.941	7847.08
883.259	7802.34
883.577	7792.62
883.894	7785.16
884.212	7703.81
884.529	7692.06
884.846	7666.52
885.164	7630.82
885.481	7638.05
885.798	7645.28
886.115	7647.54
886.432	7632.62
886.75	7606.64
887.067	7571.16
887.383	7540.42
887.7	7602.57
888.017	7499.97
888.334	7516.24
888.651	7443.7
888.967	7470.82
889.284	7434.44
889.6	7406.42
889.917	7388.56
890.233	7396.02
890.55	7327.32
890.866	7361.67
891.182	7297.04
891.498	7259.3
891.815	7239.41
892.131	7253.88
892.447	7282.8
892.763	7164.16
893.079	7212.07
893.395	7161.45
893.71	7219.08
894.026	7123.49
894.342	7120.77
894.657	7040.78
894.973	7055.46
895.289	7016.6
895.604	7062.24
895.92	6938.86
896.235	6910.16
896.55	6941.12
896.865	6926.43
897.181	6863.6
897.496	6886.2
897.811	6836.26
898.126	6830.16
898.441	6813.66
898.756	6809.59
899.071	6728.24
899.386	6737.51
899.7	6696.15
900.015	6684.4
900.33	6594.46
900.644	6646.89
900.959	6683.72
901.273	6585.65
901.588	6580.45
901.902	6536.61
902.216	6539.32
902.531	6523.95
902.845	6490.73
903.159	6440.79
903.473	6403.05
903.787	6421.81
904.101	6358.76
904.415	6373.45
904.729	6386.56
905.042	6352.43
905.356	6292.55
905.67	6260.23
905.984	6288.48
906.297	6186.79
906.611	6202.83
906.924	6258.87
907.237	6221.59
907.551	6174.36
907.864	6124.42
908.177	6099.56
908.491	6104.75
908.804	6056.62
909.117	6026.79
909.43	6002.16
909.743	6015.94
910.056	5954.25
910.368	5960.8
910.681	5935.04
910.994	5947.7
911.307	5868.15
911.619	5808.27
911.932	5879.22
912.244	5772.56
912.557	5784.09
912.869	5722.62
913.181	5690.3
913.494	5718.78
913.806	5672.9
914.118	5678.1
914.43	5615.28
914.742	5641.26
915.054	5593.13
915.366	5563.3
915.678	5516.75
915.99	5520.36
916.302	5489.63
916.613	5476.07
916.925	5486.24
917.236	5453.25
917.548	5436.75
917.859	5446.47
918.171	5364.44
918.482	5367.37
918.794	5348.39
919.105	5336.19
919.416	5269.75
919.727	5261.16
920.038	5259.58
920.349	5219.58
920.66	5176.42
920.971	5166.93
921.282	5133.03
921.593	5105.46
921.903	5077.44
922.214	5123.09
922.525	5084.44
922.835	5047.61
923.146	5066.14
923.456	5025.91
923.767	4987.27
924.077	5014.84
924.387	4945.46
924.697	4902.07
925.008	4921.28
925.318	4918.57
925.628	4876.31
925.938	4905.92
926.248	4837.9
926.558	4812.13
926.867	4772.13
927.177	4775.52
927.487	4749.08
927.796	4708.18
928.106	4717.45
928.416	4670.22
928.725	4650.33
929.034	4626.83
929.344	4703.44
929.653	4620.05
929.962	4579.82
930.271	4516.32
930.581	4524.91
930.89	4514.51
931.199	4492.14
931.508	4506.38
931.817	4502.09
932.125	4483.33
932.434	4463.67
932.743	4436.55
933.051	4410.56
933.36	4357.91
933.669	4393.16
933.977	4366.04
934.286	4338.25
934.594	4279.04
934.902	4279.49
935.21	4253.28
935.519	4249.89
935.827	4241.53
936.135	4179.16
936.443	4187.97
936.751	4180.74
937.059	4162.21
937.367	4135.77
937.674	4179.16
937.982	4130.8
938.29	4112.49
938.597	4139.38
938.905	4045.37
939.213	4055.32
939.52	4014.41
939.827	4015.32
940.135	4009.44
940.442	3983.68
940.749	3983.45
941.056	3961.76
941.363	3922.89
941.67	3910.24
941.977	3844.02
942.284	3870.46
942.591	3854.42
942.898	3849.45
943.205	3853.51
943.511	3816.68
943.818	3774.19
944.125	3766.96
944.431	3762.9
944.738	3755.66
945.044	3738.94
945.35	3768.09
945.657	3711.6
945.963	3705.04
946.269	3643.58
946.575	3673.86
946.881	3659.4
947.187	3595.89
947.493	3586.63
947.799	3593.86
948.105	3649.9
948.41	3533.97
948.716	3540.98
949.022	3533.97
949.327	3520.64
949.633	3532.17
949.938	3499.85
950.244	3493.52
950.549	3476.35
950.854	3423.02
951.16	3459.4
951.465	3417.37
951.77	3339.18
952.075	3378.27
952.38	3362.91
952.685	3378.05
952.99	3339.86
953.294	3331.27
953.599	3326.07
953.904	3313.64
954.209	3260.08
954.513	3261.44
954.818	3218.73
955.122	3249.01
955.426	3238.39
955.731	3229.12
956.035	3188.9
956.339	3220.99
956.643	3150.48
956.948	3152.06
957.252	3136.92
957.556	3120.88
957.86	3133.31
958.163	3117.94
958.467	3108
958.771	3088.11
959.075	3068.22
959.378	3085.17
959.682	3096.47
959.985	3050.82
960.289	3018.28
960.592	3011.95
960.896	3006.76
961.199	3031.39
961.502	3000.2
961.805	2999.98
962.108	2900.32
962.411	2954.1
962.714	2911.62
963.017	2901.9
963.32	2922.47
963.623	2843.15
963.926	2919.75
964.228	2850.83
964.531	2890.6
964.833	2857.83
965.136	2869.36
965.438	2837.5
965.741	2841.56
966.043	2788.91
966.345	2785.29
966.648	2790.27
966.95	2770.15
967.252	2749.36
967.554	2744.17
967.856	2760.21
968.158	2715.47
968.46	2724.05
968.761	2696.03
969.063	2711.4
969.365	2661.91
969.666	2683.6
969.968	2658.52
970.269	2647.44
970.571	2594.56
970.872	2596.37
971.174	2606.54
971.475	2616.48
971.776	2564.96
972.077	2574.68
972.378	2550.5
972.679	2530.61
972.98	2530.39
973.281	2525.41
973.582	2534.45
973.883	2500.1
974.183	2530.61
974.484	2490.39
974.785	2479.99
975.085	2467.56
975.386	2480.9
975.686	2435.25
975.986	2430.95
976.287	2434.12
976.587	2392.31
976.887	2403.61
977.187	2407.22
977.487	2396.6
977.787	2369.03
978.087	2367.68
978.387	2359.54
978.687	2359.54
978.987	2360.22
979.286	2291.97
979.586	2302.82
979.885	2294.46
980.185	2319.32
980.484	2258.53
980.784	2299.88
981.083	2293.56
981.382	2247.46
981.682	2239.32
981.981	2258.53
982.28	2234.12
982.579	2211.98
982.878	2229.83
983.177	2219.66
983.475	2195.93
983.774	2212.2
984.073	2199.09
984.372	2138.53
984.67	2136.72
984.969	2155.48
985.267	2134.24
985.566	2093.33
985.864	2114.13
986.162	2129.04
986.461	2100.57
986.759	2113.22
987.057	2083.62
987.355	2072.32
987.653	2040.68
987.951	2068.48
988.249	2039.78
988.547	2044.07
988.844	2042.26
989.142	2044.97
989.44	2007.01
989.737	2012.66
990.035	1956.39
990.332	1995.03
990.63	1965.43
990.927	1953.9
991.224	1954.36
991.521	1943.73
991.819	1930.63
992.116	1971.98
992.413	1922.04
992.71	1906.22
993.006	1905.54
993.303	1882.04
993.6	1869.61
993.897	1895.83
994.193	1854.7
994.49	1847.92
994.787	1863.96
995.083	1823.51
995.379	1816.05
995.676	1833
995.972	1829.61
996.268	1806.79
996.565	1799.33
996.861	1773.34
997.157	1794.13
997.453	1768.82
997.749	1762.72
998.044	1770.41
998.34	1763.85
998.636	1717.53
998.932	1734.7
999.227	1722.95
999.523	1694.02
999.818	1681.14
1000.114	1686.79
1000.409	1717.3
1000.704	1663.97
1001	1662.84
1001.295	1677.53
1001.59	1664.65
1001.885	1652.67
1002.18	1657.64
1002.475	1647.24
1002.77	1591.2
1003.065	1620.58
1003.359	1581.71
1003.654	1595.95
1003.949	1582.16
1004.243	1609.28
1004.538	1568.15
1004.832	1530.41
1005.127	1544.42
1005.421	1539.9
1005.715	1552.78
1006.009	1527.25
1006.304	1512.56
1006.598	1519.11
1006.892	1509.85
1007.186	1499.68
1007.48	1493.35
1007.773	1467.14
1008.067	1487.7
1008.361	1454.26
1008.655	1437.31
1008.948	1474.59
1009.242	1446.35
1009.535	1468.94
1009.829	1420.58
1010.122	1415.84
1010.415	1404.77
1010.708	1404.77
1011.001	1390.08
1011.295	1403.18
1011.588	1400.92
1011.881	1376.07
1012.173	1362.05
1012.466	1374.94
1012.759	1366.57
1013.052	1334.94
1013.344	1364.31
1013.637	1311.89
1013.93	1337.42
1014.222	1334.03
1014.514	1328.16
1014.807	1314.15
1015.099	1294.94
1015.391	1307.59
1015.683	1285.22
1015.976	1303.07
1016.268	1293.81
1016.56	1281.6
1016.851	1267.82
1017.143	1251.55
1017.435	1200.02
1017.727	1225.11
1018.018	1214.26
1018.31	1221.27
1018.602	1229.85
1018.893	1214.26
1019.185	1199.12
1019.476	1200.48
1019.767	1189.4
1020.058	1162.96
1020.35	1165
1020.641	1166.58
1020.932	1155.28
1021.223	1133.81
1021.514	1127.48
1021.804	1169.52
1022.095	1109.63
1022.386	1118.67
1022.677	1127.94
1022.967	1125
1023.258	1112.8
1023.548	1073.7
1023.839	1070.99
1024.129	1094.49
1024.419	1078.67
1024.709	1076.19
1025	1056.98
1025.29	1042.29
1025.58	1037.32
1025.87	1034.61
1026.16	1033.25
1026.449	1027.83
1026.739	1032.57
1027.029	997.77
1027.319	1038.67
1027.608	1011.1
1027.898	1001.84
1028.187	978.79
1028.477	990.99
1028.766	970.2
1029.055	967.26
1029.344	971.78
1029.634	971.33
1029.923	971.78
1030.212	962.52
1030.501	974.72
1030.79	958.22
1031.078	919.58
1031.367	957.77
1031.656	927.26
1031.945	914.83
1032.233	919.13
1032.522	899.47
1032.81	894.04
1033.099	901.95
1033.387	885.68
1033.675	891.33
1033.963	889.3
1034.251	884.1
1034.54	893.82
1034.828	867.6
1035.116	864.67
1035.403	847.27
1035.691	861.28
1035.979	849.07
1036.267	835.29
1036.554	842.29
1036.842	817.89
1037.129	826.25
1037.417	821.73
1037.704	814.27
1037.992	795.29
1038.279	811.56
1038.566	808.85
1038.853	808.85
1039.14	808.85
