Data from tablewood_brown_FLMS001491_084.txt Node
Date: Tue Feb 07 11:11:07 GMT 2017
User: dcchb
Spectrometer: FLMS00149
Trigger mode: 0
Integration Time (sec): 2.000000E-2
Scans to average: 10
Electric dark correction enabled: true
Nonlinearity correction enabled: false
Boxcar width: 0
XAxis mode: Wavelengths
Number of Pixels in Spectrum: 2048
>>>>>Begin Spectral Data<<<<<
341.393	-10.54
341.776	-10.54
342.16	-10.54
342.543	-48.28
342.927	-68.39
343.31	-54.15
343.693	-55.96
344.077	-58.44
344.46	-61.38
344.843	-68.61
345.226	-42.85
345.61	-36.3
345.993	-13.25
346.376	-2.85
346.759	17.71
347.142	25.62
347.525	34.21
347.908	45.28
348.291	68.33
348.674	92.96
349.057	109.69
349.44	103.13
349.823	140.65
350.206	143.36
350.588	191.94
350.971	205.73
351.354	228.33
351.737	227.65
352.119	246.18
352.502	266.52
352.884	286.4
353.267	289.12
353.65	303.35
354.032	294.77
354.414	301.55
354.797	318.27
355.179	329.57
355.562	314.88
355.944	330.7
356.326	342.9
356.709	329.57
357.091	334.77
357.473	346.29
357.855	335.22
358.238	340.87
358.62	363.01
359.002	364.37
359.384	351.49
359.766	345.61
360.148	328.89
360.53	326.4
360.912	322.79
361.294	327.99
361.676	356.46
362.057	337.7
362.439	344.48
362.821	327.31
363.203	338.38
363.584	332.96
363.966	336.8
364.348	332.28
364.729	339.51
365.111	325.05
365.493	321.21
365.874	318.72
366.256	320.98
366.637	336.35
367.019	332.05
367.4	314.65
367.781	331.38
368.163	321.43
368.544	326.4
368.925	317.36
369.306	341.32
369.688	325.27
370.069	320.08
370.45	309.46
370.831	345.84
371.212	341.32
371.593	334.09
371.974	330.02
372.355	321.66
372.736	337.7
373.117	319.62
373.498	325.27
373.879	320.08
374.26	335.67
374.641	327.99
375.021	342.67
375.402	340.87
375.783	359.17
376.163	358.72
376.544	364.37
376.925	332.51
377.305	329.34
377.686	344.71
378.066	371.15
378.447	335.67
378.827	350.36
379.208	360.75
379.588	343.35
379.968	361.66
380.349	345.16
380.729	363.92
381.109	337.48
381.489	343.35
381.87	365.95
382.25	370.92
382.63	352.17
383.01	388.55
383.39	369.11
383.77	389.68
384.15	380.87
384.53	376.57
384.91	376.35
385.29	397.59
385.67	397.59
386.049	405.05
386.429	381.09
386.809	391.71
387.189	383.8
387.568	393.97
387.948	386.29
388.328	391.71
388.707	388.32
389.087	402.79
389.466	392.39
389.846	412.5
390.225	412.28
390.605	411.6
390.984	405.95
391.363	415.22
391.743	403.92
392.122	422.45
392.501	439.17
392.881	440.3
393.26	449.79
393.639	442.33
394.018	449.34
394.397	439.4
394.776	437.14
395.155	456.34
395.534	432.39
395.913	438.49
396.292	451.37
396.671	460.64
397.05	469.22
397.429	474.65
397.808	472.84
398.186	430.81
398.565	486.63
398.944	476
399.323	476
399.701	488.66
400.08	507.87
400.458	514.87
400.837	475.33
401.215	490.92
401.594	501.31
401.972	529.56
402.351	518.26
402.729	503.8
403.107	517.13
403.486	505.83
403.864	515.33
404.242	530.01
404.62	513.74
404.999	529.79
405.377	543.57
405.755	541.09
406.133	565.72
406.511	535.44
406.889	573.18
407.267	594.19
407.645	562.1
408.023	579.5
408.401	584.48
408.779	577.92
409.156	574.98
409.534	600.29
409.912	593.74
410.29	599.62
410.667	621.99
411.045	616.11
411.422	619.73
411.8	650.92
412.178	627.41
412.555	638.71
412.933	630.58
413.31	650.24
413.687	661.99
414.065	670.35
414.442	659.95
414.819	677.36
415.197	664.25
415.574	691.37
415.951	712.16
416.328	730.24
416.705	682.1
417.082	672.84
417.46	707.64
417.837	711.7
418.214	739.73
418.591	733.62
418.967	749.67
419.344	713.29
419.721	748.09
420.098	720.29
420.475	776.34
420.852	767.3
421.228	760.52
421.605	773.85
421.982	773.4
422.358	774.53
422.735	760.29
423.111	801.65
423.488	775.66
423.864	798.26
424.241	813.4
424.617	815.66
424.994	804.58
425.37	840.06
425.746	840.06
426.123	836.22
426.499	853.17
426.875	867.86
427.251	873.06
427.627	886.84
428.003	881.64
428.379	887.07
428.756	903.11
429.132	909.44
429.507	933.62
429.883	921.64
430.259	925.26
430.635	944.01
431.011	945.37
431.387	975.43
431.763	992.15
432.138	986.05
432.514	1002.32
432.89	992.15
433.265	1035.31
433.641	1007.29
434.016	1047.06
434.392	1065.59
434.767	1075.99
435.143	1078.93
435.518	1084.35
435.894	1081.19
436.269	1097.91
436.644	1116.67
437.02	1125.7
437.395	1120.51
437.77	1146.04
438.145	1179.04
438.52	1176.33
438.895	1183.56
439.271	1194.63
439.646	1216.1
440.021	1206.83
440.395	1222.43
440.77	1230.33
441.145	1268.53
441.52	1245.93
441.895	1272.14
442.27	1280.5
442.645	1261.29
443.019	1271.69
443.394	1268.3
443.769	1304.01
444.143	1294.51
444.518	1309.2
444.892	1329.77
445.267	1350.56
445.641	1335.87
446.016	1348.07
446.39	1346.26
446.764	1374.51
447.139	1368.41
447.513	1377.68
447.887	1406.83
448.262	1395.3
448.636	1377.68
449.01	1445.02
449.384	1443.21
449.758	1434.4
450.132	1464.9
450.506	1494.28
450.88	1459.26
451.254	1481.85
451.628	1486.83
452.002	1485.7
452.376	1520.5
452.75	1540.38
453.123	1552.36
453.497	1579.48
453.871	1589.87
454.244	1628.97
454.618	1620.83
454.992	1622.64
455.365	1611.12
455.739	1674.17
456.112	1683.2
456.486	1729.76
456.859	1727.27
457.232	1699.93
457.606	1738.57
457.979	1750.1
458.352	1788.29
458.725	1812.69
459.099	1817.66
459.472	1838.23
459.845	1863.09
460.218	1890.66
460.591	1890.2
460.964	1890.66
461.337	1938.11
461.71	1962.97
462.083	1990.54
462.456	2017.66
462.829	2029.41
463.201	2059.24
463.574	2095.85
463.947	2114.15
464.32	2170.65
464.692	2166.36
465.065	2207.03
465.438	2196.41
465.81	2262.62
466.183	2284.77
466.555	2339.46
466.928	2374.03
467.3	2378.33
467.672	2424.88
468.045	2440.7
468.417	2494.03
468.789	2503.75
469.161	2533.13
469.534	2588.72
469.906	2657.42
470.278	2639.79
470.65	2669.17
471.022	2731.99
471.394	2756.4
471.766	2827.36
472.138	2842.5
472.51	2922.95
472.882	2990.06
473.253	2988.48
473.625	3061.47
473.997	3143.73
474.369	3139.66
474.74	3212.2
475.112	3265.08
475.484	3317.74
475.855	3386.89
476.227	3448.58
476.598	3527
476.97	3610.39
477.341	3674.11
477.713	3728.8
478.084	3777.84
478.455	3876.37
478.827	3908.46
479.198	4047.66
479.569	4055.35
479.94	4162.46
480.311	4230.93
480.682	4339.86
481.053	4431.83
481.424	4517.71
481.795	4587.08
482.166	4657.82
482.537	4750.24
482.908	4844.7
483.279	4911.59
483.65	4952.04
484.021	5094.19
484.391	5224.58
484.762	5225.48
485.133	5305.71
485.503	5366.05
485.874	5456.21
486.244	5520.84
486.615	5622.54
486.985	5759.48
487.356	5824.34
487.726	5878.12
488.097	5968.97
488.467	6028.4
488.837	6192.01
489.207	6280.82
489.578	6342.06
489.948	6404.66
490.318	6523.08
490.688	6520.59
491.058	6638.78
491.428	6780.92
491.798	6830.64
492.168	6955.61
492.538	6985.66
492.908	7079.9
493.278	7154.47
493.648	7150.41
494.017	7317.86
494.387	7370.06
494.757	7414.13
495.126	7439.66
495.496	7547.91
495.866	7585.42
496.235	7692.99
496.605	7766.66
496.974	7800.56
497.344	7936.83
497.713	7992.42
498.082	7990.84
498.452	8076.48
498.821	8155.12
499.19	8163.71
499.559	8268.34
499.928	8338.62
500.298	8407.32
500.667	8437.6
501.036	8478.51
501.405	8602.57
501.774	8617.26
502.143	8721.21
502.512	8745.39
502.88	8874.43
503.249	8842.34
503.618	8895.67
503.987	8966.4
504.356	9037.59
504.724	9103.8
505.093	9180.63
505.462	9199.39
505.83	9268.99
506.199	9355.09
506.567	9397.58
506.936	9494.75
507.304	9607.52
507.672	9609.32
508.041	9685.03
508.409	9760.05
508.777	9784.69
509.145	9950.11
509.514	10011.35
509.882	10085.7
510.25	10078.69
510.618	10181.29
510.986	10241.4
511.354	10326.82
511.722	10447.72
512.09	10533.59
512.458	10562.29
512.826	10635.74
513.193	10753.93
513.561	10820.37
513.929	10973.36
514.297	11049.96
514.664	11106.69
515.032	11124.31
515.4	11268.94
515.767	11240.47
516.135	11360.46
516.502	11413.57
516.869	11540.8
517.237	11569.5
517.604	11690.4
517.972	11805.2
518.339	11828.93
518.706	11937.17
519.073	12001.13
519.44	12126.55
519.808	12240.67
520.175	12279.08
520.542	12499.87
520.909	12515.69
521.276	12613.09
521.643	12740.77
522.009	12841.1
522.376	12926.98
522.743	13100.31
523.11	13154.32
523.477	13274.76
523.843	13349.56
524.21	13606.51
524.577	13648.31
524.943	13640.86
525.31	13807.18
525.676	13964.01
526.043	13933.96
526.409	14068.64
526.776	14347.96
527.142	14276.77
527.508	14377.56
527.874	14580.94
528.241	14614.62
528.607	14649.42
528.973	14833.59
529.339	14823.88
529.705	14994.27
530.071	15078.78
530.437	15203.3
530.803	15206.92
531.169	15373.92
531.535	15390.41
531.901	15507.47
532.267	15483.97
532.632	15617.3
532.998	15643.06
533.364	15820.01
533.73	15787.24
534.095	16053.9
534.461	16136.16
534.826	16164.63
535.192	16270.84
535.557	16434
535.923	16354.01
536.288	16370.73
536.653	16516.26
537.019	16530.5
537.384	16630.38
537.749	16668.8
538.114	16776.59
538.479	16758.51
538.845	16835.35
539.21	16923.71
539.575	17094.1
539.94	17074.66
540.305	17185.62
540.67	17151.95
541.034	17245.06
541.399	17337.48
541.764	17308.78
542.129	17388.78
542.494	17397.14
542.858	17497.25
543.223	17593.52
543.587	17721.88
543.952	17705.16
544.316	17772.5
544.681	17820.86
545.045	17933.17
545.41	17967.97
545.774	18111.7
546.138	18128.42
546.503	18188.99
546.867	18161.87
547.231	18277.12
547.595	18367.51
547.959	18504.91
548.324	18481.41
548.688	18530.9
549.052	18605.02
549.416	18687.28
549.779	18718.01
550.143	18817.9
550.507	18926.37
550.871	18966.14
551.235	19027.61
551.599	19330.65
551.962	19336.75
552.326	19386.92
552.689	19475.5
553.053	19569.29
553.417	19631.66
553.78	19829.17
554.143	19839.34
554.507	19934.25
554.87	20042.72
555.234	20259.67
555.597	20210.85
555.96	20368.14
556.323	20494.24
556.686	20548.7
557.05	20729.94
557.413	20771.52
557.776	20916.37
558.139	21196.14
558.502	21212.86
558.865	21335.34
559.228	21567.65
559.59	21677.71
559.953	21731.72
560.316	22010.58
560.679	21959.73
561.041	22210.12
561.404	22442.88
561.767	22545.48
562.129	22510.23
562.492	22774.18
562.854	22888.97
563.217	23122.41
563.579	23258.46
563.941	23357.44
564.304	23475.4
564.666	23801.94
565.028	23900.02
565.39	23970.08
565.753	24148.6
566.115	24254.36
566.477	24494.81
566.839	24645.99
567.201	24925.76
567.563	24924.18
567.925	25179.76
568.287	25248.91
568.648	25365.97
569.01	25626.98
569.372	25800.08
569.734	25859.52
570.095	26166.85
570.457	26385.61
570.819	26412.72
571.18	26634.86
571.542	26735.65
571.903	26832.83
572.265	26962.77
572.626	27268.07
572.987	27325.92
573.349	27515.29
573.71	27722.07
574.071	27786.25
574.432	28083.64
574.794	28363.18
575.155	28419.22
575.516	28485.44
575.877	28671.65
576.238	28846.11
576.599	28941.24
576.96	28979.21
577.32	29111.64
577.681	29232.99
578.042	29453.32
578.403	29603.37
578.763	29545.75
579.124	29779.64
579.485	30070.25
579.845	30160.2
580.206	30101.89
580.566	30250.36
580.927	30371.49
581.287	30634.31
581.648	30596.79
582.008	30844.47
582.368	30754.08
582.728	30779.84
583.089	30883.34
583.449	30990.68
583.809	30985.03
584.169	31136.89
584.529	31140.51
584.889	31466.83
585.249	31179.38
585.609	31289.66
585.969	31646.03
586.329	31477.45
586.688	31528.97
587.048	31540.27
587.408	31483.78
587.768	31676.99
588.127	31596.32
588.487	31583.44
588.846	31819.36
589.206	31710.21
589.565	31796.31
589.925	31909.3
590.284	31866.14
590.643	32020.71
591.003	31985.91
591.362	32140.71
591.721	32069.07
592.08	32319.01
592.44	32274.94
592.799	32229.07
593.158	32288.28
593.517	32231.33
593.876	32273.13
594.235	32304.32
594.593	32369.4
594.952	32407.59
595.311	32302.74
595.67	32437.2
596.029	32671.09
596.387	32628.83
596.746	32727.59
597.104	32548.61
597.463	32472.68
597.822	32702.73
598.18	32565.78
598.538	32583.63
598.897	32792.44
599.255	32645.55
599.613	33013.68
599.972	32742.95
600.33	32877.19
600.688	32700.47
601.046	32956.73
601.404	33069.5
601.762	32950.18
602.12	33143.62
602.478	33186.56
602.836	33148.59
603.194	32996.73
603.552	33172.32
603.91	32882.16
604.268	33114.24
604.625	33008.48
604.983	33150.17
605.341	33041.48
605.698	33252.77
606.056	33176.39
606.413	33246.22
606.771	33331.64
607.128	33426.55
607.485	33248.48
607.843	33444.63
608.2	33443.73
608.557	33682.14
608.914	33450.28
609.272	33747.45
609.629	33677.84
609.986	33849.59
610.343	33588.58
610.7	33918.97
611.057	33734.56
611.414	33785.41
611.771	33831.06
612.127	33869.25
612.484	33949.02
612.841	34006.65
613.198	34022.02
613.554	34037.16
613.911	34125.06
614.267	34154.89
614.624	34081
614.98	34180.43
615.337	34360.09
615.693	34277.83
616.05	34311.72
616.406	34392.4
616.762	34316.02
617.118	34420.2
617.475	34636.46
617.831	34575.9
618.187	34568.67
618.543	34615.22
618.899	34725.5
619.255	34689.34
619.611	34627.42
619.967	34723.01
620.323	34728.44
620.678	34754.88
621.034	34718.49
621.39	34619.51
621.746	34667.87
622.101	34979.73
622.457	34774.54
622.812	34782
623.168	34903.35
623.523	34908.55
623.879	35001.65
624.234	34765.27
624.589	34840.75
624.945	34871.71
625.3	34890.24
625.655	35009.11
626.01	34860.64
626.365	34872.61
626.72	34889.79
627.075	34794.42
627.43	34821.99
627.785	34735.44
628.14	34711.04
628.495	34815.67
628.85	34746.06
629.205	34776.35
629.559	34903.57
629.914	34627.65
630.269	34650.7
630.623	34626.07
630.978	34483.47
631.332	34706.06
631.687	34725.27
632.041	34570.48
632.396	34677.82
632.75	34523.02
633.104	34512.62
633.459	34439.86
633.813	34468.33
634.167	34358.73
634.521	34371.84
634.875	34468.33
635.229	34382.68
635.583	34264.04
635.937	34354.44
636.291	34241.67
636.645	34193.99
636.999	34018.17
637.352	34205.74
637.706	34021.56
638.06	34097.04
638.413	34108.34
638.767	34010.72
639.121	33969.81
639.474	33747.45
639.828	33807.56
640.181	33932.75
640.534	33822.47
640.888	33661.35
641.241	33580.22
641.594	33608.47
641.947	33760.55
642.301	33665.19
642.654	33615.7
643.007	33602.59
643.36	33568.92
643.713	33492.31
644.066	33642.36
644.419	33517.62
644.771	33287.12
645.124	33052.77
645.477	33023.4
645.83	32795.15
646.182	32574.14
646.535	32467.71
646.888	32554.71
647.24	32430.87
647.593	32484.2
647.945	32452.79
648.298	32370.99
648.65	32274.94
649.002	32194.27
649.355	32356.75
649.707	32311.1
650.059	32538.66
650.411	32850.52
650.763	33039.67
651.115	33275.37
651.467	32970.29
651.819	33244.63
652.171	33047.8
652.523	33047.13
652.875	32992.66
653.227	32902.27
653.578	33083.51
653.93	32944.98
654.282	32888.26
654.633	32795.83
654.985	32896.17
655.337	32941.59
655.688	32950.63
656.039	33081.7
656.391	32733.46
656.742	32800.8
657.094	32772.56
657.445	32981.14
657.796	32870.86
658.147	32916.73
658.498	32819.79
658.849	32889.39
659.2	32847.81
659.551	32742.27
659.902	32848.49
660.253	32716.74
660.604	32704.31
660.955	32649.85
661.306	32904.08
661.656	32777.08
662.007	32845.55
662.358	32661.37
662.708	32728.04
663.059	32799.45
663.409	32552.45
663.76	32814.14
664.11	32656.4
664.461	32754.48
664.811	32568.04
665.161	32693.24
665.511	32632.22
665.862	32702.73
666.212	32671.09
666.562	32864.98
666.912	32802.39
667.262	32556.52
667.612	32719.22
667.962	32772.33
668.312	32787.7
668.662	32857.53
669.011	32678.1
669.361	32606.46
669.711	32502.06
670.06	32587.93
670.41	32524.88
670.76	32504.77
671.109	32620.02
671.459	32509.06
671.808	32440.81
672.157	32536.86
672.507	32373.92
672.856	32371.66
673.205	32302.51
673.554	32394.04
673.904	32298.67
674.253	32467.71
674.602	32359.01
674.951	31919.25
675.3	31742.07
675.649	32243.76
675.998	32326.92
676.346	32178.9
676.695	32396.52
677.044	32040.6
677.393	32219.8
677.741	32086.02
678.09	32023.2
678.438	31899.13
678.787	31923.99
679.135	32007.15
679.484	31797.67
679.832	31836.31
680.181	31841.28
680.529	31821.39
680.877	31677.9
681.225	31738.91
681.573	31909.75
681.922	31437
682.27	31452.82
682.618	31559.48
682.966	31359.26
683.314	31543.44
683.661	31358.13
684.009	31127.85
684.357	31169.21
684.705	31126.05
685.053	31143.67
685.4	31128.53
685.748	30933.06
686.095	30848.54
686.443	30741.42
686.79	30691.71
687.138	30813.29
687.485	30775.55
687.832	30606.51
688.18	30710.24
688.527	30514.54
688.874	30321.55
689.221	30284.94
689.568	30326.74
689.915	30176.24
690.262	30087.2
690.609	30178.5
690.956	29997.04
691.303	30016.92
691.65	29867.1
691.997	29825.06
692.344	29643.15
692.69	29532.64
693.037	29536.26
693.383	29308.47
693.73	29388.92
694.077	29173.1
694.423	29303.95
694.769	29172.43
695.116	29098.53
695.462	29020.79
695.808	28996.16
696.155	28954.8
696.501	28714.36
696.847	28715.04
697.193	28449.96
697.539	28489.73
697.885	28335.16
698.231	28257.19
698.577	28101.94
698.923	28104.66
699.269	27949.86
699.614	27800.48
699.96	27776.3
700.306	27772.69
700.651	27735.17
700.997	27628.28
701.342	27595.97
701.688	27412.25
702.033	27393.94
702.379	27400.27
702.724	27113.72
703.069	27270.78
703.415	26900.85
703.76	27004.35
704.105	26935.2
704.45	26862.88
704.795	26711.02
705.14	26562.32
705.485	26438.26
705.83	26412.95
706.175	26508.09
706.52	26381.54
706.865	26271.71
707.209	26280.3
707.554	26135.89
707.899	26302.44
708.243	25884.6
708.588	25913.08
708.932	25813.87
709.277	25789.24
709.621	25846.64
709.966	25702.69
710.31	25702.01
710.654	25516.7
710.998	25529.13
711.342	25472.18
711.687	25400.55
712.031	25194.22
712.375	25159.88
712.719	25340.21
713.063	25188.57
713.407	25194
713.75	25049.14
714.094	24992.87
714.438	25012.31
714.782	25019.31
715.125	24973.89
715.469	24975.02
715.812	24824.29
716.156	24702.03
716.499	24849.37
716.843	24737.74
717.186	24624.3
717.53	24687.57
717.873	24673.11
718.216	24632.43
718.559	24464.3
718.902	24361.03
719.246	24433.11
719.589	24294.36
719.932	24214.36
720.275	24292.78
720.617	24239.9
720.96	24271.08
721.303	24260.92
721.646	24117.19
721.989	24038.1
722.331	24209.39
722.674	24090.52
723.016	24091.65
723.359	24046.46
723.701	24180.24
724.044	23934.14
724.386	23887.82
724.729	24012.33
725.071	23868.16
725.413	23864.09
725.755	23912
726.097	23808.95
726.439	23767.14
726.782	23836.07
727.124	23770.99
727.465	23730.99
727.807	23667.71
728.149	23650.54
728.491	23646.02
728.833	23698.44
729.175	23641.5
729.516	23510.43
729.858	23606.02
730.199	23702.74
730.541	23623.42
730.882	23605.34
731.224	23646.92
731.565	23441.73
731.906	23512.91
732.248	23636.98
732.589	23484.89
732.93	23424.55
733.271	23492.12
733.612	23369.19
733.953	23524.89
734.294	23438.34
734.635	23435.63
734.976	23470.88
735.317	23382.52
735.658	23349.98
735.999	23418
736.339	23364.22
736.68	23490.31
737.021	23354.72
737.361	23354.95
737.702	23371.67
738.042	23313.14
738.383	23350.43
738.723	23326.48
739.063	23315.4
739.404	23347.27
739.744	23352.47
740.084	23167.39
740.424	23327.38
740.764	23235.18
741.104	23355.63
741.444	23217.78
741.784	23288.29
742.124	23198.34
742.464	23302.52
742.804	23096.43
743.143	23171.45
743.483	23162.64
743.823	23089.2
744.162	23089.65
744.502	23245.35
744.841	23124.9
745.181	23162.41
745.52	23078.12
745.86	23091.68
746.199	23145.01
746.538	23144.11
746.877	23147.27
747.216	23164.22
747.556	23130.32
747.895	23059.14
748.234	23062.53
748.573	22992.02
748.911	22997.45
749.25	23023.21
749.589	23001.29
749.928	23082.42
750.267	23076.09
750.605	23021.85
750.944	22967.16
751.283	22837.68
751.621	22961.97
751.96	22846.26
752.298	22816.43
752.636	22861.18
752.975	22715.19
753.313	22803.55
753.651	22902.99
753.989	22634.29
754.327	22698.92
754.666	22657.12
755.004	22658.47
755.342	22628.87
755.679	22538.02
756.017	22470.23
756.355	22531.47
756.693	22457.57
757.031	22392.26
757.368	22381.64
757.706	22257.35
758.044	22264.81
758.381	22202.66
758.719	22288.76
759.056	22271.14
759.394	22124.7
759.731	22055.32
760.068	21985.72
760.405	21974.42
760.743	21806.97
761.08	21917.7
761.417	21805.84
761.754	21732.39
762.091	21730.36
762.428	21687.65
762.765	21563.59
763.102	21620.31
763.438	21385.74
763.775	21523.13
764.112	21411.73
764.449	21453.98
764.785	21398.84
765.122	21187.1
765.458	21172.64
765.795	21193.43
766.131	21094.22
766.467	20957.5
766.804	20927.44
767.14	20857.84
767.476	20900.33
767.812	20758.86
768.148	20704.63
768.485	20723.61
768.821	20572.43
769.157	20465.76
769.492	20428.47
769.828	20410.4
770.164	20164.98
770.5	20264.86
770.836	20167.92
771.171	20053.34
771.507	19979.22
771.842	20015.6
772.178	19798.21
772.513	19836.17
772.849	19760.47
773.184	19713.01
773.519	19685.44
773.855	19592.11
774.19	19539.91
774.525	19476.41
774.86	19409.74
775.195	19362.51
775.53	19341.72
775.865	19241.39
776.2	19102.86
776.535	18986.7
776.87	18968.85
777.205	18969.53
777.539	18804.56
777.874	18818.8
778.209	18660.84
778.543	18624.45
778.878	18418.36
779.212	18483.44
779.547	18334.97
779.881	18432.59
780.215	18282.54
780.55	18305.14
780.884	18268.53
781.218	18117.12
781.552	18083.45
781.886	18029.89
782.22	17927.75
782.554	17850.01
782.888	17650.47
783.222	17643.01
783.556	17608.21
783.889	17598.72
784.223	17502.22
784.557	17430.36
784.89	17424.49
785.224	17245.06
785.557	17184.04
785.891	17262.91
786.224	17185.4
786.558	17146.75
786.891	16997.6
787.224	16963.25
787.557	16940.2
787.891	16742.92
788.224	16852.3
788.557	16867.66
788.89	16692.08
789.223	16696.37
789.556	16639.42
789.888	16483.72
790.221	16569.14
790.554	16394.46
790.887	16356.04
791.219	16264.52
791.552	16279.88
791.884	16122.6
792.217	16038.53
792.549	16144.52
792.882	16029.72
793.214	15969.83
793.546	15912.66
793.879	15850.06
794.211	15811.87
794.543	15855.04
794.875	15728.71
795.207	15837.86
795.539	15712.21
795.871	15691.42
796.203	15461.83
796.535	15434.03
796.867	15407.36
797.198	15405.56
797.53	15312.22
797.862	15269.06
798.193	15281.94
798.525	15161.49
798.856	15108.84
799.188	15038.33
799.519	14972.57
799.85	14867.94
800.182	14813.25
800.513	14902.52
800.844	14738
801.175	14873.82
801.506	14822.75
801.837	14716.53
802.168	14746.36
802.499	14689.87
802.83	14556.76
803.161	14409.2
803.491	14526.03
803.822	14519.03
804.153	14448.07
804.483	14297.11
804.814	14379.82
805.145	14286.94
805.475	14265.47
805.805	14253.27
806.136	14210.78
806.466	14150
806.796	14161.29
807.126	14049.66
807.457	13940.28
807.787	13969.66
808.117	13885.82
808.447	13866.16
808.777	13818.48
809.107	13838.36
809.436	13770.34
809.766	13698.03
810.096	13663.45
810.426	13684.92
810.755	13693.74
811.085	13602.44
811.414	13576.9
811.744	13496.23
812.073	13486.06
812.403	13502.55
812.732	13347.3
813.061	13435.89
813.39	13390.47
813.719	13357.47
814.049	13326.29
814.378	13282.9
814.707	13282.67
815.036	13199.51
815.365	13065.96
815.693	13035
816.022	13000.42
816.351	13008.78
816.68	12937.82
817.008	13039.74
817.337	12919.75
817.665	12913.42
817.994	12863.48
818.322	12856.92
818.651	12780.54
818.979	12729.92
819.307	12808.79
819.636	12712.07
819.964	12638.85
820.292	12719.52
820.62	12675.68
820.948	12641.56
821.276	12684.05
821.604	12687.89
821.932	12686.76
822.259	12629.36
822.587	12633.2
822.915	12567.21
823.243	12616.25
823.57	12481.11
823.898	12638.17
824.225	12518.85
824.553	12487.67
824.88	12535.12
825.207	12570.83
825.535	12548.23
825.862	12639.98
826.189	12548.91
826.516	12612.63
826.843	12585.97
827.17	12577.83
827.497	12596.36
827.824	12631.17
828.151	12607.89
828.478	12608.57
828.805	12598.4
829.131	12585.74
829.458	12489.47
829.785	12512.52
830.111	12534.9
830.438	12564.5
830.764	12618.96
831.09	12594.33
831.417	12506.42
831.743	12542.13
832.069	12489.93
832.395	12530.6
832.722	12510.72
833.048	12484.95
833.374	12490.15
833.7	12418.29
834.026	12510.94
834.351	12523.37
834.677	12487.67
835.003	12507.1
835.329	12411.06
835.654	12466.42
835.98	12416.93
836.306	12387.33
836.631	12300.33
836.956	12400.89
837.282	12361.34
837.607	12303.26
837.932	12192.31
838.258	12280.89
838.583	12213.55
838.908	12035.7
839.233	12202.48
839.558	12109.6
839.883	12153.89
840.208	12074.12
840.533	12064.85
840.858	12009.71
841.182	12065.3
841.507	12084.29
841.832	11969.49
842.156	11955.02
842.481	11973.56
842.805	11923.61
843.13	11901.69
843.454	11856.95
843.778	11813.11
844.103	11763.84
844.427	11718.19
844.751	11824.41
845.075	11749.83
845.399	11638.42
845.723	11555.04
846.047	11567.24
846.371	11549.16
846.695	11579.67
847.019	11386.45
847.343	11381.25
847.666	11227.59
847.99	11333.8
848.313	11271.65
848.637	11211.77
848.96	11194.14
849.284	11164.31
849.607	11139
849.931	11068.27
850.254	10983.07
850.577	10899.01
850.9	10840.03
851.223	10842.06
851.546	10861.95
851.869	10771.1
852.192	10778.33
852.515	10675.06
852.838	10640.03
853.161	10600.71
853.483	10530.88
853.806	10563.87
854.129	10483.65
854.451	10487.04
854.774	10466.48
855.096	10428.29
855.419	10360.94
855.741	10341.73
856.063	10276.2
856.385	10295.41
856.708	10184.9
857.03	10185.58
857.352	10272.58
857.674	10184.9
857.996	10176.31
858.318	10125.69
858.64	10008.64
858.961	10140.84
859.283	10048.41
859.605	9985.81
859.926	10011.8
860.248	9980.16
860.57	9944.91
860.891	9964.12
861.212	9875.31
861.534	9824.69
861.855	9908.98
862.176	9853.38
862.498	9906.04
862.819	9852.71
863.14	9830.79
863.461	9694.07
863.782	9627.18
864.103	9731.81
864.424	9656.33
864.745	9668.31
865.065	9570
865.386	9572.49
865.707	9590.57
866.027	9586.73
866.348	9595.99
866.668	9541.98
866.989	9542.88
867.309	9497.46
867.63	9445.26
867.95	9476.9
868.27	9337.47
868.59	9444.13
868.91	9490.23
869.23	9480.06
869.55	9407.52
869.87	9364.36
870.19	9398.48
870.51	9421.08
870.83	9402.1
871.15	9354.19
871.469	9264.93
871.789	9376.79
872.109	9288.65
872.428	9280.29
872.748	9270.58
873.067	9242.55
873.386	9277.35
873.706	9254.98
874.025	9208.66
874.344	9149.45
874.663	9208.2
874.982	9207.3
875.301	9123.23
875.62	9109.45
875.939	9097.7
876.258	9047.08
876.577	9086.63
876.896	9121.65
877.214	9036.23
877.533	8989.9
877.852	9039.85
878.17	9017.02
878.489	9028.55
878.807	8947.42
879.125	8953.75
879.444	8957.36
879.762	8966.85
880.08	8882.34
880.398	8875.33
880.716	8876.24
881.034	8822.23
881.352	8798.72
881.67	8817.48
881.988	8843.47
882.306	8826.29
882.624	8765.05
882.941	8709.01
883.259	8701.32
883.577	8737.48
883.894	8730.02
884.212	8657.71
884.529	8679.86
884.846	8662.23
885.164	8563.48
885.481	8605.96
885.798	8639.86
886.115	8531.16
886.432	8577.49
886.75	8571.84
887.067	8475.57
887.383	8592.4
887.7	8506.08
888.017	8500.88
888.334	8377.72
888.651	8453.87
888.967	8366.19
889.284	8360.32
889.6	8350.37
889.917	8290.94
890.233	8252.98
890.55	8252.3
890.866	8234.9
891.182	8162.58
891.498	8233.54
891.815	8137.95
892.131	8119.19
892.447	8111.06
892.763	8063.6
893.079	8095.69
893.395	8025.41
893.71	8039.65
894.026	7992.42
894.342	8006.88
894.657	7957.84
894.973	7902.93
895.289	7921.91
895.604	7904.06
895.92	7804.4
896.235	7784.74
896.55	7846.88
896.865	7754.01
897.181	7807.79
897.496	7723.95
897.811	7699.09
898.126	7690.5
898.441	7732.76
898.756	7636.95
899.071	7558.98
899.386	7523.73
899.7	7478.76
900.015	7469.49
900.33	7433.11
900.644	7363.73
900.959	7431.75
901.273	7412.09
901.588	7335.26
901.902	7334.81
902.216	7253
902.531	7313.56
902.845	7328.03
903.159	7203.51
903.473	7148.37
903.787	7194.02
904.101	7115.6
904.415	7139.56
904.729	7127.13
905.042	7082.84
905.356	7058.43
905.67	7057.07
905.984	7003.06
906.297	6956.29
906.611	7005.32
906.924	6993.57
907.237	6875.84
907.551	6899.79
907.864	6844.65
908.177	6815.27
908.491	6809.62
908.804	6795.39
909.117	6728.27
909.43	6733.69
909.743	6704.32
910.056	6633.13
910.368	6623.19
910.681	6637.2
910.994	6597.88
911.307	6593.81
911.619	6552
911.932	6507.48
912.244	6482.17
912.557	6500.03
912.869	6469.97
913.181	6429.97
913.494	6415.74
913.806	6359.01
914.118	6368.96
914.43	6339.81
914.742	6335.29
915.054	6270.43
915.366	6233.14
915.678	6172.35
915.99	6207.83
916.302	6129.87
916.613	6091.22
916.925	6125.12
917.236	6095.29
917.548	6131
917.859	6067.04
918.171	6002.86
918.482	5991.79
918.794	5968.52
919.105	5938.69
919.416	5912.47
919.727	5919.7
920.038	5889.65
920.349	5851.23
920.66	5827.28
920.971	5801.29
921.282	5776.88
921.593	5783.89
921.903	5766.03
922.214	5732.59
922.525	5669.54
922.835	5674.06
923.146	5644.23
923.456	5650.11
923.767	5574.4
924.077	5594.51
924.387	5561.75
924.697	5500.51
925.008	5539.83
925.318	5494.86
925.628	5466.83
925.938	5427.06
926.248	5366.27
926.558	5325.82
926.867	5340.96
927.177	5366.72
927.487	5319.72
927.796	5265.48
928.106	5260.06
928.416	5202.43
928.725	5248.99
929.034	5209.21
929.344	5212.83
929.653	5147.97
929.962	5155.66
930.271	5102.1
930.581	5122.66
930.89	5103.91
931.199	5073.4
931.508	5018.71
931.817	5028.43
932.125	5055.09
932.434	4983
932.743	4987.07
933.051	4945.94
933.36	4873.85
933.669	4847.87
933.977	4837.25
934.286	4847.87
934.594	4876.57
934.902	4744.59
935.21	4805.83
935.519	4739.85
935.827	4759.73
936.135	4712.96
936.443	4660.75
936.751	4678.83
937.059	4628.44
937.367	4675.89
937.674	4625.95
937.982	4609.68
938.29	4571.94
938.597	4593.18
938.905	4528.78
939.213	4511.38
939.52	4531.04
939.827	4473.19
940.135	4463.24
940.442	4455.79
940.749	4460.98
941.056	4399.97
941.363	4424.38
941.67	4369.46
941.977	4358.16
942.284	4346.19
942.591	4347.99
942.898	4323.13
943.205	4310.71
943.511	4302.57
943.818	4330.59
944.125	4231.39
944.431	4248.33
944.738	4214.66
945.044	4190.48
945.35	4164.5
945.657	4125.4
945.963	4113.2
946.269	4133.76
946.575	4054.44
946.881	4035.23
947.187	4056.02
947.493	3998.4
947.799	4058.96
948.105	4038.4
948.41	3986.42
948.716	3974.22
949.022	3964.05
949.327	3943.03
949.633	3895.12
949.938	3904.16
950.244	3882.02
950.549	3850.38
950.854	3811.06
951.16	3838.4
951.465	3860.32
951.77	3799.31
952.075	3767.22
952.38	3779.87
952.685	3763.83
952.99	3742.59
953.294	3730.83
953.599	3713.89
953.904	3704.17
954.209	3652.19
954.513	3686.77
954.818	3603.38
955.122	3632.98
955.426	3594.11
955.731	3589.14
956.035	3582.14
956.339	3594.79
956.643	3549.37
956.948	3529.71
957.252	3505.76
957.556	3505.76
957.86	3495.59
958.163	3423.05
958.467	3482.25
958.771	3482.03
959.075	3431.63
959.378	3400.22
959.682	3449.94
959.985	3411.97
960.289	3369.49
960.592	3356.15
960.896	3358.87
961.199	3334.01
961.502	3281.13
961.805	3325.2
962.108	3321.35
962.411	3264.63
962.714	3283.61
963.017	3299.88
963.32	3284.74
963.623	3234.58
963.926	3237.74
964.228	3206.78
964.531	3178.31
964.833	3194.8
965.136	3133.79
965.438	3098.08
965.741	3105.77
966.043	3121.81
966.345	3123.84
966.648	3108.25
966.95	3064.18
967.252	3039.1
967.554	3055.37
967.856	3042.26
968.158	3040.68
968.46	3015.6
968.761	2980.57
969.063	2958.2
969.365	2950.29
969.666	2930.63
969.968	2930.63
970.269	2930.18
970.571	2904.87
970.872	2916.62
971.174	2886.34
971.475	2877.98
971.776	2872.33
972.077	2873.23
972.378	2821.93
972.679	2843.4
972.98	2810.18
973.281	2834.81
973.582	2802.27
973.883	2786.9
974.183	2731.54
974.484	2727.24
974.785	2735.38
975.085	2741.03
975.386	2759.79
975.686	2726.79
975.986	2730.41
976.287	2704.19
976.587	2641.6
976.887	2658.55
977.187	2639.34
977.487	2676.4
977.787	2617.19
978.087	2602.95
978.387	2607.7
978.687	2599.56
978.987	2628.94
979.286	2570.64
979.586	2587.59
979.885	2562.73
980.185	2547.59
980.484	2529.74
980.784	2541.03
981.083	2506.01
981.382	2507.82
981.682	2529.96
981.981	2481.15
982.28	2500.58
982.579	2444.77
982.878	2448.16
983.177	2435.73
983.475	2440.02
983.774	2441.6
984.073	2393.02
984.372	2379.23
984.67	2403.64
984.969	2381.72
985.267	2381.27
985.566	2354.37
985.864	2340.14
986.162	2349.85
986.461	2347.59
986.759	2327.48
987.057	2304.43
987.355	2306.69
987.653	2280.93
987.951	2267.14
988.249	2287.03
988.547	2252.45
988.844	2254.26
989.142	2214.26
989.44	2202.74
989.737	2237.31
990.035	2228.27
990.332	2173.13
990.63	2169.07
990.927	2189.41
991.224	2166.58
991.521	2149.41
991.819	2149.63
992.116	2148.95
992.413	2145.34
992.71	2105.34
993.006	2101.5
993.303	2104.66
993.6	2073.7
993.897	2061.95
994.193	2086.13
994.49	2025.34
994.787	2036.64
995.083	2013.37
995.379	2010.88
995.676	1993.03
995.972	1991.22
996.268	1975.63
996.565	1976.76
996.861	1950.32
997.157	1937.89
997.453	1936.98
997.749	1961.16
998.044	1957.1
998.34	1964.1
998.636	1938.34
998.932	1918
999.227	1897.66
999.523	1897.21
999.818	1892.69
1000.114	1861.05
1000.409	1876.65
1000.704	1865.12
1001	1815.86
1001.295	1837.1
1001.59	1848.85
1001.885	1823.09
1002.18	1806.59
1002.475	1786.03
1002.77	1829.42
1003.065	1815.86
1003.359	1750.1
1003.654	1792.58
1003.949	1762.52
1004.243	1766.59
1004.538	1762.75
1004.832	1741.28
1005.127	1748.74
1005.421	1713.03
1005.715	1722.75
1006.009	1729.98
1006.304	1658.57
1006.598	1676.2
1006.892	1665.13
1007.186	1637.78
1007.48	1638.23
1007.773	1642.08
1008.067	1649.53
1008.361	1620.16
1008.655	1588.29
1008.948	1624.22
1009.242	1599.36
1009.535	1588.74
1009.829	1593.72
1010.122	1564.34
1010.415	1574.96
1010.708	1537.22
1011.001	1554.62
1011.295	1520.27
1011.588	1544
1011.881	1508.07
1012.173	1517.11
1012.466	1499.25
1012.759	1490.67
1013.052	1492.25
1013.344	1490.22
1013.637	1475.53
1013.93	1471.01
1014.222	1450.22
1014.514	1448.41
1014.807	1452.02
1015.099	1403.66
1015.391	1428.07
1015.683	1396.43
1015.976	1407.28
1016.268	1393.49
1016.56	1387.62
1016.851	1361.4
1017.143	1407.73
1017.435	1402.08
1017.727	1363.44
1018.018	1334.51
1018.31	1322.31
1018.602	1349.88
1018.893	1326.38
1019.185	1317.11
1019.476	1300.62
1019.767	1305.14
1020.058	1316.21
1020.35	1274.4
1020.641	1293.61
1020.932	1262.2
1021.223	1255.42
1021.514	1247.28
1021.804	1238.7
1022.095	1230.56
1022.386	1223.33
1022.677	1218.13
1022.967	1210.9
1023.258	1233.5
1023.548	1198.7
1023.839	1186.72
1024.129	1170.68
1024.419	1169.55
1024.709	1159.38
1025	1161.86
1025.29	1166.38
1025.58	1130
1025.87	1132.94
1026.16	1111.69
1026.449	1140.62
1026.739	1125.7
1027.029	1128.64
1027.319	1118.25
1027.608	1101.3
1027.898	1071.24
1028.187	1086.38
1028.477	1093.62
1028.766	1080.96
1029.055	1082.54
1029.344	1053.16
1029.634	1065.37
1029.923	1070.57
1030.212	1064.01
1030.501	1043.9
1030.79	1029.21
1031.078	1035.54
1031.367	995.76
1031.656	993.73
1031.945	991.92
1032.233	975.2
1032.522	995.54
1032.81	971.36
1033.099	995.99
1033.387	971.36
1033.675	975.88
1033.963	944.92
1034.251	973.84
1034.54	934.75
1034.828	921.87
1035.116	912.15
1035.403	908.99
1035.691	919.83
1035.979	912.15
1036.267	915.77
1036.554	925.94
1036.842	907.63
1037.129	904.47
1037.417	882.55
1037.704	895.43
1037.992	888.2
1038.279	886.39
1038.566	883.68
1038.853	883.68
1039.14	883.68
