Data from tablewood_brown_FLMS001491_075.txt Node
Date: Tue Feb 07 11:10:59 GMT 2017
User: dcchb
Spectrometer: FLMS00149
Trigger mode: 0
Integration Time (sec): 2.000000E-2
Scans to average: 10
Electric dark correction enabled: true
Nonlinearity correction enabled: false
Boxcar width: 0
XAxis mode: Wavelengths
Number of Pixels in Spectrum: 2048
>>>>>Begin Spectral Data<<<<<
341.393	-4.11
341.776	-4.11
342.16	-4.11
342.543	-72.13
342.927	-81.17
343.31	-72.58
343.693	-73.26
344.077	-48.4
344.46	-61.74
344.843	-43.66
345.226	-40.95
345.61	-23.09
345.993	-24.9
346.376	-17.44
346.759	-5.92
347.142	24.82
347.525	39.28
347.908	64.81
348.291	81.54
348.674	96.45
349.057	105.04
349.44	115.89
349.823	140.07
350.206	179.61
350.588	188.2
350.971	199.73
351.354	233.4
351.737	238.37
352.119	263.91
352.502	252.61
352.884	276.33
353.267	269.78
353.65	291.93
354.032	291.48
354.414	321.76
354.797	321.53
355.179	317.01
355.562	323.34
355.944	350.68
356.326	338.48
356.709	340.74
357.091	333.51
357.473	332.38
357.855	348.2
358.238	360.17
358.62	335.99
359.002	335.09
359.384	325.6
359.766	374.41
360.148	337.35
360.53	331.93
360.912	335.77
361.294	327.41
361.676	356.78
362.057	308.88
362.439	322.66
362.821	334.19
363.203	331.7
363.584	340.29
363.966	299.61
364.348	333.51
364.729	335.77
365.111	328.99
365.493	317.92
365.874	325.37
366.256	331.25
366.637	331.93
367.019	329.21
367.4	322.89
367.781	319.5
368.163	332.83
368.544	325.6
368.925	308.88
369.306	330.34
369.688	320.18
370.069	306.16
370.45	325.82
370.831	327.63
371.212	323.79
371.593	338.03
371.974	347.75
372.355	330.8
372.736	343.68
373.117	325.6
373.498	341.42
373.879	333.06
374.26	321.53
374.641	345.03
375.021	325.15
375.402	335.32
375.783	314.98
376.163	356.11
376.544	345.94
376.925	343.23
377.305	335.32
377.686	322.21
378.066	353.17
378.447	364.92
378.827	340.06
379.208	348.42
379.588	333.73
379.968	333.28
380.349	360.17
380.729	345.71
381.109	363.34
381.489	362.21
381.87	365.6
382.25	340.74
382.63	376.67
383.01	361.3
383.39	386.84
383.77	371.47
384.15	380.06
384.53	368.31
384.91	388.65
385.29	360.63
385.67	356.78
386.049	386.84
386.429	389.33
386.809	399.04
387.189	377.8
387.568	396.33
387.948	392.04
388.328	392.04
388.707	409.21
389.087	379.61
389.466	403.11
389.846	411.7
390.225	410.12
390.605	399.27
390.984	410.57
391.363	402.66
391.743	409.21
392.122	432.04
392.501	436.1
392.881	434.52
393.26	435.88
393.639	431.81
394.018	436.56
394.397	450.34
394.776	442.43
395.155	439.27
395.534	436.33
395.913	433.39
396.292	440.62
396.671	466.84
397.05	459.15
397.429	443.34
397.808	454.63
398.186	444.69
398.565	463.22
398.944	463.67
399.323	471.36
399.701	486.72
400.08	451.25
400.458	485.37
400.837	502.77
401.215	484.24
401.594	493.05
401.972	493.05
402.351	506.61
402.729	533.95
403.107	491.24
403.486	519.49
403.864	514.97
404.242	520.4
404.62	520.85
404.999	511.58
405.377	530.79
405.755	550.68
406.133	551.13
406.511	559.26
406.889	546.16
407.267	535.31
407.645	561.07
408.023	540.73
408.401	564.46
408.779	579.15
409.156	578.02
409.534	590.45
409.912	578.25
410.29	591.13
410.667	580.28
411.045	604.24
411.422	597.23
411.8	593.39
412.178	623.44
412.555	623.67
412.933	637.91
413.31	637.68
413.687	657.34
414.065	663.67
414.442	647.62
414.819	667.28
415.197	656.89
415.574	663.67
415.951	677.23
416.328	681.75
416.705	665.25
417.082	674.52
417.46	682.43
417.837	714.06
418.214	715.65
418.591	712.48
418.967	718.13
419.344	717.68
419.721	724.91
420.098	699.37
420.475	746.15
420.852	722.2
421.228	745.25
421.605	766.04
421.982	763.33
422.358	749.54
422.735	754.97
423.111	793.84
423.488	794.29
423.864	788.19
424.241	811.91
424.617	791.58
424.994	811.69
425.37	835.42
425.746	812.14
426.123	843.55
426.499	840.84
426.875	849.2
427.251	856.21
427.627	864.12
428.003	869.09
428.379	881.29
428.756	877.45
429.132	888.3
429.507	883.55
429.883	916.77
430.259	920.84
430.635	934.62
431.011	933.72
431.387	942.76
431.763	959.71
432.138	968.07
432.514	966.03
432.89	982.3
433.265	1008.97
433.641	1007.61
434.016	1014.62
434.392	1029.08
434.767	1045.13
435.143	1051
435.518	1037.44
435.894	1057.56
436.269	1074.96
436.644	1102.75
437.02	1083.77
437.395	1100.49
437.77	1140.94
438.145	1123.77
438.52	1123.32
438.895	1154.96
439.271	1159.7
439.646	1176.88
440.021	1188.63
440.395	1212.36
440.77	1173.71
441.145	1211.45
441.52	1242.86
441.895	1242.18
442.27	1229.76
442.645	1225.69
443.019	1232.69
443.394	1274.5
443.769	1272.69
444.143	1242.86
444.518	1272.01
444.892	1269.98
445.267	1285.12
445.641	1308.4
446.016	1327.38
446.39	1315.63
446.764	1292.58
447.139	1308.17
447.513	1326.48
447.887	1345.46
448.262	1345.91
448.636	1373.03
449.01	1388.17
449.384	1373.03
449.758	1400.6
450.132	1434.5
450.506	1412.8
450.88	1440.6
451.254	1450.99
451.628	1448.73
452.002	1446.47
452.376	1467.49
452.75	1482.4
453.123	1488.51
453.497	1495.51
453.871	1518.11
454.244	1556.3
454.618	1561.5
454.992	1579.35
455.365	1589.52
455.739	1642.63
456.112	1655.28
456.486	1635.17
456.859	1642.63
457.232	1678.11
457.606	1685.56
457.979	1715.39
458.352	1745
458.725	1760.59
459.099	1806.92
459.472	1816.41
459.845	1843.52
460.218	1801.72
460.591	1824.99
460.964	1848.04
461.337	1886.24
461.71	1917.87
462.083	1977.98
462.456	1967.59
462.829	1957.65
463.201	1980.47
463.574	2030.19
463.947	2068.15
464.32	2095.95
464.692	2118.09
465.065	2127.13
465.438	2163.06
465.81	2194.25
466.183	2222.95
466.555	2275.38
466.928	2282.61
467.3	2259.33
467.672	2336.85
468.045	2396.73
468.417	2374.58
468.789	2423.17
469.161	2454.36
469.534	2502.72
469.906	2575.26
470.278	2589.27
470.65	2591.75
471.022	2636.5
471.394	2722.6
471.766	2720.34
472.138	2781.35
472.51	2863.61
472.882	2905.19
473.253	2952.65
473.625	2955.81
473.997	3049.37
474.369	3083.04
474.74	3118.07
475.112	3201.68
475.484	3253.66
475.855	3328.91
476.227	3327.33
476.598	3454.56
476.97	3454.1
477.341	3557.83
477.713	3661.78
478.084	3686.64
478.455	3765.73
478.827	3833.3
479.198	3943.36
479.569	3979.74
479.94	4101.09
480.311	4126.85
480.682	4255.89
481.053	4327.75
481.424	4423.12
481.795	4477.81
482.166	4533.85
482.537	4627.18
482.908	4781.53
483.279	4805.93
483.65	4860.85
484.021	4942.65
484.391	5034.63
484.762	5099.48
485.133	5195.53
485.503	5243.44
485.874	5329.08
486.244	5428.97
486.615	5519.13
486.985	5577.21
487.356	5683.65
487.726	5804.55
488.097	5865.57
488.467	5926.81
488.837	6009.97
489.207	6128.61
489.578	6195.5
489.948	6273.92
490.318	6355.72
490.688	6345.1
491.058	6470.07
491.428	6570.86
491.798	6634.59
492.168	6794.36
492.538	6861.47
492.908	6883.62
493.278	7003.62
493.648	6992.09
494.017	7105.08
494.387	7195.7
494.757	7271.4
495.126	7340.1
495.496	7370.61
495.866	7444.28
496.235	7536.26
496.605	7644.73
496.974	7641.34
497.344	7725.63
497.713	7776.93
498.082	7863.93
498.452	7955.91
498.821	7959.75
499.19	7994.1
499.559	8065.51
499.928	8154.77
500.298	8223.02
500.667	8271.15
501.036	8268.89
501.405	8405.39
501.774	8416.69
502.143	8519.28
502.512	8544.59
502.88	8633.63
503.249	8632.72
503.618	8714.08
503.987	8764.02
504.356	8879.95
504.724	8885.15
505.093	8921.08
505.462	8952.26
505.83	9070.45
506.199	9149.55
506.567	9237.68
506.936	9328.07
507.304	9405.13
507.672	9373.27
508.041	9505.7
508.409	9581.63
508.777	9719.7
509.145	9691
509.514	9784.56
509.882	9826.82
510.25	9886.93
510.618	10035.17
510.986	10037.43
511.354	10163.08
511.722	10141.84
512.09	10316.97
512.458	10273.81
512.826	10460.25
513.193	10469.74
513.561	10495.27
513.929	10713.12
514.297	10800.13
514.664	10829.96
515.032	10895.72
515.4	11001.7
515.767	11075.6
516.135	11098.2
516.502	11091.64
516.869	11337.06
517.237	11433.1
517.604	11436.27
517.972	11575.47
518.339	11649.82
518.706	11684.17
519.073	11764.39
519.44	11842.58
519.808	12093.88
520.175	12023.14
520.542	12190.6
520.909	12339.52
521.276	12324.38
521.643	12413.87
522.009	12519.85
522.376	12680.08
522.743	12759.85
523.11	12958.49
523.477	13044.81
523.843	13022.44
524.21	13285.26
524.577	13294.75
524.943	13434.18
525.31	13527.51
525.676	13611.8
526.043	13767.73
526.409	13866.26
526.776	13980.16
527.142	14050.44
527.508	14144.22
527.874	14216.53
528.241	14258.11
528.607	14443.65
528.973	14584.43
529.339	14509.41
529.705	14741.49
530.071	14807.93
530.437	14936.29
530.803	14975.84
531.169	14988.49
531.535	15066.91
531.901	15073.69
532.267	15283.85
532.632	15408.14
532.998	15422.6
533.364	15529.72
533.73	15661.01
534.095	15601.13
534.461	15696.27
534.826	15717.28
535.192	15854
535.557	15922.48
535.923	16050.84
536.288	16098.07
536.653	16194.79
537.019	16149.82
537.384	16261.45
537.749	16282.69
538.114	16361.11
538.479	16412.18
538.845	16534.21
539.21	16437.49
539.575	16567.43
539.94	16599.3
540.305	16799.06
540.67	16756.81
541.034	16755
541.399	16886.52
541.764	16888.55
542.129	17099.85
542.494	17014.2
542.858	17174.65
543.223	17203.57
543.587	17320.18
543.952	17287.41
544.316	17383.68
544.681	17274.98
545.045	17410.35
545.41	17599.95
545.774	17649.66
546.138	17693.96
546.503	17721.98
546.867	17730.56
547.231	17877.68
547.595	17989.54
547.959	17997
548.324	18015.08
548.688	18097.79
549.052	18160.84
549.416	18284.67
549.779	18280.15
550.143	18376.65
550.507	18568.51
550.871	18640.15
551.235	18668.39
551.599	18773.02
551.962	18871.33
552.326	18843.76
552.689	18974.6
553.053	18969.63
553.417	19114.48
553.78	19338.43
554.143	19254.14
554.507	19472.67
554.87	19559.44
555.234	19774.8
555.597	19672.43
555.96	19885.99
556.323	20072.88
556.686	20111.97
557.05	20265.64
557.413	20321.68
557.776	20403.04
558.139	20559.42
558.502	20598.06
558.865	20844.61
559.228	20913.31
559.59	21044.38
559.953	21251.38
560.316	21361.88
560.679	21517.81
561.041	21702.44
561.404	21789.89
561.767	21916.44
562.129	22006.16
562.492	22228.07
562.854	22298.35
563.217	22322.76
563.579	22568.63
563.941	22838.68
564.304	23026.7
564.666	23164.55
565.028	23217.65
565.39	23342.62
565.753	23531.32
566.115	23656.51
566.477	23710.97
566.839	23891.08
567.201	24225.08
567.563	24431.86
567.925	24636.82
568.287	24637.5
568.648	24802.47
569.01	24947.32
569.372	25228.9
569.734	25313.42
570.095	25437.25
570.457	25648.55
570.819	25800.64
571.18	25838.83
571.542	26084.7
571.903	26291.7
572.265	26491.01
572.626	26501.86
572.987	26611.24
573.349	26808.52
573.71	27089.41
574.071	27268.62
574.432	27332.8
574.794	27596.75
575.155	27623.86
575.516	27687.59
575.877	27971.43
576.238	28022.72
576.599	28117.41
576.96	28316.73
577.32	28427.68
577.681	28574.12
578.042	28744.74
578.403	28768.47
578.763	28893.89
579.124	28998.52
579.485	29101.34
579.845	29523.7
580.206	29330.03
580.566	29350.37
580.927	29603.02
581.287	29751.49
581.648	29737.71
582.008	29845.95
582.368	29864.26
582.728	30066.96
583.089	30036.46
583.449	30071.71
583.809	30096.57
584.169	30292.49
584.529	30215.43
584.889	30722.99
585.249	30396.67
585.609	30416.78
585.969	30764.57
586.329	30529.1
586.688	30685.7
587.048	30640.96
587.408	30724.57
587.768	30580.85
588.127	30753.5
588.487	30840.5
588.846	31038.69
589.206	30858.36
589.565	30820.16
589.925	31024.68
590.284	31025.13
590.643	31105.13
591.003	31283.2
591.362	31380.6
591.721	31176.09
592.08	31301.73
592.44	31318.23
592.799	31363.43
593.158	31308.96
593.517	31163.88
593.876	31450.66
594.235	31265.35
594.593	31501.73
594.952	31410.21
595.311	31446.81
595.67	31458.79
596.029	31684.77
596.387	31682.74
596.746	31705.56
597.104	31648.62
597.463	31540.6
597.822	31783.75
598.18	31722.74
598.538	31721.61
598.897	31947.82
599.255	31638.9
599.613	32067.14
599.972	31801.83
600.33	31833.47
600.688	31837.76
601.046	32052.67
601.404	32183.97
601.762	32002.96
602.12	32186.68
602.478	32223.29
602.836	32116.18
603.194	32054.26
603.552	31987.59
603.91	31913.24
604.268	32232.56
604.625	32158.89
604.983	32217.64
605.341	32188.49
605.698	32335.6
606.056	32329.28
606.413	32288.37
606.771	32538.54
607.128	32537.86
607.485	32334.47
607.843	32389.84
608.2	32547.8
608.557	32561.81
608.914	32508.71
609.272	32571.3
609.629	32724.52
609.986	32903.95
610.343	32694.01
610.7	32766.1
611.057	32838.19
611.414	32823.5
611.771	32915.48
612.127	32995.25
612.484	32973.78
612.841	33135.36
613.198	32896.72
613.554	32988.69
613.911	33260.78
614.267	33195.24
614.624	33107.56
614.98	33202.25
615.337	33256.26
615.693	33213.77
616.05	33362.02
616.406	33497.61
616.762	33357.5
617.118	33430.27
617.475	33360.66
617.831	33470.26
618.187	33552.97
618.543	33437.04
618.899	33733.31
619.255	33603.59
619.611	33393.43
619.967	33600.88
620.323	33719.3
620.678	33538.51
621.034	33744.38
621.39	33611.5
621.746	33604.95
622.101	33876.13
622.457	33703.25
622.812	33703.93
623.168	33757.49
623.523	33693.31
623.879	33851.27
624.234	33649.92
624.589	33816.24
624.945	33754.78
625.3	33765.17
625.655	33833.64
626.01	33768.11
626.365	33874.1
626.72	33860.08
627.075	33776.92
627.43	33727.88
627.785	33720.43
628.14	33773.76
628.495	33809.46
628.85	33708
629.205	33632.97
629.559	33697.38
629.914	33620.32
630.269	33603.37
630.623	33594.33
630.978	33511.39
631.332	33628.23
631.687	33627.32
632.041	33543.71
632.396	33583.48
632.75	33420.1
633.104	33488.12
633.459	33308.91
633.813	33456.71
634.167	33302.36
634.521	33325.18
634.875	33326.09
635.229	33226.2
635.583	33040.67
635.937	33268.01
636.291	33114.12
636.645	33149.37
636.999	33013.78
637.352	33153.21
637.706	32924.97
638.06	32975.81
638.413	33031.18
638.767	32835.48
639.121	32997.28
639.474	32767.23
639.828	32728.14
640.181	32808.36
640.534	32877.74
640.888	32801.13
641.241	32445.66
641.594	32570.17
641.947	32632.55
642.301	32562.49
642.654	32576.95
643.007	32688.36
643.36	32442.04
643.713	32490.4
644.066	32407.47
644.419	32375.6
644.771	32267.58
645.124	31945.78
645.477	31912.79
645.83	31743.53
646.182	31694.72
646.535	31433.48
646.888	31657.43
647.24	31212.47
647.593	31439.13
647.945	31459.7
648.298	31233.94
648.65	31176.99
649.002	31080.72
649.355	31350.09
649.707	31337.66
650.059	31501.95
650.411	31810.87
650.763	31848.16
651.115	32162.73
651.467	31891.55
651.819	31904.2
652.171	31858.33
652.523	31922.51
652.875	31932.68
653.227	31761.61
653.578	31886.12
653.93	31942.62
654.282	31823.3
654.633	31687.71
654.985	31835.28
655.337	31719.35
655.688	31816.52
656.039	32018.1
656.391	31602.06
656.742	31822.4
657.094	31763.87
657.445	31970.19
657.796	31786.47
658.147	31791.66
658.498	31807.03
658.849	31785.56
659.2	31811.55
659.551	31623.76
659.902	31793.02
660.253	31742.85
660.604	31603.87
660.955	31468.28
661.306	31692.23
661.656	31602.97
662.007	31641.16
662.358	31583.53
662.708	31736.52
663.059	31605.23
663.409	31426.7
663.76	31745.11
664.11	31701.27
664.461	31740.82
664.811	31783.53
665.161	31679.58
665.511	31532.24
665.862	31647.49
666.212	31702.85
666.562	31675.73
666.912	31459.24
667.262	31591.9
667.612	31552.12
667.962	31649.97
668.312	31674.38
668.662	31801.16
669.011	31618.79
669.361	31603.87
669.711	31485.23
670.06	31547.6
670.41	31488.4
670.76	31425.12
671.109	31367.04
671.459	31414.5
671.808	31213.6
672.157	31281.62
672.507	31091.34
672.856	31124.34
673.205	31214.96
673.554	31320.49
673.904	31160.72
674.253	31256.99
674.602	31238.91
674.951	30716.44
675.3	30693.84
675.649	31081.85
675.998	30934.74
676.346	31105.81
676.695	31136.99
677.044	30899.71
677.393	30963.44
677.741	31150.33
678.09	30850.67
678.438	30816.1
678.787	30956.43
679.135	30919.37
679.484	30619.94
679.832	30692.26
680.181	30642.54
680.529	30763.89
680.877	30543.34
681.225	30695.87
681.573	30733.16
681.922	30415.2
682.27	30400.06
682.618	30412.49
682.966	30335.21
683.314	30325.49
683.661	30130.46
684.009	30107.64
684.357	30051.82
684.705	30005.95
685.053	30079.39
685.4	29983.8
685.748	29746.97
686.095	29910.36
686.443	29662.23
686.79	29569.58
687.138	29733.64
687.485	29787.65
687.832	29507.88
688.18	29590.59
688.527	29350.15
688.874	29323.71
689.221	29212.07
689.568	29248
689.915	29155.35
690.262	29056.82
690.609	28968.01
690.956	28923.72
691.303	28802.59
691.65	28697.51
691.997	28681.69
692.344	28583.61
692.69	28491.41
693.037	28458.42
693.383	28375.93
693.73	28450.06
694.077	28117.18
694.423	28195.37
694.769	28093
695.116	27937.75
695.462	27949.96
695.808	27831.54
696.155	27858.89
696.501	27570.31
696.847	27560.81
697.193	27338.22
697.539	27417.09
697.885	27183.88
698.231	27170.77
698.577	27182.07
698.923	27169.41
699.269	27004.9
699.614	26767.62
699.96	26843.09
700.306	26733.04
700.651	26688.75
700.997	26477.91
701.342	26516.32
701.688	26402.65
702.033	26236.56
702.379	26274.3
702.724	26253.5
703.069	26230
703.415	25860.52
703.76	25969.44
704.105	25917.69
704.45	25805.61
704.795	25734.2
705.14	25586.86
705.485	25590.02
705.83	25414.43
706.175	25431.83
706.52	25362.23
706.865	25276.81
707.209	25108.22
707.554	25011.5
707.899	25084.95
708.243	25023.93
708.588	24982.13
708.932	24856.25
709.277	24797.27
709.621	24719.53
709.966	24627.56
710.31	24687.9
710.654	24422.37
710.998	24444.51
711.342	24571.97
711.687	24475.47
712.031	24415.59
712.375	24306.21
712.719	24344.4
713.063	24384.63
713.407	24272.77
713.75	24045.65
714.094	24061.02
714.438	23996.61
714.782	24005.88
715.125	23907.35
715.469	23918.42
715.812	23875.04
716.156	23749.16
716.499	23677.75
716.843	23630.97
717.186	23596.4
717.53	23776.73
717.873	23717.53
718.216	23607.47
718.559	23572.9
718.902	23302.4
719.246	23468.27
719.589	23351.89
719.932	23332.9
720.275	23400.7
720.617	23321.38
720.96	23331.1
721.303	23279.57
721.646	23360.93
721.989	23126.81
722.331	23224.43
722.674	23205.9
723.016	23214.94
723.359	23131.55
723.701	23128.16
724.044	23100.82
724.386	22861.96
724.729	23019.24
725.071	23064.44
725.413	22902.41
725.755	22864.89
726.097	22821.28
726.439	22740.15
726.782	22813.14
727.124	22950.54
727.465	22864.89
727.807	22894.27
728.149	22755.07
728.491	22776.08
728.833	22754.39
729.175	22748.74
729.516	22642.3
729.858	22659.47
730.199	22633.26
730.541	22591.23
730.882	22623.54
731.224	22630.1
731.565	22501.06
731.906	22586.03
732.248	22620.15
732.589	22554.84
732.93	22520.95
733.271	22460.38
733.612	22595.3
733.953	22528.4
734.294	22509.2
734.635	22395.07
734.976	22537.44
735.317	22352.82
735.658	22475.75
735.999	22521.4
736.339	22417.9
736.68	22482.3
737.021	22473.72
737.361	22376.54
737.702	22418.8
738.042	22369.76
738.383	22470.78
738.723	22377.9
739.063	22302.2
739.404	22499.03
739.744	22452.02
740.084	22253.61
740.424	22321.86
740.764	22335.19
741.104	22422.42
741.444	22308.07
741.784	22231.92
742.124	22238.69
742.464	22306.04
742.804	22240.5
743.143	22210.45
743.483	22228.98
743.823	22165.02
744.162	22270.56
744.502	22270.56
744.841	22196.89
745.181	22180.17
745.52	22170.45
745.86	22123.22
746.199	22129.55
746.538	22199.6
746.877	22270.11
747.216	22159.6
747.556	22011.13
747.895	22074.63
748.234	22074.41
748.573	21988.08
748.911	22045.48
749.25	22073.95
749.589	21941.08
749.928	22001.19
750.267	22005.93
750.605	21975.43
750.944	21848.42
751.283	21892.94
751.621	21942.66
751.96	21848.2
752.298	21906.27
752.636	21837.8
752.975	21801.87
753.313	21658.37
753.651	21900.62
753.989	21708.77
754.327	21668.77
754.666	21595.77
755.004	21629.45
755.342	21609.78
755.679	21481.43
756.017	21450.47
756.355	21600.29
756.693	21416.12
757.031	21550.8
757.368	21465.83
757.706	21306.06
758.044	21317.59
758.381	21272.84
758.719	21242.56
759.056	21347.64
759.394	21354.88
759.731	21081.89
760.068	21050.93
760.405	21054.32
760.743	20925.51
761.08	21006.18
761.417	20849.8
761.754	20802.8
762.091	20795.8
762.428	20863.59
762.765	20597.38
763.102	20678.96
763.438	20644.61
763.775	20588.12
764.112	20506.09
764.449	20581.79
764.785	20483.03
765.122	20366.43
765.458	20130.28
765.795	20087.79
766.131	20178.41
766.467	20034.69
766.804	19955.14
767.14	19895.93
767.476	19898.64
767.812	19691.87
768.148	19880.79
768.485	19679.67
768.821	19462.5
769.157	19602.61
769.492	19466.11
769.828	19546.11
770.164	19299.79
770.5	19264.08
770.836	19378.88
771.171	19103.64
771.507	19198.55
771.842	19031.1
772.178	18968.5
772.513	18934.83
772.849	19022.51
773.184	18699.58
773.519	18754.49
773.855	18695.51
774.19	18586.59
774.525	18607.6
774.86	18570.99
775.195	18491.22
775.53	18435.63
775.865	18274.28
776.2	18195.64
776.535	18031.57
776.87	18163.55
777.205	18042.2
777.539	17973.04
777.874	17966.26
778.209	17856.44
778.543	17688.76
778.878	17588.42
779.212	17585.48
779.547	17540.51
779.881	17544.81
780.215	17385.94
780.55	17446.96
780.884	17318.6
781.218	17299.84
781.552	17330.8
781.886	17146.4
782.22	17103.69
782.554	17018.04
782.888	16946.86
783.222	16850.59
783.556	16822.79
783.889	16799.29
784.223	16648.79
784.557	16585.74
784.89	16605.62
785.224	16571.73
785.557	16369.02
785.891	16359.53
786.224	16392.97
786.558	16357.04
786.891	16225.29
787.224	16131.06
787.557	16089.03
787.891	16110.95
788.224	16096.71
788.557	15910.95
788.89	15931.97
789.223	15927.45
789.556	15712.31
789.888	15771.97
790.221	15736.04
790.554	15524.75
790.887	15624.63
791.219	15598.64
791.552	15381.7
791.884	15418.31
792.217	15301.25
792.549	15316.62
792.882	15220.8
793.214	15190.97
793.546	15153.01
793.879	15026.46
794.211	15001.37
794.543	15087.47
794.875	14917.31
795.207	15089.05
795.539	14892.9
795.871	14867.59
796.203	14797.08
796.535	14689.74
796.867	14748.04
797.198	14620.36
797.53	14646.35
797.862	14568.84
798.193	14573.81
798.525	14488.84
798.856	14417.21
799.188	14331.78
799.519	14241.62
799.85	14275.51
800.182	14256.53
800.513	14231.67
800.844	14042.75
801.175	14136.76
801.506	14109.87
801.837	14004.34
802.168	13994.62
802.499	13950.1
802.83	13958.91
803.161	13846.6
803.491	13842.08
803.822	13855.86
804.153	13730.67
804.483	13660.39
804.814	13590.79
805.145	13582.43
805.475	13555.99
805.805	13561.63
806.136	13495.65
806.466	13509.66
806.796	13485.03
807.126	13347.4
807.457	13300.4
807.787	13333.17
808.117	13220.17
808.447	13286.16
808.777	13254.3
809.107	13148.31
809.436	13069.44
809.766	13059.95
810.096	13058.6
810.426	12985.38
810.755	13070.57
811.085	12991.03
811.414	12943.8
811.744	12857.7
812.073	12747.19
812.403	12865.38
812.732	12805.72
813.061	12700.19
813.39	12622.68
813.719	12644.6
814.049	12747.19
814.378	12616.8
814.707	12625.84
815.036	12521.44
815.365	12439.4
815.693	12371.61
816.022	12393.76
816.351	12347.43
816.68	12323.7
817.008	12418.39
817.337	12248.22
817.665	12245.29
817.994	12245.96
818.322	12211.61
818.651	12123.71
818.979	12142.69
819.307	12214.33
819.636	12151.05
819.964	12016.14
820.292	12008.91
820.62	12047.32
820.948	11950.83
821.276	12088
821.604	12068.11
821.932	12074.67
822.259	12034.44
822.587	12013.65
822.915	11942.69
823.243	12007.33
823.57	11927.78
823.898	11990.83
824.225	11911.06
824.553	11938.17
824.88	11932.3
825.207	11911.96
825.535	11951.06
825.862	11958.29
826.189	11911.06
826.516	11979.98
826.843	11991.96
827.17	12021.11
827.497	11936.37
827.824	11912.41
828.151	11973.88
828.478	11909.02
828.805	11951.51
829.131	11962.81
829.458	11877.61
829.785	11825.18
830.111	11875.13
830.438	11940.21
830.764	11937.5
831.09	11909.25
831.417	11890.04
831.743	11853.88
832.069	11930.49
832.395	11868.35
832.722	11867.67
833.048	11748.35
833.374	11833.54
833.7	11772.08
834.026	11845.07
834.351	11838.74
834.677	11804.84
835.003	11862.92
835.329	11822.02
835.654	11794.45
835.98	11799.42
836.306	11770.04
836.631	11679.2
836.956	11742.02
837.282	11636.49
837.607	11696.83
837.932	11629.48
838.258	11620.44
838.583	11591.29
838.908	11510.39
839.233	11539.32
839.558	11472.88
839.883	11469.49
840.208	11422.71
840.533	11489.15
840.858	11360.11
841.182	11433.1
841.507	11432.88
841.832	11331.64
842.156	11366.44
842.481	11420.45
842.805	11201.25
843.13	11243.05
843.454	11245.99
843.778	11182.26
844.103	11150.62
844.427	11116.95
844.751	11198.08
845.075	11104.07
845.399	11092.55
845.723	11045.54
846.047	11046.9
846.371	10918.54
846.695	10954.02
847.019	10867.02
847.343	10875.38
847.666	10846
847.99	10669.73
848.313	10734.36
848.637	10633.35
848.96	10617.76
849.284	10574.14
849.607	10500.47
849.931	10488.72
850.254	10418.89
850.577	10327.14
850.9	10290.99
851.223	10284.88
851.546	10291.21
851.869	10194.72
852.192	10194.27
852.515	10125.12
852.838	10114.04
853.161	10116.75
853.483	10099.81
853.806	10032.69
854.129	10006.25
854.451	9929.19
854.774	9938
855.096	9891.22
855.419	9856.2
855.741	9799.93
856.063	9770.32
856.385	9752.47
856.708	9736.42
857.03	9695.52
857.352	9773.71
857.674	9629.53
857.996	9622.3
858.318	9599.25
858.64	9603.77
858.961	9544.79
859.283	9521.06
859.605	9515.19
859.926	9470.44
860.248	9450.56
860.57	9447.62
860.891	9390.22
861.212	9341.63
861.534	9286.04
861.855	9305.48
862.176	9346.15
862.498	9288.75
862.819	9306.83
863.14	9245.36
863.461	9245.36
863.782	9238.13
864.103	9231.35
864.424	9158.81
864.745	9175.31
865.065	9154.75
865.386	9067.97
865.707	9052.6
866.027	9056.89
866.348	9089.21
866.668	9105.03
866.989	9048.31
867.309	9067.97
867.63	9035.65
867.95	9052.37
868.27	8993.39
868.59	8982.77
868.91	8945.26
869.23	8902.55
869.55	8920.18
869.87	8912.04
870.19	8894.86
870.51	8920.63
870.83	8921.98
871.15	8817.58
871.469	8812.38
871.789	8886.73
872.109	8874.75
872.428	8728.09
872.748	8816.9
873.067	8781.2
873.386	8807.64
873.706	8770.57
874.025	8775.55
874.344	8711.82
874.663	8752.72
874.982	8682.89
875.301	8702.33
875.62	8607.87
875.939	8662.1
876.258	8659.84
876.577	8604.03
876.896	8559.28
877.214	8602.44
877.533	8548.66
877.852	8528.77
878.17	8525.61
878.489	8501.88
878.807	8539.17
879.125	8506.85
879.444	8484.71
879.762	8424.59
880.08	8490.36
880.398	8410.81
880.716	8390.7
881.034	8387.99
881.352	8406.29
881.67	8413.3
881.988	8390.92
882.306	8336.24
882.624	8314.77
882.941	8317.71
883.259	8305.5
883.577	8309.34
883.894	8248.33
884.212	8268.44
884.529	8222.11
884.846	8161.1
885.164	8190.25
885.481	8184.15
885.798	8206.52
886.115	8150.25
886.432	8125.62
886.75	8074.32
887.067	8100.54
887.383	8057.6
887.7	8037.03
888.017	7971.73
888.334	7980.54
888.651	8012.63
888.967	7992.06
889.284	7892.86
889.6	7911.39
889.917	7876.59
890.233	7820.99
890.55	7775.8
890.866	7853.31
891.182	7868.9
891.498	7736.48
891.815	7747.32
892.131	7731.51
892.447	7708.46
892.763	7721.34
893.079	7660.32
893.395	7615.58
893.71	7625.52
894.026	7604.05
894.342	7538.74
894.657	7564.96
894.973	7481.12
895.289	7522.47
895.604	7413.77
895.92	7367.67
896.235	7406.09
896.55	7344.62
896.865	7378.29
897.181	7301.69
897.496	7284.96
897.811	7263.5
898.126	7176.04
898.441	7243.38
898.756	7199.32
899.071	7228.02
899.386	7152.09
899.7	7094.91
900.015	7109.83
900.33	7009.04
900.644	7051.75
900.959	7030.28
901.273	6987.57
901.588	6950.51
901.902	6910.28
902.216	6918.42
902.531	6924.97
902.845	6865.54
903.159	6820.12
903.473	6849.27
903.787	6817.41
904.101	6773.79
904.415	6801.81
904.729	6721.36
905.042	6713.68
905.356	6688.37
905.67	6679.33
905.984	6663.06
906.297	6635.04
906.611	6605.66
906.924	6607.24
907.237	6530.41
907.551	6499.22
907.864	6480.92
908.177	6454.03
908.491	6490.41
908.804	6409.28
909.117	6381.48
909.43	6343.75
909.743	6299.23
910.056	6285.44
910.368	6288.15
910.681	6276.85
910.994	6252.9
911.307	6242.28
911.619	6164.32
911.932	6231.43
912.244	6125.67
912.557	6176.29
912.869	6132.45
913.181	6086.35
913.494	6140.14
913.806	6023.3
914.118	5985.79
914.43	5966.35
914.742	6018.78
915.054	5971.1
915.366	5937.88
915.678	5880.48
915.99	5844.32
916.302	5873.25
916.613	5818.56
916.925	5809.52
917.236	5837.32
917.548	5730.88
917.859	5738.79
918.171	5691.11
918.482	5686.81
918.794	5645.46
919.105	5633.48
919.416	5615.18
919.727	5617.21
920.038	5610.88
920.349	5513.71
920.66	5517.55
920.971	5468.29
921.282	5508.51
921.593	5430.55
921.903	5393.71
922.214	5400.72
922.525	5379.93
922.835	5331.79
923.146	5313.94
923.456	5329.31
923.767	5345.13
924.077	5256.77
924.387	5242.08
924.697	5243.66
925.008	5211.12
925.318	5184
925.628	5140.16
925.938	5150.56
926.248	5118.92
926.558	5071.91
926.867	5072.14
927.177	5047.06
927.487	5018.58
927.796	5005.93
928.106	4974.29
928.416	5003.22
928.725	4950.56
929.034	4953.5
929.344	4932.48
929.653	4941.97
929.962	4854.29
930.271	4896.33
930.581	4779.94
930.89	4838.25
931.199	4753.96
931.508	4764.58
931.817	4731.81
932.125	4739.27
932.434	4678.48
932.743	4673.51
933.051	4641.87
933.36	4621.53
933.669	4624.92
933.977	4580.85
934.286	4560.06
934.594	4577.46
934.902	4551.48
935.21	4532.49
935.519	4503.79
935.827	4507.64
936.135	4520.52
936.443	4471.93
936.751	4455.89
937.059	4424.47
937.367	4392.16
937.674	4395.32
937.982	4358.49
938.29	4358.94
938.597	4336.11
938.905	4319.39
939.213	4249.79
939.52	4267.64
939.827	4258.38
940.135	4208.89
940.442	4223.58
940.749	4251.37
941.056	4188.1
941.363	4147.42
941.67	4149.68
941.977	4112.62
942.284	4084.14
942.591	4104.93
942.898	4086.18
943.205	4106.97
943.511	4072.17
943.818	4006.18
944.125	3994.43
944.431	4000.53
944.738	3991.94
945.044	3952.4
945.35	3953.98
945.657	3937.48
945.963	3904.04
946.269	3896.35
946.575	3866.75
946.881	3840.31
947.187	3833.53
947.493	3816.35
947.799	3765.96
948.105	3819.97
948.41	3802.12
948.716	3742.91
949.022	3756.02
949.327	3737.03
949.633	3702.01
949.938	3712.85
950.244	3698.39
950.549	3690.93
950.854	3639.86
951.16	3634.66
951.465	3604.83
951.77	3637.15
952.075	3595.12
952.38	3594.44
952.685	3589.24
952.99	3533.88
953.294	3561.9
953.599	3529.13
953.904	3532.29
954.209	3476.93
954.513	3473.31
954.818	3464.05
955.122	3449.81
955.426	3447.32
955.731	3425.4
956.035	3393.54
956.339	3419.08
956.643	3371.17
956.948	3329.59
957.252	3372.07
957.556	3333.66
957.86	3313.09
958.163	3330.94
958.467	3279.19
958.771	3281.68
959.075	3258.4
959.378	3249.82
959.682	3232.87
959.985	3238.52
960.289	3214.56
960.592	3224.73
960.896	3184.73
961.199	3173.66
961.502	3168.01
961.805	3161.68
962.108	3108.12
962.411	3147.9
962.714	3086.88
963.017	3108.58
963.32	3029.71
963.623	3074.68
963.926	3058.18
964.228	3024.28
964.531	3035.36
964.833	3036.04
965.136	2999.65
965.438	3024.51
965.741	2967.11
966.043	2962.37
966.345	2942.93
966.648	2950.61
966.95	2933.89
967.252	2901.8
967.554	2927.11
967.856	2892.54
968.158	2851.41
968.46	2855.7
968.761	2803.27
969.063	2850.05
969.365	2823.84
969.666	2827.68
969.968	2779.09
970.269	2758.08
970.571	2799.88
970.872	2768.02
971.174	2746.78
971.475	2730.51
971.776	2740.68
972.077	2718.3
972.378	2654.35
972.679	2702.71
972.98	2671.98
973.281	2703.16
973.582	2678.08
973.883	2667.68
974.183	2660.9
974.484	2636.27
974.785	2645.76
975.085	2587.69
975.386	2613.22
975.686	2589.49
975.986	2596.5
976.287	2581.81
976.587	2551.53
976.887	2545.43
977.187	2542.26
977.487	2557.63
977.787	2531.64
978.087	2512.43
978.387	2485.77
978.687	2467.46
978.987	2478.99
979.286	2461.14
979.586	2451.42
979.885	2452.55
980.185	2399.89
980.484	2436.05
980.784	2395.37
981.083	2386.79
981.382	2360.12
981.682	2368.03
981.981	2396.05
982.28	2320.8
982.579	2335.72
982.878	2335.26
983.177	2335.04
983.475	2308.37
983.774	2283.74
984.073	2272.44
984.372	2281.03
984.67	2293.46
984.969	2288.94
985.267	2260.92
985.566	2217.98
985.864	2233.12
986.162	2186.11
986.461	2224.53
986.759	2238.09
987.057	2231.99
987.355	2151.31
987.653	2173.69
987.951	2208.04
988.249	2175.27
988.547	2141.82
988.844	2122.61
989.142	2121.48
989.44	2110.18
989.737	2137.75
990.035	2116.06
990.332	2101.37
990.63	2060.02
990.927	2071.77
991.224	2074.93
991.521	2042.39
991.819	2039.68
992.116	1995.61
992.413	2000.36
992.71	2022.05
993.006	1991.32
993.303	1999.23
993.6	2029.73
993.897	1976.18
994.193	2007.14
994.49	1943.64
994.787	1954.93
995.083	1931.21
995.379	1917.87
995.676	1925.1
995.972	1887.14
996.268	1897.76
996.565	1878.1
996.861	1908.16
997.157	1855.5
997.453	1873.58
997.749	1853.02
998.044	1806.24
998.34	1847.82
998.636	1851.66
998.932	1801.27
999.227	1803.07
999.523	1799.68
999.818	1792.9
1000.114	1796.29
1000.409	1777.09
1000.704	1795.62
1001	1794.26
1001.295	1730.31
1001.59	1743.41
1001.885	1720.36
1002.18	1746.58
1002.475	1723.3
1002.77	1733.25
1003.065	1725.79
1003.359	1699.35
1003.654	1712.45
1003.949	1649.41
1004.243	1648.5
1004.538	1650.31
1004.832	1669.29
1005.127	1662.96
1005.421	1634.49
1005.715	1610.08
1006.009	1609.63
1006.304	1596.3
1006.598	1612.34
1006.892	1589.75
1007.186	1577.09
1007.48	1580.03
1007.773	1574.15
1008.067	1542.52
1008.361	1523.99
1008.655	1532.35
1008.948	1569.63
1009.242	1542.52
1009.535	1523.76
1009.829	1535.51
1010.122	1516.08
1010.415	1507.94
1010.708	1507.71
1011.001	1476.98
1011.295	1455.06
1011.588	1455.51
1011.881	1470.88
1012.173	1436.53
1012.466	1416.19
1012.759	1428.17
1013.052	1393.59
1013.344	1409.41
1013.637	1420.94
1013.93	1387.04
1014.222	1359.47
1014.514	1373.03
1014.807	1380.03
1015.099	1378
1015.391	1362.86
1015.683	1343.43
1015.976	1361.5
1016.268	1318.79
1016.56	1321.5
1016.851	1318.57
1017.143	1339.13
1017.435	1313.37
1017.727	1294.16
1018.018	1289.87
1018.31	1304.33
1018.602	1267.95
1018.893	1271.56
1019.185	1259.59
1019.476	1257.1
1019.767	1255.74
1020.058	1228.17
1020.35	1212.13
1020.641	1236.54
1020.932	1182.53
1021.223	1219.36
1021.514	1210.1
1021.804	1166.93
1022.095	1170.77
1022.386	1202.19
1022.677	1186.82
1022.967	1182.75
1023.258	1154.05
1023.548	1182.53
1023.839	1135.52
1024.129	1159.48
1024.419	1114.73
1024.709	1100.72
1025	1097.56
1025.29	1088.29
1025.58	1107.05
1025.87	1098.91
1026.16	1077.22
1026.449	1080.61
1026.739	1095.52
1027.029	1084.67
1027.319	1077.67
1027.608	1040.61
1027.898	1066.6
1028.187	1051.23
1028.477	1056.65
1028.766	1029.99
1029.055	1018.91
1029.344	1030.89
1029.634	1027.28
1029.923	1014.17
1030.212	997.9
1030.501	999.93
1030.79	956.99
1031.078	1006.26
1031.367	983.66
1031.656	986.15
1031.945	944.34
1032.233	959.25
1032.522	949.54
1032.81	959.03
1033.099	927.39
1033.387	924.68
1033.675	938.69
1033.963	913.38
1034.251	932.14
1034.54	903.89
1034.828	891.23
1035.116	888.3
1035.403	921.06
1035.691	915.87
1035.979	887.39
1036.267	873.16
1036.554	890.56
1036.842	903.44
1037.129	878.13
1037.417	867.28
1037.704	873.38
1037.992	869.09
1038.279	855.75
1038.566	857.11
1038.853	857.11
1039.14	857.11
