Data from tablewood_brown_FLMS001491_003.txt Node
Date: Tue Feb 07 11:09:55 GMT 2017
User: dcchb
Spectrometer: FLMS00149
Trigger mode: 0
Integration Time (sec): 2.000000E-2
Scans to average: 10
Electric dark correction enabled: true
Nonlinearity correction enabled: false
Boxcar width: 0
XAxis mode: Wavelengths
Number of Pixels in Spectrum: 2048
>>>>>Begin Spectral Data<<<<<
341.393	-18.67
341.776	-18.67
342.16	-18.67
342.543	-49.86
342.927	-61.61
343.31	-81.95
343.693	-54.83
344.077	-73.13
344.46	-68.16
344.843	-40.14
345.226	-40.37
345.61	-28.16
345.993	-40.82
346.376	4.6
346.759	17.49
347.142	29.24
347.525	57.71
347.908	61.1
348.291	60.65
348.674	83.47
349.057	113.3
349.44	142.68
349.823	134.54
350.206	182.68
350.588	206.86
350.971	210.25
351.354	223.36
351.737	239.63
352.119	273.98
352.502	268.78
352.884	271.94
353.267	276.91
353.65	297.25
354.032	303.58
354.414	329.79
354.797	326.18
355.179	306.52
355.562	323.24
355.944	327.99
356.326	336.57
356.709	359.62
357.091	318.72
357.473	327.08
357.855	346.52
358.238	359.4
358.62	358.72
359.002	351.26
359.384	348.78
359.766	360.75
360.148	337.48
360.53	353.07
360.912	331.6
361.294	348.32
361.676	366.4
362.057	345.39
362.439	340.87
362.821	338.15
363.203	343.13
363.584	305.84
363.966	315.33
364.348	338.61
364.729	343.8
365.111	334.77
365.493	349.68
365.874	337.25
366.256	324.6
366.637	344.93
367.019	328.66
367.4	313.52
367.781	320.3
368.163	327.08
368.544	345.61
368.925	306.29
369.306	328.89
369.688	335.9
370.069	315.78
370.45	336.57
370.831	335.67
371.212	337.48
371.593	350.36
371.974	353.75
372.355	336.12
372.736	347.65
373.117	345.39
373.498	355.78
373.879	330.7
374.26	335.22
374.641	364.14
375.021	351.04
375.402	320.98
375.783	368.21
376.163	356.46
376.544	356.91
376.925	362.11
377.305	349.45
377.686	360.3
378.066	342
378.447	385.16
378.827	361.21
379.208	371.37
379.588	366.63
379.968	370.92
380.349	371.15
380.729	378.83
381.109	401.43
381.489	363.24
381.87	363.69
382.25	378.15
382.63	360.98
383.01	386.29
383.39	385.61
383.77	379.06
384.15	391.49
384.53	398.72
384.91	387.19
385.29	383.13
385.67	386.74
386.049	402.11
386.429	406.63
386.809	409.11
387.189	405.05
387.568	409.11
387.948	398.27
388.328	411.6
388.707	431.49
389.087	394.2
389.466	421.09
389.846	420.19
390.225	413.86
390.605	422.45
390.984	433.52
391.363	425.38
391.743	445.5
392.122	461.99
392.501	453.63
392.881	452.5
393.26	462.9
393.639	466.74
394.018	459.06
394.397	466.06
394.776	448.89
395.155	477.59
395.534	497.02
395.913	465.38
396.292	477.81
396.671	486.63
397.05	481.65
397.429	497.25
397.808	485.04
398.186	498.15
398.565	492.95
398.944	492.73
399.323	497.47
399.701	501.99
400.08	500.41
400.458	520.75
400.837	521.43
401.215	505.61
401.594	521.2
401.972	523.01
402.351	544.03
402.729	547.87
403.107	532.27
403.486	541.99
403.864	555.32
404.242	538.15
404.62	560.3
404.999	546.06
405.377	547.87
405.755	562.78
406.133	574.31
406.511	566.62
406.889	599.62
407.267	579.96
407.645	600.07
408.023	609.79
408.401	612.05
408.779	609.11
409.156	592.61
409.534	614.08
409.912	640.07
410.29	634.87
410.667	647.3
411.045	621.09
411.422	628.09
411.8	660.18
412.178	674.64
412.555	675.77
412.933	694.53
413.31	696.79
413.687	699.95
414.065	722.1
414.442	690.46
414.819	691.82
415.197	707.18
415.574	714.42
415.951	725.04
416.328	733.85
416.705	738.14
417.082	728.65
417.46	755.77
417.837	766.39
418.214	749.22
418.591	734.75
418.967	756
419.344	778.37
419.721	782.44
420.098	764.13
420.475	808.43
420.852	766.39
421.228	826.28
421.605	798.26
421.982	831.93
422.358	829.89
422.735	823.11
423.111	825.37
423.488	820.4
423.864	842.55
424.241	851.36
424.617	835.77
424.994	864.02
425.37	847.97
425.746	866.73
426.123	870.8
426.499	894.75
426.875	892.94
427.251	901.3
427.627	911.93
428.003	929.1
428.379	939.72
428.756	970.68
429.132	976.1
429.507	955.31
429.883	983.79
430.259	998.93
430.635	989.89
431.011	995.31
431.387	1006.39
431.763	1022.43
432.138	1066.27
432.514	1033.96
432.89	1052.71
433.265	1076.89
433.641	1085.48
434.016	1099.94
434.392	1105.59
434.767	1114.86
435.143	1158.47
435.518	1121.64
435.894	1125.03
436.269	1153.5
436.644	1206.38
437.02	1198.25
437.395	1195.53
437.77	1224.69
438.145	1231.24
438.52	1213.39
438.895	1228.75
439.271	1232.37
439.646	1287.96
440.021	1265.59
440.395	1290.9
440.77	1290.45
441.145	1275.98
441.52	1282.54
441.895	1318.02
442.27	1317.79
442.645	1321.41
443.019	1342.42
443.394	1323.67
443.769	1371.12
444.143	1324.57
444.518	1388.07
444.892	1348.98
445.267	1374.51
445.641	1411.57
446.016	1414.06
446.39	1429.65
446.764	1435.3
447.139	1422.87
447.513	1432.59
447.887	1434.17
448.262	1454.28
448.636	1482.76
449.01	1461.52
449.384	1487.05
449.758	1492.7
450.132	1522.76
450.506	1521.17
450.88	1520.95
451.254	1509.2
451.628	1549.87
452.002	1559.82
452.376	1583.55
452.75	1588.07
453.123	1597.33
453.497	1622.41
453.871	1603.66
454.244	1648.4
454.618	1652.02
454.992	1678.01
455.365	1684.33
455.739	1716.42
456.112	1724.56
456.486	1765.69
456.859	1787.61
457.232	1800.04
457.606	1785.57
457.979	1812.47
458.352	1871
458.725	1868.74
459.099	1900.37
459.472	1920.03
459.845	1937.43
460.218	1953.48
460.591	1964.55
460.964	1955.06
461.337	2030.31
461.71	2036.64
462.083	2049.97
462.456	2072.8
462.829	2131.78
463.201	2114.61
463.574	2131.78
463.947	2183.76
464.32	2224.21
464.692	2212
465.065	2254.26
465.438	2288.39
465.81	2330.42
466.183	2340.36
466.555	2374.26
466.928	2401.38
467.3	2421.94
467.672	2432.34
468.045	2514.82
468.417	2524.09
468.789	2518.21
469.161	2577.64
469.534	2615.61
469.906	2730.63
470.278	2674.36
470.65	2759.79
471.022	2787.58
471.394	2831.65
471.766	2845.43
472.138	2876.85
472.51	2928.14
472.882	2997.29
473.253	3063.96
473.625	3126.33
473.997	3195.48
474.369	3165.88
474.74	3271.86
475.112	3315.25
475.484	3380.56
475.855	3404.52
476.227	3507.79
476.598	3562.48
476.97	3638.41
477.341	3721.57
477.713	3754.34
478.084	3806.54
478.455	3909.13
478.827	3957.95
479.198	4086.76
479.569	4133.31
479.94	4236.13
480.311	4268.67
480.682	4362.23
481.053	4456.92
481.424	4549.57
481.795	4590.47
482.166	4684.93
482.537	4759.96
482.908	4826.62
483.279	4922.44
483.65	4996.56
484.021	5112.94
484.391	5227.07
484.762	5233.62
485.133	5295.54
485.503	5354.07
485.874	5540.96
486.244	5540.73
486.615	5655.53
486.985	5727.17
487.356	5838.58
487.726	5897.78
488.097	5991.11
488.467	6093.26
488.837	6194.05
489.207	6261.84
489.578	6293.93
489.948	6343.42
490.318	6483.3
490.688	6518.56
491.058	6666.8
491.428	6660.47
491.798	6793.8
492.168	6903.18
492.538	6967.13
492.908	7020.69
493.278	7196.73
493.648	7111.31
494.017	7276.28
494.387	7261.14
494.757	7411.42
495.126	7471.07
495.496	7530.28
495.866	7625.19
496.235	7714.68
496.605	7744.29
496.974	7811.63
497.344	7856.6
497.713	7911.29
498.082	7996.94
498.452	8168.46
498.821	8097.95
499.19	8143.37
499.559	8227.21
499.928	8264.73
500.298	8378.17
500.667	8401.45
501.036	8408.9
501.405	8546.53
501.774	8566.19
502.143	8640.99
502.512	8687.99
502.88	8733.87
503.249	8833.3
503.618	8816.8
503.987	8910.13
504.356	8962.56
504.724	9071.71
505.093	9065.38
505.462	9093.18
505.83	9197.36
506.199	9250.01
506.567	9424.47
506.936	9386.5
507.304	9561.87
507.672	9522.09
508.041	9615.2
508.409	9678.7
508.777	9794.86
509.145	9864.23
509.514	9831.01
509.882	9972.48
510.25	10026.71
510.618	10097.45
510.986	10131.34
511.354	10343.99
511.722	10351
512.09	10470.77
512.458	10486.14
512.826	10608.62
513.193	10616.08
513.561	10662.4
513.929	10771.33
514.297	10912.57
514.664	10953.92
515.032	11039.57
515.4	11155.95
515.767	11182.16
516.135	11343.06
516.502	11272.78
516.869	11444.98
517.237	11560.91
517.604	11526.56
517.972	11665.77
518.339	11779.44
518.706	11815.59
519.073	11904.63
519.44	11978.07
519.808	12032.31
520.175	12134.91
520.542	12302.36
520.909	12483.82
521.276	12433.88
521.643	12680.43
522.009	12663.71
522.376	12789.8
522.743	12905.06
523.11	12977.14
523.477	13122.68
523.843	13211.49
524.21	13364.03
524.577	13419.62
524.943	13528.09
525.31	13675.66
525.676	13769.44
526.043	13849.44
526.409	13959.27
526.776	14129.66
527.142	14172.59
527.508	14187.96
527.874	14382.31
528.241	14437.9
528.607	14563.54
528.973	14616.65
529.339	14729.87
529.705	14807.15
530.071	14931.22
530.437	15062.51
530.803	15144.09
531.169	15137.54
531.535	15218.89
531.901	15241.27
532.267	15419.79
532.632	15427.02
532.998	15556.51
533.364	15647.36
533.73	15708.15
534.095	15858.2
534.461	15885.99
534.826	16059.32
535.192	16105.42
535.557	16187.23
535.923	16176.83
536.288	16266.32
536.653	16307.45
537.019	16341.12
537.384	16372.99
537.749	16562.36
538.114	16616.6
538.479	16602.59
538.845	16681.91
539.21	16758.29
539.575	16853.88
539.94	16925.29
540.305	16989.69
540.67	16926.87
541.034	17037.15
541.399	17037.6
541.764	17252.51
542.129	17229.69
542.494	17316.24
542.858	17306.3
543.223	17441.43
543.587	17570.92
543.952	17586.97
544.316	17699.96
544.681	17602.79
545.045	17742.22
545.41	17871.71
545.774	17934.53
546.138	17922.55
546.503	17998.26
546.867	18069.89
547.231	18171.13
547.595	18229.21
547.959	18216.78
548.324	18353.95
548.688	18393.95
549.052	18518.24
549.416	18531.57
549.779	18666.03
550.143	18698.8
550.507	18902.86
550.871	18899.02
551.235	19028.06
551.599	19184.44
551.962	19285.45
552.326	19210.88
552.689	19419.91
553.053	19404.55
553.417	19498.33
553.78	19782.16
554.143	19631.21
554.507	19811.99
554.87	19913.91
555.234	20141.48
555.597	20044.76
555.96	20247.69
556.323	20356.39
556.686	20430.96
557.05	20680.67
557.413	20655.81
557.776	20836.15
558.139	21089.47
558.502	21217.38
558.865	21120.66
559.228	21373.76
559.59	21615.34
559.953	21590.93
560.316	21862.33
560.679	21961.09
561.041	22071.59
561.404	22280.18
561.767	22533.96
562.129	22439.49
562.492	22580.73
562.854	22702.09
563.217	22869.09
563.579	23114.05
563.941	23288.29
564.304	23461.84
564.666	23691.44
565.028	23717.88
565.39	23838.33
565.753	24084.65
566.115	24165.1
566.477	24467.92
566.839	24423.62
567.201	24751.52
567.563	24851.63
567.925	25181.12
568.287	25124.85
568.648	25328.23
569.01	25567.55
569.372	25686.42
569.734	25779.97
570.095	26106.06
570.457	26223.12
570.819	26334.76
571.18	26443.91
571.542	26688.65
571.903	26789.44
572.265	26945.14
572.626	27128.19
572.987	27206.83
573.349	27483.66
573.71	27569.53
574.071	27750.99
574.432	28013.81
574.794	28252.45
575.155	28276.63
575.516	28257.87
575.877	28549.39
576.238	28689.05
576.599	28779.67
576.96	28927.69
577.32	29042.26
577.681	29366.77
578.042	29463.94
578.403	29539.42
578.763	29627.1
579.124	29815.57
579.485	29972.63
579.845	30072.06
580.206	30151.61
580.566	30162.68
580.927	30279.29
581.287	30542.78
581.648	30472.28
582.008	30763.57
582.368	30710.24
582.728	30759.05
583.089	30956.11
583.449	30909.55
583.809	31209.66
584.169	31166.95
584.529	31240.62
584.889	31433.38
585.249	31231.13
585.609	31347.51
585.969	31464.79
586.329	31477.22
586.688	31591.12
587.048	31464.12
587.408	31510.89
587.768	31654.17
588.127	31707.05
588.487	31703.43
588.846	31972.35
589.206	31782.98
589.565	31838.34
589.925	32022.52
590.284	31889.64
590.643	31982.29
591.003	32152.46
591.362	32300.25
591.721	32184.55
592.08	32154.95
592.44	32256.64
592.799	32281.27
593.158	32277.2
593.517	32319.46
593.876	32372.79
594.235	32341.16
594.593	32335.05
594.952	32523.3
595.311	32380.93
595.67	32389.06
596.029	32571.21
596.387	32648.72
596.746	32764.42
597.104	32618.89
597.463	32655.72
597.822	32669.96
598.18	32592.22
598.538	32682.39
598.897	32766.45
599.255	32460.93
599.613	33056.16
599.972	32841.48
600.33	32924.19
600.688	32757.19
601.046	32930.97
601.404	33058.65
601.762	33067.92
602.12	33200.34
602.478	33070.63
602.836	33283.73
603.194	32984.08
603.552	33189.49
603.91	32953.79
604.268	33074.7
604.625	33077.86
604.983	33244.18
605.341	33094.13
605.698	33206.9
606.056	33345.65
606.413	33364.63
606.771	33430.39
607.128	33557.39
607.485	33219.55
607.843	33331.64
608.2	33557.62
608.557	33652.76
608.914	33481.69
609.272	33694.79
609.629	33694.79
609.986	33834.22
610.343	33591.74
610.7	33824.96
611.057	33963.71
611.414	33732.98
611.771	33870.38
612.127	33990.83
612.484	33903.37
612.841	33895.92
613.198	33915.58
613.554	34023.82
613.911	34106.08
614.267	34178.85
614.624	34266.53
614.98	34160.32
615.337	34382.91
615.693	34350.14
616.05	34336.13
616.406	34278.73
616.762	34385.17
617.118	34369.58
617.475	34355.79
617.831	34570.02
618.187	34558.27
618.543	34526.18
618.899	34818.38
619.255	34726.63
619.611	34751.04
619.967	34809.56
620.323	34836.23
620.678	34581.1
621.034	34608.67
621.39	34579.74
621.746	34715.1
622.101	35149.67
622.457	34747.65
622.812	34860.19
623.168	34883.91
623.523	34909.9
623.879	35014.31
624.234	34739.74
624.589	34771.83
624.945	34919.39
625.3	34977.47
625.655	34941.09
626.01	34804.37
626.365	34898.15
626.72	34911.48
627.075	34819.28
627.43	34823.35
627.785	34718.49
628.14	34749.23
628.495	34842.11
628.85	34705.84
629.205	34726.63
629.559	34867.64
629.914	34580.87
630.269	34685.05
630.623	34645.05
630.978	34624.71
631.332	34782
631.687	34726.4
632.041	34547.88
632.396	34658.38
632.75	34488.67
633.104	34717.82
633.459	34440.99
633.813	34514.66
634.167	34341.55
634.521	34399.86
634.875	34461.55
635.229	34292.74
635.583	34170.94
635.937	34340.88
636.291	34123.26
636.645	34173.65
636.999	34205.29
637.352	34303.59
637.706	34082.58
638.06	34036.7
638.413	34123.26
638.767	34037.61
639.121	34138.17
639.474	33862.25
639.828	33977.5
640.181	33937.5
640.534	33826.09
640.888	33765.98
641.241	33586.09
641.594	33630.61
641.947	33787.9
642.301	33634.91
642.654	33725.53
643.007	33750.61
643.36	33608.01
643.713	33639.88
644.066	33740.67
644.419	33427.45
644.771	33390.85
645.124	33058.2
645.477	32895.27
645.83	32702.95
646.182	32477.42
646.535	32442.4
646.888	32479.91
647.24	32446.01
647.593	32585.89
647.945	32502.73
648.298	32431.77
648.65	32320.14
649.002	32258.9
649.355	32403.98
649.707	32366.01
650.059	32510.42
650.411	32838.09
650.763	32845.55
651.115	33234.24
651.467	33107.24
651.819	33129.61
652.171	33001.93
652.523	33029.72
652.875	33034.7
653.227	32939.56
653.578	33212.77
653.93	33090.74
654.282	32934.36
654.633	32920.58
654.985	33128.48
655.337	32972.1
655.688	33031.76
656.039	33146.56
656.391	32829.05
656.742	32848.26
657.094	32930.97
657.445	32927.35
657.796	32968.94
658.147	32896.17
658.498	32840.35
658.849	32929.61
659.2	32958.54
659.551	32854.14
659.902	32869.28
660.253	32769.17
660.604	32846.23
660.955	32671.32
661.306	32829.5
661.656	32810.52
662.007	32824.31
662.358	32718.09
662.708	32836.51
663.059	32801.26
663.409	32654.59
663.76	32798.77
664.11	32717.64
664.461	32883.74
664.811	32899.56
665.161	32770.97
665.511	32650.07
665.862	32831.31
666.212	32950.86
666.562	32842.16
666.912	32711.09
667.262	32733.91
667.612	32813.46
667.962	32716.06
668.312	32663.86
668.662	32918.09
669.011	32813.01
669.361	32690.3
669.711	32575.27
670.06	32661.6
670.41	32532.34
670.76	32500.47
671.109	32587.93
671.459	32625.89
671.808	32533.92
672.157	32688.04
672.507	32429.51
672.856	32351.78
673.205	32514.94
673.554	32510.42
673.904	32359.46
674.253	32411.44
674.602	32424.99
674.951	31907.04
675.3	31853.48
675.649	32374.37
675.998	32379.8
676.346	32321.27
676.695	32452.34
677.044	32147.26
677.393	32099.81
677.741	32172.8
678.09	32109.3
678.438	32046.93
678.787	31999.24
679.135	31989.3
679.484	31736.65
679.832	32015.29
680.181	31763.54
680.529	31879.92
680.877	31736.65
681.225	31638.12
681.573	31921.96
681.922	31714.96
682.27	31542.31
682.618	31592.93
682.966	31505.02
683.314	31465.92
683.661	31431.12
684.009	31220.05
684.357	31222.09
684.705	31236.1
685.053	31185.71
685.4	31041.3
685.748	31065.93
686.095	30990.91
686.443	30980.51
686.79	30806.73
687.138	30861.42
687.485	30878.59
687.832	30638.6
688.18	30729.22
688.527	30487.64
688.874	30501.2
689.221	30381.66
689.568	30433.18
689.915	30259.63
690.262	30161.55
690.609	30156.81
690.956	30095.11
691.303	29983.03
691.65	29784.84
691.997	29839.53
692.344	29628.01
692.69	29663.49
693.037	29517.95
693.383	29393.89
693.73	29362.93
694.077	29232.54
694.423	29250.62
694.769	29066.67
695.116	29005.2
695.462	29023.05
695.808	28822.6
696.155	28802.49
696.501	28651.08
696.847	28660.12
697.193	28372.9
697.539	28577.64
697.885	28332
698.231	28091.32
698.577	28098.78
698.923	28071.66
699.269	28002.06
699.614	27877.09
699.96	27748.73
700.306	27715.29
700.651	27519.14
700.997	27531.11
701.342	27477.33
701.688	27440.49
702.033	27296.54
702.379	27341.96
702.724	27130.22
703.069	27257.9
703.415	26954.4
703.76	26943.78
704.105	26897.46
704.45	26732.72
704.795	26630.57
705.14	26549.67
705.485	26510.12
705.83	26412.5
706.175	26401.42
706.52	26347.41
706.865	26125.27
707.209	26048.44
707.554	26097.25
707.899	26029
708.243	26059.96
708.588	25822.91
708.932	25706.75
709.277	25706.08
709.621	25694.32
709.966	25537.27
710.31	25690.93
710.654	25366.88
710.998	25459.08
711.342	25396.25
711.687	25285.52
712.031	25226.31
712.375	25096.37
712.719	25196.03
713.063	25194.68
713.407	25210.95
713.75	25115.36
714.094	25027.68
714.438	24972.76
714.782	25038.52
715.125	24819.09
715.469	24837.85
715.812	24687.57
716.156	24694.12
716.499	24702.71
716.843	24702.71
717.186	24617.52
717.53	24670.62
717.873	24652.77
718.216	24496.39
718.559	24390.86
718.902	24268.37
719.246	24254.36
719.589	24329.39
719.932	24210.75
720.275	24236.74
720.617	24145.44
720.96	24157.42
721.303	24075.61
721.646	24117.19
721.989	24012.11
722.331	24157.19
722.674	24017.31
723.016	24020.47
723.359	24004.2
723.701	24018.66
724.044	23902.73
724.386	23845.11
724.729	24017.76
725.071	23920.81
725.413	23860.02
725.755	23825.9
726.097	23785.22
726.439	23771.89
726.782	23691.44
727.124	23729.63
727.465	23700.48
727.807	23712
728.149	23627.03
728.491	23601.27
728.833	23723.08
729.175	23607.83
729.516	23610.54
729.858	23584.78
730.199	23632.46
730.541	23528.28
730.882	23557.66
731.224	23627.49
731.565	23470.43
731.906	23578.67
732.248	23530.31
732.589	23405.57
732.93	23409.19
733.271	23459.13
733.612	23505
733.953	23478.34
734.294	23384.1
734.635	23307.49
734.976	23399.24
735.317	23356.98
735.658	23411.9
735.999	23470.43
736.339	23424.33
736.68	23535.51
737.021	23336.19
737.361	23242.41
737.702	23369.64
738.042	23419.58
738.383	23373.93
738.723	23409.19
739.063	23345.01
739.404	23515.62
739.744	23331.45
740.084	23371
740.424	23349.08
740.764	23339.81
741.104	23333.26
741.444	23243.77
741.784	23303.43
742.124	23347.72
742.464	23290.77
742.804	23307.04
743.143	23245.12
743.483	23184.79
743.823	23119.48
744.162	23241.28
744.502	23329.64
744.841	23143.21
745.181	23349.98
745.52	23271.11
745.86	23278.57
746.199	23109.31
746.538	23226.59
746.877	23229.08
747.216	23186.37
747.556	23168.06
747.895	23313.14
748.234	23176.2
748.573	23123.32
748.911	23097.33
749.25	23232.69
749.589	23053.94
749.928	23158.35
750.267	23165.58
750.605	23128.97
750.944	23142.3
751.283	22959.48
751.621	23071.79
751.96	23019.82
752.298	23078.57
752.636	23167.16
752.975	23051.46
753.313	23051.46
753.651	23029.31
753.989	22867.05
754.327	22947.96
754.666	22813.27
755.004	22903.21
755.342	22790.45
755.679	22837.68
756.017	22670.22
756.355	22738.24
756.693	22635.42
757.031	22715.19
757.368	22605.14
757.706	22655.53
758.044	22429.33
758.381	22596.78
758.719	22496.67
759.056	22594.07
759.394	22308.2
759.731	22411.02
760.068	22363.34
760.405	22268.88
760.743	22140.07
761.08	22284.7
761.417	22139.62
761.754	21981.88
762.091	22046.51
762.428	21946.17
762.765	21840.64
763.102	21960.19
763.438	21787.76
763.775	21714.09
764.112	21705.5
764.449	21708.21
764.785	21627.31
765.122	21470.03
765.458	21395
765.795	21399.07
766.131	21350.71
766.467	21329.02
766.804	21302.8
767.14	21188.45
767.476	21112.52
767.812	20891.74
768.148	20985.97
768.485	20897.16
768.821	20770.61
769.157	20729.03
769.492	20763.83
769.828	20704.17
770.164	20564.29
770.5	20512.54
770.836	20449.04
771.171	20321.36
771.507	20134.02
771.842	20147.35
772.178	20178.54
772.513	20141.02
772.849	19989.16
773.184	19935.38
773.519	19994.14
773.855	19878.88
774.19	19787.59
774.525	19741.03
774.86	19697.19
775.195	19631.88
775.53	19575.62
775.865	19514.83
776.2	19379.01
776.535	19197.09
776.87	19274.15
777.205	19125.91
777.539	19005.91
777.874	19198.68
778.209	18918.23
778.543	18847.27
778.878	18833.26
779.212	18793.49
779.547	18717.78
779.881	18710.78
780.215	18557.34
780.55	18593.95
780.884	18528.41
781.218	18456.1
781.552	18370.68
781.886	18282.99
782.22	18264.46
782.554	18194.63
782.888	17963
783.222	17852.04
783.556	17962.32
783.889	17880.07
784.223	17710.58
784.557	17806.62
784.89	17734.76
785.224	17506.07
785.557	17434.43
785.891	17449.12
786.224	17455.67
786.558	17413.86
786.891	17234.21
787.224	17094.32
787.557	17162.8
787.891	17156.24
788.224	17101.33
788.557	17020.2
788.89	16998.51
789.223	16907.21
789.556	16780.21
789.888	16897.04
790.221	16715.58
790.554	16657.95
790.887	16638.74
791.219	16538.63
791.552	16503.61
791.884	16402.59
792.217	16433.78
792.549	16351.07
792.882	16200.11
793.214	16117.18
793.546	16179.77
793.879	16024.75
794.211	15974.13
794.543	16038.31
794.875	15935.71
795.207	16003.96
795.539	15866.11
795.871	15937.07
796.203	15722.16
796.535	15719.67
796.867	15659.33
797.198	15588.15
797.53	15574.36
797.862	15385.22
798.193	15478.77
798.525	15399.23
798.856	15387.93
799.188	15210.31
799.519	15199.69
799.85	15136.18
800.182	15188.39
800.513	15088.28
800.844	15061.38
801.175	15110.65
801.506	15098.22
801.837	14883.76
802.168	14925.34
802.499	14982.74
802.83	14770.77
803.161	14775.74
803.491	14730.77
803.822	14734.61
804.153	14678.34
804.483	14536.43
804.814	14500.72
805.145	14548.63
805.475	14515.41
805.805	14454.62
806.136	14445.81
806.466	14392.02
806.796	14427.95
807.126	14225.7
807.457	14178.92
807.787	14268.41
808.117	14162.2
808.447	14086.49
808.777	14095.08
809.107	14070.22
809.436	14055.76
809.766	13973.73
810.096	13898.93
810.426	13926.5
810.755	13933.96
811.085	13829.78
811.414	13793.39
811.744	13674.75
812.073	13701.19
812.403	13627.75
812.732	13589.56
813.061	13602.44
813.39	13490.58
813.719	13497.58
814.049	13577.13
814.378	13497.58
814.707	13426.4
815.036	13354.31
815.365	13324.25
815.693	13159.29
816.022	13264.14
816.351	13205.84
816.68	13132.39
817.008	13194.99
817.337	13112.96
817.665	13027.09
817.994	13053.3
818.322	12987.31
818.651	12995.68
818.979	12980.76
819.307	13060.76
819.636	12925.62
819.964	12823.48
820.292	12980.76
820.62	12860.99
820.948	12859.63
821.276	12914.55
821.604	12852.85
821.932	12879.97
822.259	12872.97
822.587	12820.76
822.915	12830.48
823.243	12826.19
823.57	12794.78
823.898	12892.18
824.225	12721.11
824.553	12750.71
824.88	12740.54
825.207	12772.86
825.535	12727.89
825.862	12790.93
826.189	12814.89
826.516	12824.83
826.843	12928.11
827.17	12791.16
827.497	12860.31
827.824	12781.22
828.151	12847.66
828.478	12777.83
828.805	12849.01
829.131	12837.71
829.458	12736.92
829.785	12704.38
830.111	12735.8
830.438	12743.48
830.764	12725.85
831.09	12747.55
831.417	12679.75
831.743	12719.07
832.069	12671.16
832.395	12703.25
832.722	12708.23
833.048	12635.46
833.374	12677.72
833.7	12632.75
834.026	12595.69
834.351	12660.77
834.677	12642.24
835.003	12615.35
835.329	12525.41
835.654	12616.93
835.98	12505.07
836.306	12495.58
836.631	12466.88
836.956	12515.46
837.282	12487.21
837.607	12488.12
837.932	12406.76
838.258	12417.84
838.583	12361.79
838.908	12351.4
839.233	12334.68
839.558	12313.89
839.883	12335.13
840.208	12242.47
840.533	12251.29
840.858	12343.26
841.182	12264.17
841.507	12239.99
841.832	12142.14
842.156	12230.5
842.481	12162.7
842.805	12066.66
843.13	12118.64
843.454	12091.97
843.778	11951.41
844.103	11998.41
844.427	11945.76
844.751	11893.56
845.075	11860.79
845.399	11875.7
845.723	11872.54
846.047	11868.02
846.371	11729.95
846.695	11657.63
847.019	11614.69
847.343	11594.81
847.666	11490.18
847.99	11463.29
848.313	11388.71
848.637	11391.42
848.96	11377.41
849.284	11366.79
849.607	11194.82
849.931	11195.72
850.254	11123.63
850.577	11058.1
850.9	11022.62
851.223	11067.36
851.546	11034.6
851.869	10909.18
852.192	10913.47
852.515	10854.94
852.838	10872.34
853.161	10820.59
853.483	10732.68
853.806	10751.21
854.129	10764.77
854.451	10590.09
854.774	10602.97
855.096	10590.09
855.419	10560.71
855.741	10513.48
856.063	10497.44
856.385	10461.05
856.708	10436.87
857.03	10384.44
857.352	10352.35
857.674	10307.84
857.996	10347.38
858.318	10222.87
858.64	10196.43
858.961	10196.43
859.283	10199.82
859.605	10098.12
859.926	10143.32
860.248	10089.09
860.57	10083.21
860.891	10073.49
861.212	10033.95
861.534	10023.1
861.855	9965.02
862.176	9967.51
862.498	10006.6
862.819	9925.25
863.14	9880.5
863.461	9910.11
863.782	9920.05
864.103	9878.24
864.424	9830.56
864.745	9809.77
865.065	9772.03
865.386	9768.64
865.707	9831.92
866.027	9759.38
866.348	9745.37
866.668	9735.2
866.989	9669.21
867.309	9673.95
867.63	9603.45
867.95	9664.24
868.27	9573.62
868.59	9609.32
868.91	9565.48
869.23	9555.09
869.55	9503.34
869.87	9571.36
870.19	9470.8
870.51	9536.33
870.83	9524.58
871.15	9452.04
871.469	9452.04
871.789	9476.9
872.109	9457.46
872.428	9410.01
872.748	9400.06
873.067	9396
873.386	9410.68
873.706	9414.53
874.025	9337.47
874.344	9293.4
874.663	9359.61
874.982	9266.28
875.301	9335.43
875.62	9249.56
875.939	9276
876.258	9255.43
876.577	9210.46
876.896	9178.6
877.214	9115.55
877.533	9161.43
877.852	9119.62
878.17	9185.61
878.489	9156.68
878.807	9119.17
879.125	9124.82
879.444	9140.64
879.762	9070.58
880.08	9088.21
880.398	9041.43
880.716	9047.08
881.034	9033.29
881.352	9017.93
881.67	8948.78
881.988	8939.74
882.306	8948.1
882.624	9002.56
882.941	8917.14
883.259	8865.39
883.577	8851.6
883.894	8829.46
884.212	8823.58
884.529	8802.34
884.846	8789.68
885.164	8751.49
885.481	8759.4
885.798	8755.11
886.115	8669.01
886.432	8638.73
886.75	8592.18
887.067	8631.72
887.383	8605.28
887.7	8659.29
888.017	8552.4
888.334	8561.22
888.651	8501.33
888.967	8519.63
889.284	8510.37
889.6	8457.26
889.917	8401.22
890.233	8438.28
890.55	8368.23
890.866	8350.6
891.182	8364.84
891.498	8359.64
891.815	8297.72
892.131	8319.19
892.447	8271.05
892.763	8151.06
893.079	8175.91
893.395	8212.3
893.71	8239.19
894.026	8151.06
894.342	8137.27
894.657	7998.29
894.973	8061.57
895.289	8042.59
895.604	8034.9
895.92	7950.38
896.235	7981.57
896.55	7917.39
896.865	7878.75
897.181	7953.1
897.496	7865.64
897.811	7831.29
898.126	7776.83
898.441	7796.94
898.756	7807.79
899.071	7750.39
899.386	7715.14
899.7	7705.42
900.015	7664.52
900.33	7599.88
900.644	7542.94
900.959	7561.02
901.273	7444.41
901.588	7471.98
901.902	7503.62
902.216	7431.53
902.531	7330.06
902.845	7382.04
903.159	7353.56
903.473	7294.36
903.787	7249.84
904.101	7256.84
904.415	7302.72
904.729	7226.11
905.042	7178.65
905.356	7135.72
905.67	7128.03
905.984	7139.11
906.297	7130.29
906.611	7012.56
906.924	7048.04
907.237	7033.57
907.551	6963.29
907.864	7025.44
908.177	6927.36
908.491	6965.78
908.804	6936.85
909.117	6870.19
909.43	6846.91
909.743	6846.01
910.056	6803.75
910.368	6778.21
910.681	6684.43
910.994	6695.5
911.307	6660.02
911.619	6646.01
911.932	6646.24
912.244	6572.34
912.557	6595.62
912.869	6525.34
913.181	6495.28
913.494	6534.38
913.806	6471.1
914.118	6483.98
914.43	6368.73
914.742	6413.02
915.054	6366.47
915.366	6322.4
915.678	6258.45
915.99	6334.61
916.302	6222.75
916.613	6215.06
916.925	6197.44
917.236	6169.87
917.548	6188.17
917.859	6133.93
918.171	6110.88
918.482	6096.2
918.794	6093.94
919.105	6076.31
919.416	6048.06
919.727	6029.53
920.038	5961.74
920.349	5942.75
920.66	5905.01
920.971	5950.21
921.282	5865.47
921.593	5780.05
921.903	5866.15
922.214	5811.68
922.525	5787.96
922.835	5701.4
923.146	5748.86
923.456	5707.05
923.767	5690.1
924.077	5670.9
924.387	5654.85
924.697	5598.36
925.008	5585.25
925.318	5549.09
925.628	5545.93
925.938	5510.67
926.248	5451.92
926.558	5471.81
926.867	5465.48
927.177	5401.07
927.487	5378.7
927.796	5342.09
928.106	5374.41
928.416	5319.49
928.725	5356.33
929.034	5268.19
929.344	5334.86
929.653	5258.03
929.962	5207.18
930.271	5193.62
930.581	5204.47
930.89	5172.15
931.199	5098.93
931.508	5056.22
931.817	5121.53
932.125	5055.77
932.434	5073.4
932.743	5024.13
933.051	5005.15
933.36	4964.93
933.669	4929.22
933.977	4907.3
934.286	4954.53
934.594	4914.31
934.902	4874.53
935.21	4867.3
935.519	4851.26
935.827	4833.86
936.135	4828.43
936.443	4783.01
936.751	4740.3
937.059	4750.92
937.367	4719.73
937.674	4706.63
937.982	4682.22
938.29	4696.01
938.597	4632.28
938.905	4605.39
939.213	4600.64
939.52	4539.85
939.827	4564.48
940.135	4552.28
940.442	4548.21
940.749	4508.67
941.056	4520.64
941.363	4464.15
941.67	4484.71
941.977	4451.04
942.284	4426.41
942.591	4407.65
942.898	4367.43
943.205	4389.57
943.511	4353.42
943.818	4340.54
944.125	4272.51
944.431	4228
944.738	4249.92
945.044	4265.96
945.35	4203.59
945.657	4231.39
945.963	4179.41
946.269	4160.2
946.575	4171.95
946.881	4115.23
947.187	4121.78
947.493	4090.6
947.799	4069.58
948.105	4090.82
948.41	4044.72
948.716	4088.56
949.022	4030.94
949.327	4048.11
949.633	3981
949.938	3986.19
950.244	4014.89
950.549	3931.05
950.854	3910.04
951.16	3928.34
951.465	3901.68
951.77	3861
952.075	3838.63
952.38	3852.64
952.685	3787.78
952.99	3807.89
953.294	3809.48
953.599	3785.3
953.904	3755.92
954.209	3740.55
954.513	3715.69
954.818	3692.87
955.122	3687.45
955.426	3647.9
955.731	3646.32
956.035	3624.62
956.339	3643.38
956.643	3618.52
956.948	3610.16
957.252	3599.76
957.556	3569.03
957.86	3548.24
958.163	3505.53
958.467	3523.83
958.771	3520.67
959.075	3481.8
959.378	3469.82
959.682	3467.11
959.985	3430.28
960.289	3390.5
960.592	3445.42
960.896	3425.76
961.199	3430.95
961.502	3395.48
961.805	3348.47
962.108	3358.64
962.411	3331.07
962.714	3296.72
963.017	3296.27
963.32	3279.77
963.623	3309.38
963.926	3282.48
964.228	3244.52
964.531	3223.05
964.833	3222.82
965.136	3209.94
965.438	3199.1
965.741	3200.68
966.043	3166.33
966.345	3197.97
966.648	3166.1
966.95	3156.84
967.252	3105.99
967.554	3120
967.856	3057.86
968.158	3031.64
968.46	3059.44
968.761	3060.8
969.063	3027.58
969.365	3006.33
969.666	3051.76
969.968	3023.96
970.269	2966.79
970.571	2963.85
970.872	2967.24
971.174	2911.65
971.475	2910.74
971.776	2871.2
972.077	2922.49
972.378	2872.33
972.679	2909.16
972.98	2851.76
973.281	2899.67
973.582	2846.11
973.883	2844.98
974.183	2817.19
974.484	2801.82
974.785	2763.63
975.085	2818.99
975.386	2801.59
975.686	2756.62
975.986	2744.19
976.287	2751.2
976.587	2679.79
976.887	2709.84
977.187	2689.51
977.487	2694.03
977.787	2653.57
978.087	2676.85
978.387	2666
978.687	2612.45
978.987	2633.69
979.286	2627.81
979.586	2627.13
979.885	2590.53
980.185	2577.42
980.484	2578.1
980.784	2564.31
981.083	2549.17
981.382	2526.12
981.682	2560.02
981.981	2531.77
982.28	2514.14
982.579	2506.01
982.878	2487.03
983.177	2489.51
983.475	2470.08
983.774	2457.65
984.073	2445.9
984.372	2468.04
984.67	2437.99
984.969	2429.85
985.267	2424.88
985.566	2442.28
985.864	2417.42
986.162	2382.17
986.461	2339.23
986.759	2374.03
987.057	2343.75
987.355	2324.54
987.653	2356.86
987.951	2282.06
988.249	2283.19
988.547	2294.94
988.844	2293.58
989.142	2278.22
989.44	2242.74
989.737	2252.45
990.035	2263.3
990.332	2234.15
990.63	2226.24
990.927	2214.94
991.224	2207.71
991.521	2203.64
991.819	2173.36
992.116	2144.44
992.413	2160.71
992.71	2175.62
993.006	2133.81
993.303	2163.64
993.6	2084.1
993.897	2107.83
994.193	2121.16
994.49	2097.88
994.787	2094.72
995.083	2068.73
995.379	2076.19
995.676	2061.05
995.972	2062.63
996.268	2036.19
996.565	2038.9
996.861	2026.25
997.157	2008.62
997.453	2000.03
997.749	2006.13
998.044	1973.37
998.34	1972.01
998.636	1965.23
998.932	1975.63
999.227	1927.72
999.523	1908.96
999.818	1932.92
1000.114	1893.59
1000.409	1913.03
1000.704	1909.19
1001	1860.6
1001.295	1877.55
1001.59	1877.1
1001.885	1877.55
1002.18	1838.45
1002.475	1855.63
1002.77	1825.8
1003.065	1798
1003.359	1812.24
1003.654	1797.1
1003.949	1780.83
1004.243	1780.6
1004.538	1774.95
1004.832	1760.04
1005.127	1778.8
1005.421	1746.48
1005.715	1750.55
1006.009	1738.12
1006.304	1724.56
1006.598	1713.26
1006.892	1680.04
1007.186	1667.61
1007.48	1690.89
1007.773	1640.49
1008.067	1646.6
1008.361	1666.26
1008.655	1622.87
1008.948	1624.67
1009.242	1632.81
1009.535	1617.44
1009.829	1612.7
1010.122	1618.8
1010.415	1562.53
1010.708	1570.21
1011.001	1540.38
1011.295	1558.91
1011.588	1572.02
1011.881	1549.87
1012.173	1535.41
1012.466	1534.51
1012.759	1510.78
1013.052	1499.48
1013.344	1511.23
1013.637	1509.65
1013.93	1491.8
1014.222	1463.78
1014.514	1460.16
1014.807	1426.71
1015.099	1445.02
1015.391	1445.7
1015.683	1435.08
1015.976	1445.92
1016.268	1415.41
1016.56	1419.26
1016.851	1417.22
1017.143	1373.16
1017.435	1399.6
1017.727	1389.43
1018.018	1355.08
1018.31	1348.3
1018.602	1346.04
1018.893	1379.48
1019.185	1329.09
1019.476	1292.03
1019.767	1291.12
1020.058	1321.41
1020.35	1303.55
1020.641	1307.17
1020.932	1306.94
1021.223	1276.44
1021.514	1266.72
1021.804	1242.09
1022.095	1256.77
1022.386	1237.11
1022.677	1239.83
1022.967	1232.14
1023.258	1214.74
1023.548	1218.36
1023.839	1226.04
1024.129	1214.74
1024.419	1209.54
1024.709	1178.58
1025	1172.94
1025.29	1169.32
1025.58	1168.19
1025.87	1157.79
1026.16	1173.16
1026.449	1150.79
1026.739	1149.21
1027.029	1154.18
1027.319	1122.32
1027.608	1121.86
1027.898	1110.34
1028.187	1094.97
1028.477	1114.86
1028.766	1082.32
1029.055	1073.95
1029.344	1085.48
1029.634	1079.15
1029.923	1061.98
1030.212	1048.42
1030.501	1043.67
1030.79	1024.01
1031.078	1042.32
1031.367	1037.57
1031.656	1018.82
1031.945	1006.61
1032.233	994.18
1032.522	998.7
1032.81	1016.78
1033.099	1003
1033.387	986.73
1033.675	993.5
1033.963	957.57
1034.251	973.17
1034.54	967.06
1034.828	935.88
1035.116	962.77
1035.403	948.99
1035.691	963.68
1035.979	949.66
1036.267	915.99
1036.554	907.18
1036.842	912.38
1037.129	914.86
1037.417	898.82
1037.704	905.6
1037.992	902.89
1038.279	887.75
1038.566	881.42
1038.853	881.42
1039.14	881.42
