Data from tablewood_brown_FLMS001491_048.txt Node
Date: Tue Feb 07 11:10:31 GMT 2017
User: dcchb
Spectrometer: FLMS00149
Trigger mode: 0
Integration Time (sec): 2.000000E-2
Scans to average: 10
Electric dark correction enabled: true
Nonlinearity correction enabled: false
Boxcar width: 0
XAxis mode: Wavelengths
Number of Pixels in Spectrum: 2048
>>>>>Begin Spectral Data<<<<<
341.393	21.43
341.776	21.43
342.16	21.43
342.543	-77.55
342.927	-79.36
343.31	-69.87
343.693	-73.71
344.077	-72.36
344.46	-66.26
344.843	-45.24
345.226	-52.7
345.61	-19.25
345.993	-18.57
346.376	9.9
346.759	-0.95
347.142	32.95
347.525	36.57
347.908	60.52
348.291	70.24
348.674	96.23
349.057	112.5
349.44	136
349.823	147.07
350.206	173.29
350.588	213.51
350.971	209.67
351.354	219.84
351.737	234.98
352.119	244.24
352.502	244.24
352.884	281.98
353.267	282.89
353.65	287.63
354.032	296.45
354.414	291.48
354.797	336.45
355.179	326.95
355.562	332.6
355.944	340.74
356.326	347.07
356.709	341.87
357.091	339.84
357.473	347.97
357.855	348.2
358.238	332.38
358.62	332.83
359.002	346.84
359.384	352.72
359.766	352.49
360.148	363.11
360.53	339.16
360.912	324.47
361.294	349.78
361.676	334.19
362.057	343
362.439	328.99
362.821	332.15
363.203	342.55
363.584	340.06
363.966	332.15
364.348	318.82
364.729	350.46
365.111	333.73
365.493	330.34
365.874	354.3
366.256	316.33
366.637	323.34
367.019	342.32
367.4	351.13
367.781	333.06
368.163	332.83
368.544	330.34
368.925	320.4
369.306	332.15
369.688	335.99
370.069	318.14
370.45	330.8
370.831	315.43
371.212	354.52
371.593	315.88
371.974	335.99
372.355	325.37
372.736	332.38
373.117	370.12
373.498	327.41
373.879	339.16
374.26	306.16
374.641	309.33
375.021	335.54
375.402	345.49
375.783	331.7
376.163	351.81
376.544	347.52
376.925	358.37
377.305	342.55
377.686	328.76
378.066	358.59
378.447	361.53
378.827	343.9
379.208	337.35
379.588	340.06
379.968	347.07
380.349	358.14
380.729	354.07
381.109	368.54
381.489	365.82
381.87	375.77
382.25	375.54
382.63	375.77
383.01	366.95
383.39	373.28
383.77	378.7
384.15	358.59
384.53	387.74
384.91	392.94
385.29	373.28
385.67	380.29
386.049	405.6
386.429	383.9
386.809	399.95
387.189	392.94
387.568	370.57
387.948	395.2
388.328	411.25
388.707	395.88
389.087	396.33
389.466	422.77
389.846	409.89
390.225	398.14
390.605	412.38
390.984	408.08
391.363	420.51
391.743	426.16
392.122	416.9
392.501	410.12
392.881	426.61
393.26	411.02
393.639	432.26
394.018	424.13
394.397	437.46
394.776	431.81
395.155	440.85
395.534	460.96
395.913	453.51
396.292	453.05
396.671	460.28
397.05	474.97
397.429	462.09
397.808	465.71
398.186	472.71
398.565	460.51
398.944	459.15
399.323	450.12
399.701	468.87
400.08	475.65
400.458	494.18
400.837	505.26
401.215	483.11
401.594	520.17
401.972	494.41
402.351	494.18
402.729	524.01
403.107	532.82
403.486	516.55
403.864	514.75
404.242	513.39
404.62	502.54
404.999	525.37
405.377	529.44
405.755	519.72
406.133	535.08
406.511	544.12
406.889	535.76
407.267	533.05
407.645	550.45
408.023	549.77
408.401	557.46
408.779	555.2
409.156	590.9
409.534	589.55
409.912	575.99
410.29	599.72
410.667	585.93
411.045	590
411.422	596.1
411.8	620.73
412.178	622.09
412.555	620.96
412.933	620.96
413.31	627.96
413.687	610.34
414.065	629.55
414.442	648.75
414.819	659.6
415.197	649.66
415.574	657.34
415.951	665.7
416.328	692.82
416.705	667.96
417.082	696.66
417.46	703.22
417.837	689.66
418.214	685.59
418.591	697.11
418.967	688.75
419.344	700.96
419.721	708.64
420.098	728.07
420.475	716.77
420.852	735.31
421.228	740.05
421.605	761.52
421.982	722.42
422.358	748.86
422.735	755.19
423.111	738.92
423.488	763.55
423.864	789.09
424.241	743.21
424.617	787.06
424.994	749.54
425.37	796.09
425.746	787.73
426.123	809.88
426.499	820.5
426.875	801.07
427.251	813.5
427.627	835.64
428.003	851.69
428.379	832.03
428.756	851.91
429.132	874.96
429.507	859.37
429.883	861.86
430.259	868.86
430.635	886.49
431.011	884
431.387	903.66
431.763	922.19
432.138	909.76
432.514	938.01
432.89	944.11
433.265	967.84
433.641	983.43
434.016	984.11
434.392	994.06
434.767	991.57
435.143	994.06
435.518	1016.43
435.894	1039.25
436.269	1044.45
436.644	1069.76
437.02	1060.27
437.395	1041.96
437.77	1091.23
438.145	1080.61
438.52	1102.08
438.895	1101.4
439.271	1138.01
439.646	1125.35
440.021	1097.33
440.395	1130.78
440.77	1135.3
441.145	1146.82
441.52	1145.46
441.895	1192.92
442.27	1169.87
442.645	1166.93
443.019	1184.11
443.394	1200.83
443.769	1189.76
444.143	1213.26
444.518	1226.82
444.892	1238.34
445.267	1215.07
445.641	1252.58
446.016	1235.86
446.39	1248.74
446.764	1251.9
447.139	1253.48
447.513	1292.13
447.887	1289.64
448.262	1270.43
448.636	1294.84
449.01	1318.79
449.384	1324.44
449.758	1303.2
450.132	1346.14
450.506	1341.39
450.88	1355.63
451.254	1368.74
451.628	1365.57
452.002	1399.92
452.376	1399.02
452.75	1411.67
453.123	1379.58
453.497	1430.43
453.871	1420.03
454.244	1460.48
454.618	1466.36
454.992	1487.6
455.365	1501.39
455.739	1507.71
456.112	1537.77
456.486	1560.37
456.859	1565.57
457.232	1599.24
457.606	1601.05
457.979	1591.55
458.352	1635.39
458.725	1615.06
459.099	1665.45
459.472	1664.09
459.845	1715.84
460.218	1721.04
460.591	1761.27
460.964	1719.69
461.337	1765.79
461.71	1807.59
462.083	1847.37
462.456	1829.51
462.829	1841.04
463.201	1862.28
463.574	1906.57
463.947	1913.81
464.32	1946.12
464.692	1968.95
465.065	1994.48
465.438	2018.89
465.81	2009.4
466.183	2070.19
466.555	2111.54
466.928	2111.54
467.3	2124.87
467.672	2142.5
468.045	2200.13
468.417	2240.8
468.789	2257.98
469.161	2278.54
469.534	2306.34
469.906	2349.95
470.278	2415.94
470.65	2430.18
471.022	2473.56
471.394	2506.11
471.766	2560.57
472.138	2583.84
472.51	2623.39
472.882	2690.51
473.253	2723.73
473.625	2786.33
473.997	2836.72
474.369	2830.39
474.74	2888.47
475.112	2983.38
475.484	3013.21
475.855	3054.57
476.227	3105.41
476.598	3182.47
476.97	3244.84
477.341	3281
477.713	3378.4
478.084	3424.73
478.455	3523.48
478.827	3510.37
479.198	3639.86
479.569	3666.08
479.94	3791.72
480.311	3809.57
480.682	3896.58
481.053	4016.8
481.424	4076.01
481.795	4119.4
482.166	4155.55
482.537	4212.73
482.908	4368.66
483.279	4435.32
483.65	4490.46
484.021	4582.66
484.391	4653.85
484.762	4675.31
485.133	4803
485.503	4852.94
485.874	4955.53
486.244	5003.22
486.615	5095.19
486.985	5163.21
487.356	5260.38
487.726	5323.43
488.097	5409.76
488.467	5420.15
488.837	5555.97
489.207	5663.54
489.578	5699.92
489.948	5782.86
490.318	5855.62
490.688	5900.14
491.058	5999.57
491.428	6092
491.798	6118.44
492.168	6263.97
492.538	6309.62
492.908	6396.17
493.278	6427.59
493.648	6475.95
494.017	6576.96
494.387	6656.51
494.757	6709.39
495.126	6786.45
495.496	6799.78
495.866	6825.09
496.235	6973.56
496.605	6943.28
496.974	7094.69
497.344	7124.52
497.713	7112.99
498.082	7248.58
498.452	7383.72
498.821	7371.97
499.19	7378.07
499.559	7411.29
499.928	7479.08
500.298	7582.58
500.667	7652.86
501.036	7668.23
501.405	7671.62
501.774	7724.05
502.143	7824.84
502.512	7835.91
502.88	7932.18
503.249	7944.83
503.618	8029.58
503.987	8036.36
504.356	8124.04
504.724	8229.12
505.093	8236.8
505.462	8298.95
505.83	8341.21
506.199	8409.91
506.567	8548.66
506.936	8582.78
507.304	8642.22
507.672	8694.87
508.041	8760.86
508.409	8794.53
508.777	8822.1
509.145	8995.2
509.514	9033.84
509.882	9037.69
510.25	9034.07
510.618	9157.46
510.986	9232.03
511.354	9375.3
511.722	9409.65
512.09	9465.7
512.458	9527.16
512.826	9546.6
513.193	9668.18
513.561	9774.62
513.929	9812.58
514.297	9916.08
514.664	9998.56
515.032	10018.45
515.4	10154.72
515.767	10170.31
516.135	10236.07
516.502	10324.66
516.869	10427.03
517.237	10531.88
517.604	10519.68
517.972	10636.51
518.339	10802.84
518.706	10791.76
519.073	10862.04
519.44	10982.27
519.808	11036.96
520.175	11115.15
520.542	11226.33
520.909	11389.04
521.276	11323.05
521.643	11493.67
522.009	11600.78
522.376	11656.83
522.743	11798.29
523.11	11914.9
523.477	12016.82
523.843	12115.8
524.21	12189.69
524.577	12335.9
524.943	12360.76
525.31	12439.63
525.676	12623.13
526.043	12686.4
526.409	12749.68
526.776	12928.88
527.142	12920.3
527.508	13062.67
527.874	13130.23
528.241	13221.3
528.607	13223.11
528.973	13355.99
529.339	13386.72
529.705	13594.85
530.071	13720.5
530.437	13761.18
530.803	13840.05
531.169	13871.68
531.535	13917.56
531.901	14001.17
532.267	14093.15
532.632	14173.14
532.998	14266.7
533.364	14308.73
533.73	14398.45
534.095	14524.55
534.461	14525.68
534.826	14556.19
535.192	14734.71
535.557	14816.97
535.923	14793.92
536.288	14789.63
536.653	14949.17
537.019	14972.9
537.384	15036.85
537.749	15112.55
538.114	15130.18
538.479	15253.12
538.845	15226.9
539.21	15203.85
539.575	15344.19
539.94	15411.76
540.305	15512.77
540.67	15544.63
541.034	15676.61
541.399	15764.97
541.764	15687
542.129	15756.15
542.494	15867.11
542.858	15957.5
543.223	15907.79
543.587	16011.51
543.952	16025.3
544.316	16055.81
544.681	16048.12
545.045	16245.86
545.41	16321.34
545.774	16356.36
546.138	16310.94
546.503	16464.84
546.867	16508.45
547.231	16621.89
547.595	16646.07
547.959	16762.45
548.324	16722.46
548.688	16824.6
549.052	16912.06
549.416	16977.14
549.779	16994.31
550.143	17110.92
550.507	17300.75
550.871	17342.55
551.235	17318.15
551.599	17578.48
551.962	17523.11
552.326	17600.62
552.689	17692.15
553.053	17668.65
553.417	17781.41
553.78	18092.14
554.143	18061.4
554.507	18243.32
554.87	18262.75
555.234	18480.83
555.597	18492.13
555.96	18587.04
556.323	18676.3
556.686	18702.29
557.05	18916.97
557.413	19086.69
557.776	19104.77
558.139	19353.12
558.502	19467.02
558.865	19436.51
559.228	19674.24
559.59	19624.98
559.953	19798.08
560.316	19981.35
560.679	20004.18
561.041	20334.79
561.404	20336.15
561.767	20620.43
562.129	20501.57
562.492	20939.07
562.854	20965.51
563.217	21006.86
563.579	21100.65
563.941	21387.19
564.304	21592.38
564.666	21636.45
565.028	21857.91
565.39	21912.15
565.753	22140.62
566.115	22313.95
566.477	22400.05
566.839	22572.02
567.201	22741.28
567.563	22856.53
567.925	23132
568.287	23142.63
568.648	23311.44
569.01	23472.56
569.372	23745.77
569.734	23783.97
570.095	24000.23
570.457	24214.01
570.819	24258.08
571.18	24377.62
571.542	24557.73
571.903	24795.24
572.265	24907.55
572.626	25057.6
572.987	25118.62
573.349	25365.84
573.71	25484.71
574.071	25636.8
574.432	25789.34
574.794	25941.2
575.155	26106.16
575.516	26137.12
575.877	26354.07
576.238	26524.91
576.599	26716.32
576.96	26701.4
577.32	26887.61
577.681	27079.25
578.042	27125.8
578.403	27218.68
578.763	27243.54
579.124	27375.96
579.485	27528.5
579.845	27703.41
580.206	27748.61
580.566	27862.73
580.927	27978.21
581.287	28128.03
581.648	28117.64
582.008	28349.27
582.368	28315.6
582.728	28523.95
583.089	28524.18
583.449	28579.32
583.809	28764.17
584.169	28761.01
584.529	28794.91
584.889	29022.7
585.249	28988.35
585.609	28841.23
585.969	29140.89
586.329	29075.13
586.688	29119.87
587.048	29164.16
587.408	29245.52
587.768	29359.41
588.127	29242.8
588.487	29274.44
588.846	29487.54
589.206	29412.74
589.565	29415.68
589.925	29593.76
590.284	29533.64
590.643	29598.73
591.003	29801.21
591.362	29756.24
591.721	29702.45
592.08	29746.07
592.44	29828.78
592.799	29896.57
593.158	29867.19
593.517	29784.26
593.876	29866.97
594.235	29800.3
594.593	29749.91
594.952	29846.18
595.311	29963.01
595.67	29816.57
596.029	30103.57
596.387	30096.79
596.746	30191.93
597.104	30144.25
597.463	30184.25
597.822	30201.65
598.18	30219.5
598.538	30166.4
598.897	30271.7
599.255	30131.82
599.613	30637.57
599.972	30337.24
600.33	30442.32
600.688	30334.3
601.046	30471.02
601.404	30476.67
601.762	30534.97
602.12	30658.13
602.478	30626.95
602.836	30607.97
603.194	30536.1
603.552	30439.16
603.91	30529.55
604.268	30626.95
604.625	30523.67
604.983	30674.86
605.341	30544.01
605.698	30745.14
606.056	30868.98
606.413	30783.1
606.771	30925.7
607.128	30992.59
607.485	30833.27
607.843	30819.94
608.2	30956.88
608.557	31105.58
608.914	31025.58
609.272	31261.51
609.629	31179.25
609.986	31294.5
610.343	31048.86
610.7	31265.8
611.057	31320.72
611.414	31301.51
611.771	31376.08
612.127	31486.59
612.484	31406.14
612.841	31659.92
613.198	31453.82
613.554	31482.07
613.911	31555.51
614.267	31732.91
614.624	31572.23
614.98	31666.7
615.337	31800.7
615.693	31620.82
616.05	31739.69
616.406	31925.22
616.762	31778.11
617.118	31801.16
617.475	31790.76
617.831	31927.25
618.187	31959.12
618.543	32063.07
618.899	32215.61
619.255	32129.28
619.611	32113.92
619.967	32183.52
620.323	32270.52
620.678	32180.81
621.034	31982.17
621.39	32067.36
621.746	31946.24
622.101	32380.8
622.457	32027.82
622.812	32170.41
623.168	32202.05
623.523	32240.24
623.879	32297.19
624.234	32148.49
624.589	32291.54
624.945	32259.9
625.3	32322.95
625.655	32395.49
626.01	32314.36
626.365	32388.03
626.72	32395.49
627.075	32204.08
627.43	32273.69
627.785	32184.87
628.14	32270.52
628.495	32320.92
628.85	32350.97
629.205	32014.26
629.559	32349.84
629.914	32275.27
630.269	32278.66
630.623	31991.43
630.978	32101.49
631.332	32219.22
631.687	32218.09
632.041	32004.77
632.396	32067.59
632.75	31972.22
633.104	32074.14
633.459	31910.98
633.813	31842.96
634.167	31989.17
634.521	31870.31
634.875	31899.23
635.229	31860.36
635.583	31752.8
635.937	31707.15
636.291	31701.95
636.645	31716.86
636.999	31623.53
637.352	31666.02
637.706	31389.19
638.06	31663.31
638.413	31499.69
638.767	31489.07
639.121	31554.16
639.474	31341.28
639.828	31298.57
640.181	31291.11
640.534	31411.11
640.888	31271.23
641.241	31177.22
641.594	31249.31
641.947	31295.41
642.301	31281.4
642.654	31184
643.007	31199.14
643.36	31155.75
643.713	31157.56
644.066	31301.06
644.419	31006.37
644.771	30801.41
645.124	30508.31
645.477	30541.08
645.83	30270.8
646.182	30136.11
646.535	30150.13
646.888	30153.97
647.24	30109.22
647.593	30203.23
647.945	30168.66
648.298	30040.52
648.65	29971.37
649.002	29807.54
649.355	30013.18
649.707	30107.87
650.059	30101.54
650.411	30426.95
650.763	30450.23
651.115	30747.17
651.467	30613.62
651.819	30588.31
652.171	30695.42
652.523	30541.98
652.875	30670.34
653.227	30639.83
653.578	30772.03
653.93	30575.65
654.282	30461.08
654.633	30431.47
654.985	30473.96
655.337	30475.77
655.688	30431.93
656.039	30592.15
656.391	30363
656.742	30410.91
657.094	30433.73
657.445	30457.91
657.796	30432.83
658.147	30547.63
658.498	30422.43
658.849	30580.62
659.2	30409.55
659.551	30309.9
659.902	30506.05
660.253	30364.13
660.604	30460.85
660.955	30291.59
661.306	30420.4
661.656	30366.84
662.007	30280.07
662.358	30409.33
662.708	30385.6
663.059	30368.2
663.409	30175.89
663.76	30485.26
664.11	30271.03
664.461	30518.25
664.811	30419.72
665.161	30331.36
665.511	30294.53
665.862	30263.57
666.212	30482.09
666.562	30390.57
666.912	30395.77
667.262	30359.39
667.612	30347.18
667.962	30364.13
668.312	30359.84
668.662	30483.9
669.011	30298.6
669.361	30349.44
669.711	30239.39
670.06	30130.92
670.41	30139.05
670.76	29992.84
671.109	30136.34
671.459	30036.91
671.808	30015.44
672.157	30120.97
672.507	29873.52
672.856	29966.85
673.205	30014.54
673.554	30077.13
673.904	29830.81
674.253	30177.92
674.602	30051.37
674.951	29646.41
675.3	29453.19
675.649	30043.91
675.998	29793.98
676.346	29822.68
676.695	29889.34
677.044	29597.82
677.393	29808.89
677.741	29899.28
678.09	29777.93
678.438	29669.91
678.787	29799.4
679.135	29768.21
679.484	29496.13
679.832	29675.11
680.181	29494.1
680.529	29485.51
680.877	29381.11
681.225	29356.25
681.573	29494.32
681.922	29354.89
682.27	29176.59
682.618	29204.61
682.966	29192.64
683.314	29353.54
683.661	29093.66
684.009	28906.09
684.357	28946.54
684.705	28892.76
685.053	28868.13
685.4	28871.06
685.748	28626.78
686.095	28723.95
686.443	28519.43
686.79	28607.34
687.138	28508.36
687.485	28544.29
687.832	28416.16
688.18	28402.6
688.527	28321.25
688.874	28194.92
689.221	28160.8
689.568	28019.11
689.915	28041.93
690.262	27862.73
690.609	27868.6
690.956	27766.69
691.303	27719.23
691.65	27564.88
691.997	27641.04
692.344	27420.48
692.69	27287.38
693.037	27402.63
693.383	27127.61
693.73	27222.29
694.077	27021.62
694.423	27051.9
694.769	26925.8
695.116	26904.11
695.462	26909.98
695.808	26731.46
696.155	26816.2
696.501	26478.13
696.847	26494.18
697.193	26335.76
697.539	26474.97
697.885	26171.25
698.231	26226.61
698.577	26161.98
698.923	26023.45
699.269	25907.07
699.614	25843.35
699.96	25714.99
700.306	25730.81
700.651	25617.59
700.997	25488.1
701.342	25377.82
701.688	25406.75
702.033	25331.04
702.379	25230.48
702.724	25164.95
703.069	25173.08
703.415	24940.32
703.76	24923.37
704.105	24919.3
704.45	24859.87
704.795	24570.16
705.14	24635.24
705.485	24631.85
705.83	24465.98
706.175	24562.25
706.52	24371.75
706.865	24398.41
707.209	24342.82
707.554	24171.75
707.899	24215.37
708.243	24117.52
708.588	24097.86
708.932	23907.13
709.277	23892.44
709.621	23947.58
709.966	23734.02
710.31	23752.55
710.654	23608.15
710.998	23602.95
711.342	23617.64
711.687	23433.69
712.031	23456.06
712.375	23414.26
712.719	23384.43
713.063	23349.17
713.407	23463.07
713.75	23283.64
714.094	23320.25
714.438	23129.97
714.782	23235.73
715.125	23103.3
715.469	23097.2
715.812	23078.45
716.156	22821.28
716.499	22929.98
716.843	22822.86
717.186	22755.29
717.53	22892.46
717.873	22879.13
718.216	22958
718.559	22690.89
718.902	22637.33
719.246	22689.98
719.589	22538.12
719.932	22345.58
720.275	22550.33
720.617	22411.8
720.96	22466.71
721.303	22465.36
721.646	22374.06
721.989	22263.33
722.331	22372.25
722.674	22277.79
723.016	22340.84
723.359	22268.3
723.701	22341.07
724.044	22279.6
724.386	22164.12
724.729	22153.95
725.071	22157.57
725.413	22161.86
725.755	22174.52
726.097	22057.23
726.439	22060.39
726.782	22041.41
727.124	22215.42
727.465	21925.48
727.807	22078.47
728.149	22122.09
728.491	21950.11
728.833	22036.44
729.175	21921.42
729.516	21871.47
729.858	22019.27
730.199	21922.09
730.541	21874.86
730.882	21837.58
731.224	21846.16
731.565	21818.37
731.906	21854.07
732.248	21895.88
732.589	21858.82
732.93	21727.75
733.271	21728.88
733.612	21856.11
733.953	21725.71
734.294	21794.86
734.635	21640.52
734.976	21771.81
735.317	21692.49
735.658	21729.33
735.999	21573.4
736.339	21645.04
736.68	21763.91
737.021	21622.44
737.361	21568.66
737.702	21806.62
738.042	21700.4
738.383	21647.75
738.723	21699.27
739.063	21614.76
739.404	21692.72
739.744	21599.39
740.084	21566.62
740.424	21705.38
740.764	21488.88
741.104	21767.52
741.444	21593.29
741.784	21543.35
742.124	21596.23
742.464	21510.8
742.804	21558.49
743.143	21530.01
743.483	21525.72
743.823	21481.43
744.162	21457.7
744.502	21568.88
744.841	21357.14
745.181	21542.67
745.52	21473.07
745.86	21506.28
746.199	21430.13
746.538	21584.7
746.877	21615.89
747.216	21555.1
747.556	21390.36
747.895	21430.35
748.234	21482.1
748.573	21344.26
748.911	21497.25
749.25	21557.58
749.589	21365.72
749.928	21422.45
750.267	21462.67
750.605	21403.91
750.944	21298.38
751.283	21235.78
751.621	21288.44
751.96	21261.09
752.298	21263.58
752.636	21330.02
752.975	21168.21
753.313	21134.77
753.651	21284.37
753.989	21138.84
754.327	21138.61
754.666	21091.61
755.004	21111.72
755.342	21169.34
755.679	21136.8
756.017	20907.88
756.355	20997.82
756.693	20948.11
757.031	20945.62
757.368	20880.99
757.706	20840.09
758.044	20774.33
758.381	20861.1
758.719	20703.59
759.056	20635.12
759.394	20711.5
759.731	20584.95
760.068	20479.42
760.405	20489.59
760.743	20436.48
761.08	20464.5
761.417	20290.05
761.754	20280.33
762.091	20205.3
762.428	20218.64
762.765	20146.77
763.102	20150.39
763.438	20032.88
763.775	19981.58
764.112	20003.73
764.449	19927.8
764.785	19917.85
765.122	19666.33
765.458	19645.09
765.795	19758.53
766.131	19608.03
766.467	19560.12
766.804	19419.11
767.14	19449.62
767.476	19407.58
767.812	19286.68
768.148	19435.15
768.485	19213.92
768.821	19132.34
769.157	19110.19
769.492	19100.25
769.828	19050.3
770.164	19008.05
770.5	18872.46
770.836	18874.04
771.171	18622.07
771.507	18738.22
771.842	18610.77
772.178	18612.8
772.513	18506.82
772.849	18475.63
773.184	18349.08
773.519	18376.88
773.855	18248.97
774.19	18173.94
774.525	18185.02
774.86	18029.99
775.195	18070.89
775.53	18008.07
775.865	17891.24
776.2	17775.99
776.535	17764.01
776.87	17736.21
777.205	17655.76
777.539	17524.02
777.874	17615.77
778.209	17404.7
778.543	17448.54
778.878	17374.87
779.212	17324.93
779.547	17178.49
779.881	17233.85
780.215	17138.94
780.55	17079.96
780.884	16983.69
781.218	16921.32
781.552	16910.47
781.886	16803.36
782.22	16769.91
782.554	16706.86
782.888	16488.34
783.222	16494.89
783.556	16439.98
783.889	16428.45
784.223	16277.5
784.557	16272.98
784.89	16299.64
785.224	16177.84
785.557	16039.54
785.891	16116.14
786.224	15981.01
786.558	16005.64
786.891	15793.67
787.224	15798.41
787.557	15826.21
787.891	15777.17
788.224	15714.57
788.557	15691.97
788.89	15662.82
789.223	15618.53
789.556	15485.2
789.888	15434.35
790.221	15420.12
790.554	15308.26
790.887	15229.16
791.219	15268.03
791.552	15199.56
791.884	15087.7
792.217	15078.88
792.549	15018.55
792.882	14910.07
793.214	14891.77
793.546	14990.07
793.879	14799.12
794.211	14759.12
794.543	14770.19
794.875	14790.98
795.207	14690.87
795.539	14616.3
795.871	14583.53
796.203	14535.62
796.535	14417.43
796.867	14426.02
797.198	14375.85
797.53	14343.08
797.862	14225.35
798.193	14352.57
798.525	14095.63
798.856	14189.19
799.188	14061.96
799.519	14037.33
799.85	13878.24
800.182	13950.33
800.513	13892.93
800.844	13739.26
801.175	13801.85
801.506	13802.76
801.837	13750.78
802.168	13710.33
802.499	13680.95
802.83	13626.94
803.161	13590.11
803.491	13567.28
803.822	13510.11
804.153	13532.03
804.483	13338.14
804.814	13294.75
805.145	13299.95
805.475	13302.88
805.805	13224.69
806.136	13330.68
806.466	13237.58
806.796	13188.31
807.126	13172.94
807.457	13136.79
807.787	13107.64
808.117	12974.76
808.447	12980.63
808.777	13011.37
809.107	12963.46
809.436	12847.3
809.766	12935.89
810.096	12800.98
810.426	12778.38
810.755	12702.67
811.085	12707.19
811.414	12657.93
811.744	12608.89
812.073	12597.82
812.403	12600.08
812.732	12456.58
813.061	12552.85
813.39	12466.07
813.719	12426.98
814.049	12443.7
814.378	12385.17
814.707	12369.8
815.036	12328
815.365	12177.04
815.693	12161.22
816.022	12118.96
816.351	12104.95
816.68	12041.22
817.008	12115.8
817.337	12085.74
817.665	11919.87
817.994	12013.65
818.322	12014.33
818.651	11937.5
818.979	11908.12
819.307	11877.61
819.636	11938.63
819.964	11850.04
820.292	11839.42
820.62	11867.44
820.948	11887.78
821.276	11853.88
821.604	11814.34
821.932	11883.26
822.259	11898.4
822.587	11792.42
822.915	11763.04
823.243	11835.35
823.57	11735.47
823.898	11753.09
824.225	11797.16
824.553	11694.34
824.88	11794.22
825.207	11831.51
825.535	11802.59
825.862	11830.16
826.189	11714.23
826.516	11810.04
826.843	11848.46
827.17	11841.23
827.497	11834.45
827.824	11780.66
828.151	11815.92
828.478	11745.19
828.805	11822.7
829.131	11735.24
829.458	11629.71
829.785	11695.24
830.111	11693.66
830.438	11807.78
830.764	11726.65
831.09	11752.87
831.417	11671.29
831.743	11788.57
832.069	11667
832.395	11629.48
832.722	11736.37
833.048	11637.39
833.374	11647.79
833.7	11612.53
834.026	11616.15
834.351	11669.71
834.677	11620.44
835.003	11638.97
835.329	11615.02
835.654	11569.6
835.98	11497.51
836.306	11556.94
836.631	11581.35
836.956	11517.85
837.282	11600.1
837.607	11473.1
837.932	11429.94
838.258	11466.32
838.583	11419.77
838.908	11392.2
839.233	11361.92
839.558	11495.47
839.883	11350.39
840.208	11380.68
840.533	11307.46
840.858	11327.12
841.182	11302.26
841.507	11236.5
841.832	11173.68
842.156	11176.39
842.481	11179.32
842.805	11146.56
843.13	11166.22
843.454	11105.88
843.778	11080.34
844.103	11020.68
844.427	10997.86
844.751	11009.61
845.075	10940.46
845.399	11007.58
845.723	10929.84
846.047	10945.43
846.371	10821.82
846.695	10848.26
847.019	10718.09
847.343	10761.03
847.666	10678.55
847.99	10646.68
848.313	10561.71
848.637	10521.71
848.96	10471.32
849.284	10467.25
849.607	10386.8
849.931	10383.41
850.254	10330.31
850.577	10243.98
850.9	10195.17
851.223	10227.49
851.546	10170.09
851.869	10043.76
852.192	10144.55
852.515	9993.14
852.838	10013.48
853.161	10024.55
853.483	9983.42
853.806	9934.84
854.129	9987.04
854.451	9827.27
854.774	9820.04
855.096	9741.62
855.419	9738.46
855.741	9740.72
856.063	9719.02
856.385	9704.11
856.708	9597.22
857.03	9640.61
857.352	9621.85
857.674	9535.07
857.996	9550.67
858.318	9411.46
858.64	9458.92
858.961	9435.64
859.283	9424.57
859.605	9353.16
859.926	9348.86
860.248	9296.21
860.57	9244.69
860.891	9305.93
861.212	9241.75
861.534	9237.91
861.855	9206.95
862.176	9222.31
862.498	9194.52
862.819	9217.12
863.14	9147.29
863.461	9168.08
863.782	9144.8
864.103	9144.35
864.424	9030.68
864.745	9137.57
865.065	9031.13
865.386	9019.16
865.707	9014.64
866.027	9043.11
866.348	9007.18
866.668	8955.2
866.989	8923.56
867.309	8915.88
867.63	8914.53
867.95	8907.29
868.27	8918.82
868.59	8952.49
868.91	8920.85
869.23	8789.78
869.55	8787.52
869.87	8890.8
870.19	8828.2
870.51	8854.64
870.83	8781.2
871.15	8757.47
871.469	8769.44
871.789	8723.8
872.109	8735.77
872.428	8724.02
872.748	8672.72
873.067	8721.76
873.386	8785.94
873.706	8675.21
874.025	8638.6
874.344	8627.08
874.663	8651.48
874.982	8591.37
875.301	8559.51
875.62	8561.09
875.939	8521.77
876.258	8585.27
876.577	8527.19
876.896	8557.25
877.214	8482.45
877.533	8525.61
877.852	8476.34
878.17	8478.6
878.489	8456.46
878.807	8398.38
879.125	8482.45
879.444	8443.35
879.762	8336.01
880.08	8346.86
880.398	8348.66
880.716	8359.29
881.034	8301.66
881.352	8327.65
881.67	8314.54
881.988	8325.84
882.306	8290.59
882.624	8237.93
882.941	8222.11
883.259	8112.29
883.577	8223.02
883.894	8163.58
884.212	8109.35
884.529	8140.08
884.846	8064.83
885.164	8145.96
885.481	8113.19
885.798	8063.7
886.115	8053.31
886.432	8058.05
886.75	8033.19
887.067	7971.27
887.383	7938.05
887.7	7974.66
888.017	7924.27
888.334	7892.41
888.651	7938.28
888.967	7826.42
889.284	7839.75
889.6	7768.11
889.917	7748.68
890.233	7820.09
890.55	7715.46
890.866	7761.34
891.182	7745.97
891.498	7742.35
891.815	7757.72
892.131	7612.41
892.447	7621.23
892.763	7642.92
893.079	7569.48
893.395	7573.54
893.71	7547.1
894.026	7473.43
894.342	7529.03
894.657	7430.04
894.973	7423.04
895.289	7406.77
895.604	7410.61
895.92	7319.77
896.235	7343.72
896.55	7376.71
896.865	7316.83
897.181	7280.9
897.496	7218.98
897.811	7283.38
898.126	7263.95
898.441	7197.73
898.756	7153.67
899.071	7135.36
899.386	7122.48
899.7	7045.65
900.015	7066.44
900.33	7022.82
900.644	6990.06
900.959	7000.23
901.273	6969.04
901.588	6977.4
901.902	6945.54
902.216	6874.58
902.531	6854.01
902.845	6840.23
903.159	6800
903.473	6780.34
903.787	6730.85
904.101	6770.4
904.415	6713
904.729	6759.1
905.042	6655.83
905.356	6659.22
905.67	6646.56
905.984	6644.98
906.297	6575.83
906.611	6530.86
906.924	6540.58
907.237	6532.44
907.551	6498.77
907.864	6463.74
908.177	6448.6
908.491	6452.67
908.804	6350.53
909.117	6371.77
909.43	6294.48
909.743	6246.12
910.056	6310.3
910.368	6250.64
910.681	6229.4
910.994	6189.4
911.307	6198.21
911.619	6153.24
911.932	6159.57
912.244	6111.44
912.557	6129.06
912.869	6065.33
913.181	6048.39
913.494	6054.94
913.806	5980.82
914.118	5970.87
914.43	5942.85
914.742	5889.97
915.054	5886.13
915.366	5877.77
915.678	5835.06
915.99	5813.14
916.302	5804.1
916.613	5735.85
916.925	5802.29
917.236	5747.15
917.548	5682.07
917.859	5722.52
918.171	5658.57
918.482	5673.71
918.794	5656.76
919.105	5630.54
919.416	5557.1
919.727	5532.69
920.038	5543.99
920.349	5465.12
920.66	5518
920.971	5481.62
921.282	5468.29
921.593	5393.71
921.903	5355.07
922.214	5344.45
922.525	5335.64
922.835	5322.98
923.146	5312.81
923.456	5304.9
923.767	5252.25
924.077	5273.94
924.387	5265.36
924.697	5204.11
925.008	5145.13
925.318	5159.37
925.628	5139.94
925.938	5108.52
926.248	5118.02
926.558	5015.64
926.867	5004.35
927.177	4997.11
927.487	4999.37
927.796	4940.84
928.106	4966.61
928.416	4927.29
928.725	4940.84
929.034	4870.79
929.344	4901.75
929.653	4915.08
929.962	4799.83
930.271	4783.56
930.581	4797.35
930.89	4790.79
931.199	4733.62
931.508	4750.34
931.817	4737.46
932.125	4655.43
932.434	4723.9
932.743	4650.68
933.051	4621.53
933.36	4587.41
933.669	4563.23
933.977	4589.89
934.286	4566.17
934.594	4594.41
934.902	4474.19
935.21	4483.23
935.519	4498.37
935.827	4496.56
936.135	4415.89
936.443	4383.12
936.751	4418.82
937.059	4389.67
937.367	4337.24
937.674	4356.45
937.982	4335.89
938.29	4330.24
938.597	4319.84
938.905	4322.1
939.213	4251.82
939.52	4215.44
939.827	4290.92
940.135	4241.65
940.442	4220.64
940.749	4173.41
941.056	4175.22
941.363	4138.61
941.67	4092.05
941.977	4094.54
942.284	4104.93
942.591	4078.72
942.898	4066.74
943.205	4085.27
943.511	4025.61
943.818	4002.56
944.125	3976.58
944.431	3946.07
944.738	3946.07
945.044	3934.09
945.35	3947.88
945.657	3925.96
945.963	3883.47
946.269	3862
946.575	3851.61
946.881	3841.44
947.187	3808.9
947.493	3816.81
947.799	3780.65
948.105	3742.91
948.41	3758.95
948.716	3747.88
949.022	3734.32
949.327	3756.92
949.633	3673.31
949.938	3711.27
950.244	3628.11
950.549	3663.59
950.854	3681.44
951.16	3650.48
951.465	3568.23
951.77	3607.55
952.075	3542.46
952.38	3544.5
952.685	3550.15
952.99	3505.4
953.294	3493.43
953.599	3519.87
953.904	3455.46
954.209	3462.01
954.513	3450.49
954.818	3466.08
955.122	3399.64
955.426	3408.46
955.731	3373.43
956.035	3382.24
956.339	3375.24
956.643	3355.35
956.948	3372.07
957.252	3346.99
957.556	3329.59
957.86	3312.64
958.163	3306.99
958.467	3337.95
958.771	3234.22
959.075	3208.23
959.378	3235.13
959.682	3200.78
959.985	3194
960.289	3186.77
960.592	3190.61
960.896	3144.06
961.199	3130.04
961.502	3167.11
961.805	3099.09
962.108	3108.12
962.411	3121.23
962.714	3035.58
963.017	3084.85
963.32	3061.12
963.623	3064.06
963.926	3055.92
964.228	3045.75
964.531	2991.74
964.833	2992.65
965.136	2998.07
965.438	2934.8
965.741	2950.61
966.043	2915.36
966.345	2989.26
966.648	2929.37
966.95	2948.13
967.252	2886.44
967.554	2883.72
967.856	2883.72
968.158	2841.46
968.46	2874.68
968.761	2832.65
969.063	2806.44
969.365	2832.65
969.666	2776.16
969.968	2769.15
970.269	2775.93
970.571	2774.12
970.872	2730.73
971.174	2767.34
971.475	2738.42
971.776	2708.81
972.077	2671.07
972.378	2668.81
972.679	2697.29
972.98	2710.17
973.281	2667.46
973.582	2657.74
973.883	2648.25
974.183	2610.96
974.484	2624.3
974.785	2608.48
975.085	2635.37
975.386	2593.79
975.686	2553.34
975.986	2558.99
976.287	2543.17
976.587	2539.33
976.887	2524.86
977.187	2507.69
977.487	2525.54
977.787	2513.34
978.087	2499.78
978.387	2499.55
978.687	2444.64
978.987	2460.91
979.286	2455.71
979.586	2430.85
979.885	2380.01
980.185	2396.96
980.484	2370.52
980.784	2395.37
981.083	2408.93
981.382	2371.42
981.682	2355.6
981.981	2331.87
982.28	2344.75
982.579	2347.47
982.878	2340.69
983.177	2295.49
983.475	2303.85
983.774	2269.05
984.073	2259.56
984.372	2288.94
984.67	2255.49
984.969	2264.98
985.267	2234.02
985.566	2224.53
985.864	2217.75
986.162	2195.38
986.461	2215.49
986.759	2167.58
987.057	2184.53
987.355	2213.68
987.653	2145.66
987.951	2156.29
988.249	2147.7
988.547	2132.56
988.844	2131.88
989.142	2138.21
989.44	2141.14
989.737	2088.49
990.035	2077.87
990.332	2084.2
990.63	2064.31
990.927	2065.89
991.224	2088.04
991.521	2039.68
991.819	2030.41
992.116	2009.17
992.413	1995.16
992.71	2001.03
993.006	1990.87
993.303	1972.79
993.6	2025.67
993.897	1976.85
994.193	1973.47
994.49	1958.55
994.787	1957.87
995.083	1936.18
995.379	1927.14
995.676	1945.67
995.972	1918.55
996.268	1893.24
996.565	1904.77
996.861	1861.15
997.157	1907.03
997.453	1840.59
997.749	1857.76
998.044	1858.67
998.34	1874.48
998.636	1837.42
998.932	1847.82
999.227	1812.34
999.523	1804.88
999.818	1789.52
1000.114	1794.03
1000.409	1799.68
1000.704	1771.89
1001	1768.27
1001.295	1769.4
1001.59	1714.04
1001.885	1750.65
1002.18	1718.33
1002.475	1703.42
1002.77	1714.71
1003.065	1691.89
1003.359	1692.12
1003.654	1669.29
1003.949	1685.79
1004.243	1672
1004.538	1640.59
1004.832	1642.85
1005.127	1649.63
1005.421	1648.28
1005.715	1605.11
1006.009	1616.19
1006.304	1596.3
1006.598	1604.66
1006.892	1581.16
1007.186	1580.03
1007.48	1577.32
1007.773	1568.28
1008.067	1559.69
1008.361	1552.91
1008.655	1523.08
1008.948	1541.39
1009.242	1501.61
1009.535	1516.53
1009.829	1499.58
1010.122	1493.03
1010.415	1479.47
1010.708	1483.99
1011.001	1461.84
1011.295	1456.19
1011.588	1466.81
1011.881	1427.26
1012.173	1441.95
1012.466	1423.65
1012.759	1418.68
1013.052	1401.05
1013.344	1383.65
1013.637	1401.05
1013.93	1373.71
1014.222	1385.01
1014.514	1371.22
1014.807	1393.37
1015.099	1370.32
1015.391	1360.15
1015.683	1360.6
1015.976	1353.82
1016.268	1328.06
1016.56	1321.05
1016.851	1326.02
1017.143	1297.32
1017.435	1293.48
1017.727	1288.74
1018.018	1287.16
1018.31	1276.53
1018.602	1275.63
1018.893	1272.92
1019.185	1263.65
1019.476	1236.76
1019.767	1247.16
1020.058	1241.96
1020.35	1241.73
1020.641	1228.85
1020.932	1218
1021.223	1183.88
1021.514	1187.95
1021.804	1171.23
1022.095	1167.16
1022.386	1181.17
1022.677	1145.24
1022.967	1126.48
1023.258	1135.52
1023.548	1129.42
1023.839	1129.42
1024.129	1142.3
1024.419	1120.61
1024.709	1100.27
1025	1116.76
1025.29	1107.5
1025.58	1113.37
1025.87	1109.98
1026.16	1078.35
1026.449	1101.85
1026.739	1069.31
1027.029	1085.35
1027.319	1044
1027.608	1064.34
1027.898	1046.48
1028.187	1021.17
1028.477	1048.52
1028.766	999.71
1029.055	1017.56
1029.344	1003.77
1029.634	983.89
1029.923	1016.43
1030.212	989.54
1030.501	1000.61
1030.79	982.76
1031.078	979.14
1031.367	940.27
1031.656	962.64
1031.945	966.26
1032.233	932.81
1032.522	948.86
1032.81	945.7
1033.099	908.41
1033.387	922.19
1033.675	937.33
1033.963	926.49
1034.251	899.82
1034.54	917.67
1034.828	893.04
1035.116	896.88
1035.403	889.43
1035.691	880.84
1035.979	877.22
1036.267	886.94
1036.554	851.23
1036.842	850.1
1037.129	854.85
1037.417	849.65
1037.704	867.51
1037.992	865.25
1038.279	840.84
1038.566	850.33
1038.853	850.33
1039.14	850.33
