Data from tablewood_brown_FLMS001491_100.txt Node
Date: Tue Feb 07 11:11:18 GMT 2017
User: dcchb
Spectrometer: FLMS00149
Trigger mode: 0
Integration Time (sec): 2.000000E-2
Scans to average: 10
Electric dark correction enabled: true
Nonlinearity correction enabled: false
Boxcar width: 0
XAxis mode: Wavelengths
Number of Pixels in Spectrum: 2048
>>>>>Begin Spectral Data<<<<<
341.393	-4.34
341.776	-4.34
342.16	-4.34
342.543	-67.39
342.927	-78.01
343.31	-52.24
343.693	-63.77
344.077	-82.53
344.46	-47.5
344.843	-67.39
345.226	-44.11
345.61	-32.81
345.993	-9.99
346.376	-5.69
346.759	-8.18
347.142	27.75
347.525	45.38
347.908	68.88
348.291	56
348.674	108.88
349.057	107.3
349.44	129.45
349.823	157.47
350.206	164.47
350.588	187.75
350.971	221.42
351.354	241.31
351.737	228.2
352.119	256.45
352.502	275.88
352.884	264.36
353.267	283.57
353.65	300.29
354.032	291.02
354.414	318.82
354.797	310.23
355.179	319.05
355.562	330.8
355.944	325.15
356.326	333.96
356.709	341.19
357.091	347.52
357.473	348.2
357.855	339.84
358.238	355.2
358.62	348.42
359.002	325.15
359.384	358.37
359.766	349.1
360.148	357.01
360.53	363.34
360.912	352.94
361.294	331.47
361.676	329.21
362.057	348.65
362.439	349.1
362.821	346.84
363.203	337.8
363.584	339.61
363.966	326.28
364.348	339.61
364.729	324.69
365.111	318.82
365.493	349.78
365.874	331.7
366.256	335.09
366.637	333.28
367.019	325.82
367.4	328.08
367.781	323.79
368.163	328.99
368.544	328.99
368.925	346.39
369.306	304.13
369.688	329.89
370.069	338.93
370.45	334.86
370.831	332.83
371.212	307.97
371.593	331.02
371.974	335.99
372.355	343
372.736	331.93
373.117	362.66
373.498	335.77
373.879	310.01
374.26	358.37
374.641	322.44
375.021	313.17
375.402	347.29
375.783	347.07
376.163	340.51
376.544	348.2
376.925	357.69
377.305	358.14
377.686	354.98
378.066	354.07
378.447	344.81
378.827	357.24
379.208	368.31
379.588	359.27
379.968	379.16
380.349	382.09
380.729	346.62
381.109	376.22
381.489	372.15
381.87	359.5
382.25	370.12
382.63	366.5
383.01	374.64
383.39	383
383.77	377.35
384.15	381.42
384.53	377.35
384.91	369.44
385.29	381.42
385.67	397.01
386.049	404.24
386.429	406.95
386.809	409.89
387.189	383.45
387.568	409.44
387.948	390.68
388.328	401.3
388.707	399.95
389.087	413.28
389.466	398.14
389.846	429.55
390.225	430.68
390.605	437.01
390.984	441.53
391.363	430.23
391.743	420.29
392.122	427.29
392.501	434.52
392.881	423.9
393.26	450.57
393.639	453.51
394.018	449.66
394.397	466.61
394.776	469.1
395.155	454.63
395.534	442.21
395.913	465.93
396.292	478.59
396.671	458.7
397.05	469.32
397.429	463
397.808	477.46
398.186	470
398.565	493.5
398.944	495.99
399.323	505.71
399.701	501.41
400.08	518.14
400.458	502.09
400.837	519.72
401.215	527.18
401.594	529.21
401.972	511.81
402.351	528.53
402.729	534.18
403.107	541.41
403.486	538.93
403.864	536.21
404.242	540.28
404.62	556.1
404.999	540.06
405.377	567.63
405.755	550.9
406.133	557.68
406.511	562.65
406.889	597
407.267	585.48
407.645	574.18
408.023	597.91
408.401	600.39
408.779	604.01
409.156	612.82
409.534	593.16
409.912	615.31
410.29	598.81
410.667	626.16
411.045	637
411.422	628.64
411.8	669.54
412.178	647.62
412.555	658.92
412.933	675.42
413.31	667.06
413.687	678.81
414.065	699.6
414.442	674.06
414.819	681.3
415.197	696.21
415.574	705.48
415.951	704.57
416.328	710.67
416.705	702.54
417.082	705.7
417.46	749.09
417.837	733.72
418.214	718.36
418.591	733.27
418.967	762.65
419.344	762.2
419.721	778.47
420.098	788.86
420.475	784.57
420.852	760.84
421.228	790.22
421.605	802.87
421.982	812.37
422.358	794.51
422.735	804.46
423.111	818.02
423.488	847.84
423.864	851.01
424.241	848.3
424.617	845.81
424.994	838.81
425.37	890.33
425.746	867.96
426.123	867.96
426.499	882.87
426.875	883.78
427.251	889.2
427.627	906.37
428.003	948.86
428.379	934.85
428.756	925.13
429.132	937.56
429.507	965.58
429.883	956.77
430.259	966.49
430.635	988.86
431.011	998.8
431.387	1011
431.763	1017.56
432.138	1020.27
432.514	1055.07
432.89	1048.97
433.265	1057.33
433.641	1051.91
434.016	1069.08
434.392	1077.44
434.767	1101.85
435.143	1070.89
435.518	1122.41
435.894	1136.42
436.269	1146.82
436.644	1155.86
437.02	1193.15
437.395	1188.85
437.77	1192.92
438.145	1218.68
438.52	1223.65
438.895	1234.73
439.271	1250.77
439.646	1274.05
440.021	1249.19
440.395	1269.98
440.77	1279.92
441.145	1283.54
441.52	1312.69
441.895	1287.83
442.27	1307.49
442.645	1334.16
443.019	1347.27
443.394	1338
443.769	1353.59
444.143	1344.56
444.518	1347.94
444.892	1374.16
445.267	1343.65
445.641	1399.47
446.016	1383.2
446.39	1409.19
446.764	1403.99
447.139	1416.42
447.513	1441.5
447.887	1429.98
448.262	1428.39
448.636	1438.56
449.01	1476.3
449.384	1476.75
449.758	1483.31
450.132	1516.75
450.506	1521.05
450.88	1536.19
451.254	1501.39
451.628	1541.16
452.002	1560.37
452.376	1565.79
452.75	1590.65
453.123	1611.67
453.497	1589.75
453.871	1654.83
454.244	1667.48
454.618	1660.25
454.992	1703.19
455.365	1698.44
455.739	1704.32
456.112	1740.48
456.486	1739.12
456.859	1745.45
457.232	1820.47
457.606	1819.34
457.979	1820.25
458.352	1869.29
458.725	1893.92
459.099	1871.32
459.472	1924.65
459.845	1940.7
460.218	1966.91
460.591	1984.54
460.964	2025.22
461.337	2048.72
461.71	2085.1
462.083	2111.31
462.456	2130.52
462.829	2108.6
463.201	2121.26
463.574	2165.78
463.947	2150.41
464.32	2242.16
464.692	2281.25
465.065	2288.94
465.438	2330.52
465.81	2312.21
466.183	2337.07
466.555	2393.79
466.928	2434.47
467.3	2439.44
467.672	2497.52
468.045	2540
468.417	2551.75
468.789	2564.86
469.161	2617.97
469.534	2677.63
469.906	2715.82
470.278	2712.2
470.65	2784.29
471.022	2824.52
471.394	2845.31
471.766	2891.86
472.138	2943.16
472.51	3041.23
472.882	3061.57
473.253	3132.08
473.625	3179.54
473.997	3245.52
474.369	3243.71
474.74	3311.28
475.112	3363.94
475.484	3459.75
475.855	3487.78
476.227	3543.82
476.598	3673.99
476.97	3683.25
477.341	3779.75
477.713	3878.73
478.084	3908.33
478.455	4017.03
478.827	4052.96
479.198	4186.97
479.569	4188.77
479.94	4278.94
480.311	4378.6
480.682	4501.08
481.053	4581.08
481.424	4687.97
481.795	4736.33
482.166	4813.16
482.537	4866.04
482.908	4951.24
483.279	5014.29
483.65	5113.27
484.021	5212.02
484.391	5289.99
484.762	5400.72
485.133	5449.76
485.503	5548.06
485.874	5652.46
486.244	5641.17
486.615	5824.21
486.985	5920.25
487.356	6036.41
487.726	6082.28
488.097	6192.11
488.467	6248.15
488.837	6378.32
489.207	6385.33
489.578	6515.04
489.948	6613.57
490.318	6688.14
490.688	6727.24
491.058	6889.72
491.428	6910.28
491.798	7023.73
492.168	7151.18
492.538	7200.9
492.908	7285.87
493.278	7380.78
493.648	7374
494.017	7500.1
494.387	7567.67
494.757	7682.24
495.126	7759.75
495.496	7733.54
495.866	7900.54
496.235	7974.89
496.605	8014.66
496.974	8105.73
497.344	8190.93
497.713	8202.68
498.082	8277.71
498.452	8406.74
498.821	8483.35
499.19	8428.44
499.559	8550.24
499.928	8554.08
500.298	8631.14
500.667	8797.69
501.036	8836.56
501.405	8888.99
501.774	8843.79
502.143	8921.08
502.512	9004.47
502.88	9133.5
503.249	9147.74
503.618	9251.47
503.987	9238.36
504.356	9378.92
504.724	9434.06
505.093	9447.62
505.462	9454.85
505.83	9601.29
506.199	9667.95
506.567	9721.74
506.936	9770.32
507.304	9921.96
507.672	9976.19
508.041	10036.76
508.409	10155.62
508.777	10152.91
509.145	10285.56
509.514	10298.9
509.882	10393.58
510.25	10440.59
510.618	10573.24
510.986	10577.08
511.354	10670.41
511.722	10757.64
512.09	10889.39
512.458	10881.03
512.826	11056.16
513.193	11152.88
513.561	11156.05
513.929	11282.6
514.297	11418.41
514.664	11495.25
515.032	11535.25
515.4	11644.62
515.767	11725.07
516.135	11815.24
516.502	11730.04
516.869	12043.71
517.237	12101.79
517.604	12083.48
517.972	12287.54
518.339	12419.74
518.706	12431.04
519.073	12499.29
519.44	12621.09
519.808	12761.88
520.175	12720.75
520.542	12952.16
520.909	13025.15
521.276	13055.21
521.643	13305.82
522.009	13287.97
522.376	13313.96
522.743	13516.89
523.11	13584.91
523.477	13799.37
523.843	13902.87
524.21	14038.46
524.577	14181.51
524.943	14256.98
525.31	14266.93
525.676	14472.12
526.043	14572.23
526.409	14631.44
526.776	14822.39
527.142	14789.17
527.508	14957.76
527.874	15068.71
528.241	15139.22
528.607	15183.29
528.973	15415.6
529.339	15444.3
529.705	15538.98
530.071	15742.37
530.437	15829.6
530.803	15825.76
531.169	16011.51
531.535	15988.46
531.901	16084.73
532.267	16183.94
532.632	16275.69
532.998	16337.16
533.364	16338.96
533.73	16527.66
534.095	16630.93
534.461	16682.91
534.826	16803.81
535.192	16933.98
535.557	16990.02
535.923	17050.13
536.288	17098.27
536.653	17238.6
537.019	17121.77
537.384	17245.83
537.749	17316.79
538.114	17394.53
538.479	17388.88
538.845	17488.76
539.21	17502.32
539.575	17693.96
539.94	17749.77
540.305	17880.62
540.67	17849.88
541.034	17931.24
541.399	17989.32
541.764	18010.33
542.129	18148.86
542.494	18199.93
542.858	18309.76
543.223	18320.38
543.587	18449.19
543.952	18452.58
544.316	18511.11
544.681	18604.89
545.045	18648.96
545.41	18784.55
545.774	18764.44
546.138	18777.32
546.503	18996.52
546.867	18953.58
547.231	19179.57
547.595	19225.44
547.959	19225.67
548.324	19275.61
548.688	19278.77
549.052	19404.65
549.416	19561.93
549.779	19562.61
550.143	19644.64
550.507	19904.29
550.871	19848.48
551.235	19896.84
551.599	20043.27
551.962	20084.63
552.326	20197.17
552.689	20386.77
553.053	20347.45
553.417	20423.15
553.78	20659.98
554.143	20644.16
554.507	20859.75
554.87	20945.4
555.234	21210.93
555.597	21114.43
555.96	21279.62
556.323	21398.27
556.686	21493.4
557.05	21605.49
557.413	21817.24
557.776	21877.12
558.139	22127.06
558.502	22229.43
558.865	22228.98
559.228	22507.16
559.59	22616.76
559.953	22753.71
560.316	22976.08
560.679	23070.31
561.041	23219.69
561.404	23310.76
561.767	23563.63
562.129	23624.65
562.492	23786.22
562.854	23920.68
563.217	24053.34
563.579	24135.37
563.941	24385.76
564.304	24473.89
564.666	24765.86
565.028	24850.6
565.39	25031.84
565.753	25205.4
566.115	25383.47
566.477	25488.33
566.839	25582.11
567.201	25907.75
567.563	25999.5
567.925	26258.02
568.287	26198.14
568.648	26543.89
569.01	26736.66
569.372	27005.35
569.734	26981.85
570.095	27273.14
570.457	27443.53
570.819	27546.58
571.18	27684.2
571.542	27879.9
571.903	27986.79
572.265	28253.23
572.626	28398.98
572.987	28663.16
573.349	28634.23
573.71	28878.29
574.071	29008.23
574.432	29251.84
574.794	29570.71
575.155	29648.67
575.516	29637.37
575.877	29810.7
576.238	29875.78
576.599	30195.77
576.96	30312.61
577.32	30415.2
577.681	30582.43
578.042	30764.57
578.403	30835.76
578.763	30948.3
579.124	31046.82
579.485	31373.6
579.845	31532.01
580.206	31381.96
580.566	31485.23
580.927	31642.06
581.287	31735.39
581.648	31623.53
582.008	31880.25
582.368	31931.77
582.728	32034.14
583.089	32068.04
583.449	32107.81
583.809	32455.83
584.169	32427.58
584.529	32378.32
584.889	32745.76
585.249	32573.11
585.609	32624.64
585.969	32681.36
586.329	32799.1
586.688	32856.04
587.048	32789.15
587.408	32732.88
587.768	32893.1
588.127	32860.56
588.487	32776.27
588.846	33135.36
589.206	32949.37
589.565	33001.8
589.925	33269.82
590.284	33191.85
590.643	33232.98
591.003	33491.96
591.362	33441.79
591.721	33399.98
592.08	33472.07
592.44	33505.97
592.799	33543.48
593.158	33597.04
593.517	33621.9
593.876	33654.21
594.235	33573.54
594.593	33705.96
594.952	33783.48
595.311	33700.77
595.67	33777.37
596.029	33924.26
596.387	34011.04
596.746	33952.29
597.104	33922.23
597.463	33928.78
597.822	34073.19
598.18	33897.82
598.538	33903.7
598.897	34046.97
599.255	33826.19
599.613	34250.81
599.972	34127.2
600.33	34155.22
600.688	34085.39
601.046	34299.17
601.404	34311.82
601.762	34361.77
602.12	34538.48
602.478	34528.09
602.836	34426.4
603.194	34324.93
603.552	34285.38
603.91	34192.5
604.268	34450.58
604.625	34204.03
604.983	34483.57
605.341	34430.46
605.698	34418.94
606.056	34660.52
606.413	34571.25
606.771	34783
607.128	34738.03
607.485	34560.63
607.843	34615.09
608.2	34872.94
608.557	35010.34
608.914	34752.49
609.272	35020.05
609.629	35041.75
609.986	35083.78
610.343	35040.39
610.7	35128.3
611.057	35171.91
611.414	35071.8
611.771	35122.2
612.127	35201.97
612.484	35208.75
612.841	35425.69
613.198	35304.34
613.554	35271.35
613.911	35579.59
614.267	35509.53
614.624	35455.75
614.98	35599.93
615.337	35736.87
615.693	35655.97
616.05	35546.14
616.406	35767.38
616.762	35612.35
617.118	35596.76
617.475	35670.43
617.831	35887.6
618.187	35686.48
618.543	35865.23
618.899	36104.55
619.255	35887.38
619.611	35897.32
619.967	36018.45
620.323	36101.83
620.678	36015.73
621.034	35974.6
621.39	36020.71
621.746	36067.71
622.101	36413.69
622.457	36096.86
622.812	36139.8
623.168	36180.93
623.523	36215.73
623.879	36166.92
624.234	36008.05
624.589	36121.95
624.945	36198.55
625.3	36256.18
625.655	36351.32
626.01	36286.01
626.365	36303.41
626.72	36204.43
627.075	36198.78
627.43	36108.61
627.785	36078.56
628.14	36065.9
628.495	36109.52
628.85	36187.71
629.205	36063.19
629.559	36062.51
629.914	35992.23
630.269	36163.53
630.623	35934.83
630.978	35910.2
631.332	36114.04
631.687	35979.8
632.041	35810.09
632.396	35942.97
632.75	35796.76
633.104	35816.19
633.459	35756.76
633.813	35668.17
634.167	35724.67
634.521	35751.56
634.875	35757.89
635.229	35627.72
635.583	35488.74
635.937	35605.58
636.291	35520.15
636.645	35554.73
636.999	35536.42
637.352	35535.97
637.706	35273.61
638.06	35536.42
638.413	35263.21
638.767	35246.04
639.121	35261.86
639.474	35056.21
639.828	35176.89
640.181	35254.17
640.534	35287.39
640.888	35106.83
641.241	34926.72
641.594	35018.7
641.947	35021.86
642.301	34913.39
642.654	34982.54
643.007	35129.88
643.36	34948.19
643.713	34906.38
644.066	34801.08
644.419	34721.53
644.771	34544.81
645.124	34229.34
645.477	34241.54
645.83	33939.18
646.182	33779.41
646.535	33791.84
646.888	33823.25
647.24	33455.58
647.593	33701.9
647.945	33685.17
648.298	33598.62
648.65	33547.78
649.002	33428.68
649.355	33464.39
649.707	33545.97
650.059	33760.88
650.411	34073.41
650.763	34305.27
651.115	34429.56
651.467	34422.56
651.819	34314.08
652.171	34241.77
652.523	34136.24
652.875	34269.11
653.227	34027.76
653.578	34349.11
653.93	34080.42
654.282	34069.8
654.633	33938.05
654.985	34203.35
655.337	34093.3
655.688	34146.86
656.039	34306.85
656.391	34002.45
656.742	33941.21
657.094	34013.75
657.445	34228.44
657.796	34026.41
658.147	33923.59
658.498	33894.89
658.849	34096.69
659.2	34105.73
659.551	33924.94
659.902	34030.25
660.253	33976.92
660.604	34149.57
660.955	33879.29
661.306	34058.5
661.656	33956.13
662.007	33967.2
662.358	33905.96
662.708	33912.06
663.059	34017.82
663.409	33721.33
663.76	33819.86
664.11	33796.36
664.461	34060.76
664.811	33813.76
665.161	33882.68
665.511	33800.65
665.862	33799.29
666.212	33775.57
666.562	33849.01
666.912	33756.13
667.262	33752.29
667.612	33863.25
667.962	33881.33
668.312	33616.47
668.662	33940.53
669.011	33768.56
669.361	33720.43
669.711	33730.6
670.06	33622.58
670.41	33711.16
670.76	33616.02
671.109	33679.52
671.459	33587.1
671.808	33444.73
672.157	33493.54
672.507	33544.39
672.856	33517.95
673.205	33537.15
673.554	33597.04
673.904	33345.3
674.253	33601.11
674.602	33457.61
674.951	32897.62
675.3	32788.7
675.649	33373.32
675.998	33354.11
676.346	33351.17
676.695	33356.82
677.044	33136.04
677.393	33284.05
677.741	33256.71
678.09	33171.51
678.438	33038.64
678.787	32986.43
679.135	33078.86
679.484	32803.84
679.832	32900.79
680.181	32823.95
680.529	32869.38
680.877	32801.81
681.225	32736.27
681.573	32937.17
681.922	32596.61
682.27	32534.7
682.618	32524.75
682.966	32608.37
683.314	32562.72
683.661	32358.2
684.009	32262.61
684.357	32183.07
684.705	32254.48
685.053	32269.84
685.4	32022.17
685.748	32067.36
686.095	31933.36
686.443	31959.12
686.79	31765.68
687.138	31735.62
687.485	31678.67
687.832	31550.54
688.18	31645.91
688.527	31462.86
688.874	31463.76
689.221	31289.3
689.568	31230.55
689.915	31156.43
690.262	31288.17
690.609	31075.98
690.956	31125.24
691.303	31042.31
691.65	30798.92
691.997	30841.41
692.344	30644.58
692.69	30534.52
693.037	30560.28
693.383	30230.8
693.73	30442.1
694.077	30150.13
694.423	30163.23
694.769	30006.4
695.116	29980.19
695.462	29885.05
695.808	29840.08
696.155	29791.72
696.501	29547.43
696.847	29649.12
697.193	29371.16
697.539	29481.89
697.885	29243.93
698.231	29131.17
698.577	29150.15
698.923	29056.14
699.269	28904.28
699.614	28738.86
699.96	28671.97
700.306	28716.72
700.651	28576.16
700.997	28581.35
701.342	28337.29
701.688	28424.52
702.033	28152.44
702.379	28195.6
702.724	28129.61
703.069	28233.34
703.415	27789.74
703.76	27810.53
704.105	27782.05
704.45	27660.25
704.795	27616.86
705.14	27506.8
705.485	27470.42
705.83	27512.68
706.175	27381.16
706.52	27213.25
706.865	27215.29
707.209	26946.82
707.554	27032.24
707.899	27029.08
708.243	26862.75
708.588	26893.71
708.932	26634.74
709.277	26603.55
709.621	26538.69
709.966	26437.23
710.31	26579.6
710.654	26285.14
710.998	26407.62
711.342	26435.65
711.687	26180.51
712.031	26081.53
712.375	26078.37
712.719	26036.11
713.063	25956.11
713.407	26086.5
713.75	25966.96
714.094	25973.74
714.438	25768.09
714.782	25863.91
715.125	25687.42
715.469	25793.86
715.812	25550.7
716.156	25441.55
716.499	25535.56
716.843	25466.41
717.186	25415.33
717.53	25406.52
717.873	25395.67
718.216	25446.29
718.559	25256.69
718.902	25118.39
719.246	25306.86
719.589	25241.78
719.932	25065.51
720.275	25034.33
720.617	25089.02
720.96	25029.58
721.303	24912.07
721.646	25012.41
721.989	24863.48
722.331	25023.71
722.674	24913.65
723.016	24921.11
723.359	24863.71
723.701	24809.93
724.044	24736.93
724.386	24684.51
724.729	24734
725.071	24684.05
725.413	24629.37
725.755	24609.48
726.097	24545.75
726.439	24421.01
726.782	24482.03
727.124	24539.65
727.465	24457.85
727.807	24381.46
728.149	24398.64
728.491	24329.26
728.833	24449.94
729.175	24364.51
729.516	24182.82
729.858	24338.53
730.199	24445.87
730.541	24360
730.882	24256.27
731.224	24389.37
731.565	24198.64
731.906	24291.3
732.248	24217.85
732.589	24186.21
732.93	24092.66
733.271	24139.89
733.612	24051.98
733.953	24117.97
734.294	24117.52
734.635	24125.42
734.976	24094.24
735.317	24063.05
735.658	24080
735.999	23958.65
736.339	24005.65
736.68	24083.84
737.021	24088.59
737.361	23890.4
737.702	24121.13
738.042	24009.95
738.383	23941.7
738.723	23978.31
739.063	24014.47
739.404	23987.12
739.744	23906.67
740.084	23819.9
740.424	23891.31
740.764	23886.34
741.104	23967.01
741.444	23803.85
741.784	23741.71
742.124	23817.18
742.464	23889.5
742.804	23768.37
743.143	23883.62
743.483	23868.03
743.823	23616.29
744.162	23758.43
744.502	23735.38
744.841	23852.66
745.181	23913.45
745.52	23660.58
745.86	23845.66
746.199	23746
746.538	23650.64
746.877	23859.67
747.216	23734.47
747.556	23726.79
747.895	23779.9
748.234	23580.13
748.573	23592.56
748.911	23656.74
749.25	23600.02
749.589	23591.2
749.928	23527.47
750.267	23667.81
750.605	23562.5
750.944	23677.53
751.283	23458.78
751.621	23580.13
751.96	23334.03
752.298	23482.96
752.636	23490.19
752.975	23393.69
753.313	23208.84
753.651	23295.16
753.989	23301.72
754.327	23295.84
754.666	23163.19
755.004	23179.01
755.342	23210.65
755.679	23196.64
756.017	23138.11
756.355	23235.5
756.693	22998.45
757.031	23146.24
757.368	22932.01
757.706	22894.95
758.044	22771.34
758.381	22861.5
758.719	22741.51
759.056	22742.18
759.394	22692.92
759.731	22558.91
760.068	22569.99
760.405	22560.95
760.743	22402.98
761.08	22606.37
761.417	22311.24
761.754	22284.12
762.091	22346.71
762.428	22275.98
762.765	22091.58
763.102	22196.21
763.438	22050.9
763.775	21898.36
764.112	21988.98
764.449	22014.52
764.785	21891.81
765.122	21677.81
765.458	21700.18
765.795	21678.71
766.131	21582.67
766.467	21486.85
766.804	21478.04
767.14	21440.98
767.476	21323.46
767.812	21251.6
768.148	21171.15
768.485	21060.19
768.821	20993.76
769.157	21122.79
769.492	21002.34
769.828	20931.61
770.164	20759.41
770.5	20690.71
770.836	20814.1
771.171	20620.43
771.507	20537.27
771.842	20406.2
772.178	20311.29
772.513	20285.07
772.849	20200.56
773.184	20211.86
773.519	20214.57
773.855	20042.14
774.19	19991.97
774.525	19798.76
774.86	19834.01
775.195	19852.32
775.53	19794.92
775.865	19660.91
776.2	19524.42
776.535	19465.89
776.87	19384.98
777.205	19304.31
777.539	19300.02
777.874	19243.75
778.209	19101.6
778.543	19016.41
778.878	19024.54
779.212	18984.32
779.547	18796.07
779.881	18925.34
780.215	18641.5
780.55	18748.62
780.884	18552.92
781.218	18525.57
781.552	18611.45
781.886	18415.07
782.22	18419.81
782.554	18282.19
782.888	18231.79
783.222	18121.74
783.556	18124.23
783.889	18064.34
784.223	17944.8
784.557	17916.1
784.89	17858.7
785.224	17707.51
785.557	17755.87
785.891	17608.08
786.224	17484.92
786.558	17477.01
786.891	17541.19
787.224	17368.99
787.557	17412.38
787.891	17246.28
788.224	17244.48
788.557	17195.89
788.89	17110.02
789.223	17122.9
789.556	16922.22
789.888	16931.94
790.221	16844.71
790.554	16761.55
790.887	16750.25
791.219	16719.52
791.552	16579.86
791.884	16563.59
792.217	16543.03
792.549	16560.2
792.882	16325.4
793.214	16267.1
793.546	16403.14
793.879	16342.8
794.211	16168.8
794.543	16183.03
794.875	16072.08
795.207	16145.52
795.539	16051.96
795.871	15985.3
796.203	15877.51
796.535	15795.93
796.867	15767.23
797.198	15728.58
797.53	15717.51
797.862	15610.85
798.193	15724.52
798.525	15533.79
798.856	15448.82
799.188	15350.74
799.519	15322.04
799.85	15216.28
800.182	15255.38
800.513	15252.44
800.844	15147.13
801.175	15222.61
801.506	15140.35
801.837	15027.13
802.168	14989.17
802.499	14961.82
802.83	14900.13
803.161	14892.45
803.491	14832.79
803.822	14828.95
804.153	14745.33
804.483	14656.3
804.814	14591.21
805.145	14555.28
805.475	14624.43
805.805	14533.36
806.136	14526.13
806.466	14521.84
806.796	14419.92
807.126	14283.88
807.457	14311.22
807.787	14265.57
808.117	14226.25
808.447	14170.88
808.777	14191.9
809.107	14124.78
809.436	14102.19
809.766	14022.87
810.096	14007.5
810.426	14012.92
810.755	14003.21
811.085	13953.04
811.414	13892.93
811.744	13772.7
812.073	13757.11
812.403	13761.86
812.732	13704
813.061	13719.6
813.39	13583.78
813.719	13525.25
814.049	13610.67
814.378	13591.24
814.707	13504.01
815.036	13485.7
815.365	13346.95
815.693	13234.86
816.022	13282.09
816.351	13282.32
816.68	13217.46
817.008	13225.15
817.337	13125.94
817.665	13095.21
817.994	13183.79
818.322	13157.58
818.651	13042.33
818.979	13034.42
819.307	13067.64
819.636	13000.97
819.964	12876.68
820.292	12983.8
820.62	12970.69
820.948	12914.87
821.276	12911.48
821.604	12945.15
821.932	12854.08
822.259	12894.99
822.587	12899.05
822.915	12876
823.243	12920.3
823.57	12844.59
823.898	12804.59
824.225	12893.86
824.553	12847.3
824.88	12957.81
825.207	12943.35
825.535	12853.63
825.862	12886.62
826.189	12919.84
826.516	12864.03
826.843	12893.18
827.17	12890.69
827.497	12896.34
827.824	12939.96
828.151	12782.9
828.478	12838.26
828.805	12882.78
829.131	12782.9
829.458	12833.97
829.785	12643.02
830.111	12768.44
830.438	12803.01
830.764	12805.95
831.09	12884.82
831.417	12777.02
831.743	12742.9
832.069	12768.21
832.395	12720.53
832.722	12805.27
833.048	12790.13
833.374	12792.62
833.7	12765.05
834.026	12786.51
834.351	12724.14
834.677	12695.22
835.003	12589.46
835.329	12656.8
835.654	12626.97
835.98	12542.45
836.306	12629.46
836.631	12457.94
836.956	12579.51
837.282	12585.16
837.607	12509.01
837.932	12450.25
838.258	12431.27
838.583	12418.61
838.908	12381.55
839.233	12444.15
839.558	12399.86
839.883	12360.99
840.208	12321.44
840.533	12265.85
840.858	12285.06
841.182	12243.03
841.507	12244.16
841.832	12169.13
842.156	12160.77
842.481	12226.75
842.805	12094.33
843.13	12114.67
843.454	12156.47
843.778	12098.4
844.103	12050.94
844.427	11899.08
844.751	11953.77
845.075	11989.92
845.399	11888.46
845.723	11833.09
846.047	11941.11
846.371	11753.77
846.695	11756.94
847.019	11629.03
847.343	11656.15
847.666	11498.41
847.99	11481.01
848.313	11544.51
848.637	11385.65
848.96	11392.65
849.284	11303.39
849.607	11259.77
849.931	11223.62
850.254	11181.81
850.577	11213.22
850.9	11073.34
851.223	11031.31
851.546	11001.25
851.869	10901.14
852.192	10999.67
852.515	10880.58
852.838	10897.52
853.161	10835.6
853.483	10795.38
853.806	10727.36
854.129	10765.32
854.451	10617.31
854.774	10669.28
855.096	10639.68
855.419	10561.26
855.741	10516.74
856.063	10479.23
856.385	10517.2
856.708	10475.16
857.03	10405.33
857.352	10441.94
857.674	10362.4
857.996	10339.57
858.318	10319.01
858.64	10239.91
858.961	10252.12
859.283	10157.66
859.605	10126.92
859.926	10205.56
860.248	10141.84
860.57	10132.12
860.891	10154.72
861.212	10099.13
861.534	10000.82
861.855	10035.85
862.176	10029.3
862.498	9992.69
862.819	9992.92
863.14	9893.71
863.461	9838.79
863.782	9909.98
864.103	9930.54
864.424	9858.23
864.745	9844.22
865.065	9848.74
865.386	9796.08
865.707	9816.87
866.027	9803.09
866.348	9702.53
866.668	9729.19
866.989	9701.62
867.309	9626.15
867.63	9614.17
867.95	9588.86
868.27	9630.89
868.59	9686.03
868.91	9611.23
869.23	9610.1
869.55	9573.27
869.87	9578.24
870.19	9525.36
870.51	9579.82
870.83	9523.78
871.15	9510.22
871.469	9550.21
871.789	9480.84
872.109	9471.12
872.428	9425.25
872.748	9441.52
873.067	9490.56
873.386	9476.54
873.706	9439.48
874.025	9409.43
874.344	9395.64
874.663	9307.28
874.982	9325.36
875.301	9330.33
875.62	9218.02
875.939	9295.08
876.258	9286.72
876.577	9179.83
876.896	9255.53
877.214	9139.6
877.533	9207.85
877.852	9190.68
878.17	9172.15
878.489	9114.75
878.807	9201.75
879.125	9139.6
879.444	9134.63
879.762	9086.95
880.08	9053.05
880.398	9044.24
880.716	9074.07
881.034	9102.09
881.352	8950.46
881.67	8976.9
881.988	8994.3
882.306	8957.91
882.624	8989.1
882.941	8868.2
883.259	8917.69
883.577	8908.65
883.894	8885.15
884.212	8793.85
884.529	8778.71
884.846	8771.7
885.164	8781.42
885.481	8752.95
885.798	8744.59
886.115	8679.28
886.432	8668.88
886.75	8692.38
887.067	8656.91
887.383	8602.9
887.7	8580.07
888.017	8565.61
888.334	8600.41
888.651	8531.94
888.967	8552.5
889.284	8463.01
889.6	8447.42
889.917	8480.86
890.233	8390.92
890.55	8439.28
890.866	8404.71
891.182	8341.21
891.498	8374.88
891.815	8301.89
892.131	8309.8
892.447	8253.98
892.763	8251.72
893.079	8166.3
893.395	8203.81
893.71	8139.86
894.026	8166.07
894.342	8142.34
894.657	8105.06
894.973	8103.47
895.289	8010.59
895.604	7992.52
895.92	7945.74
896.235	7938.96
896.55	7970.14
896.865	7913.87
897.181	7847.89
897.496	7936.7
897.811	7869.58
898.126	7819.64
898.441	7821.67
898.756	7817.15
899.071	7721.79
899.386	7817.61
899.7	7633.88
900.015	7594.33
900.33	7598.63
900.644	7596.14
900.959	7571.74
901.273	7582.36
901.588	7489.25
901.902	7496.26
902.216	7414.45
902.531	7438.18
902.845	7405.19
903.159	7342.14
903.473	7362.02
903.787	7357.05
904.101	7302.36
904.415	7273.21
904.729	7294
905.042	7230.5
905.356	7209.71
905.67	7167
905.984	7164.06
906.297	7151.18
906.611	7075.03
906.924	7118.64
907.237	7024.41
907.551	7045.65
907.864	6957.29
908.177	7020.56
908.491	6928.14
908.804	6922.94
909.117	6839.1
909.43	6847.46
909.743	6790.74
910.056	6806.78
910.368	6727.01
910.681	6755.03
910.994	6670.29
911.307	6655.15
911.619	6626.68
911.932	6658.09
912.244	6568.37
912.557	6593.91
912.869	6579.45
913.181	6547.13
913.494	6508.26
913.806	6511.42
914.118	6462.61
914.43	6444.76
914.742	6419
915.054	6341.03
915.366	6340.81
915.678	6339.45
915.99	6275.5
916.302	6248.38
916.613	6255.61
916.925	6196.86
917.236	6213.13
917.548	6152.34
917.859	6141.49
918.171	6136.97
918.482	6056.97
918.794	6089.06
919.105	6040.7
919.416	5995.73
919.727	5948.5
920.038	6008.16
920.349	5971.33
920.66	5907.6
920.971	5880.25
921.282	5870.99
921.593	5781.05
921.903	5832.35
922.214	5805.68
922.525	5732.91
922.835	5742.41
923.146	5719.58
923.456	5682.52
923.767	5680.03
924.077	5664.22
924.387	5627.38
924.697	5634.61
925.008	5617.89
925.318	5557.1
925.628	5561.17
925.938	5541.73
926.248	5467.84
926.558	5431.45
926.867	5461.28
927.177	5410.66
927.487	5408.18
927.796	5365.47
928.106	5363.66
928.416	5285.92
928.725	5299.93
929.034	5307.39
929.344	5282.98
929.653	5250.22
929.962	5202.53
930.271	5214.74
930.581	5177
930.89	5119.37
931.199	5143.1
931.508	5104.91
931.817	5093.61
932.125	5108.98
932.434	5073.72
932.743	5013.16
933.051	5000.5
933.36	4963.67
933.669	4919.38
933.977	4940.84
934.286	4940.39
934.594	4920.28
934.902	4850.23
935.21	4828.31
935.519	4829.89
935.827	4840.06
936.135	4809.32
936.443	4742.66
936.751	4716.44
937.059	4776.1
937.367	4763.9
937.674	4686.16
937.982	4678.7
938.29	4658.82
938.597	4652.26
938.905	4646.16
939.213	4556.9
939.52	4567.3
939.827	4585.83
940.135	4540.86
940.442	4497.47
940.749	4500.4
941.056	4520.97
941.363	4444.81
941.67	4482.55
941.977	4408.66
942.284	4372.05
942.591	4389.45
942.898	4345.83
943.205	4371.14
943.511	4268.32
943.818	4306.74
944.125	4271.26
944.431	4250.47
944.738	4224.48
945.044	4246.17
945.35	4203.46
945.657	4209.34
945.963	4198.27
946.269	4120.75
946.575	4166.18
946.881	4142.22
947.187	4145.84
947.493	4078.27
947.799	4066.52
948.105	4061.32
948.41	4017.48
948.716	4022
949.022	4019.51
949.327	4004.15
949.633	3970.7
949.938	3982
950.244	3957.59
950.549	3937.93
950.854	3927.31
951.16	3920.31
951.465	3886.64
951.77	3857.94
952.075	3881.66
952.38	3823.13
952.685	3802.12
952.99	3780.88
953.294	3781.55
953.599	3756.02
953.904	3732.74
954.209	3725.06
954.513	3758.5
954.818	3737.94
955.122	3643.7
955.426	3674.89
955.731	3717.83
956.035	3654.55
956.339	3642.8
956.643	3604.16
956.948	3569.81
957.252	3582.24
957.556	3565.29
957.86	3574.1
958.163	3491.84
958.467	3492.75
958.771	3535.68
959.075	3499.98
959.378	3476.48
959.682	3447.78
959.985	3473.09
960.289	3438.74
960.592	3418.17
960.896	3408
961.199	3390.15
961.502	3378.85
961.805	3352.86
962.108	3325.75
962.411	3361.23
962.714	3259.76
963.017	3303.15
963.32	3285.29
963.623	3282.58
963.926	3265.18
964.228	3243.49
964.531	3250.04
964.833	3237.16
965.136	3234.22
965.438	3216.82
965.741	3177.95
966.043	3183.38
966.345	3150.16
966.648	3128.91
966.95	3142.47
967.252	3085.53
967.554	3114.23
967.856	3067.45
968.158	3045.53
968.46	3085.3
968.761	3042.59
969.063	3031.06
969.365	3064.96
969.666	3041.91
969.968	2965.53
970.269	3003.72
970.571	2992.65
970.872	2951.29
971.174	2930.28
971.475	2876.49
971.776	2927.79
972.077	2891.18
972.378	2880.11
972.679	2843.72
972.98	2912.42
973.281	2886.66
973.582	2822.93
973.883	2824.06
974.183	2809.38
974.484	2822.71
974.785	2778.19
975.085	2767.57
975.386	2773.9
975.686	2726.44
975.986	2753.11
976.287	2769.15
976.587	2680.79
976.887	2684.18
977.187	2716.5
977.487	2718.08
977.787	2649.38
978.087	2688.93
978.387	2614.35
978.687	2646.67
978.987	2590.4
979.286	2615.26
979.586	2566.44
979.885	2577.07
980.185	2594.01
980.484	2580.23
980.784	2577.74
981.083	2558.53
981.382	2561.25
981.682	2531.87
981.981	2547.91
982.28	2487.12
982.579	2470.63
982.878	2465.88
983.177	2472.89
983.475	2472.21
983.774	2429.72
984.073	2470.85
984.372	2429.05
984.67	2429.05
984.969	2413.91
985.267	2435.37
985.566	2418.65
985.864	2390.18
986.162	2365.55
986.461	2388.14
986.759	2338.65
987.057	2295.49
987.355	2357.41
987.653	2333.46
987.951	2314.25
988.249	2318.09
988.547	2312.67
988.844	2288.94
989.142	2285.1
989.44	2285.1
989.737	2251.65
990.035	2262.5
990.332	2230.63
990.63	2224.53
990.927	2202.84
991.224	2224.98
991.521	2207.13
991.819	2178.21
992.116	2165.55
992.413	2154.93
992.71	2165.78
993.006	2138.21
993.303	2161.48
993.6	2136.62
993.897	2121.26
994.193	2111.54
994.49	2080.35
994.787	2053.01
995.083	2057.53
995.379	2059.34
995.676	2055.72
995.972	2045.33
996.268	2033.35
996.565	2022.28
996.861	2012.56
997.157	2017.31
997.453	1987.93
997.749	2006.68
998.044	1956.06
998.34	1930.3
998.636	1947.48
998.932	1947.03
999.227	1898.66
999.523	1901.83
999.818	1920.81
1000.114	1919.46
1000.409	1909.51
1000.704	1859.34
1001	1889.17
1001.295	1846.01
1001.59	1857.99
1001.885	1845.78
1002.18	1814.37
1002.475	1845.11
1002.77	1824.99
1003.065	1816.18
1003.359	1799.23
1003.654	1788.39
1003.949	1779.12
1004.243	1753.81
1004.538	1756.3
1004.832	1740.48
1005.127	1726.24
1005.421	1739.35
1005.715	1709.07
1006.009	1698.22
1006.304	1729.86
1006.598	1702.74
1006.892	1679.24
1007.186	1651.21
1007.48	1654.83
1007.773	1637.88
1008.067	1639.46
1008.361	1628.16
1008.655	1628.16
1008.948	1627.94
1009.242	1634.49
1009.535	1604.21
1009.829	1613.02
1010.122	1610.54
1010.415	1571.67
1010.708	1584.55
1011.001	1567.6
1011.295	1528.51
1011.588	1559.01
1011.881	1530.76
1012.173	1536.19
1012.466	1488.51
1012.759	1512.91
1013.052	1494.38
1013.344	1515.17
1013.637	1488.05
1013.93	1464.1
1014.222	1473.82
1014.514	1469.52
1014.807	1457.32
1015.099	1446.7
1015.391	1453.03
1015.683	1440.15
1015.976	1404.44
1016.268	1422.52
1016.56	1419.81
1016.851	1374.61
1017.143	1380.94
1017.435	1396.76
1017.727	1383.42
1018.018	1348.62
1018.31	1359.92
1018.602	1350.2
1018.893	1357.44
1019.185	1324.67
1019.476	1322.41
1019.767	1314.05
1020.058	1292.8
1020.35	1299.13
1020.641	1281.28
1020.932	1275.63
1021.223	1290.09
1021.514	1276.53
1021.804	1241.51
1022.095	1253.03
1022.386	1214.84
1022.677	1239.25
1022.967	1242.18
1023.258	1220.04
1023.548	1230.43
1023.839	1218.68
1024.129	1191.34
1024.419	1192.69
1024.709	1176.88
1025	1171
1025.29	1171.9
1025.58	1172.13
1025.87	1139.36
1026.16	1147.72
1026.449	1141.17
1026.739	1138.01
1027.029	1103.66
1027.319	1123.32
1027.608	1119.7
1027.898	1116.76
1028.187	1101.4
1028.477	1086.26
1028.766	1073.83
1029.055	1059.14
1029.344	1081.29
1029.634	1054.39
1029.923	1088.29
1030.212	1050.1
1030.501	1041.29
1030.79	1034.51
1031.078	1035.86
1031.367	1041.51
1031.656	1034.28
1031.945	1003.77
1032.233	988.63
1032.522	965.81
1032.81	982.98
1033.099	1001.29
1033.387	988.86
1033.675	974.85
1033.963	970.33
1034.251	944.34
1034.54	912.02
1034.828	945.7
1035.116	943.44
1035.403	947.28
1035.691	946.6
1035.979	934.4
1036.267	899.82
1036.554	902.76
1036.842	933.49
1037.129	906.37
1037.417	891.23
1037.704	890.33
1037.992	879.48
1038.279	886.94
1038.566	864.79
1038.853	864.79
1039.14	864.79
