Data from tablewood_dark_bookshelf_FLMS001491_00004.txt Node
Date: Wed Feb 08 14:13:19 GMT 2017
User: dcchb
Spectrometer: FLMS00149
Trigger mode: 0
Integration Time (sec): 2.000000E-2
Scans to average: 10
Electric dark correction enabled: true
Nonlinearity correction enabled: false
Boxcar width: 0
XAxis mode: Wavelengths
Number of Pixels in Spectrum: 2048
>>>>>Begin Spectral Data<<<<<
341.393	-5.07
341.776	-5.07
342.16	-5.07
342.543	-51.85
342.927	-67.89
343.31	-90.72
343.693	-68.12
344.077	-36.93
344.46	-66.54
344.843	-53.66
345.226	-33.09
345.61	-45.97
345.993	-25.41
346.376	-10.95
346.759	11.88
347.142	19.56
347.525	49.62
347.908	55.49
348.291	64.76
348.674	106.11
349.057	123.97
349.44	119.22
349.823	144.08
350.206	160.57
350.588	209.39
350.971	223.4
351.354	241.02
351.737	233.57
352.119	244.41
352.502	255.94
352.884	256.39
353.267	295.03
353.65	283.96
354.032	301.59
354.414	307.46
354.797	315.83
355.179	320.34
355.562	326.9
355.944	325.77
356.326	324.64
356.709	343.39
357.091	336.62
357.473	346.33
357.855	326.45
358.238	344.75
358.62	351.53
359.002	343.17
359.384	334.13
359.766	360.57
360.148	333.68
360.53	338.65
360.912	348.82
361.294	349.5
361.676	323.96
362.057	347.91
362.439	342.49
362.821	328.71
363.203	348.14
363.584	313.34
363.966	328.93
364.348	331.19
364.729	328.25
365.111	314.24
365.493	341.14
365.874	325.77
366.256	328.71
366.637	324.86
367.019	333.68
367.4	337.97
367.781	319.67
368.163	319.89
368.544	332.1
368.925	314.92
369.306	320.8
369.688	311.76
370.069	353.56
370.45	328.03
370.831	315.15
371.212	326.9
371.593	331.87
371.974	312.44
372.355	321.93
372.736	331.87
373.117	319.44
373.498	346.78
373.879	325.77
374.26	341.81
374.641	326.22
375.021	354.24
375.402	354.47
375.783	329.61
376.163	350.85
376.544	349.95
376.925	334.36
377.305	337.75
377.686	361.47
378.066	344.75
378.447	359.44
378.827	348.37
379.208	355.37
379.588	353.34
379.968	353.11
380.349	387.24
380.729	345.2
381.109	359.21
381.489	373
381.87	370.06
382.25	386.56
382.63	373.45
383.01	368.93
383.39	389.5
383.77	371.87
384.15	377.07
384.53	381.59
384.91	387.24
385.29	399.66
385.67	381.36
386.049	401.02
386.429	386.33
386.809	400.34
387.189	385.43
387.568	398.76
387.948	384.75
388.328	396.5
388.707	414.58
389.087	409.38
389.466	398.76
389.846	395.6
390.225	431.53
390.605	418.2
390.984	433.79
391.363	434.01
391.743	426.33
392.122	454.35
392.501	459.55
392.881	439.44
393.26	455.93
393.639	455.93
394.018	444.86
394.397	467.46
394.776	450.28
395.155	438.76
395.534	461.13
395.913	464.3
396.292	470.62
396.671	453.45
397.05	460.91
397.429	463.84
397.808	474.01
398.186	484.86
398.565	469.95
398.944	463.62
399.323	477.4
399.701	498.65
400.08	487.57
400.458	490.51
400.837	505.88
401.215	523.73
401.594	500
401.972	496.61
402.351	518.76
402.729	495.48
403.107	538.42
403.486	523.5
403.864	512.88
404.242	514.69
404.62	528.47
404.999	514.24
405.377	517.18
405.755	523.28
406.133	528.93
406.511	551.3
406.889	565.99
407.267	565.76
407.645	555.14
408.023	552.88
408.401	552.65
408.779	580.68
409.156	609.15
409.534	577.97
409.912	585.65
410.29	579.55
410.667	594.69
411.045	622.71
411.422	625.2
411.8	636.95
412.178	627.91
412.555	644.63
412.933	649.38
413.31	657.06
413.687	641.92
414.065	643.73
414.442	666.32
414.819	659.09
415.197	686.21
415.574	645.99
415.951	677.17
416.328	676.49
416.705	698.19
417.082	665.42
417.46	707.91
417.837	714.46
418.214	714.46
418.591	716.04
418.967	732.54
419.344	728.47
419.721	742.03
420.098	742.25
420.475	741.8
420.852	788.58
421.228	749.49
421.605	765.3
421.982	740.67
422.358	799.2
422.735	788.35
423.111	779.09
423.488	785.42
423.864	799.88
424.241	831.97
424.617	825.42
424.994	817.73
425.37	818.86
425.746	817.28
426.123	830.16
426.499	848.47
426.875	860.9
427.251	854.57
427.627	874
428.003	881.01
428.379	904.06
428.756	926.2
429.132	917.84
429.507	898.41
429.883	963.49
430.259	944.06
430.635	930.95
431.011	954.45
431.387	982.47
431.763	990.84
432.138	1009.37
432.514	1019.54
432.89	1017.5
433.265	1005.75
433.641	1024.96
434.016	1055.69
434.392	1084.84
434.767	1091.62
435.143	1066.31
435.518	1090.04
435.894	1117.39
436.269	1123.26
436.644	1111.96
437.02	1127.33
437.395	1137.72
437.77	1172.98
438.145	1170.27
438.52	1168.23
438.895	1195.35
439.271	1165.97
439.646	1226.08
440.021	1211.85
440.395	1215.46
440.77	1206.2
441.145	1252.75
441.52	1238.74
441.895	1240.55
442.27	1271.96
442.645	1269.47
443.019	1282.35
443.394	1280.09
443.769	1274.22
444.143	1280.32
444.518	1313.76
444.892	1306.31
445.267	1319.19
445.641	1315.12
446.016	1362.13
446.39	1358.51
446.764	1325.29
447.139	1362.35
447.513	1412.07
447.887	1407.32
448.262	1403.93
448.636	1368.23
449.01	1444.83
449.384	1428.79
449.758	1438.73
450.132	1446.19
450.506	1462.69
450.88	1489.58
451.254	1460.88
451.628	1502.23
452.002	1492.97
452.376	1495.23
452.75	1521.44
453.123	1526.19
453.497	1570.93
453.871	1584.94
454.244	1620.42
454.618	1603.02
454.992	1651.16
455.365	1613.19
455.739	1634.43
456.112	1668.78
456.486	1671.27
456.859	1725.96
457.232	1747.2
457.606	1786.97
457.979	1763.02
458.352	1793.75
458.725	1821.77
459.099	1844.6
459.472	1863.58
459.845	1861.77
460.218	1899.29
460.591	1882.34
460.964	1922.34
461.337	1965.73
461.71	2000.98
462.083	1993.75
462.456	1987.87
462.829	2050.92
463.201	2080.07
463.574	2094.76
463.947	2091.37
464.32	2154.42
464.692	2129.79
465.065	2176.79
465.438	2218.83
465.81	2264.7
466.183	2275.55
466.555	2283.23
466.928	2304.93
467.3	2296.56
467.672	2340.86
468.045	2402.32
468.417	2412.49
468.789	2421.31
469.161	2459.95
469.534	2496.11
469.906	2560.51
470.278	2573.39
470.65	2562.55
471.022	2643.22
471.394	2682.77
471.766	2727.29
472.138	2762.54
472.51	2796.44
472.882	2885.47
473.253	2873.5
473.625	2880.05
473.997	2946.94
474.369	2986.72
474.74	3003.44
475.112	3047.96
475.484	3096.09
475.855	3186.94
476.227	3220.38
476.598	3294.96
476.97	3290.21
477.341	3367.72
477.713	3426.25
478.084	3453.82
478.455	3558.68
478.827	3578.11
479.198	3653.59
479.569	3629.18
479.94	3754.6
480.311	3772.46
480.682	3866.24
481.053	3978.1
481.424	3976.07
481.795	4029.17
482.166	4112.79
482.537	4108.04
482.908	4260.13
483.279	4277.08
483.65	4346.91
484.021	4389.39
484.391	4453.8
484.762	4504.64
485.133	4557.3
485.503	4600.91
485.874	4733.56
486.244	4755.48
486.615	4812.66
486.985	4906.44
487.356	4986.44
487.726	4988.24
488.097	5127.22
488.467	5159.54
488.837	5261.01
489.207	5319.31
489.578	5350.49
489.948	5439.98
490.318	5526.08
490.688	5520.66
491.058	5559.98
491.428	5670.49
491.798	5777.6
492.168	5889.01
492.538	5867.77
492.908	5956.35
493.278	5997.71
493.648	6044.71
494.017	6105.73
494.387	6126.07
494.757	6169.46
495.126	6264.82
495.496	6277.25
495.866	6343.92
496.235	6415.33
496.605	6486.96
496.974	6486.74
497.344	6585.94
497.713	6591.59
498.082	6653.74
498.452	6700.06
498.821	6770.57
499.19	6791.81
499.559	6822.55
499.928	6912.04
500.298	6966.05
500.667	7034.97
501.036	7022.77
501.405	7103.67
501.774	7112.26
502.143	7172.82
502.512	7174.4
502.88	7262.08
503.249	7326.26
503.618	7420.95
503.987	7455.52
504.356	7500.27
504.724	7496.2
505.093	7623.66
505.462	7640.15
505.83	7679.47
506.199	7674.95
506.567	7801.05
506.936	7855.97
507.304	7910.43
507.672	7912.01
508.041	7998.79
508.409	8078.56
508.777	8127.6
509.145	8179.12
509.514	8254.37
509.882	8269.06
510.25	8259.57
510.618	8371.43
510.986	8430.19
511.354	8537.3
511.722	8589.28
512.09	8663.63
512.458	8636.06
512.826	8671.99
513.193	8778.43
513.561	8817.07
513.929	8850.97
514.297	8957.63
514.664	9009.38
515.032	9053
515.4	9140
515.767	9186.33
516.135	9299.54
516.502	9181.58
516.869	9349.71
517.237	9452.31
517.604	9473.1
517.972	9544.51
518.339	9693.21
518.706	9695.92
519.073	9806.42
519.44	9837.16
519.808	9906.99
520.175	9928
520.542	10058.17
520.909	10148.33
521.276	10157.83
521.643	10291.38
522.009	10308.78
522.376	10393.07
522.743	10437.37
523.11	10567.31
523.477	10701.77
523.843	10677.81
524.21	10875.77
524.577	10934.75
524.943	10974.3
525.31	11101.98
525.676	11135.88
526.043	11254.29
526.409	11330.68
526.776	11413.84
527.142	11396.89
527.508	11537
527.874	11558.02
528.241	11660.61
528.607	11746.48
528.973	11916.42
529.339	11856.09
529.705	12011.79
530.071	11976.99
530.437	12122.75
530.803	12237.77
531.169	12183.54
531.535	12307.83
531.901	12392.34
532.267	12371.78
532.632	12565.22
532.998	12498.1
533.364	12622.62
533.73	12732.22
534.095	12748.27
534.461	12771.54
534.826	12943.29
535.192	12933.12
535.557	13065.55
535.923	13017.41
536.288	13193.45
536.653	13173.11
537.019	13151.65
537.384	13230.97
537.749	13355.48
538.114	13371.3
538.479	13373.56
538.845	13449.94
539.21	13416.5
539.575	13555.48
539.94	13594.12
540.305	13630.5
540.67	13719.54
541.034	13689.48
541.399	13881.57
541.764	13836.6
542.129	13894.9
542.494	13984.84
542.858	13999.53
543.223	14051.96
543.587	14065.75
543.952	14135.12
544.316	14207.44
544.681	14171.28
545.045	14298.73
545.41	14503.47
545.774	14396.58
546.138	14349.35
546.503	14473.87
546.867	14450.14
547.231	14709.57
547.595	14670.93
547.959	14769.23
548.324	14775.78
548.688	14799.06
549.052	14846.52
549.416	14900.53
549.779	14933.29
550.143	14987.76
550.507	15031.6
550.871	15093.97
551.235	15070.47
551.599	15311.14
551.962	15315.2
552.326	15385.71
552.689	15409.44
553.053	15443.11
553.417	15489.21
553.78	15593.39
554.143	15600.85
554.507	15722.65
554.87	15746.61
555.234	15914.06
555.597	15919.03
555.96	15909.54
556.323	16074.28
556.686	16048.52
557.05	16200.61
557.413	16218.23
557.776	16315.4
558.139	16395.63
558.502	16432.01
558.865	16595.4
559.228	16657.09
559.59	16650.54
559.953	16669.52
560.316	16932.56
560.679	16973.69
561.041	16931.43
561.404	17025.89
561.767	17178.66
562.129	17138.89
562.492	17352.89
562.854	17311.54
563.217	17410.52
563.579	17518.31
563.941	17601.02
564.304	17738.87
564.666	17794.46
565.028	17869.71
565.39	18027.68
565.753	18048.47
566.115	18101.35
566.477	18232.64
566.839	18158.75
567.201	18424.95
567.563	18341.79
567.925	18593.76
568.287	18533.43
568.648	18680.09
569.01	18840.31
569.372	18847.54
569.734	18833.98
570.095	18900.2
570.457	19114.2
570.819	19118.95
571.18	19127.08
571.542	19240.53
571.903	19333.86
572.265	19409.33
572.626	19484.13
572.987	19528.2
573.349	19578.14
573.71	19742.66
574.071	19755.54
574.432	19859.94
574.794	19943.78
575.155	19904.91
575.516	19968.87
575.877	20025.82
576.238	20196.88
576.599	20244.11
576.96	20280.27
577.32	20345.58
577.681	20294.28
578.042	20552.81
578.403	20497.89
578.763	20639.58
579.124	20501.96
579.485	20603.88
579.845	20769.3
580.206	20782.86
580.566	20783.08
580.927	20899.69
581.287	20907.15
581.648	21002.74
582.008	21067.37
582.368	21017.88
582.728	21124.77
583.089	21101.49
583.449	21135.16
583.809	21029.63
584.169	21115.73
584.529	21217.42
584.889	21394.14
585.249	21268.49
585.609	21305.1
585.969	21425.78
586.329	21313.69
586.688	21476.4
587.048	21424.65
587.408	21335.61
587.768	21488.6
588.127	21432.78
588.487	21486.12
588.846	21599.11
589.206	21434.82
589.565	21506.23
589.925	21625.55
590.284	21565.44
590.643	21656.73
591.003	21741.02
591.362	21827.35
591.721	21823.73
592.08	21720.69
592.44	21963.17
592.799	21824.19
593.158	21933.34
593.517	21845.65
593.876	21926.1
594.235	21924.3
594.593	22074.8
594.952	22037.06
595.311	21960.23
595.67	21928.36
596.029	22072.99
596.387	22138.98
596.746	22194.35
597.104	22223.72
597.463	22168.13
597.822	22362.03
598.18	22234.8
598.538	22251.07
598.897	22453.32
599.255	22214.23
599.613	22569.03
599.972	22482.02
600.33	22448.35
600.688	22411.52
601.046	22409.48
601.404	22631.17
601.762	22604.28
602.12	22564.73
602.478	22648.35
602.836	22648.57
603.194	22590.72
603.552	22729.25
603.91	22551.85
604.268	22749.36
604.625	22711.39
604.983	22842.92
605.341	22701.9
605.698	22798.85
606.056	22885.4
606.413	22960.88
606.771	23070.93
607.128	23016.92
607.485	23019.63
607.843	22965.4
608.2	23002.23
608.557	23143.47
608.914	23133.53
609.272	23231.15
609.629	23280.42
609.986	23249.23
610.343	23272.51
610.7	23441.09
611.057	23362.68
611.414	23423.01
611.771	23464.14
612.127	23478.61
612.484	23390.25
612.841	23590.24
613.198	23540.53
613.554	23524.93
613.911	23685.61
614.267	23624.59
614.624	23703.23
614.98	23744.36
615.337	23803.57
615.693	23866.17
616.05	23783
616.406	24026.84
616.762	23874.08
617.118	23843.12
617.475	23754.3
617.831	23927.41
618.187	23923.11
618.543	23996.33
618.899	24117.23
619.255	24086.5
619.611	24033.62
619.967	24185.71
620.323	24147.29
620.678	24087.86
621.034	23996.11
621.39	24058.93
621.746	23912.94
622.101	24215.76
622.457	24056.44
622.812	24167.85
623.168	24149.77
623.523	24247.17
623.879	24269.32
624.234	24114.07
624.589	24315.87
624.945	24279.94
625.3	24215.76
625.655	24348.64
626.01	24255.99
626.365	24357
626.72	24270.45
627.075	24282.88
627.43	24277.91
627.785	24215.08
628.14	24271.58
628.495	24241.52
628.85	24140.96
629.205	24005.37
629.559	24210.79
629.914	24134.86
630.269	24238.13
630.623	24205.82
630.978	24204.46
631.332	24038.14
631.687	24036.11
632.041	24021.42
632.396	24227.51
632.75	23943
633.104	24137.12
633.459	23949.33
633.813	23933.28
634.167	23933.06
634.521	23946.84
634.875	23966.95
635.229	23941.42
635.583	23938.48
635.937	23786.85
636.291	23777.58
636.645	23851.93
636.999	23854.19
637.352	23752.95
637.706	23680.86
638.06	23804.92
638.413	23659.84
638.767	23550.92
639.121	23578.72
639.474	23521.32
639.828	23496.23
640.181	23571.71
640.534	23493.97
640.888	23424.82
641.241	23403.35
641.594	23485.16
641.947	23496.46
642.301	23375.33
642.654	23447.65
643.007	23531.71
643.36	23419.17
643.713	23420.08
644.066	23392.96
644.419	23211.72
644.771	23251.27
645.124	22884.5
645.477	22884.95
645.83	22842.69
646.182	22670.94
646.535	22563.6
646.888	22578.97
647.24	22385.98
647.593	22551.62
647.945	22549.14
648.298	22425.3
648.65	22441.8
649.002	22318.64
649.355	22484.51
649.707	22380.1
650.059	22509.14
650.411	22772.64
650.763	22832.3
651.115	22951.16
651.467	22980.99
651.819	22943.03
652.171	22843.14
652.523	22863.71
652.875	22736.03
653.227	22750.94
653.578	22968.34
653.93	22973.53
654.282	22650.6
654.633	22683.82
654.985	22716.82
655.337	22804.95
655.688	22709.36
656.039	22763.14
656.391	22612.64
656.742	22597.73
657.094	22725.63
657.445	22675.24
657.796	22672.98
658.147	22684.73
658.498	22651.28
658.849	22802.92
659.2	22630.72
659.551	22608.57
659.902	22696.71
660.253	22617.84
660.604	22634.79
660.955	22619.87
661.306	22678.4
661.656	22656.25
662.007	22612.19
662.358	22531.51
662.708	22688.57
663.059	22604.73
663.409	22448.35
663.76	22682.47
664.11	22648.12
664.461	22501
664.811	22445.86
665.161	22590.72
665.511	22574.45
665.862	22616.93
666.212	22609.93
666.562	22639.08
666.912	22563.6
667.262	22571.74
667.612	22493.77
667.962	22559.99
668.312	22618.52
668.662	22568.8
669.011	22569.7
669.361	22543.26
669.711	22448.12
670.06	22456.71
670.41	22492.19
670.76	22399.54
671.109	22549.36
671.459	22420.33
671.808	22427.79
672.157	22467.33
672.507	22269.37
672.856	22368.13
673.205	22326.32
673.554	22362.93
673.904	22308.69
674.253	22412.42
674.602	22287.22
674.951	21998.19
675.3	21817.41
675.649	22287.68
675.998	22224.63
676.346	22199.09
676.695	22291.97
677.044	22100.34
677.393	22234.34
677.741	22280.9
678.09	22182.37
678.438	22215.59
678.787	22231.63
679.135	22222.14
679.484	22099.89
679.832	22228.24
680.181	22040
680.529	22079.77
680.877	22050.39
681.225	22084.74
681.573	22141.47
681.922	22015.82
682.27	21944.86
682.618	21912.55
682.966	21983.28
683.314	21964.52
683.661	21869.16
684.009	21718.43
684.357	21721.59
684.705	21646.79
685.053	21686.11
685.4	21709.39
685.748	21572.44
686.095	21670.07
686.443	21545.55
686.79	21447.02
687.138	21553.68
687.485	21491.09
687.832	21442.5
688.18	21326.12
688.527	21270.08
688.874	21221.04
689.221	21287.25
689.568	21279.12
689.915	21186.91
690.262	21246.57
690.609	21193.47
690.956	21067.14
691.303	20969.75
691.65	20879.35
691.997	20909.86
692.344	20733.37
692.69	20704.22
693.037	20759.58
693.383	20565.91
693.73	20667.61
694.077	20427.16
694.423	20657.66
694.769	20465.13
695.116	20392.81
695.462	20371.34
695.808	20277.56
696.155	20385.35
696.501	20213.61
696.847	20175.64
697.193	20114.63
697.539	20119.37
697.885	20070.33
698.231	19955.76
698.577	19992.6
698.923	20046.15
699.269	19767.97
699.614	19723.22
699.96	19672.15
700.306	19731.59
700.651	19605.04
700.997	19519.61
701.342	19624.24
701.688	19462.67
702.033	19424.93
702.379	19519.39
702.724	19435.32
703.069	19463.57
703.415	19139.28
703.76	19287.76
704.105	19135.67
704.45	19132.73
704.795	19081.43
705.14	19000.31
705.485	19011.38
705.83	18915.34
706.175	19035.11
706.52	18838.05
706.865	18711.95
707.209	18773.64
707.554	18712.86
707.899	18736.81
708.243	18545.63
708.588	18694.78
708.932	18485.97
709.277	18506.99
709.621	18517.15
709.966	18290.49
710.31	18415.01
710.654	18234.68
710.998	18378.63
711.342	18295.69
711.687	18244.17
712.031	18132.53
712.375	18278.52
712.719	18141.57
713.063	18186.77
713.407	18152.42
713.75	18087.56
714.094	18048.92
714.438	17999.43
714.782	18061.12
715.125	17979.09
715.469	17944.74
715.812	17780.9
716.156	17753.56
716.499	17786.1
716.843	17799.43
717.186	17724.63
717.53	17830.17
717.873	17588.37
718.216	17827.23
718.559	17655.03
718.902	17538.87
719.246	17533
719.589	17518.76
719.932	17496.84
720.275	17434.02
720.617	17495.03
720.96	17407.35
721.303	17460.91
721.646	17458.88
721.989	17327.13
722.331	17335.72
722.674	17290.97
723.016	17404.64
723.359	17306.11
723.701	17353.57
724.044	17230.18
724.386	17109.06
724.729	17196.29
725.071	17136.85
725.413	17208.94
725.755	17141.15
726.097	17070.41
726.439	17010.75
726.782	17053.46
727.124	17083.52
727.465	16961.26
727.807	16998.32
728.149	16942.96
728.491	16872.68
728.833	16919.91
729.175	16920.13
729.516	16855.28
729.858	16789.52
730.199	16980.02
730.541	16820.02
730.882	16819.12
731.224	16936.18
731.565	16715.39
731.906	16725.79
732.248	16843.3
732.589	16618
732.93	16630.88
733.271	16678.33
733.612	16740.25
733.953	16706.13
734.294	16583.87
734.635	16568.96
734.976	16571.89
735.317	16523.31
735.658	16599.24
735.999	16587.04
736.339	16461.62
736.68	16641.95
737.021	16542.97
737.361	16385.23
737.702	16498.22
738.042	16483.99
738.383	16395.63
738.723	16511.56
739.063	16370.77
739.404	16420.94
739.744	16412.8
740.084	16354.5
740.424	16309.98
740.764	16311.34
741.104	16383.88
741.444	16215.75
741.784	16147.27
742.124	16286.03
742.464	16235.86
742.804	16188.85
743.143	16189.31
743.483	16147.95
743.823	16076.09
744.162	16101.4
744.502	16155.18
744.841	16087.61
745.181	16074.51
745.52	16085.13
745.86	16034.73
746.199	16054.39
746.538	16003.32
746.877	16081.29
747.216	16072.02
747.556	15895.98
747.895	16033.15
748.234	15966.26
748.573	15828.19
748.911	15933.27
749.25	15904.57
749.589	15808.07
749.928	15835.19
750.267	15892.36
750.605	15893.27
750.944	15762.42
751.283	15735.76
751.621	15774.63
751.96	15594.97
752.298	15637.23
752.636	15682.43
752.975	15577.8
753.313	15529.89
753.651	15753.39
753.989	15613.95
754.327	15504.58
754.666	15510
755.004	15558.59
755.342	15511.13
755.679	15435.43
756.017	15349.55
756.355	15373.51
756.693	15243.57
757.031	15371.47
757.368	15150.24
757.706	15228.88
758.044	15128.77
758.381	15185.04
758.719	15134.19
759.056	15121.54
759.394	15071.37
759.731	14953.63
760.068	14920.19
760.405	14852.84
760.743	14822.34
761.08	14918.83
761.417	14837.03
761.754	14750.7
762.091	14725.62
762.428	14681.77
762.765	14576.47
763.102	14629.57
763.438	14619.4
763.775	14506.41
764.112	14457.6
764.449	14469.35
764.785	14437.04
765.122	14335.12
765.458	14274.78
765.795	14339.86
766.131	14201.34
766.467	14179.42
766.804	14093.77
767.14	14036.82
767.476	13959.99
767.812	14004.28
768.148	13969.48
768.485	13919.54
768.821	13792.08
769.157	13853.77
769.492	13810.84
769.828	13832.08
770.164	13597.51
770.5	13602.03
770.836	13525.42
771.171	13524.07
771.507	13483.61
771.842	13383.96
772.178	13422.15
772.513	13281.81
772.849	13301.02
773.184	13186
773.519	13286.78
773.855	13194.13
774.19	13144.19
774.525	13051.76
774.86	12988.26
775.195	12928.83
775.53	12979.45
775.865	12854.48
776.2	12818.32
776.535	12742.16
776.87	12706.23
777.205	12710.75
777.539	12653.13
777.874	12691.54
778.209	12496.97
778.543	12537.65
778.878	12426.69
779.212	12372.46
779.547	12370.42
779.881	12359.12
780.215	12245.68
780.55	12316.19
780.884	12205.23
781.218	12151.67
781.552	12207.26
781.886	12061.05
782.22	12073.48
782.554	11936.99
782.888	11834.17
783.222	11787.61
783.556	11804.56
783.889	11723.43
784.223	11699.03
784.557	11627.62
784.89	11681.85
785.224	11589.88
785.557	11511.46
785.891	11527.96
786.224	11500.62
786.558	11461.52
786.891	11379.49
787.224	11267.63
787.557	11288.87
787.891	11264.69
788.224	11192.6
788.557	11188.31
788.89	11138.59
789.223	11233.5
789.556	11106.95
789.888	11048.65
790.221	10995.77
790.554	10907.41
790.887	10995.32
791.219	10892.72
791.552	10878.71
791.884	10801.65
792.217	10747.19
792.549	10741.09
792.882	10603.92
793.214	10633.97
793.546	10588.32
793.879	10546.74
794.211	10515.56
794.543	10549.45
794.875	10472.39
795.207	10513.07
795.539	10431.72
795.871	10400.31
796.203	10351.27
796.535	10287.31
796.867	10254.55
797.198	10191.72
797.53	10226.98
797.862	10111.05
798.193	10141.56
798.525	10085.51
798.856	10094.78
799.188	10017.04
799.519	10053.42
799.85	9942.92
800.182	9949.24
800.513	9934.78
800.844	9820.66
801.175	9891.84
801.506	9821.56
801.837	9853.65
802.168	9746.31
802.499	9756.25
802.83	9678.06
803.161	9625.64
803.491	9681.91
803.822	9632.87
804.153	9597.16
804.483	9450.05
804.814	9512.19
805.145	9475.58
805.475	9431.07
805.805	9432.42
806.136	9398.98
806.466	9407.79
806.796	9388.58
807.126	9287.79
807.457	9342.93
807.787	9313.78
808.117	9250.51
808.447	9192.88
808.777	9256.38
809.107	9223.61
809.436	9155.37
809.766	9113.11
810.096	9092.32
810.426	9083.05
810.755	9104.97
811.085	9051.87
811.414	9006.22
811.744	8966.45
812.073	8993.11
812.403	8915.37
812.732	8845.77
813.061	8875.83
813.39	8800.35
813.719	8796.73
814.049	8794.7
814.378	8820.01
814.707	8733
815.036	8712.21
815.365	8708.15
815.693	8670.86
816.022	8648.26
816.351	8661.59
816.68	8517.19
817.008	8578.66
817.337	8531.88
817.665	8499.56
817.994	8500.47
818.322	8485.33
818.651	8464.76
818.979	8431.54
819.307	8406.46
819.636	8427.25
819.964	8372.56
820.292	8356.07
820.62	8346.12
820.948	8352.45
821.276	8376.4
821.604	8427.93
821.932	8396.52
822.259	8365.1
822.587	8307.71
822.915	8362.85
823.243	8362.39
823.57	8378.44
823.898	8302.06
824.225	8326.91
824.553	8318.33
824.88	8310.19
825.207	8362.62
825.535	8304.32
825.862	8314.26
826.189	8389.96
826.516	8329.85
826.843	8404.65
827.17	8292.34
827.497	8342.05
827.824	8331.21
828.151	8355.61
828.478	8351.77
828.805	8361.26
829.131	8284.66
829.458	8260.47
829.785	8241.04
830.111	8261.15
830.438	8259.12
830.764	8304.99
831.09	8277.88
831.417	8257.09
831.743	8324.2
832.069	8266.8
832.395	8201.72
832.722	8250.08
833.048	8260.93
833.374	8220.93
833.7	8212.34
834.026	8161.49
834.351	8180.48
834.677	8218.89
835.003	8210.08
835.329	8204.88
835.654	8192
835.98	8206.92
836.306	8171.44
836.631	8109.07
836.956	8118.11
837.282	8103.64
837.607	8048.96
837.932	8043.76
838.258	8033.59
838.583	8083.98
838.908	8013.93
839.233	8054.15
839.558	8033.36
839.883	7996.98
840.208	7896.64
840.533	7973.25
840.858	7943.42
841.182	7956.75
841.507	7962.86
841.832	7927.6
842.156	7993.14
842.481	7865.91
842.805	7871.11
843.13	7851.9
843.454	7818.9
843.778	7837.21
844.103	7703.88
844.427	7672.02
844.751	7730.32
845.075	7677.21
845.399	7689.64
845.723	7638.8
846.047	7665.69
846.371	7634.28
846.695	7610.55
847.019	7538.01
847.343	7484.22
847.666	7444.23
847.99	7447.61
848.313	7450.55
848.637	7358.8
848.96	7342.53
849.284	7407.39
849.607	7341.4
849.931	7316.77
850.254	7223.44
850.577	7225.93
850.9	7197.45
851.223	7145.25
851.546	7108.87
851.869	7078.36
852.192	7147.74
852.515	7056.89
852.838	7053.95
853.161	6980.73
853.483	6973.5
853.806	6956.78
854.129	6950
854.451	6948.42
854.774	6871.58
855.096	6889.21
855.419	6804.02
855.741	6810.12
856.063	6835.2
856.385	6804.02
856.708	6785.94
857.03	6653.74
857.352	6741.87
857.674	6687.86
857.996	6676.34
858.318	6620.29
858.64	6669.1
858.961	6638.14
859.283	6645.38
859.605	6598.6
859.926	6629.33
860.248	6606.06
860.57	6596.11
860.891	6576
861.212	6540.29
861.534	6539.16
861.855	6503.91
862.176	6498.04
862.498	6444.25
862.819	6491.48
863.14	6462.78
863.461	6411.48
863.782	6408.55
864.103	6401.77
864.424	6408.55
864.745	6414.2
865.065	6430.47
865.386	6387.08
865.707	6334.88
866.027	6372.84
866.348	6347.53
866.668	6333.75
866.989	6297.36
867.309	6318.83
867.63	6275.22
867.95	6308.89
868.27	6248.1
868.59	6233.41
868.91	6220.08
869.23	6275.22
869.55	6264.14
869.87	6278.38
870.19	6199.06
870.51	6202.9
870.83	6171.26
871.15	6204.94
871.469	6168.1
871.789	6172.62
872.109	6182.11
872.428	6141.43
872.748	6161.32
873.067	6136.46
873.386	6178.95
873.706	6130.14
874.025	6116.35
874.344	6112.96
874.663	6096.24
874.982	6046.07
875.301	6078.16
875.62	6013.98
875.939	6035.67
876.258	6066.63
876.577	6026.86
876.896	6054.88
877.214	6015.79
877.533	6018.95
877.852	5966.3
878.17	5997.48
878.489	5997.94
878.807	6004.71
879.125	5961.1
879.444	5964.49
879.762	5916.58
880.08	5946.41
880.398	5917.49
880.716	5972.63
881.034	5914.55
881.352	5898.96
881.67	5842.91
881.988	5879.75
882.306	5872.29
882.624	5805.4
882.941	5817.6
883.259	5830.93
883.577	5826.87
883.894	5772.63
884.212	5741.45
884.529	5762.69
884.846	5762.91
885.164	5745.96
885.481	5702.58
885.798	5752.52
886.115	5675.46
886.432	5702.8
886.75	5663.48
887.067	5676.81
887.383	5638.62
887.7	5641.79
888.017	5622.13
888.334	5621
888.651	5658.96
888.967	5610.6
889.284	5561.79
889.6	5541.45
889.917	5557.04
890.233	5561.11
890.55	5517.72
890.866	5558.85
891.182	5490.83
891.498	5462.81
891.815	5451.74
892.131	5442.02
892.447	5456.93
892.763	5440.66
893.079	5392.3
893.395	5429.14
893.71	5402.7
894.026	5388.69
894.342	5354.79
894.657	5325.86
894.973	5311.4
895.289	5299.2
895.604	5294.68
895.92	5292.64
896.235	5219.2
896.55	5221.46
896.865	5242.02
897.181	5223.94
897.496	5216.26
897.811	5136.04
898.126	5175.58
898.441	5154.34
898.756	5127
899.071	5094.91
899.386	5123.83
899.7	5017.85
900.015	5051.97
900.33	5030.96
900.644	5014.91
900.959	5076.38
901.273	5024.18
901.588	4967
901.902	4924.97
902.216	4975.14
902.531	4990.5
902.845	4940.56
903.159	4905.53
903.473	4893.33
903.787	4853.11
904.101	4858.3
904.415	4884.07
904.729	4828.93
905.042	4805.2
905.356	4845.88
905.67	4793.45
905.984	4832.99
906.297	4789.61
906.611	4754.35
906.924	4728.36
907.237	4759.32
907.551	4664.41
907.864	4680
908.177	4681.81
908.491	4665.54
908.804	4642.94
909.117	4597.52
909.43	4593.23
909.743	4538.31
910.056	4557.97
910.368	4523.62
910.681	4541.93
910.994	4557.3
911.307	4507.58
911.619	4494.47
911.932	4451.99
912.244	4466
912.557	4475.49
912.869	4398.2
913.181	4374.25
913.494	4393.23
913.806	4396.4
914.118	4401.14
914.43	4359.56
914.742	4312.1
915.054	4288.83
915.366	4295.16
915.678	4280.47
915.99	4243.18
916.302	4234.37
916.613	4201.15
916.925	4197.08
917.236	4186.46
917.548	4196.4
917.859	4180.81
918.171	4130.19
918.482	4117.31
918.794	4142.17
919.105	4108.27
919.416	4074.82
919.727	4067.59
920.038	4065.33
920.349	4031.89
920.66	4019.23
920.971	4038.89
921.282	4000.47
921.593	3988.27
921.903	3949.85
922.214	3966.12
922.525	3944.66
922.835	3944.2
923.146	3911.89
923.456	3886.58
923.767	3866.01
924.077	3850.65
924.387	3845.45
924.697	3825.34
925.008	3821.04
925.318	3830.31
925.628	3798.45
925.938	3812.91
926.248	3732.23
926.558	3744.89
926.867	3757.54
927.177	3691.56
927.487	3697.88
927.796	3682.29
928.106	3733.81
928.416	3659.24
928.725	3677.09
929.034	3661.73
929.344	3678.67
929.653	3593.25
929.962	3553.25
930.271	3600.48
930.581	3574.5
930.89	3584.67
931.199	3504.44
931.508	3497.21
931.817	3487.95
932.125	3492.46
932.434	3481.17
932.743	3447.95
933.051	3431.68
933.36	3476.65
933.669	3453.14
933.977	3433.03
934.286	3405.46
934.594	3422.86
934.902	3352.36
935.21	3353.71
935.519	3323.43
935.827	3353.71
936.135	3312.81
936.443	3278.68
936.751	3280.72
937.059	3275.3
937.367	3234.84
937.674	3296.76
937.982	3240.72
938.29	3220.61
938.597	3263.54
938.905	3219.93
939.213	3187.39
939.52	3206.37
939.827	3159.82
940.135	3176.77
940.442	3142.19
940.749	3150.1
941.056	3162.53
941.363	3105.81
941.67	3106.49
941.977	3087.96
942.284	3092.7
942.591	3066.49
942.898	3062.65
943.205	3030.78
943.511	3006.15
943.818	3015.42
944.125	2984.23
944.431	3017.45
944.738	3042.76
945.044	2974.96
945.35	2965.47
945.657	2937.68
945.963	2950.11
946.269	2927.96
946.575	2951.24
946.881	2904.91
947.187	2926.38
947.493	2913.95
947.799	2897.23
948.105	2882.31
948.41	2829.43
948.716	2851.35
949.022	2814.74
949.327	2831.24
949.633	2805.7
949.938	2831.92
950.244	2826.72
950.549	2781.07
950.854	2767.74
951.16	2777.23
951.465	2789.66
951.77	2753.05
952.075	2708.98
952.38	2712.82
952.685	2730.68
952.99	2687.29
953.294	2678.7
953.599	2688.19
953.904	2687.51
954.209	2644.13
954.513	2671.02
954.818	2635.99
955.122	2622.21
955.426	2616.1
955.731	2626.05
956.035	2621.3
956.339	2591.92
956.643	2589.66
956.948	2575.2
957.252	2561.87
957.556	2570.68
957.86	2536.56
958.163	2525.03
958.467	2523.9
958.771	2516.9
959.075	2529.1
959.378	2506.73
959.682	2490.23
959.985	2483.23
960.289	2469.44
960.592	2464.7
960.896	2439.39
961.199	2438.71
961.502	2452.72
961.805	2430.35
962.108	2404.58
962.411	2393.96
962.714	2399.84
963.017	2386.51
963.32	2402.32
963.623	2343.79
963.926	2340.86
964.228	2325.72
964.531	2327.3
964.833	2328.2
965.136	2339.05
965.438	2352.16
965.741	2314.87
966.043	2287.75
966.345	2283.23
966.648	2239.16
966.95	2304.7
967.252	2278.49
967.554	2260.18
967.856	2244.81
968.158	2204.36
968.46	2207.3
968.761	2226.51
969.063	2191.03
969.365	2202.1
969.666	2185.15
969.968	2184.02
970.269	2142.67
970.571	2178.37
970.872	2127.08
971.174	2134.31
971.475	2135.89
971.776	2137.47
972.077	2112.84
972.378	2131.6
972.679	2103.12
972.98	2113.07
973.281	2089.56
973.582	2071.03
973.883	2074.2
974.183	2039.85
974.484	2036.68
974.785	2049.56
975.085	2057.25
975.386	2030.81
975.686	2056.12
975.986	1994.65
976.287	1993.3
976.587	2010.92
976.887	2000.07
977.187	2016.12
977.487	2025.61
977.787	1972.5
978.087	1977.25
978.387	1966.4
978.687	1936.35
978.987	1929.57
979.286	1917.59
979.586	1929.57
979.885	1922.11
980.185	1933.86
980.484	1881.89
980.784	1919.85
981.083	1906.29
981.382	1881.66
981.682	1869
981.981	1879.63
982.28	1852.28
982.579	1847.31
982.878	1867.87
983.177	1829.91
983.475	1865.16
983.774	1820.19
984.073	1841.43
984.372	1802.79
984.67	1804.6
984.969	1811.83
985.267	1790.14
985.566	1791.72
985.864	1805.5
986.162	1778.84
986.461	1727.54
986.759	1755.79
987.057	1788.1
987.355	1715.11
987.653	1742.68
987.951	1729.35
988.249	1737.48
988.547	1719.18
988.844	1694.77
989.142	1686.18
989.44	1652.29
989.737	1678.73
990.035	1690.03
990.332	1697.71
990.63	1690.93
990.927	1666.3
991.224	1664.72
991.521	1656.58
991.819	1648.67
992.116	1643.02
992.413	1616.58
992.71	1626.98
993.006	1631.5
993.303	1612.97
993.6	1597.83
993.897	1585.17
994.193	1603.02
994.49	1589.92
994.787	1571.16
995.083	1584.04
995.379	1554.44
995.676	1552.18
995.972	1538.84
996.268	1550.37
996.565	1540.88
996.861	1518.73
997.157	1555.57
997.453	1511.95
997.749	1504.95
998.044	1512.63
998.34	1507.66
998.636	1504.04
998.932	1457.26
999.227	1489.13
999.523	1469.47
999.818	1461.56
1000.114	1458.17
1000.409	1430.6
1000.704	1398.28
1001	1445.51
1001.295	1412.75
1001.59	1405.97
1001.885	1417.04
1002.18	1395.12
1002.475	1416.36
1002.77	1369.36
1003.065	1389.7
1003.359	1370.03
1003.654	1366.42
1003.949	1391.05
1004.243	1383.14
1004.538	1356.25
1004.832	1337.49
1005.127	1339.53
1005.421	1328.91
1005.715	1337.72
1006.009	1331.62
1006.304	1282.81
1006.598	1312.63
1006.892	1284.84
1007.186	1288.45
1007.48	1281.22
1007.773	1272.86
1008.067	1318.74
1008.361	1264.95
1008.655	1273.09
1008.948	1274.44
1009.242	1257.04
1009.535	1219.3
1009.829	1264.73
1010.122	1234.44
1010.415	1229.25
1010.708	1218.4
1011.001	1224.05
1011.295	1191.96
1011.588	1196.93
1011.881	1190.6
1012.173	1195.12
1012.466	1196.93
1012.759	1189.02
1013.052	1207.33
1013.344	1143.6
1013.637	1188.8
1013.93	1166.65
1014.222	1139.08
1014.514	1136.14
1014.807	1138.85
1015.099	1130.49
1015.391	1123.49
1015.683	1121.91
1015.976	1102.7
1016.268	1116.93
1016.56	1128.01
1016.851	1102.25
1017.143	1111.06
1017.435	1074.68
1017.727	1082.13
1018.018	1052.75
1018.31	1099.08
1018.602	1054.34
1018.893	1037.61
1019.185	1058.63
1019.476	1051.17
1019.767	1039.42
1020.058	1040.1
1020.35	1002.81
1020.641	1008.69
1020.932	1009.37
1021.223	997.16
1021.514	991.97
1021.804	989.25
1022.095	1011.17
1022.386	998.97
1022.677	975.92
1022.967	954.68
1023.258	975.24
1023.548	958.97
1023.839	944.06
1024.129	948.8
1024.419	943.15
1024.709	940.44
1025	930.27
1025.29	931.63
1025.58	931.18
1025.87	911.97
1026.16	924.17
1026.449	923.27
1026.739	919.65
1027.029	913.78
1027.319	903.83
1027.608	910.39
1027.898	897.96
1028.187	895.92
1028.477	877.17
1028.766	891.86
1029.055	872.42
1029.344	855.02
1029.634	862.03
1029.923	856.6
1030.212	842.59
1030.501	838.52
1030.79	856.83
1031.078	833.78
1031.367	812.99
1031.656	803.27
1031.945	801.01
1032.233	834.91
1032.522	808.24
1032.81	820.44
1033.099	803.5
1033.387	800.33
1033.675	779.54
1033.963	814.12
1034.251	772.76
1034.54	770.28
1034.828	776.15
1035.116	751.75
1035.403	763.27
1035.691	755.59
1035.979	784.51
1036.267	757.85
1036.554	744.51
1036.842	745.64
1037.129	738.64
1037.417	726.44
1037.704	742.71
1037.992	734.12
1038.279	741.8
1038.566	735.48
1038.853	735.48
1039.14	735.48
