Data from tablewood_dark_bookshelf_FLMS001491_00052.txt Node
Date: Wed Feb 08 14:15:03 GMT 2017
User: dcchb
Spectrometer: FLMS00149
Trigger mode: 0
Integration Time (sec): 2.000000E-2
Scans to average: 10
Electric dark correction enabled: true
Nonlinearity correction enabled: false
Boxcar width: 0
XAxis mode: Wavelengths
Number of Pixels in Spectrum: 2048
>>>>>Begin Spectral Data<<<<<
341.393	4.72
341.776	4.72
342.16	4.72
342.543	-57.88
342.927	-69.18
343.31	-60.14
343.693	-79.12
344.077	-64.66
344.46	-62.17
344.843	-31.89
345.226	-46.13
345.61	-37.32
345.993	-14.04
346.376	-9.97
346.759	6.98
347.142	16.47
347.525	36.35
347.908	54.89
348.291	88.56
348.674	95.11
349.057	107.09
349.44	105.51
349.823	144.15
350.206	149.8
350.588	171.27
350.971	194.32
351.354	215.56
351.737	217.59
352.119	244.71
352.502	231.6
352.884	280.64
353.267	271.6
353.65	276.8
354.032	274.09
354.414	293.75
354.797	303.01
355.179	301.21
355.562	287.87
355.944	290.59
356.326	329.68
356.709	315.9
357.091	332.39
357.473	346.18
357.855	335.33
358.238	325.39
358.62	330.36
359.002	341.21
359.384	330.58
359.766	337.14
360.148	340.75
360.53	323.13
360.912	347.08
361.294	330.81
361.676	343.01
362.057	321.09
362.439	324.93
362.821	310.25
363.203	318.38
363.584	348.66
363.966	327.87
364.348	314.54
364.729	318.83
365.111	316.12
365.493	328.1
365.874	305.95
366.256	307.99
366.637	311.38
367.019	326.52
367.4	307.08
367.781	314.54
368.163	338.72
368.544	306.18
368.925	332.17
369.306	312.05
369.688	321.55
370.069	312.51
370.45	313.64
370.831	293.98
371.212	314.99
371.593	311.15
371.974	326.74
372.355	300.75
372.736	329.45
373.117	326.97
373.498	323.35
373.879	307.08
374.26	307.76
374.641	305.27
375.021	302.11
375.402	324.48
375.783	328.78
376.163	327.42
376.544	332.39
376.925	345.95
377.305	326.06
377.686	335.56
378.066	336.91
378.447	359.28
378.827	314.54
379.208	346.86
379.588	341.21
379.968	374.65
380.349	357.93
380.729	357.48
381.109	348.89
381.489	342.56
381.87	345.95
382.25	343.47
382.63	339.85
383.01	341.43
383.39	367.65
383.77	359.96
384.15	364.48
384.53	357.7
384.91	367.87
385.29	344.14
385.67	380.3
386.049	385.27
386.429	357.7
386.809	383.24
387.189	383.69
387.568	385.72
387.948	370.81
388.328	373.52
388.707	400.41
389.087	373.07
389.466	379.85
389.846	389.34
390.225	385.5
390.605	396.12
390.984	386.18
391.363	406.51
391.743	397.7
392.122	389.57
392.501	405.16
392.881	383.92
393.26	404.48
393.639	404.25
394.018	399.74
394.397	403.58
394.776	415.1
395.155	415.78
395.534	421.66
395.913	413.29
396.292	438.83
396.671	415.33
397.05	420.75
397.429	428.66
397.808	440.86
398.186	443.35
398.565	439.28
398.944	435.89
399.323	447.19
399.701	464.59
400.08	437.47
400.458	434.31
400.837	454.42
401.215	453.75
401.594	468.89
401.972	453.52
402.351	444.93
402.729	470.69
403.107	477.02
403.486	459.62
403.864	460.3
404.242	475.21
404.62	467.08
404.999	484.25
405.377	487.19
405.755	491.71
406.133	493.52
406.511	494.65
406.889	504.37
407.267	511.37
407.645	494.42
408.023	515.89
408.401	530.58
408.779	505.72
409.156	509.34
409.534	524.03
409.912	530.58
410.29	537.58
410.667	535.55
411.045	541.2
411.422	548.88
411.8	548.66
412.178	557.02
412.555	563.35
412.933	564.48
413.31	571.48
413.687	582.1
414.065	572.61
414.442	563.57
414.819	581.2
415.197	569.22
415.574	600.18
415.951	612.84
416.328	613.74
416.705	616.9
417.082	612.16
417.46	633.18
417.837	655.32
418.214	618.49
418.591	644.47
418.967	633.18
419.344	659.84
419.721	632.5
420.098	662.33
420.475	658.71
420.852	676.79
421.228	654.64
421.605	682.67
421.982	666.62
422.358	659.62
422.735	690.12
423.111	690.35
423.488	670.69
423.864	709.33
424.241	688.99
424.617	711.82
424.994	704.81
425.37	716.79
425.746	743.68
426.123	735.55
426.499	729.67
426.875	746.39
427.251	760.4
427.627	763.79
428.003	737.13
428.379	776
428.756	768.31
429.132	787.07
429.507	801.08
429.883	816.45
430.259	808.54
430.635	801.53
431.011	831.59
431.387	837.92
431.763	826.16
432.138	850.57
432.514	839.05
432.89	866.62
433.265	874.3
433.641	870.01
434.016	894.41
434.392	906.39
434.767	920.63
435.143	921.3
435.518	894.19
435.894	942.32
436.269	928.31
436.644	945.03
437.02	962.43
437.395	980.28
437.77	991.13
438.145	989.78
438.52	999.72
438.895	1020.74
439.271	1015.09
439.646	1025.26
440.021	1039.04
440.395	1050.11
440.77	1041.3
441.145	1046.27
441.52	1046.72
441.895	1062.09
442.27	1083.33
442.645	1071.81
443.019	1080.85
443.394	1091.92
443.769	1090.79
444.143	1086.27
444.518	1146.61
444.892	1094.18
445.267	1119.94
445.641	1145.48
446.016	1135.08
446.39	1178.25
446.764	1138.7
447.139	1139.83
447.513	1133.28
447.887	1155.2
448.262	1163.33
448.636	1174.18
449.01	1196.32
449.384	1178.92
449.758	1203.56
450.132	1198.81
450.506	1200.17
450.88	1189.54
451.254	1231.58
451.628	1253.5
452.002	1282.88
452.376	1260.73
452.75	1266.61
453.123	1269.09
453.497	1308.86
453.871	1305.25
454.244	1336.89
454.618	1349.77
454.992	1348.41
455.365	1341.41
455.739	1375.75
456.112	1383.89
456.486	1416.66
456.859	1443.1
457.232	1422.53
457.606	1438.13
457.979	1446.94
458.352	1486.49
458.725	1516.99
459.099	1509.31
459.472	1528.52
459.845	1553.6
460.218	1576.43
460.591	1611.23
460.964	1596.99
461.337	1611.68
461.71	1627.5
462.083	1679.02
462.456	1648.52
462.829	1692.58
463.201	1745.01
463.574	1706.37
463.947	1753.6
464.32	1759.47
464.692	1791.11
465.065	1782.75
465.438	1811.45
465.81	1821.39
466.183	1841.73
466.555	1914.95
466.928	1877.44
467.3	1896.19
467.672	1945.46
468.045	1964.89
468.417	1954.27
468.789	1992.46
469.161	2024.1
469.534	2033.14
469.906	2076.98
470.278	2104.32
470.65	2126.02
471.022	2156.53
471.394	2181.38
471.766	2205.34
472.138	2239.23
472.51	2264.09
472.882	2306.35
473.253	2336.18
473.625	2365.79
473.997	2406.46
474.369	2426.12
474.74	2415.05
475.112	2519
475.484	2526.01
475.855	2579.79
476.227	2580.24
476.598	2643.07
476.97	2675.83
477.341	2742.27
477.713	2783.18
478.084	2796.06
478.455	2833.34
478.827	2893.91
479.198	2946.56
479.569	2948.59
479.94	3040.34
480.311	3071.76
480.682	3157.18
481.053	3211.19
481.424	3224.75
481.795	3279.66
482.166	3320.11
482.537	3336.61
482.908	3396.72
483.279	3433.78
483.65	3481.24
484.021	3567.79
484.391	3603.49
484.762	3637.16
485.133	3659.54
485.503	3734.11
485.874	3802.58
486.244	3817.95
486.615	3926.2
486.985	3940.43
487.356	3996.02
487.726	4035.35
488.097	4142.01
488.467	4126.19
488.837	4194.21
489.207	4287.54
489.578	4326.64
489.948	4366.64
490.318	4443.92
490.688	4411.61
491.058	4506.29
491.428	4569.34
491.798	4579.96
492.168	4697.25
492.538	4732.5
492.908	4762.56
493.278	4777.47
493.648	4848.88
494.017	4919.39
494.387	4930.46
494.757	5002.1
495.126	5030.57
495.496	5087.97
495.866	5108.54
496.235	5112.38
496.605	5173.4
496.974	5231.02
497.344	5292.71
497.713	5268.08
498.082	5345.82
498.452	5396.67
498.821	5415.65
499.19	5422.43
499.559	5492.26
499.928	5537
500.298	5528.41
500.667	5593.72
501.036	5647.96
501.405	5685.7
501.774	5686.6
502.143	5771.35
502.512	5776.09
502.88	5859.03
503.249	5879.82
503.618	5905.35
503.987	5935.18
504.356	5981.96
504.724	6039.81
505.093	6033.49
505.462	6087.27
505.83	6059.02
506.199	6154.61
506.567	6193.03
506.936	6231.22
507.304	6309.86
507.672	6350.54
508.041	6407.03
508.409	6406.58
508.777	6457.2
509.145	6567.48
509.514	6560.93
509.882	6573.81
510.25	6668.5
510.618	6630.53
510.986	6737.42
511.354	6743.07
511.722	6859.68
512.09	6887.47
512.458	6901.71
512.826	6969.28
513.193	7020.8
513.561	7027.36
513.929	7052.89
514.297	7146.22
514.664	7215.83
515.032	7269.16
515.4	7316.84
515.767	7275.26
516.135	7430.51
516.502	7319.33
516.869	7451.75
517.237	7520.9
517.604	7524.75
517.972	7596.38
518.339	7683.84
518.706	7703.05
519.073	7712.09
519.44	7806.09
519.808	7851.29
520.175	7888.35
520.542	8028.01
520.909	8075.69
521.276	8047.44
521.643	8174.9
522.009	8209.7
522.376	8313.43
522.743	8289.25
523.11	8459.41
523.477	8462.57
523.843	8521.33
524.21	8625.51
524.577	8677.71
524.943	8716.13
525.31	8725.39
525.676	8825.05
526.043	8918.38
526.409	8960.64
526.776	9064.59
527.142	9062.11
527.508	9141.88
527.874	9242.89
528.241	9274.53
528.607	9303.91
528.973	9390.91
529.339	9423.68
529.705	9496.9
530.071	9542.77
530.437	9592.04
530.803	9704.35
531.169	9696.89
531.535	9756.78
531.901	9761.07
532.267	9827.96
532.632	9906.83
532.998	9895.08
533.364	9998.58
533.73	10125.58
534.095	10157.9
534.461	10157.44
534.826	10272.47
535.192	10292.36
535.557	10422.97
535.923	10329.64
536.288	10351.56
536.653	10448.96
537.019	10460.71
537.384	10479.47
537.749	10542.29
538.114	10531.45
538.479	10570.54
538.845	10655.28
539.21	10698.22
539.575	10683.98
539.94	10754.49
540.305	10831.1
540.67	10822.06
541.034	10908.16
541.399	10921.27
541.764	10938.67
542.129	11009.4
542.494	11014.37
542.858	11126.23
543.223	11166.23
543.587	11148.61
543.952	11096.18
544.316	11166.46
544.681	11187.47
545.045	11294.82
545.41	11397.41
545.774	11348.83
546.138	11354.25
546.503	11402.61
546.867	11438.54
547.231	11556.05
547.595	11566.9
547.959	11635.37
548.324	11674.92
548.688	11612.32
549.052	11748.14
549.416	11765.54
549.779	11735.93
550.143	11785.65
550.507	11945.19
550.871	11891.86
551.235	11879.21
551.599	11994.46
551.962	12057.51
552.326	12157.84
552.689	12161.23
553.053	12158.75
553.417	12199.2
553.78	12379.08
554.143	12282.59
554.507	12357.16
554.87	12453.88
555.234	12605.74
555.597	12567.78
555.96	12575.46
556.323	12708.11
556.686	12692.97
557.05	12748.11
557.413	12843.93
557.776	12885.96
558.139	13004.15
558.502	12992.17
558.865	13028.56
559.228	13095.9
559.59	13179.51
559.953	13165.73
560.316	13343.8
560.679	13351.71
561.041	13455.21
561.404	13450.92
561.767	13591.7
562.129	13610.69
562.492	13797.12
562.854	13785.82
563.217	13741.31
563.579	13801.87
563.941	13945.59
564.304	13993.73
564.666	14083.9
565.028	14058.59
565.39	14163.22
565.753	14240.73
566.115	14307.84
566.477	14405.24
566.839	14518.46
567.201	14593.71
567.563	14565.92
567.925	14679.36
568.287	14769.3
568.648	14717.55
569.01	14780.15
569.372	14940.37
569.734	14882.07
570.095	15111.66
570.457	15083.64
570.819	15178.33
571.18	15242.28
571.542	15307.14
571.903	15437.31
572.265	15485.67
572.626	15416.29
572.987	15520.24
573.349	15569.05
573.71	15723.17
574.071	15736.06
574.432	15776.73
574.794	15974.24
575.155	15985.54
575.516	15963.39
575.877	16029.61
576.238	16160.45
576.599	16106.67
576.96	16235.7
577.32	16286.55
577.681	16350.95
578.042	16404.96
578.403	16430.05
578.763	16525.64
579.124	16575.58
579.485	16687.44
579.845	16658.29
580.206	16735.8
580.566	16652.19
580.927	16752.07
581.287	16903.48
581.648	16766.31
582.008	16875.01
582.368	16903.03
582.728	17028.68
583.089	16995.91
583.449	17028.9
583.809	17113.65
584.169	17103.02
584.529	17244.49
584.889	17256.24
585.249	17227.32
585.609	17183.7
585.969	17365.84
586.329	17344.15
586.688	17398.84
587.048	17394.32
587.408	17376.24
587.768	17380.76
588.127	17430.47
588.487	17407.65
588.846	17573.75
589.206	17470.47
589.565	17491.49
589.925	17592.96
590.284	17611.03
590.643	17705.72
591.003	17666.85
591.362	17792.95
591.721	17731.71
592.08	17831.14
592.44	17841.08
592.799	17841.31
593.158	17877.69
593.517	17921.76
593.876	18070.01
594.235	17892.83
594.593	18057.58
594.952	18025.03
595.311	18028.2
595.67	18161.53
596.029	18229.32
596.387	18137.8
596.746	18326.95
597.104	18262.99
597.463	18221.41
597.822	18326.72
598.18	18310.22
598.538	18321.98
598.897	18422.09
599.255	18297.34
599.613	18557.22
599.972	18462.31
600.33	18649.42
600.688	18504.34
601.046	18655.07
601.404	18600.16
601.762	18725.58
602.12	18694.62
602.478	18760.16
602.836	18789.99
603.194	18683.32
603.552	18764
603.91	18758.12
604.268	18874.05
604.625	18794.28
604.983	18886.71
605.341	18823.21
605.698	18951.34
606.056	18963.99
606.413	19053.03
606.771	19088.51
607.128	19139.81
607.485	19040.83
607.843	19093.48
608.2	19146.36
608.557	19215.96
608.914	19069.75
609.272	19286.47
609.629	19343.19
609.986	19310.65
610.343	19305
610.7	19362.17
611.057	19398.56
611.414	19404.66
611.771	19476.97
612.127	19575.28
612.484	19526.01
612.841	19575.05
613.198	19521.27
613.554	19604.88
613.911	19700.02
614.267	19641.49
614.624	19695.73
614.98	19721.26
615.337	19765.1
615.693	19798.1
616.05	19809.17
616.406	19929.84
616.762	19836.29
617.118	19833.35
617.475	19880.58
617.831	19944.53
618.187	20053
618.543	19904.31
618.899	20068.14
619.255	20101.14
619.611	19974.81
619.967	20089.61
620.323	20218.65
620.678	20076.51
621.034	20027.92
621.39	20003.97
621.746	19983.18
622.101	20317.86
622.457	20052.55
622.812	20194.47
623.168	20212.32
623.523	20189.27
623.879	20278.31
624.234	20118.31
624.589	20211.87
624.945	20160.8
625.3	20315.14
625.655	20271.53
626.01	20261.36
626.365	20145.43
626.72	20140.01
627.075	20140.91
627.43	20208.93
627.785	20131.42
628.14	20133.91
628.495	20209.38
628.85	20138.65
629.205	20102.27
629.559	20306.78
629.914	20071.76
630.269	20161.25
630.623	20080.8
630.978	20095.26
631.332	20195.6
631.687	20193.79
632.041	20125.32
632.396	20121.25
632.75	20034.93
633.104	20051.87
633.459	20008.71
633.813	19980.92
634.167	20013.91
634.521	19875.38
634.875	19954.7
635.229	19877.42
635.583	19872.67
635.937	19927.13
636.291	19961.71
636.645	19867.25
636.999	19831.09
637.352	19890.52
637.706	19625.9
638.06	19839.45
638.413	19838.32
638.767	19690.53
639.121	19780.47
639.474	19634.03
639.828	19590.42
640.181	19662.28
640.534	19693.01
640.888	19682.62
641.241	19608.72
641.594	19675.84
641.947	19694.6
642.301	19554.03
642.654	19657.99
643.007	19653.92
643.36	19466.35
643.713	19519.68
644.066	19651.88
644.419	19474.94
644.771	19382.06
645.124	19271.33
645.477	19145.01
645.83	19099.13
646.182	18965.8
646.535	18922.64
646.888	18898.46
647.24	18728.74
647.593	18902.53
647.945	18805.35
648.298	18748.86
648.65	18766.26
649.002	18757.9
649.355	18758.57
649.707	18876.76
650.059	18792.47
650.411	19083.31
650.763	19137.77
651.115	19351.55
651.467	19205.12
651.819	19247.83
652.171	19186.59
652.523	19191.33
652.875	19220.03
653.227	19163.99
653.578	19133.71
653.93	19114.27
654.282	19084.89
654.633	19043.76
654.985	19097.77
655.337	19139.36
655.688	19169.41
656.039	19105.01
656.391	19080.15
656.742	19074.5
657.094	19097.77
657.445	19175.96
657.796	19139.81
658.147	18900.72
658.498	19075.63
658.849	19037.89
659.2	19020.04
659.551	19020.04
659.902	19060.49
660.253	19033.6
660.604	18996.53
660.955	18965.12
661.306	19155.63
661.656	19071.33
662.007	19023.43
662.358	19040.15
662.708	19056.65
663.059	18941.85
663.409	18934.39
663.76	18979.59
664.11	18973.71
664.461	19033.82
664.811	19075.4
665.161	19034.27
665.511	18942.3
665.862	18972.81
666.212	19073.59
666.562	19138.45
666.912	19092.58
667.262	19019.36
667.612	19039.7
667.962	19050.54
668.312	19043.31
668.662	19138.23
669.011	19084.44
669.361	19004.67
669.711	18945.69
670.06	18984.78
670.41	18930.55
670.76	18958.57
671.109	19027.04
671.459	19015.97
671.808	18864.56
672.157	19029.75
672.507	18834.5
672.856	18956.54
673.205	18832.47
673.554	18959.7
673.904	18842.64
674.253	18966.93
674.602	18870.21
674.951	18570.56
675.3	18577.56
675.649	18996.76
675.998	18862.53
676.346	18857.1
676.695	18956.08
677.044	18741.17
677.393	18952.47
677.741	18849.19
678.09	18776.65
678.438	18766.48
678.787	18838.35
679.135	18758.12
679.484	18670.44
679.832	18857.56
680.181	18665.24
680.529	18680.16
680.877	18663.44
681.225	18653.27
681.573	18730.55
681.922	18516.1
682.27	18511.35
682.618	18590.44
682.966	18449.2
683.314	18612.59
683.661	18522.2
684.009	18405.82
684.357	18441.75
684.705	18373.73
685.053	18403.78
685.4	18373.27
685.748	18354.74
686.095	18299.15
686.443	18239.27
686.79	18216.22
687.138	18210.57
687.485	18263.9
687.832	18035.66
688.18	18146.39
688.527	18031.14
688.874	18077.24
689.221	17999.5
689.568	18024.13
689.915	17937.81
690.262	17804.02
690.609	17829.33
690.956	17809.45
691.303	17831.14
691.65	17752.05
691.997	17696.46
692.344	17580.53
692.69	17576.46
693.037	17609
693.383	17573.07
693.73	17504.14
694.077	17519.06
694.423	17398.38
694.769	17360.65
695.116	17340.98
695.462	17341.89
695.808	17309.57
696.155	17250.37
696.501	17136.02
696.847	17207.43
697.193	17073.42
697.539	17161.1
697.885	16983.03
698.231	16958.4
698.577	16964.72
698.923	16902.8
699.269	16846.76
699.614	16824.16
699.96	16784.62
700.306	16738.06
700.651	16703.71
700.997	16642.7
701.342	16526.77
701.688	16603.6
702.033	16547.33
702.379	16515.7
702.724	16522.25
703.069	16429.6
703.415	16323.38
703.76	16298.75
704.105	16309.15
704.45	16196.38
704.795	16096.27
705.14	16123.84
705.485	16130.62
705.83	16012.66
706.175	16134.69
706.52	16028.93
706.865	15972.66
707.209	15902.15
707.554	15901.47
707.899	15953.9
708.243	15781.7
708.588	15793.68
708.932	15768.14
709.277	15753.23
709.621	15852.89
709.966	15724.76
710.31	15765.21
710.654	15519.11
710.998	15601.37
711.342	15609.96
711.687	15546.68
712.031	15483.18
712.375	15536.06
712.719	15461.49
713.063	15313.02
713.407	15463.75
713.75	15453.35
714.094	15346.23
714.438	15190.53
714.782	15275.5
715.125	15225.56
715.469	15244.32
715.812	15205
716.156	15006.58
716.499	15157.31
716.843	15045.68
717.186	15045.23
717.53	15108.95
717.873	15112.34
718.216	15103.76
718.559	15049.29
718.902	14976.3
719.246	14965.23
719.589	14932.01
719.932	14873.7
720.275	14897.66
720.617	14872.8
720.96	14887.49
721.303	14817.89
721.646	14805.91
721.989	14788.74
722.331	14842.07
722.674	14793.93
723.016	14842.29
723.359	14828.73
723.701	14817.21
724.044	14736.31
724.386	14708.29
724.729	14785.12
725.071	14665.12
725.413	14666.25
725.755	14677.1
726.097	14623.54
726.439	14539.48
726.782	14472.81
727.124	14695.18
727.465	14527.27
727.807	14506.26
728.149	14496.09
728.491	14504.9
728.833	14515.3
729.175	14501.96
729.516	14447.95
729.858	14473.72
730.199	14463.32
730.541	14414.96
730.882	14374.28
731.224	14426.71
731.565	14392.81
731.906	14362.08
732.248	14406.15
732.589	14330.89
732.93	14320.27
733.271	14221.74
733.612	14302.19
733.953	14377.9
734.294	14213.16
734.635	14287.51
734.976	14335.64
735.317	14202.76
735.658	14250.9
735.999	14253.16
736.339	14281.86
736.68	14231.69
737.021	14188.3
737.361	14272.36
737.702	14264
738.042	14241.63
738.383	14162.54
738.723	14210.45
739.063	14121.41
739.404	14222.65
739.744	14166.38
740.084	14088.41
740.424	14231.46
740.764	14090.67
741.104	14143.33
741.444	14191.69
741.784	14083.9
742.124	14105.36
742.464	14066.49
742.804	14093.39
743.143	14021.98
743.483	14073.73
743.823	13957.8
744.162	14008.64
744.502	13972.03
744.841	13891.36
745.181	14021.75
745.52	14028.3
745.86	14065.36
746.199	14058.81
746.538	13965.93
746.877	13971.36
747.216	14028.08
747.556	13979.49
747.895	13919.15
748.234	13950.79
748.573	13930
748.911	13925.71
749.25	13865.14
749.589	13805.94
749.928	13854.3
750.267	13998.02
750.605	13874.86
750.944	13873.28
751.283	13773.39
751.621	13828.76
751.96	13720.97
752.298	13831.7
752.636	13740.85
752.975	13660.63
753.313	13629.67
753.651	13734.98
753.989	13652.27
754.327	13556.9
754.666	13568.2
755.004	13578.15
755.342	13600.97
755.679	13498.15
756.017	13547.64
756.355	13567.98
756.693	13496.11
757.031	13562.55
757.368	13410.47
757.706	13430.35
758.044	13370.92
758.381	13426.29
758.719	13273.97
759.056	13343.12
759.394	13360.3
759.731	13230.58
760.068	13211.83
760.405	13220.42
760.743	13132.06
761.08	13171.38
761.417	13035.56
761.754	13081.89
762.091	13122.56
762.428	12991.04
762.765	12848
763.102	12978.39
763.438	12850.26
763.775	12897.49
764.112	12857.03
764.449	12846.41
764.785	12662.24
765.122	12632.86
765.458	12628.57
765.795	12634.44
766.131	12587.89
766.467	12463.37
766.804	12444.62
767.14	12390.38
767.476	12398.29
767.812	12355.35
768.148	12362.81
768.485	12273.1
768.821	12224.96
769.157	12319.42
769.492	12182.93
769.828	12147.45
770.164	12046.21
770.5	12084.85
770.836	12085.98
771.171	11994.23
771.507	11921.92
771.842	11846.44
772.178	11895.25
772.513	11830.85
772.849	11764.86
773.184	11622.27
773.519	11687.35
773.855	11670.63
774.19	11572.32
774.525	11562.38
774.86	11547.92
775.195	11604.19
775.53	11540.69
775.865	11384.31
776.2	11356.51
776.535	11321.93
776.87	11317.19
777.205	11233.12
777.539	11240.81
777.874	11179.11
778.209	11093.24
778.543	11044.88
778.878	11013.02
779.212	10978.89
779.547	10959.01
779.881	10936.18
780.215	10869.29
780.55	10912.91
780.884	10811.89
781.218	10751.33
781.552	10728.73
781.886	10707.03
782.22	10594.5
782.554	10631.1
782.888	10511.11
783.222	10533.25
783.556	10424.78
783.889	10422.97
784.223	10348.63
784.557	10258.91
784.89	10335.97
785.224	10185.01
785.557	10250.55
785.891	10153.83
786.224	10085.13
786.558	10178.46
786.891	10030.67
787.224	10064.57
787.557	10043.1
787.891	9992.25
788.224	9947.05
788.557	9946.15
788.89	9922.42
789.223	9864.35
789.556	9777.57
789.888	9772.6
790.221	9786.38
790.554	9689.21
790.887	9684.69
791.219	9688.98
791.552	9645.82
791.884	9545.26
792.217	9524.24
792.549	9485.15
792.882	9412.15
793.214	9471.59
793.546	9448.54
793.879	9356.11
794.211	9275.66
794.543	9322.66
794.875	9284.25
795.207	9322.89
795.539	9271.37
795.871	9211.48
796.203	9143.69
796.535	9100.98
796.867	9089.22
797.198	9049.23
797.53	9032.05
797.862	8982.33
798.193	9002.67
798.525	8960.64
798.856	8943.69
799.188	8894.2
799.519	8806.52
799.85	8753.19
800.182	8745.5
800.513	8806.97
800.844	8766.07
801.175	8736.69
801.506	8746.86
801.837	8661.89
802.168	8656.24
802.499	8631.16
802.83	8580.54
803.161	8503.93
803.491	8549.8
803.822	8506.19
804.153	8422.35
804.483	8390.49
804.814	8400.2
805.145	8377.6
805.475	8383.71
805.805	8328.11
806.136	8325.18
806.466	8410.37
806.796	8308.23
807.126	8233.88
807.457	8270.71
807.787	8273.88
808.117	8134.9
808.447	8124.05
808.777	8215.57
809.107	8153.88
809.436	8122.92
809.766	8103.49
810.096	8076.37
810.426	8069.59
810.755	8003.15
811.085	8033.66
811.414	7961.34
811.744	8007.44
812.073	7875.02
812.403	7928.12
812.732	7832.76
813.061	7857.84
813.39	7808.35
813.719	7768.58
814.049	7800.22
814.378	7774.46
814.707	7777.17
815.036	7647.91
815.365	7706.66
815.693	7605.65
816.022	7643.84
816.351	7580.11
816.68	7521.13
817.008	7585.99
817.337	7435.71
817.665	7496.05
817.994	7524.52
818.322	7518.42
818.651	7480
818.979	7427.12
819.307	7488.36
819.636	7459.66
819.964	7397.74
820.292	7463.96
820.62	7344.64
820.948	7403.39
821.276	7386.44
821.604	7400.68
821.932	7411.98
822.259	7419.21
822.587	7442.71
822.915	7381.02
823.243	7427.8
823.57	7308.48
823.898	7386.67
824.225	7323.4
824.553	7351.64
824.88	7373.79
825.207	7385.31
825.535	7315.26
825.862	7399.55
826.189	7361.13
826.516	7415.82
826.843	7394.35
827.17	7404.75
827.497	7386.67
827.824	7380.12
828.151	7449.27
828.478	7326.33
828.805	7348.25
829.131	7300.34
829.458	7308.71
829.785	7337.41
830.111	7242.27
830.438	7380.79
830.764	7322.94
831.09	7387.35
831.417	7315.71
831.743	7348.03
832.069	7268.93
832.395	7321.14
832.722	7352.55
833.048	7275.49
833.374	7271.19
833.7	7177.64
834.026	7203.85
834.351	7205.66
834.677	7170.4
835.003	7274.36
835.329	7219.22
835.654	7193
835.98	7115.26
836.306	7178.09
836.631	7172.89
836.956	7182.38
837.282	7170.86
837.607	7118.88
837.932	7090.63
838.258	7071.2
838.583	7107.81
838.908	7099.45
839.233	7047.7
839.558	7052.67
839.883	7040.92
840.208	7022.61
840.533	7000.47
840.858	7059.9
841.182	7035.72
841.507	7025.1
841.832	6992.56
842.156	6972.67
842.481	6909.85
842.805	6962.73
843.13	6890.86
843.454	6956.4
843.778	6830.07
844.103	6846.35
844.427	6891.77
844.751	6867.14
845.075	6811.77
845.399	6829.62
845.723	6754.6
846.047	6776.29
846.371	6705.56
846.695	6757.08
847.019	6722.05
847.343	6617.2
847.666	6613.13
847.99	6601.15
848.313	6579.46
848.637	6496.98
848.96	6523.42
849.284	6477.54
849.607	6460.59
849.931	6389.18
850.254	6411.78
850.577	6380.14
850.9	6295.85
851.223	6320.71
851.546	6293.37
851.869	6300.15
852.192	6294.04
852.515	6241.62
852.838	6206.59
853.161	6245.68
853.483	6182.86
853.806	6133.14
854.129	6198
854.451	6107.38
854.774	6105.12
855.096	6097.89
855.419	6077.1
855.741	6088.63
856.063	6045.24
856.385	6068.51
856.708	5993.49
857.03	5967.05
857.352	6017.44
857.674	5894.28
857.996	5917.1
858.318	5855.19
858.64	5889.76
858.961	5924.34
859.283	5845.02
859.605	5880.95
859.926	5885.24
860.248	5822.87
860.57	5793.94
860.891	5811.8
861.212	5812.25
861.534	5764.57
861.855	5770.89
862.176	5761.18
862.498	5730.22
862.819	5735.41
863.14	5715.98
863.461	5747.84
863.782	5722.76
864.103	5730.22
864.424	5726.15
864.745	5745.81
865.065	5661.74
865.386	5677.34
865.707	5653.83
866.027	5668.3
866.348	5620.61
866.668	5654.51
866.989	5560.5
867.309	5566.15
867.63	5601.63
867.95	5552.37
868.27	5534.29
868.59	5578.81
868.91	5575.87
869.23	5533.16
869.55	5562.09
869.87	5584.46
870.19	5538.58
870.51	5489.32
870.83	5483.44
871.15	5497.23
871.469	5481.64
871.789	5525.93
872.109	5538.81
872.428	5466.72
872.748	5417.23
873.067	5481.41
873.386	5470.11
873.706	5459.26
874.025	5449.77
874.344	5458.36
874.663	5442.77
874.982	5426.95
875.301	5381.98
875.62	5390.11
875.939	5349.21
876.258	5379.72
876.577	5367.29
876.896	5348.76
877.214	5309.44
877.533	5333.84
877.852	5366.61
878.17	5334.52
878.489	5351.02
878.807	5353.28
879.125	5310.79
879.444	5272.38
879.762	5343.56
880.08	5294.52
880.398	5252.26
880.716	5335.65
881.034	5275.09
881.352	5232.6
881.67	5249.55
881.988	5211.13
882.306	5201.87
882.624	5207.07
882.941	5202.77
883.259	5191.47
883.577	5187.63
883.894	5156.22
884.212	5178.14
884.529	5127.75
884.846	5152.83
885.164	5155.09
885.481	5041.87
885.798	5114.41
886.115	5099.95
886.432	5077.58
886.75	5132.49
887.067	5072.61
887.383	5089.1
887.7	5038.03
888.017	5032.38
888.334	5027.64
888.651	5000.07
888.967	5013.63
889.284	5014.3
889.6	4967.3
889.917	4925.94
890.233	4922.1
890.55	4924.81
890.866	4940.18
891.182	4869.9
891.498	4895.21
891.815	4870.35
892.131	4844.82
892.447	4829
892.763	4883.23
893.079	4871.03
893.395	4848.88
893.71	4812.73
894.026	4781.31
894.342	4760.52
894.657	4785.16
894.973	4763.46
895.289	4770.69
895.604	4716.01
895.92	4727.98
896.235	4706.74
896.55	4713.07
896.865	4703.8
897.181	4666.29
897.496	4706.51
897.811	4648.44
898.126	4666.06
898.441	4643.92
898.756	4619.96
899.071	4595.56
899.386	4605.05
899.7	4535.45
900.015	4527.08
900.33	4489.12
900.644	4508.1
900.959	4530.02
901.273	4541.32
901.588	4480.08
901.902	4436.01
902.216	4409.35
902.531	4455.67
902.845	4479.85
903.159	4441.89
903.473	4379.97
903.787	4350.14
904.101	4373.64
904.415	4317.6
904.729	4382.68
905.042	4330.71
905.356	4322.57
905.67	4297.49
905.984	4324.6
906.297	4300.65
906.611	4276.7
906.924	4280.09
907.237	4216.36
907.551	4253.87
907.864	4207.32
908.177	4178.84
908.491	4198.96
908.804	4176.81
909.117	4164.16
909.43	4109.02
909.743	4128
910.056	4090.03
910.368	4100.65
910.681	4090.49
910.994	4082.8
911.307	4039.87
911.619	4010.94
911.932	4021.79
912.244	4015.46
912.557	3999.87
912.869	3993.99
913.181	3964.61
913.494	3956.7
913.806	3939.76
914.118	3913.99
914.43	3925.29
914.742	3878.97
915.054	3837.38
915.366	3849.36
915.678	3820.44
915.99	3832.64
916.302	3829.7
916.613	3836.03
916.925	3792.19
917.236	3749.93
917.548	3735.69
917.859	3772.3
918.171	3705.64
918.482	3715.81
918.794	3717.61
919.105	3729.82
919.416	3707.44
919.727	3687.11
920.038	3645.98
920.349	3636.49
920.66	3681
920.971	3649.82
921.282	3642.81
921.593	3630.16
921.903	3591.29
922.214	3564.85
922.525	3557.84
922.835	3589.03
923.146	3564.62
923.456	3517.17
923.767	3496.83
924.077	3587.67
924.387	3493.89
924.697	3455.02
925.008	3461.8
925.318	3460.45
925.628	3440.56
925.938	3442.14
926.248	3397.85
926.558	3411.41
926.867	3362.6
927.177	3379.54
927.487	3368.92
927.796	3321.47
928.106	3323.05
928.416	3350.84
928.725	3321.47
929.034	3317.4
929.344	3303.16
929.653	3286.44
929.962	3253.22
930.271	3294.12
930.581	3229.49
930.89	3215.03
931.199	3186.78
931.508	3189.94
931.817	3217.51
932.125	3246.21
932.434	3203.28
932.743	3174.13
933.051	3122.6
933.36	3175.03
933.669	3101.59
933.977	3116.73
934.286	3084.86
934.594	3134.58
934.902	3089.38
935.21	3063.62
935.519	3100.23
935.827	3045.32
936.135	3050.74
936.443	3012.32
936.751	3022.49
937.059	3046.9
937.367	2970.97
937.674	2982.94
937.982	2987.46
938.29	2944.98
938.597	2937.75
938.905	2924.19
939.213	2932.32
939.52	2910.86
939.827	2929.16
940.135	2930.06
940.442	2864.98
940.749	2871.53
941.056	2871.31
941.363	2841.25
941.67	2864.98
941.977	2797.41
942.284	2800.12
942.591	2804.42
942.898	2796.28
943.205	2790.86
943.511	2800.8
943.818	2783.63
944.125	2744.76
944.431	2693.23
944.738	2739.33
945.044	2710.86
945.35	2706.57
945.657	2685.78
945.963	2711.09
946.269	2682.39
946.575	2654.59
946.881	2660.01
947.187	2619.56
947.493	2617.3
947.799	2639.68
948.105	2611.43
948.41	2612.33
948.716	2638.09
949.022	2584.54
949.327	2617.53
949.633	2578.44
949.938	2571.66
950.244	2562.39
950.549	2528.94
950.854	2544.31
951.16	2516.74
951.465	2517.19
951.77	2526.68
952.075	2503.86
952.38	2528.27
952.685	2480.36
952.99	2462.28
953.294	2481.94
953.599	2446.69
953.904	2451.66
954.209	2442.85
954.513	2428.61
954.818	2414.15
955.122	2394.71
955.426	2385.45
955.731	2416.18
956.035	2399.46
956.339	2412.34
956.643	2369.63
956.948	2337.76
957.252	2366.92
957.556	2328.95
957.86	2332.79
958.163	2342.74
958.467	2317.42
958.771	2295.05
959.075	2292.79
959.378	2298.22
959.682	2285.79
959.985	2290.98
960.289	2278.78
960.592	2254.83
960.896	2274.26
961.199	2229.29
961.502	2239.23
961.805	2206.92
962.108	2216.86
962.411	2239.91
962.714	2168.05
963.017	2218.67
963.32	2150.2
963.623	2152.23
963.926	2158.56
964.228	2156.07
964.531	2164.21
964.833	2157.66
965.136	2130.99
965.438	2106.58
965.741	2100.71
966.043	2116.53
966.345	2126.02
966.648	2071.1
966.95	2102.29
967.252	2073.14
967.554	2058.45
967.856	2061.39
968.158	2033.82
968.46	2012.35
968.761	2015.29
969.063	2058.22
969.365	2018.68
969.666	2020.94
969.968	1975.51
970.269	2017.32
970.571	2013.7
970.872	2015.06
971.174	1995.85
971.475	1981.16
971.776	1956.08
972.077	1948.4
972.378	1942.75
972.679	1936.42
972.98	1934.16
973.281	1922.63
973.582	1949.75
973.883	1913.37
974.183	1895.29
974.484	1905.01
974.785	1909.3
975.085	1862.75
975.386	1914.72
975.686	1871.79
975.986	1867.27
976.287	1865.23
976.587	1876.76
976.887	1867.27
977.187	1829.3
977.487	1884.22
977.787	1829.08
978.087	1836.99
978.387	1811
978.687	1814.39
978.987	1797.66
979.286	1830.43
979.586	1815.52
979.885	1802.86
980.185	1807.38
980.484	1754.28
980.784	1782.98
981.083	1757.89
981.382	1761.96
981.682	1746.59
981.981	1785.24
982.28	1736.65
982.579	1723.54
982.878	1718.8
983.177	1744.78
983.475	1697.33
983.774	1700.72
984.073	1679.48
984.372	1683.09
984.67	1676.09
984.969	1665.24
985.267	1695.75
985.566	1652.58
985.864	1649.42
986.162	1627.95
986.461	1618.01
986.759	1627.27
987.057	1631.12
987.355	1604.22
987.653	1582.3
987.951	1619.14
988.249	1622.53
988.547	1586.82
988.844	1578.46
989.142	1586.6
989.44	1594.73
989.737	1559.48
990.035	1549.99
990.332	1525.58
990.63	1550.21
990.927	1555.64
991.224	1534.39
991.521	1526.71
991.819	1521.06
992.116	1519.71
992.413	1498.92
992.71	1508.86
993.006	1496.88
993.303	1496.66
993.6	1481.74
993.897	1462.98
994.193	1499.14
994.49	1472.93
994.787	1470.67
995.083	1444.23
995.379	1462.31
995.676	1427.28
995.972	1448.97
996.268	1418.92
996.565	1440.61
996.861	1418.47
997.157	1427.73
997.453	1423.21
997.749	1397
998.044	1394.51
998.34	1422.76
998.636	1409.2
998.932	1400.61
999.227	1409.43
999.523	1403.32
999.818	1383.21
1000.114	1373.27
1000.409	1349.77
1000.704	1352.7
1001	1350.9
1001.295	1336.66
1001.59	1321.97
1001.885	1320.61
1002.18	1301.41
1002.475	1323.33
1002.77	1301.41
1003.065	1298.47
1003.359	1315.64
1003.654	1327.39
1003.949	1257.34
1004.243	1283.55
1004.538	1266.38
1004.832	1277.45
1005.127	1248.07
1005.421	1224.35
1005.715	1241.97
1006.009	1252.14
1006.304	1242.42
1006.598	1236.78
1006.892	1221.18
1007.186	1207.62
1007.48	1196.32
1007.773	1204.69
1008.067	1214.63
1008.361	1191.13
1008.655	1184.35
1008.948	1176.21
1009.242	1163.33
1009.535	1172.37
1009.829	1166.27
1010.122	1188.64
1010.415	1129.21
1010.708	1128.76
1011.001	1150
1011.295	1116.78
1011.588	1115.42
1011.881	1118.36
1012.173	1114.52
1012.466	1113.84
1012.759	1102.54
1013.052	1112.71
1013.344	1088.76
1013.637	1078.14
1013.93	1069.32
1014.222	1065.25
1014.514	1108.19
1014.807	1066.61
1015.099	1069.1
1015.391	1053.73
1015.683	1052.15
1015.976	1043.11
1016.268	1043.33
1016.56	1042.88
1016.851	1066.61
1017.143	1016.22
1017.435	1024.13
1017.727	1022.77
1018.018	990.23
1018.31	990
1018.602	996.33
1018.893	998.82
1019.185	999.95
1019.476	1000.85
1019.767	984.8
1020.058	1003.11
1020.35	961.53
1020.641	967.4
1020.932	955.43
1021.223	959.27
1021.514	943.22
1021.804	939.16
1022.095	955.65
1022.386	917.91
1022.677	891.93
1022.967	898.93
1023.258	919.5
1023.548	908.2
1023.839	913.39
1024.129	903.22
1024.419	891.25
1024.709	873.62
1025	877.69
1025.29	889.21
1025.58	869.78
1025.87	858.93
1026.16	842.21
1026.449	849.89
1026.739	849.44
1027.029	853.73
1027.319	850.12
1027.608	849.89
1027.898	832.04
1028.187	832.27
1028.477	819.61
1028.766	831.81
1029.055	826.62
1029.344	829.78
1029.634	807.63
1029.923	818.71
1030.212	808.31
1030.501	782.55
1030.79	804.02
1031.078	803.79
1031.367	770.12
1031.656	787.75
1031.945	784.13
1032.233	790.01
1032.522	767.64
1032.81	767.64
1033.099	767.18
1033.387	745.71
1033.675	753.4
1033.963	739.16
1034.251	754.08
1034.54	721.31
1034.828	726.96
1035.116	750.23
1035.403	762.44
1035.691	734.87
1035.979	721.31
1036.267	734.87
1036.554	734.87
1036.842	709.11
1037.129	719.05
1037.417	701.2
1037.704	700.52
1037.992	684.02
1038.279	693.29
1038.566	709.78
1038.853	709.78
1039.14	709.78
