Data from tablewood_dark_bookshelf_FLMS001491_00045.txt Node
Date: Wed Feb 08 14:14:48 GMT 2017
User: dcchb
Spectrometer: FLMS00149
Trigger mode: 0
Integration Time (sec): 2.000000E-2
Scans to average: 10
Electric dark correction enabled: true
Nonlinearity correction enabled: false
Boxcar width: 0
XAxis mode: Wavelengths
Number of Pixels in Spectrum: 2048
>>>>>Begin Spectral Data<<<<<
341.393	-42.85
341.776	-42.85
342.16	-42.85
342.543	-64.77
342.927	-41.04
343.31	-61.38
343.693	-70.42
344.077	-53.93
344.46	-66.58
344.843	-50.99
345.226	-42.63
345.61	-15.96
345.993	-7.6
346.376	-14.83
346.759	-2.85
347.142	22.01
347.525	50.03
347.908	64.49
348.291	50.25
348.674	92.96
349.057	107.43
349.44	120.99
349.823	130.7
350.206	167.09
350.588	178.39
350.971	197.14
351.354	209.8
351.737	219.29
352.119	239.63
352.502	250.47
352.884	267.65
353.267	256.12
353.65	287.76
354.032	292.28
354.414	284.15
354.797	317.82
355.179	299.96
355.562	302.9
355.944	316.01
356.326	316.23
356.709	320.98
357.091	311.26
357.473	349.23
357.855	327.76
358.238	326.86
358.62	317.59
359.002	322.56
359.384	323.47
359.766	346.29
360.148	329.57
360.53	349.68
360.912	330.7
361.294	315.78
361.676	322.79
362.057	318.72
362.439	336.8
362.821	305.84
363.203	325.95
363.584	304.48
363.966	303.35
364.348	309.46
364.729	300.42
365.111	309.46
365.493	330.47
365.874	320.75
366.256	294.99
366.637	286.18
367.019	313.07
367.4	290.7
367.781	299.74
368.163	295.67
368.544	322.34
368.925	312.62
369.306	307.87
369.688	304.71
370.069	306.07
370.45	306.97
370.831	308.33
371.212	295.67
371.593	319.85
371.974	307.87
372.355	306.97
372.736	316.01
373.117	306.29
373.498	313.75
373.879	323.24
374.26	303.58
374.641	299.96
375.021	288.21
375.402	312.62
375.783	307.87
376.163	323.92
376.544	308.78
376.925	336.57
377.305	330.92
377.686	334.31
378.066	323.47
378.447	327.31
378.827	315.78
379.208	333.41
379.588	331.6
379.968	343.58
380.349	326.18
380.729	321.66
381.109	318.27
381.489	334.09
381.87	333.41
382.25	336.12
382.63	330.25
383.01	345.84
383.39	320.08
383.77	327.53
384.15	331.83
384.53	327.53
384.91	352.62
385.29	353.97
385.67	349.91
386.049	339.96
386.429	370.47
386.809	327.08
387.189	351.94
387.568	365.05
387.948	358.04
388.328	368.44
388.707	369.11
389.087	379.96
389.466	373.18
389.846	371.6
390.225	369.57
390.605	362.11
390.984	374.76
391.363	358.49
391.743	381.09
392.122	385.84
392.501	384.93
392.881	382.45
393.26	394.65
393.639	387.65
394.018	371.15
394.397	400.75
394.776	377.93
395.155	391.03
395.534	407.31
395.913	393.07
396.292	410.92
396.671	398.72
397.05	402.11
397.429	402.33
397.808	414.09
398.186	400.07
398.565	407.98
398.944	404.14
399.323	407.08
399.701	407.31
400.08	410.7
400.458	401.43
400.837	419.51
401.215	414.31
401.594	442.56
401.972	428.77
402.351	421.99
402.729	441.2
403.107	430.36
403.486	432.84
403.864	421.32
404.242	441.66
404.62	454.99
404.999	463.58
405.377	455.44
405.755	448.66
406.133	463.58
406.511	462.9
406.889	456.57
407.267	471.26
407.645	474.2
408.023	466.97
408.401	466.97
408.779	487.76
409.156	469.9
409.534	499.28
409.912	489.79
410.29	480.07
410.667	492.05
411.045	489.79
411.422	492.28
411.8	496.57
412.178	527.75
412.555	507.87
412.933	501.09
413.31	503.12
413.687	527.08
414.065	529.56
414.442	543.57
414.819	525.27
415.197	528.88
415.574	523.23
415.951	558.49
416.328	537.7
416.705	543.35
417.082	577.47
417.46	541.09
417.837	550.58
418.214	563.23
418.591	556.45
418.967	579.28
419.344	584.7
419.721	578.83
420.098	561.2
420.475	585.15
420.852	589
421.228	581.09
421.605	594.42
421.982	594.42
422.358	602.78
422.735	598.49
423.111	609.56
423.488	615.66
423.864	640.75
424.241	649.56
424.617	626.06
424.994	625.61
425.37	647.98
425.746	635.1
426.123	651.14
426.499	656.79
426.875	665.15
427.251	667.19
427.627	678.94
428.003	683.46
428.379	677.81
428.756	700.86
429.132	725.94
429.507	724.36
429.883	708.77
430.259	725.26
430.635	744.7
431.011	723.46
431.387	726.85
431.763	748.99
432.138	751.7
432.514	761.19
432.89	783.57
433.265	763.45
433.641	786.05
434.016	794.41
434.392	810.91
434.767	813.17
435.143	807.75
435.518	829.89
435.894	818.37
436.269	810.01
436.644	847.07
437.02	870.57
437.395	854.07
437.77	871.7
438.145	854.75
438.52	880.51
438.895	868.54
439.271	875.54
439.646	890.46
440.021	901.3
440.395	910.34
440.77	886.62
441.145	925.71
441.52	888.42
441.895	924.13
442.27	926.39
442.645	928.65
443.019	932.26
443.394	935.65
443.769	960.29
444.143	956.9
444.518	978.82
444.892	958.03
445.267	973.17
445.641	978.14
446.016	967.74
446.39	983.34
446.764	1016.1
447.139	994.18
447.513	1018.14
447.887	1025.82
448.262	1032.83
448.636	1014.52
449.01	1043.22
449.384	1031.24
449.758	1046.84
450.132	1052.49
450.506	1069.89
450.88	1089.1
451.254	1094.97
451.628	1081.64
452.002	1080.96
452.376	1106.95
452.75	1097.46
453.123	1118.02
453.497	1117.57
453.871	1173.84
454.244	1143.56
454.618	1154.86
454.992	1182.2
455.365	1170.22
455.739	1220.17
456.112	1204.57
456.486	1238.02
456.859	1225.59
457.232	1280.96
457.606	1257
457.979	1274.63
458.352	1290.9
458.725	1323.89
459.099	1327.51
459.472	1321.86
459.845	1353.95
460.218	1365.7
460.591	1362.31
460.964	1377
461.337	1400.95
461.71	1447.73
462.083	1409.09
462.456	1429.2
462.829	1477.56
463.201	1463.55
463.574	1505.81
463.947	1534.51
464.32	1516.88
464.692	1528.86
465.065	1548.74
465.438	1606.6
465.81	1611.12
466.183	1586.94
466.555	1657.22
466.928	1626.03
467.3	1641.4
467.672	1646.14
468.045	1691.79
468.417	1708.06
468.789	1751
469.161	1777.44
469.534	1748.06
469.906	1795.07
470.278	1806.36
470.65	1811.56
471.022	1856.08
471.394	1894.72
471.766	1915.97
472.138	1950.09
472.51	1954.61
472.882	1985.8
473.253	2051.1
473.625	2053.36
473.997	2068.05
474.369	2087.71
474.74	2125.45
475.112	2182.85
475.484	2190.31
475.855	2231.89
476.227	2285.67
476.598	2307.82
476.97	2321.15
477.341	2373.36
477.713	2386.91
478.084	2401.38
478.455	2415.16
478.827	2450.64
479.198	2555.27
479.569	2546.91
479.94	2624.42
480.311	2646.12
480.682	2707.36
481.053	2743.97
481.424	2782.84
481.795	2816.28
482.166	2880.69
482.537	2913.23
482.908	2967.24
483.279	2957.52
483.65	3004.53
484.021	3045.88
484.391	3097.4
484.762	3161.36
485.133	3190.06
485.503	3194.8
485.874	3276.61
486.244	3340.11
486.615	3374.91
486.985	3384.18
487.356	3421.01
487.726	3497.85
488.097	3557.51
488.467	3570.84
488.837	3642.25
489.207	3675.92
489.578	3718.41
489.948	3775.13
490.318	3825.07
490.688	3780.32
491.058	3870.94
491.428	3910.26
491.798	3988.91
492.168	4055.35
492.538	4065.51
492.908	4131.28
493.278	4163.37
493.648	4169.01
494.017	4223.48
494.387	4270.03
494.757	4309.58
495.126	4357.26
495.496	4346.86
495.866	4366.3
496.235	4422.57
496.605	4495.79
496.974	4498.05
497.344	4503.24
497.713	4586.63
498.082	4625.73
498.452	4617.59
498.821	4673.18
499.19	4684.03
499.559	4785.5
499.928	4810.35
500.298	4763.12
500.667	4839.28
501.036	4812.84
501.405	4914.98
501.774	4934.87
502.143	4963.34
502.512	5012.61
502.88	5031.14
503.249	5057.8
503.618	5103
503.987	5077.47
504.356	5151.59
504.724	5177.35
505.093	5249.66
505.462	5282.21
505.83	5285.6
506.199	5313.39
506.567	5385.93
506.936	5455.76
507.304	5490.79
507.672	5488.75
508.041	5557
508.409	5580.73
508.777	5609.65
509.145	5606.27
509.514	5656.66
509.882	5687.17
510.25	5744.79
510.618	5761.97
510.986	5743.89
511.354	5848.74
511.722	5883.09
512.09	5955.18
512.458	5967.39
512.826	5991.79
513.193	5987.95
513.561	6119.92
513.929	6129.19
514.297	6132.58
514.664	6227.27
515.032	6204.67
515.4	6277.89
515.767	6324.89
516.135	6356.75
516.502	6380.26
516.869	6445.11
517.237	6415.51
517.604	6481.5
517.972	6548.61
518.339	6616.86
518.706	6687.14
519.073	6688.27
519.44	6733.69
519.808	6779.34
520.175	6829.74
520.542	6883.97
520.909	6900.24
521.276	6926.46
521.643	7058.43
522.009	7061.82
522.376	7144.53
522.743	7137.52
523.11	7242.61
523.477	7331.87
523.843	7377.29
524.21	7409.16
524.577	7504.07
524.943	7520.11
525.31	7577.96
525.676	7644.86
526.043	7658.41
526.409	7731.86
526.776	7832.42
527.142	7850.5
527.508	7919.42
527.874	7950.38
528.241	7974.34
528.607	8019.76
528.973	8134.56
529.339	8096.82
529.705	8158.29
530.071	8234.9
530.437	8279.19
530.803	8402.8
531.169	8393.76
531.535	8366.42
531.901	8430.6
532.267	8501.56
532.632	8501.78
532.998	8552.4
533.364	8647.54
533.73	8671.95
534.095	8704.71
534.461	8792.17
534.826	8774.32
535.192	8876.46
535.557	8948.32
535.923	8860.19
536.288	8986.74
536.653	8969.11
537.019	8976.57
537.384	9078.94
537.749	9038.04
538.114	9088.43
538.479	9141.99
538.845	9227.64
539.21	9135.66
539.575	9278.71
539.94	9265.83
540.305	9338.14
540.67	9355.32
541.034	9365.71
541.399	9400.74
541.764	9339.05
542.129	9404.81
542.494	9468.99
542.858	9558.25
543.223	9530
543.587	9599.83
543.952	9592.83
544.316	9624.46
544.681	9611.36
545.045	9739.49
545.41	9737.46
545.774	9759.38
546.138	9849.77
546.503	9794.18
546.867	9812.71
547.231	9958.69
547.595	9922.99
547.959	9975.87
548.324	9992.36
548.688	10018.8
549.052	10086.37
549.416	10084.79
549.779	10180.38
550.143	10187.39
550.507	10188.52
550.871	10232.81
551.235	10338.57
551.599	10367.72
551.962	10346.48
552.326	10434.84
552.689	10526.81
553.053	10464.44
553.417	10481.39
553.78	10642.97
554.143	10576.76
554.507	10639.35
554.87	10660.82
555.234	10702.4
555.597	10694.27
555.96	10828.05
556.323	10849.52
556.686	10881.83
557.05	10991.89
557.413	10986.46
557.776	11024.43
558.139	11072.34
558.502	11094.03
558.865	11061.71
559.228	11304.19
559.59	11212.45
559.953	11263.07
560.316	11350.97
560.679	11356.85
561.041	11419.22
561.404	11514.58
561.767	11611.3
562.129	11583.51
562.492	11704.64
562.854	11734.92
563.217	11717.06
563.579	11806.78
563.941	11871.64
564.304	11995.25
564.666	11934.01
565.028	11976.72
565.39	12056.49
565.753	12178.3
566.115	12195.7
566.477	12285.64
566.839	12291.29
567.201	12425.29
567.563	12437.05
567.925	12544.84
568.287	12525.41
568.648	12546.65
569.01	12677.72
569.372	12673.88
569.734	12710.03
570.095	12796.58
570.457	12861.22
570.819	12990.03
571.18	12933.53
571.542	13033.64
571.903	13064.6
572.265	13193.41
572.626	13216.46
572.987	13214.65
573.349	13311.37
573.71	13319.96
574.071	13353.86
574.432	13376.68
574.794	13492.39
575.155	13503.68
575.516	13528.09
575.877	13541.2
576.238	13592.04
576.599	13665.26
576.96	13672.27
577.32	13607.86
577.681	13727.63
578.042	13888.76
578.403	13841.98
578.763	13805.37
579.124	13938.02
579.485	13936.89
579.845	14041.07
580.206	14022.54
580.566	14097.34
580.927	14093.05
581.287	14220.5
581.648	14102.54
582.008	14196.55
582.368	14206.72
582.728	14272.25
583.089	14266.38
583.449	14285.58
583.809	14296.43
584.169	14380.27
584.529	14401.51
584.889	14507.05
585.249	14418.01
585.609	14460.95
585.969	14501.62
586.329	14462.3
586.688	14531.45
587.048	14492.13
587.408	14490.33
587.768	14535.3
588.127	14557.22
588.487	14550.89
588.846	14669.3
589.206	14603.77
589.565	14663.2
589.925	14701.85
590.284	14694.39
590.643	14760.37
591.003	14735.06
591.362	14877.43
591.721	14828.62
592.08	14767.38
592.44	14844.44
592.799	14889.86
593.158	14802.86
593.517	14936.19
593.876	14941.84
594.235	14868.62
594.593	14984.78
594.952	14997.88
595.311	14950.88
595.67	14964.66
596.029	15111.78
596.387	15161.95
596.746	15149.97
597.104	15088.28
597.463	15068.62
597.822	15202.17
598.18	15147.26
598.538	15169.18
598.897	15353.81
599.255	15213.02
599.613	15472.9
599.972	15240.81
600.33	15331.89
600.688	15276.07
601.046	15396.74
601.404	15492.78
601.762	15439.45
602.12	15523.29
602.478	15482.62
602.836	15557.42
603.194	15461.15
603.552	15541.82
603.91	15505.89
604.268	15519.9
604.625	15473.8
604.983	15482.39
605.341	15516.51
605.698	15655.72
606.056	15592.9
606.413	15630.41
606.771	15717.19
607.128	15640.35
607.485	15684.87
607.843	15763.06
608.2	15847.13
608.557	15783.62
608.914	15790.63
609.272	15905.88
609.629	15942.26
609.986	15978.2
610.343	15894.81
610.7	16007.57
611.057	15932.77
611.414	15956.5
611.771	16001.7
612.127	16085.76
612.484	16077.85
612.841	16096.61
613.198	16092.32
613.554	16103.62
613.911	16156.5
614.267	16215.03
614.624	16202.37
614.98	16145.42
615.337	16337.73
615.693	16250.96
616.05	16227.45
616.406	16391.52
616.762	16258.87
617.118	16266.1
617.475	16303.61
617.831	16338.41
618.187	16329.6
618.543	16452.53
618.899	16486.43
619.255	16460.67
619.611	16411.18
619.967	16478.3
620.323	16454.34
620.678	16405.76
621.034	16401.91
621.39	16471.29
621.746	16436.71
622.101	16672.64
622.457	16423.16
622.812	16555.13
623.168	16529.37
623.523	16560.1
623.879	16571.4
624.234	16490.72
624.589	16569.59
624.945	16536.6
625.3	16642.81
625.655	16585.19
626.01	16612.53
626.365	16616.15
626.72	16526.2
627.075	16557.16
627.43	16531.18
627.785	16542.7
628.14	16581.12
628.495	16585.64
628.85	16462.25
629.205	16496.83
629.559	16563.72
629.914	16558.97
630.269	16506.32
630.623	16424.74
630.978	16427.45
631.332	16490.27
631.687	16596.03
632.041	16429.94
632.396	16479.88
632.75	16393.55
633.104	16477.84
633.459	16465.64
633.813	16441.46
634.167	16399.43
634.521	16289.83
634.875	16409.6
635.229	16309.94
635.583	16301.13
635.937	16261.58
636.291	16288.47
636.645	16298.19
636.999	16235.14
637.352	16322.82
637.706	16269.71
638.06	16283.27
638.413	16175.93
638.767	16147.68
639.121	16161.47
639.474	16065.43
639.828	16169.15
640.181	16064.52
640.534	16130.06
640.888	16128.25
641.241	15895.71
641.594	16031.08
641.947	16063.39
642.301	15979.1
642.654	15988.82
643.007	16028.36
643.36	16013.9
643.713	16001.02
644.066	16042.6
644.419	15954.47
644.771	15870.4
645.124	15749.05
645.477	15763.51
645.83	15639
646.182	15517.64
646.535	15446.23
646.888	15444.65
647.24	15373.69
647.593	15350.19
647.945	15372.34
648.298	15295.28
648.65	15211.89
649.002	15196.52
649.355	15285.33
649.707	15292.79
650.059	15418.89
650.411	15629.5
650.763	15536.4
651.115	15825.88
651.467	15804.19
651.819	15744.76
652.171	15645.78
652.523	15692.1
652.875	15688.26
653.227	15579.79
653.578	15778.43
653.93	15643.74
654.282	15658.2
654.633	15579.11
654.985	15648.49
655.337	15560.35
655.688	15584.08
656.039	15595.15
656.391	15486.46
656.742	15513.12
657.094	15502.28
657.445	15554.25
657.796	15576.85
658.147	15455.95
658.498	15452.56
658.849	15578.43
659.2	15505.21
659.551	15447.59
659.902	15557.19
660.253	15570.52
660.604	15503.63
660.955	15485.55
661.306	15570.97
661.656	15538.21
662.007	15573.91
662.358	15455.27
662.708	15514.25
663.059	15530.52
663.409	15428.61
663.76	15514.93
664.11	15501.6
664.461	15506.8
664.811	15441.03
665.161	15485.1
665.511	15389.28
665.862	15473.58
666.212	15514.93
666.562	15495.72
666.912	15487.36
667.262	15491.88
667.612	15414.59
667.962	15468.6
668.312	15456.18
668.662	15451.88
669.011	15589.96
669.361	15419.34
669.711	15474.93
670.06	15414.59
670.41	15361.26
670.76	15370.75
671.109	15424.99
671.459	15322.62
671.808	15363.52
672.157	15390.19
672.507	15281.04
672.856	15385.44
673.205	15395.61
673.554	15316.97
673.904	15280.36
674.253	15372.34
674.602	15374.14
674.951	15131.21
675.3	15018.9
675.649	15353.81
675.998	15325.11
676.346	15387.7
676.695	15335.27
677.044	15308.16
677.393	15296.63
677.741	15353.13
678.09	15275.16
678.438	15204.66
678.787	15248.27
679.135	15227.71
679.484	15219.8
679.832	15150.65
680.181	15101.38
680.529	15124.21
680.877	15129.86
681.225	15088.95
681.573	15216.86
681.922	15138.22
682.27	15118.78
682.618	15119.01
682.966	14975.28
683.314	15013.7
683.661	14969.41
684.009	14921.95
684.357	14883.99
684.705	14882.86
685.053	14809.64
685.4	14866.59
685.748	14720.83
686.095	14746.36
686.443	14716.31
686.79	14663.43
687.138	14739.13
687.485	14699.13
687.832	14646.93
688.18	14647.84
688.527	14639.02
688.874	14598.57
689.221	14627.72
689.568	14567.84
689.915	14467.73
690.262	14534.39
690.609	14452.59
690.956	14411.91
691.303	14390.89
691.65	14308.64
691.997	14358.8
692.344	14319.26
692.69	14299.82
693.037	14263.66
693.383	14148.41
693.73	14224.57
694.077	14123.1
694.423	14065.48
694.769	14015.76
695.116	13988.19
695.462	14001.07
695.808	14038.36
696.155	13938.02
696.501	13886.95
696.847	13891.24
697.193	13759.72
697.539	13772.83
697.885	13653.96
698.231	13641.53
698.577	13598.37
698.923	13728.54
699.269	13540.97
699.614	13538.26
699.96	13503.91
700.306	13548.66
700.651	13461.43
700.997	13334.2
701.342	13384.59
701.688	13386.17
702.033	13307.76
702.379	13344.59
702.724	13176.69
703.069	13264.37
703.415	13092.85
703.76	13117.25
704.105	13094.88
704.45	13065.5
704.795	13027.99
705.14	12977.82
705.485	12992.06
705.83	12855.79
706.175	12851.5
706.52	12929.69
706.865	12872.97
707.209	12848.79
707.554	12750.26
707.899	12860.99
708.243	12741.67
708.588	12684.5
708.932	12682.92
709.277	12703.93
709.621	12620.32
709.966	12561.56
710.31	12660.99
710.654	12492.64
710.998	12547.78
711.342	12454.45
711.687	12495.35
712.031	12465.75
712.375	12369.93
712.719	12441.11
713.063	12336.03
713.407	12430.27
713.75	12362.25
714.094	12326.77
714.438	12293.77
714.782	12280.67
715.125	12244.96
715.469	12258.29
715.812	12225.53
716.156	12188.24
716.499	12150.05
716.843	12158.41
717.186	12079.99
717.53	12227.56
717.873	12199.31
718.216	12138.97
718.559	12052.65
718.902	11987.79
719.246	12000.9
719.589	12017.4
719.932	12024.4
720.275	12023.95
720.617	11924.97
720.96	11941.01
721.303	11897.63
721.646	11936.49
721.989	11833.22
722.331	11867.34
722.674	11829.15
723.016	11863.28
723.359	11855.82
723.701	11899.88
724.044	11857.4
724.386	11746.22
724.729	11832.99
725.071	11737.63
725.413	11735.37
725.755	11700.57
726.097	11729.27
726.439	11588.25
726.782	11659.89
727.124	11653.79
727.465	11588.71
727.807	11639.33
728.149	11705.54
728.491	11608.82
728.833	11643.17
729.175	11579.44
729.516	11577.63
729.858	11561.59
730.199	11571.31
730.541	11548.71
730.882	11590.29
731.224	11577.63
731.565	11520.91
731.906	11493.57
732.248	11476.62
732.589	11494.7
732.93	11426.9
733.271	11501.03
733.612	11456.51
733.953	11546
734.294	11466.22
734.635	11394.81
734.976	11429.16
735.317	11396.4
735.658	11423.51
735.999	11493.57
736.339	11372.89
736.68	11401.59
737.021	11327.02
737.361	11339.9
737.702	11406.56
738.042	11360.01
738.383	11322.27
738.723	11387.58
739.063	11390.52
739.404	11380.8
739.744	11286.57
740.084	11292.22
740.424	11329.05
740.764	11362.27
741.104	11358.43
741.444	11326.34
741.784	11306.23
742.124	11308.26
742.464	11287.02
742.804	11292.44
743.143	11229.62
743.483	11262.16
743.823	11213.58
744.162	11167.7
744.502	11230.98
744.841	11170.64
745.181	11244.31
745.52	11200.92
745.86	11174.71
746.199	11167.93
746.538	11140.13
746.877	11172.22
747.216	11197.98
747.556	11138.77
747.895	11170.86
748.234	11070.53
748.573	11064.2
748.911	11119.57
749.25	11143.07
749.589	11096.52
749.928	11078.44
750.267	11190.75
750.605	11097.87
750.944	11060.36
751.283	11052.9
751.621	11067.59
751.96	11005.67
752.298	11003.86
752.636	11023.07
752.975	10912.79
753.313	10935.16
753.651	11015.61
753.989	10918.67
754.327	10908.27
754.666	10886.58
755.004	10903.53
755.342	10871.44
755.679	10882.74
756.017	10857.88
756.355	10848.16
756.693	10747.37
757.031	10827.82
757.368	10753.02
757.706	10647.04
758.044	10713.25
758.381	10760.71
758.719	10591.67
759.056	10670.31
759.394	10657.66
759.731	10577.43
760.068	10544.89
760.405	10589.64
760.743	10470.09
761.08	10517.77
761.417	10436.65
761.754	10497.44
762.091	10473.93
762.428	10421.96
762.765	10352.35
763.102	10367.72
763.438	10246.82
763.775	10284.11
764.112	10311.68
764.449	10263.77
764.785	10216.31
765.122	10171.79
765.458	10118.24
765.795	10117.11
766.131	10124.11
766.467	10023.55
766.804	10009.09
767.14	10009.77
767.476	9905.36
767.812	9884.57
768.148	9976.32
768.485	9907.39
768.821	9777.45
769.157	9741.3
769.492	9732.94
769.828	9714.18
770.164	9636.22
770.5	9660.17
770.836	9621.98
771.171	9530
771.507	9544.92
771.842	9498.59
772.178	9462.66
772.513	9497.24
772.849	9485.26
773.184	9364.81
773.519	9431.7
773.855	9387.41
774.19	9294.53
774.525	9279.16
774.86	9272.16
775.195	9236
775.53	9186.06
775.865	9154.19
776.2	9011.15
776.535	9027.42
776.87	9061.77
777.205	9021.09
777.539	8887.08
777.874	9008.89
778.209	8942.9
778.543	8892.73
778.878	8858.83
779.212	8824.94
779.547	8788.33
779.881	8771.38
780.215	8793.07
780.55	8786.29
780.884	8707.88
781.218	8641.67
781.552	8626.3
781.886	8601.44
782.22	8551.5
782.554	8574.32
782.888	8454.78
783.222	8413.65
783.556	8370.03
783.889	8387.43
784.223	8299.08
784.557	8260.43
784.89	8324.39
785.224	8208
785.557	8169.14
785.891	8188.8
786.224	8157.84
786.558	8179.53
786.891	8122.58
787.224	8064.96
787.557	8046.43
787.891	8022.47
788.224	8063.6
788.557	8030.83
788.89	7966.65
789.223	7930.72
789.556	7925.75
789.888	7836.49
790.221	7874.68
790.554	7744.29
790.887	7805.76
791.219	7756.94
791.552	7642.37
791.884	7699.77
792.217	7673.1
792.549	7607.57
792.882	7563.05
793.214	7544.07
793.546	7564.41
793.879	7558.08
794.211	7482.37
794.543	7500
794.875	7454.8
795.207	7482.37
795.539	7445.54
795.871	7403.73
796.203	7350.4
796.535	7245.32
796.867	7225.21
797.198	7276.5
797.53	7233.11
797.862	7168.71
798.193	7292.32
798.525	7163.29
798.856	7178.2
799.188	7043.97
799.519	7110.41
799.85	7056.85
800.182	6999.67
800.513	7048.49
800.844	6997.41
801.175	7024.76
801.506	6997.41
801.837	7023.18
802.168	6924.65
802.499	6922.16
802.83	6918.32
803.161	6855.27
803.491	6826.35
803.822	6865.67
804.153	6845.33
804.483	6742.51
804.814	6777.99
805.145	6730.98
805.475	6809.17
805.805	6731.21
806.136	6722.39
806.466	6636.29
806.796	6710.19
807.126	6592.45
807.457	6586.35
807.787	6576.41
808.117	6591.1
808.447	6523.3
808.777	6563.75
809.107	6516.75
809.436	6500.7
809.766	6519.24
810.096	6491.44
810.426	6440.14
810.755	6481.95
811.085	6427.94
811.414	6385.68
811.744	6395.4
812.073	6338.68
812.403	6341.39
812.732	6306.36
813.061	6310.88
813.39	6284.44
813.719	6222.75
814.049	6279.24
814.378	6285.12
814.707	6206.93
815.036	6189.53
815.365	6179.13
815.693	6089.87
816.022	6147.49
816.351	6149.53
816.68	6112.24
817.008	6118.79
817.337	6086.93
817.665	6097.78
817.994	6111.11
818.322	6070.89
818.651	5971
818.979	6014.84
819.307	6005.35
819.636	6009.64
819.964	5990.21
820.292	5960.15
820.62	5977.1
820.948	5983.43
821.276	5931.45
821.604	5924
821.932	5942.75
822.259	5975.52
822.587	5973.26
822.915	5921.51
823.243	5952.24
823.57	5910.89
823.898	5940.27
824.225	5928.06
824.553	5913.6
824.88	5927.84
825.207	5920.16
825.535	5943.43
825.862	5958.8
826.189	5938.23
826.516	5940.49
826.843	5953.83
827.17	5975.97
827.497	5931
827.824	5920.61
828.151	5946.37
828.478	5914.51
828.805	5930.78
829.131	5946.37
829.458	5957.89
829.785	5860.04
830.111	5898.01
830.438	5937.56
830.764	5902.53
831.09	5907.27
831.417	5809.2
831.743	5936.88
832.069	5904.11
832.395	5912.7
832.722	5872.7
833.048	5815.07
833.374	5876.31
833.7	5841.29
834.026	5822.53
834.351	5855.3
834.677	5887.61
835.003	5792.93
835.329	5829.54
835.654	5844
835.98	5785.24
836.306	5805.81
836.631	5795.41
836.956	5820.95
837.282	5834.28
837.607	5740.27
837.932	5780.95
838.258	5791.57
838.583	5746.6
838.908	5687.84
839.233	5738.01
839.558	5736.21
839.883	5660.73
840.208	5672.48
840.533	5682.65
840.858	5662.31
841.182	5668.64
841.507	5609.43
841.832	5620.73
842.156	5617.56
842.481	5563.55
842.805	5558.36
843.13	5568.98
843.454	5576.89
843.778	5583.67
844.103	5507.06
844.427	5550.9
844.751	5560.39
845.075	5507.28
845.399	5511.8
845.723	5439.72
846.047	5478.58
846.371	5426.83
846.695	5391.81
847.019	5419.83
847.343	5393.16
847.666	5363.56
847.99	5313.84
848.313	5344.58
848.637	5262.09
848.96	5286.95
849.284	5267.97
849.607	5219.38
849.931	5222.32
850.254	5170.57
850.577	5158.37
850.9	5153.62
851.223	5076.34
851.546	5081.53
851.869	5051.25
852.192	5077.47
852.515	5110.46
852.838	5041.53
853.161	5031.36
853.483	5011.25
853.806	4958.37
854.129	5004.02
854.451	4983.91
854.774	4977.13
855.096	4952.72
855.419	4948.66
855.741	4905.27
856.063	4900.29
856.385	4863.69
856.708	4820.3
857.03	4821.88
857.352	4842.44
857.674	4762.22
857.996	4811.94
858.318	4777.81
858.64	4769
858.961	4772.39
859.283	4738.94
859.605	4777.13
859.926	4737.14
860.248	4766.74
860.57	4741.65
860.891	4716.57
861.212	4701.88
861.534	4671.6
861.855	4651.71
862.176	4683.8
862.498	4655.1
862.819	4664.14
863.14	4683.58
863.461	4614.88
863.782	4642.45
864.103	4649
864.424	4632.51
864.745	4636.8
865.065	4636.57
865.386	4609.46
865.707	4585.05
866.027	4592.05
866.348	4619.85
866.668	4596.8
866.989	4561.55
867.309	4554.09
867.63	4519.74
867.95	4541.43
868.27	4512.96
868.59	4481.1
868.91	4493.53
869.23	4482.45
869.55	4471.83
869.87	4511.15
870.19	4494.43
870.51	4505.95
870.83	4464.37
871.15	4442
871.469	4457.59
871.789	4432.96
872.109	4448.33
872.428	4432.74
872.748	4453.3
873.067	4445.17
873.386	4431.38
873.706	4429.12
874.025	4387.31
874.344	4395.9
874.663	4355.68
874.982	4397.71
875.301	4378.5
875.62	4370.14
875.939	4368.56
876.258	4336.69
876.577	4371.95
876.896	4320.65
877.214	4343.02
877.533	4329.91
877.852	4289.24
878.17	4345.06
878.489	4329.24
878.807	4342.57
879.125	4287.2
879.444	4328.78
879.762	4302.57
880.08	4318.84
880.398	4288.56
880.716	4305.06
881.034	4251.95
881.352	4275.23
881.67	4302.8
881.988	4244.27
882.306	4216.02
882.624	4232.06
882.941	4271.61
883.259	4216.92
883.577	4220.76
883.894	4185.96
884.212	4170.6
884.529	4202.23
884.846	4213.31
885.164	4187.55
885.481	4126.53
885.798	4153.42
886.115	4096.93
886.432	4127.21
886.75	4137.83
887.067	4109.13
887.383	4091.5
887.7	4115.23
888.017	4078.85
888.334	4081.33
888.651	4111.39
888.967	4052.18
889.284	4024.61
889.6	4056.48
889.917	4028.45
890.233	3989.81
890.55	3970.38
890.866	4037.49
891.182	3999.53
891.498	3969.47
891.815	3958.85
892.131	3954.78
892.447	3951.62
892.763	3947.55
893.079	3949.81
893.395	3919.53
893.71	3929.92
894.026	3912.07
894.342	3888.12
894.657	3870.04
894.973	3859.64
895.289	3839.53
895.604	3850.83
895.92	3795.47
896.235	3808.35
896.55	3844.5
896.865	3792.53
897.181	3766.54
897.496	3803.37
897.811	3809.93
898.126	3742.36
898.441	3724.51
898.756	3734.9
899.071	3686.99
899.386	3698.52
899.7	3687.45
900.015	3663.04
900.33	3683.83
900.644	3635.02
900.959	3680.89
901.273	3624.4
901.588	3623.04
901.902	3597.5
902.216	3612.19
902.531	3582.82
902.845	3580.33
903.159	3560.44
903.473	3605.64
903.787	3537.17
904.101	3507.79
904.415	3508.02
904.729	3524.51
905.042	3482.48
905.356	3504.17
905.67	3498.07
905.984	3492.42
906.297	3479.77
906.611	3464.17
906.924	3455.14
907.237	3408.81
907.551	3438.41
907.864	3388.02
908.177	3384.85
908.491	3417.85
908.804	3358.64
909.117	3382.82
909.43	3379.2
909.743	3352.54
910.056	3356.38
910.368	3290.85
910.681	3348.7
910.994	3346.89
911.307	3305.08
911.619	3257.17
911.932	3266.67
912.244	3265.54
912.557	3306.21
912.869	3227.34
913.181	3232.77
913.494	3214.24
913.806	3166.56
914.118	3178.98
914.43	3194.8
914.742	3153.9
915.054	3151.87
915.366	3173.33
915.678	3134.69
915.99	3123.62
916.302	3103.28
916.613	3072.09
916.925	3108.7
917.236	3097.86
917.548	3077.52
917.859	3062.38
918.171	3028.25
918.482	3041.81
918.794	3011.08
919.105	3016.05
919.416	2962.27
919.727	2972.44
920.038	2982.61
920.349	2999.33
920.66	2946
920.971	2959.33
921.282	2948.48
921.593	2905.55
921.903	2901.93
922.214	2874.59
922.525	2947.8
922.835	2868.71
923.146	2841.82
923.456	2833
923.767	2852.21
924.077	2802.95
924.387	2828.71
924.697	2804.08
925.008	2787.58
925.318	2815.6
925.628	2806.34
925.938	2811.08
926.248	2766.34
926.558	2759.79
926.867	2719.34
927.177	2777.19
927.487	2724.53
927.796	2687.47
928.106	2746.23
928.416	2692.44
928.725	2647.47
929.034	2677.53
929.344	2680.69
929.653	2699.67
929.962	2654.48
930.271	2630.75
930.581	2631.88
930.89	2627.59
931.199	2614.71
931.508	2605.67
931.817	2615.38
932.125	2561.15
932.434	2571.09
932.743	2556.18
933.051	2578.77
933.36	2555.27
933.669	2520.02
933.977	2549.4
934.286	2539
934.594	2519.79
934.902	2502.17
935.21	2462.62
935.519	2477.31
935.827	2460.81
936.135	2470.75
936.443	2440.25
936.751	2448.16
937.059	2436.18
937.367	2430.53
937.674	2433.92
937.982	2402.73
938.29	2399.8
938.597	2430.98
938.905	2391.89
939.213	2371.1
939.52	2386.24
939.827	2374.49
940.135	2346.92
940.442	2312.57
940.749	2349.63
941.056	2320.7
941.363	2325.9
941.67	2292
941.977	2292.23
942.284	2284.54
942.591	2269.4
942.898	2281.83
943.205	2278.67
943.511	2230.31
943.818	2285.22
944.125	2247.71
944.431	2244.09
944.738	2232.12
945.044	2214.49
945.35	2208.84
945.657	2195.06
945.963	2196.64
946.269	2184.21
946.575	2139.24
946.881	2178.11
947.187	2151.67
947.493	2179.24
947.799	2162.97
948.105	2137.43
948.41	2141.05
948.716	2156.19
949.022	2142.4
949.327	2081.61
949.633	2114.15
949.938	2127.26
950.244	2086.36
950.549	2048.39
950.854	2059.69
951.16	2056.53
951.465	2053.82
951.77	2052.01
952.075	2062.18
952.38	2035.51
952.685	2005.46
952.99	2013.14
953.294	2010.43
953.599	1991.22
953.904	1996.64
954.209	1997.77
954.513	1978.34
954.818	1993.25
955.122	1937.66
955.426	1965.91
955.731	1984.89
956.035	1972.01
956.339	1969.52
956.643	1943.54
956.948	1928.62
957.252	1948.96
957.556	1923.2
957.86	1901.28
958.163	1933.82
958.467	1918.45
958.771	1911.9
959.075	1900.15
959.378	1870.09
959.682	1906.93
959.985	1856.76
960.289	1859.92
960.592	1875.29
960.896	1840.71
961.199	1839.13
961.502	1839.13
961.805	1803.65
962.108	1804.78
962.411	1816.53
962.714	1795.97
963.017	1783.31
963.32	1802.52
963.623	1759.81
963.926	1775.41
964.228	1755.29
964.531	1754.61
964.833	1761.85
965.136	1733.37
965.438	1774.5
965.741	1741.06
966.043	1739.93
966.345	1729.98
966.648	1717.33
966.95	1712.58
967.252	1694.73
967.554	1729.3
967.856	1704.67
968.158	1679.36
968.46	1689.76
968.761	1685.24
969.063	1698.8
969.365	1647.73
969.666	1658.8
969.968	1644.56
970.269	1652.7
970.571	1632.13
970.872	1614.05
971.174	1637.56
971.475	1634.17
971.776	1629.87
972.077	1626.48
972.378	1607.95
972.679	1589.65
972.98	1597.78
973.281	1615.41
973.582	1588.74
973.883	1566.37
974.183	1572.02
974.484	1560.27
974.785	1612.02
975.085	1569.76
975.386	1550.1
975.686	1543.32
975.986	1551
976.287	1559.82
976.587	1554.62
976.887	1525.24
977.187	1514.4
977.487	1540.38
977.787	1500.61
978.087	1505.58
978.387	1526.15
978.687	1541.74
978.987	1504
979.286	1485.92
979.586	1454.51
979.885	1474.4
980.185	1477.79
980.484	1464.9
980.784	1480.95
981.083	1440.72
981.382	1441.63
981.682	1435.3
981.981	1433.27
982.28	1421.29
982.579	1420.61
982.878	1431.01
983.177	1422.65
983.475	1424.91
983.774	1412.03
984.073	1407.05
984.372	1376.77
984.67	1404.34
984.969	1388.97
985.267	1360.27
985.566	1370.9
985.864	1363.89
986.162	1363.89
986.461	1348.75
986.759	1381.97
987.057	1329.54
987.355	1338.81
987.653	1326.83
987.951	1326.15
988.249	1320.5
988.547	1322.99
988.844	1328.19
989.142	1297.23
989.44	1301.52
989.737	1325.47
990.035	1282.76
990.332	1288.86
990.63	1301.75
990.927	1283.21
991.224	1291.58
991.521	1264.91
991.819	1264.23
992.116	1269.88
992.413	1275.98
992.71	1268.98
993.006	1275.76
993.303	1241.41
993.6	1249.54
993.897	1254.06
994.193	1235.53
994.49	1219.94
994.787	1214.52
995.083	1233.05
995.379	1207.28
995.676	1230.79
995.972	1213.16
996.268	1221.97
996.565	1224.23
996.861	1182.65
997.157	1179.26
997.453	1189.88
997.749	1198.02
998.044	1165.25
998.34	1182.2
998.636	1161.86
998.932	1148.98
999.227	1161.64
999.523	1142.43
999.818	1134.52
1000.114	1138.81
1000.409	1128.87
1000.704	1131.58
1001	1118.7
1001.295	1115.08
1001.59	1117.8
1001.885	1124.8
1002.18	1112.15
1002.475	1112.15
1002.77	1095.65
1003.065	1103.33
1003.359	1106.5
1003.654	1107.85
1003.949	1063.33
1004.243	1065.14
1004.538	1058.81
1004.832	1064.69
1005.127	1057.01
1005.421	1072.82
1005.715	1078.02
1006.009	1061.07
1006.304	1039.83
1006.598	1012.49
1006.892	1015.43
1007.186	1047.29
1007.48	1030.11
1007.773	999.83
1008.067	1015.2
1008.361	1011.58
1008.655	997.57
1008.948	981.3
1009.242	989.89
1009.535	982.21
1009.829	993.5
1010.122	996.89
1010.415	966.84
1010.708	961.42
1011.001	959.16
1011.295	958.48
1011.588	955.77
1011.881	958.93
1012.173	959.16
1012.466	955.31
1012.759	945.37
1013.052	943.56
1013.344	927.29
1013.637	929.78
1013.93	918.25
1014.222	926.16
1014.514	904.24
1014.807	907.41
1015.099	925.03
1015.391	897.01
1015.683	897.91
1015.976	902.43
1016.268	903.79
1016.56	860.18
1016.851	886.62
1017.143	854.98
1017.435	880.06
1017.727	869.21
1018.018	898.14
1018.31	839.84
1018.602	844.81
1018.893	850.46
1019.185	830.57
1019.476	819.05
1019.767	857.24
1020.058	835.32
1020.35	840.06
1020.641	801.87
1020.932	829.89
1021.223	840.06
1021.514	825.83
1021.804	826.5
1022.095	842.32
1022.386	807.07
1022.677	798.03
1022.967	800.97
1023.258	789.44
1023.548	780.4
1023.839	796.67
1024.129	788.76
1024.419	783.79
1024.709	786.28
1025	756.45
1025.29	761.65
1025.58	758.03
1025.87	732.49
1026.16	775.88
1026.449	744.47
1026.739	741.31
1027.029	739.05
1027.319	737.92
1027.608	744.7
1027.898	718.48
1028.187	721.87
1028.477	718.94
1028.766	720.07
1029.055	733.4
1029.344	700.18
1029.634	727.52
1029.923	700.86
1030.212	694.3
1030.501	676.68
1030.79	661.76
1031.078	699.5
1031.367	675.77
1031.656	685.94
1031.945	673.06
1032.233	674.64
1032.522	678.48
1032.81	693.17
1033.099	660.41
1033.387	664.02
1033.675	666.28
1033.963	643.23
1034.251	686.62
1034.54	647.75
1034.828	651.59
1035.116	643.23
1035.403	644.14
1035.691	648.66
1035.979	654.53
1036.267	632.61
1036.554	653.85
1036.842	616.11
1037.129	608.88
1037.417	645.04
1037.704	604.14
1037.992	614.31
1038.279	612.05
1038.566	626.96
1038.853	626.96
1039.14	626.96
