Data from tablewood_brown_FLMS001491_020.txt Node
Date: Tue Feb 07 11:10:06 GMT 2017
User: dcchb
Spectrometer: FLMS00149
Trigger mode: 0
Integration Time (sec): 2.000000E-2
Scans to average: 10
Electric dark correction enabled: true
Nonlinearity correction enabled: false
Boxcar width: 0
XAxis mode: Wavelengths
Number of Pixels in Spectrum: 2048
>>>>>Begin Spectral Data<<<<<
341.393	-8.67
341.776	-8.67
342.16	-8.67
342.543	-66.07
342.927	-73.08
343.31	-54.09
343.693	-73.08
344.077	-48.9
344.46	-70.59
344.843	-46.19
345.226	-22.46
345.61	-32.85
345.993	-27.43
346.376	-7.09
346.759	7.82
347.142	43.76
347.525	45.11
347.908	46.02
348.291	75.39
348.674	69.07
349.057	95.51
349.44	117.88
349.823	126.69
350.206	167.59
350.588	200.14
350.971	225.9
351.354	234.94
351.737	228.61
352.119	243.75
352.502	279.46
352.884	260.93
353.267	284.88
353.65	281.26
354.032	308.83
354.414	312.45
354.797	308.61
355.179	309.96
355.562	334.14
355.944	344.54
356.326	332.79
356.709	323.52
357.091	347.93
357.473	346.35
357.855	347.48
358.238	349.06
358.62	350.41
359.002	345.22
359.384	324.2
359.766	359.23
360.148	336.63
360.53	351.32
360.912	361.71
361.294	336.4
361.676	351.09
362.057	334.82
362.439	322.62
362.821	326.23
363.203	342.28
363.584	344.09
363.966	343.86
364.348	324.2
364.729	338.66
365.111	335.95
365.493	337.31
365.874	323.52
366.256	324.43
366.637	353.58
367.019	320.36
367.4	318.55
367.781	338.44
368.163	327.82
368.544	321.71
368.925	345.67
369.306	328.72
369.688	321.49
370.069	307.93
370.45	337.31
370.831	332.79
371.212	338.89
371.593	330.53
371.974	320.13
372.355	350.19
372.736	337.53
373.117	326.69
373.498	320.58
373.879	341.6
374.26	332.79
374.641	329.17
375.021	323.97
375.402	345.22
375.783	358.78
376.163	358.55
376.544	348.15
376.925	360.13
377.305	337.08
377.686	347.93
378.066	352.22
378.447	351.32
378.827	352.45
379.208	358.32
379.588	355.39
379.968	365.1
380.349	370.08
380.729	378.21
381.109	385.22
381.489	384.76
381.87	376.18
382.25	368.72
382.63	377.53
383.01	403.07
383.39	376.4
383.77	371.2
384.15	378.44
384.53	392
384.91	384.31
385.29	375.05
385.67	377.08
386.049	384.31
386.429	408.27
386.809	407.81
387.189	402.16
387.568	383.41
387.948	394.03
388.328	409.4
388.707	415.72
389.087	411.43
389.466	424.08
389.846	407.36
390.225	429.06
390.605	431.77
390.984	438.32
391.363	437.19
391.743	424.76
392.122	433.35
392.501	439.9
392.881	419.57
393.26	463.18
393.639	429.96
394.018	462.28
394.397	480.35
394.776	447.14
395.155	463.18
395.534	461.15
395.913	456.85
396.292	497.76
396.671	469.51
397.05	474.71
397.429	472.9
397.808	478.32
398.186	473.35
398.565	488.49
398.944	473.58
399.323	498.21
399.701	502.5
400.08	496.85
400.458	495.27
400.837	528.26
401.215	509.96
401.594	519.22
401.972	518.32
402.351	521.71
402.729	541.82
403.107	519.68
403.486	549.96
403.864	527.58
404.242	537.08
404.62	548.83
404.999	530.75
405.377	546.57
405.755	568.04
406.133	549.73
406.511	555.83
406.889	570.07
407.267	573.23
407.645	585.66
408.023	594.25
408.401	596.28
408.779	584.98
409.156	585.21
409.534	605.1
409.912	610.97
410.29	608.26
410.667	620.46
411.045	614.59
411.422	647.13
411.8	626.11
412.178	642.38
412.555	665.43
412.933	660.91
413.31	638.54
413.687	673.8
414.065	696.62
414.442	699.11
414.819	678.54
415.197	690.74
415.574	669.28
415.951	707.24
416.328	696.62
416.705	699.11
417.082	698.43
417.46	716.28
417.837	716.96
418.214	743.17
418.591	717.18
418.967	696.85
419.344	733.91
419.721	749.27
420.098	738.65
420.475	753.57
420.852	755.38
421.228	765.54
421.605	774.36
421.982	797.41
422.358	784.08
422.735	772.32
423.111	805.54
423.488	785.88
423.864	809.39
424.241	814.58
424.617	798.99
424.994	806.67
425.37	817.29
425.746	845.32
426.123	835.83
426.499	833.79
426.875	864.07
427.251	865.66
427.627	906.78
428.003	898.87
428.379	874.69
428.756	876.05
429.132	899.1
429.507	903.17
429.883	929.16
430.259	937.29
430.635	961.7
431.011	939.33
431.387	958.99
431.763	977.97
432.138	991.53
432.514	1005.54
432.89	1020
433.265	1007.35
433.641	1020
434.016	1041.02
434.392	1062.26
434.767	1071.75
435.143	1078.53
435.518	1089.6
435.894	1068.14
436.269	1121.24
436.644	1113.56
437.02	1128.47
437.395	1139.55
437.77	1132.54
438.145	1119.21
438.52	1161.24
438.895	1179.77
439.271	1205.53
439.646	1208.92
440.021	1193.1
440.395	1229.04
440.77	1194.91
441.145	1227
441.52	1236.94
441.895	1218.87
442.27	1240.33
442.645	1244.4
443.019	1267.9
443.394	1245.53
443.769	1264.74
444.143	1274.01
444.518	1290.5
444.892	1297.96
445.267	1275.59
445.641	1303.16
446.016	1311.52
446.39	1339.32
446.764	1322.37
447.139	1352.42
447.513	1368.47
447.887	1351.52
448.262	1376.38
448.636	1359.43
449.01	1387.45
449.384	1408.69
449.758	1366.88
450.132	1424.51
450.506	1401.69
450.88	1427.9
451.254	1422.93
451.628	1458.63
452.002	1457.96
452.376	1482.14
452.75	1483.49
453.123	1471.74
453.497	1511.06
453.871	1542.93
454.244	1568.24
454.618	1565.98
454.992	1564.39
455.365	1608.23
455.739	1630.83
456.112	1637.61
456.486	1651.4
456.859	1651.85
457.232	1698.18
457.606	1683.26
457.979	1708.57
458.352	1741.34
458.725	1755.58
459.099	1755.8
459.472	1808.91
459.845	1803.26
460.218	1823.37
460.591	1838.51
460.964	1846.65
461.337	1888.45
461.71	1937.49
462.083	1923.25
462.456	1933.2
462.829	1947.21
463.201	2000.54
463.574	2016.81
463.947	2034.44
464.32	2064.04
464.692	2081.89
465.065	2086.87
465.438	2126.41
465.81	2140.2
466.183	2174.55
466.555	2209.8
466.928	2247.54
467.3	2240.99
467.672	2269.01
468.045	2337.25
468.417	2331.38
468.789	2371.6
469.161	2402.11
469.534	2415.67
469.906	2480.3
470.278	2548.32
470.65	2549.9
471.022	2603.91
471.394	2666.96
471.766	2641.65
472.138	2700.41
472.51	2783.34
472.882	2783.57
473.253	2854.98
473.625	2911.03
473.997	2989.22
474.369	2982.89
474.74	3030.57
475.112	3112.83
475.484	3159.61
475.855	3203.45
476.227	3215.42
476.598	3339.94
476.97	3377.45
477.341	3429.2
477.713	3511.01
478.084	3497.9
478.455	3622.64
478.827	3684.34
479.198	3775.86
479.569	3821.06
479.94	3932.92
480.311	3982.86
480.682	4061.05
481.053	4160.26
481.424	4245.23
481.795	4271.22
482.166	4359.12
482.537	4396.18
482.908	4569.51
483.279	4584.88
483.65	4636.18
484.021	4740.36
484.391	4808.83
484.762	4834.14
485.133	4901.03
485.503	4989.61
485.874	5105.09
486.244	5162.94
486.615	5254.92
486.985	5330.17
487.356	5440.22
487.726	5509.83
488.097	5605.64
488.467	5619.65
488.837	5739.88
489.207	5766.54
489.578	5911.4
489.948	5914.79
490.318	6034.11
490.688	6063.03
491.058	6160.66
491.428	6261.22
491.798	6287.21
492.168	6453.08
492.538	6438.84
492.908	6543.47
493.278	6611.04
493.648	6608.1
494.017	6743.47
494.387	6807.19
494.757	6804.71
495.126	6910.92
495.496	6954.99
495.866	6990.92
496.235	7082.44
496.605	7150.46
496.974	7175.32
497.344	7291.93
497.713	7406.95
498.082	7331.25
498.452	7413.51
498.821	7546.61
499.19	7558.13
499.559	7673.16
499.928	7646.27
500.298	7688.3
500.667	7769.2
501.036	7786.38
501.405	7923.1
501.774	7882.42
502.143	7995.86
502.512	8031.79
502.88	8106.37
503.249	8111.11
503.618	8268.62
503.987	8241.05
504.356	8344.33
504.724	8376.42
505.093	8365.8
505.462	8538.22
505.83	8563.53
506.199	8595.85
506.567	8708.39
506.936	8760.36
507.304	8819.57
507.672	8908.38
508.041	8924.65
508.409	8948.38
508.777	9058.89
509.145	9132.33
509.514	9235.6
509.882	9265.89
510.25	9271.31
510.618	9352.66
510.986	9373
511.354	9482.15
511.722	9591.98
512.09	9660.68
512.458	9700.9
512.826	9760.79
513.193	9862.25
513.561	9917.85
513.929	10023.15
514.297	10138.86
514.664	10139.99
515.032	10253.88
515.4	10342.69
515.767	10397.61
516.135	10469.92
516.502	10433.54
516.869	10633.76
517.237	10621.33
517.604	10700.88
517.972	10830.82
518.339	10912.4
518.706	10969.57
519.073	10962.79
519.44	11030.36
519.808	11235.55
520.175	11186.74
520.542	11337.92
520.909	11480.07
521.276	11491.59
521.643	11685.03
522.009	11753.96
522.376	11845.03
522.743	11854.74
523.11	12039.6
523.477	12058.81
523.843	12259.03
524.21	12386.03
524.577	12469.64
524.943	12577.89
525.31	12591.22
525.676	12812.46
526.043	12920.25
526.409	12902.17
526.776	12998.22
527.142	13018.33
527.508	13235.27
527.874	13322.73
528.241	13380.13
528.607	13409.96
528.973	13583.74
529.339	13620.57
529.705	13791.64
530.071	13791.19
530.437	13922.26
530.803	13951.41
531.169	14084.52
531.535	14066.44
531.901	14193.67
532.267	14325.64
532.632	14331.74
532.998	14397.05
533.364	14535.58
533.73	14524.05
534.095	14682.69
534.461	14769.7
534.826	14785.52
535.192	14901.67
535.557	14993.42
535.923	14922.01
536.288	15083.13
536.653	15198.39
537.019	15107.99
537.384	15129.91
537.749	15337.59
538.114	15324.71
538.479	15262.11
538.845	15369.68
539.21	15449.9
539.575	15490.13
539.94	15656.45
540.305	15722.67
540.67	15716.11
541.034	15750.46
541.399	15842.44
541.764	15854.64
542.129	15930.8
542.494	15926.28
542.858	16009.21
543.223	16067.52
543.587	16144.12
543.952	16136.44
544.316	16259.6
544.681	16204.46
545.045	16403.78
545.41	16496.43
545.774	16486.71
546.138	16533.94
546.503	16607.16
546.867	16648.52
547.231	16809.42
547.595	16828.17
547.959	16864.33
548.324	16891.45
548.688	17005.12
549.052	17128.5
549.416	17140.26
549.779	17177.99
550.143	17326.47
550.507	17417.99
550.871	17535.73
551.235	17530.08
551.599	17624.31
551.962	17734.82
552.326	17742.27
552.689	17998.31
553.053	17917.86
553.417	18043.28
553.78	18255.03
554.143	18162.15
554.507	18380.9
554.87	18391.75
555.234	18649.14
555.597	18629.93
555.96	18686.2
556.323	18886.88
556.686	18868.8
557.05	19036.93
557.413	19198.28
557.776	19265.17
558.139	19421.78
558.502	19464.04
558.865	19630.81
559.228	19825.61
559.59	19830.13
559.953	20080.07
560.316	20256.33
560.679	20318.7
561.041	20551.69
561.404	20565.25
561.767	20769.54
562.129	20826.71
562.492	21152.81
562.854	21174.27
563.217	21203.2
563.579	21224.67
563.941	21566.13
564.304	21663.07
564.666	21829.17
565.028	21993.91
565.39	21974.48
565.753	22180.57
566.115	22439.33
566.477	22483.39
566.839	22669.15
567.201	22825.76
567.563	22959.76
567.925	23216.03
568.287	23385.06
568.648	23430.26
569.01	23590.03
569.372	23841.77
569.734	23917.7
570.095	24091.71
570.457	24231.14
570.819	24531.93
571.18	24554.3
571.542	24843.1
571.903	24845.36
572.265	25094.17
572.626	25276.31
572.987	25404.22
573.349	25559.92
573.71	25724.66
574.071	25929.4
574.432	26062.05
574.794	26274.48
575.155	26370.3
575.516	26435.83
575.877	26590.85
576.238	26621.81
576.599	26728.7
576.96	26906.55
577.32	27184.06
577.681	27193.55
578.042	27371.4
578.403	27437.61
578.763	27587.44
579.124	27704.27
579.485	27849.58
579.845	28053.64
580.206	28102.45
580.566	28062.68
580.927	28188.78
581.287	28452.73
581.648	28325.5
582.008	28500.41
582.368	28528.43
582.728	28682.78
583.089	28760.97
583.449	28781.08
583.809	28926.61
584.169	28959.38
584.529	29029.66
584.889	29365.7
585.249	29232.14
585.609	29240.95
585.969	29533.38
586.329	29304.91
586.688	29442.08
587.048	29389.2
587.408	29475.98
587.768	29376.54
588.127	29458.12
588.487	29587.61
588.846	29811.56
589.206	29563.88
589.565	29599.36
589.925	29961.39
590.284	29838.45
590.643	29821.28
591.003	29839.81
591.362	29888.85
591.721	29909.86
592.08	30046.58
592.44	30118.45
592.799	30085.68
593.158	30134.94
593.517	30157.99
593.876	30214.26
594.235	30193.47
594.593	30170.42
594.952	30246.35
595.311	30202.74
595.67	30319.12
596.029	30327.03
596.387	30423.52
596.746	30531.77
597.104	30267.59
597.463	30361.15
597.822	30437.76
598.18	30428.72
598.538	30346.24
598.897	30630.52
599.255	30502.39
599.613	30825.77
599.972	30537.19
600.33	30492.22
600.688	30557.76
601.046	30722.05
601.404	30774.47
601.762	30670.52
602.12	31017.18
602.478	30861.7
602.836	30964.07
603.194	30803.85
603.552	31014.69
603.91	30833.68
604.268	31096.72
604.625	30865.32
604.983	31032.55
605.341	30819.9
605.698	30954.13
606.056	31114.8
606.413	31068.48
606.771	31164.97
607.128	31164.75
607.485	31063.96
607.843	31060.57
608.2	31239.09
608.557	31267.34
608.914	31240.22
609.272	31453.78
609.629	31451.07
609.986	31461.69
610.343	31419.65
610.7	31597.95
611.057	31479.31
611.414	31524.74
611.771	31542.36
612.127	31655.58
612.484	31580.33
612.841	31806.99
613.198	31551.85
613.554	31763.37
613.911	31763.15
614.267	31854.44
614.624	31819.42
614.98	31966.31
615.337	32021.22
615.693	32019.41
616.05	32002.92
616.406	32203.81
616.762	32062.12
617.118	32092.63
617.475	32115.91
617.831	32225.51
618.187	32195
618.543	32263.47
618.899	32362.91
619.255	32364.49
619.611	32197.03
619.967	32276.13
620.323	32432.51
620.678	32298.95
621.034	32229.8
621.39	32344.83
621.746	32201.55
622.101	32656.01
622.457	32400.87
622.812	32522.22
623.168	32549.57
623.523	32442.23
623.879	32618.72
624.234	32367.43
624.589	32476.58
624.945	32521.77
625.3	32618.94
625.655	32556.12
626.01	32613.07
626.365	32622.56
626.72	32445.62
627.075	32495.33
627.43	32455.11
627.785	32379.63
628.14	32395.67
628.495	32566.97
628.85	32481.55
629.205	32362.91
629.559	32412.4
629.914	32242.23
630.269	32345.73
630.623	32236.13
630.978	32152.97
631.332	32318.39
631.687	32337.82
632.041	32167.21
632.396	32202.91
632.75	32100.54
633.104	32229.35
633.459	32178.05
633.813	32081.33
634.167	32049.24
634.521	32080.65
634.875	32103.7
635.229	32044.95
635.583	31801.56
635.937	31790.49
636.291	31785.07
636.645	31748.91
636.999	31766.09
637.352	31795.24
637.706	31635.92
638.06	31718.86
638.413	31556.6
638.767	31620.55
639.121	31719.08
639.474	31472.99
639.828	31551.85
640.181	31544.17
640.534	31617.61
640.888	31393.67
641.241	31153.45
641.594	31302.82
641.947	31453.78
642.301	31308.7
642.654	31351.63
643.007	31474.12
643.36	31245.87
643.713	31345.08
644.066	31338.75
644.419	31113
644.771	30931.98
645.124	30714.36
645.477	30663.06
645.83	30325.67
646.182	30293.36
646.535	30253.58
646.888	30245.67
647.24	30221.49
647.593	30429.85
647.945	30234.15
648.298	30206.58
648.65	30073.7
649.002	30125.9
649.355	30088.39
649.707	30183.08
650.059	30229.4
650.411	30575.83
650.763	30529.28
651.115	30954.13
651.467	30826
651.819	30909.16
652.171	30845.66
652.523	30686.11
652.875	30682.72
653.227	30583.29
653.578	30663.74
653.93	30707.13
654.282	30591.2
654.633	30590.75
654.985	30596.17
655.337	30561.37
655.688	30625.78
656.039	30669.39
656.391	30485.89
656.742	30458.55
657.094	30712.55
657.445	30729.05
657.796	30565.89
658.147	30589.17
658.498	30569.05
658.849	30543.07
659.2	30557.53
659.551	30462.17
659.902	30584.87
660.253	30520.02
660.604	30547.36
660.955	30429.17
661.306	30637.98
661.656	30570.41
662.007	30499.68
662.358	30448.15
662.708	30370.87
663.059	30459.68
663.409	30309.85
663.76	30503.07
664.11	30472.33
664.461	30436.18
664.811	30549.39
665.161	30528.83
665.511	30322.96
665.862	30231.44
666.212	30454.71
666.562	30487.02
666.912	30469.62
667.262	30385.78
667.612	30423.3
667.962	30442.96
668.312	30355.05
668.662	30515.95
669.011	30282.06
669.361	30293.36
669.711	30331.77
670.06	30283.41
670.41	30212.23
670.76	30200.03
671.109	30251.32
671.459	30257.88
671.808	30141.95
672.157	30296.29
672.507	29912.58
672.856	30028.5
673.205	30090.65
673.554	30226.69
673.904	30070.54
674.253	30141.5
674.602	30104.89
674.951	29594.39
675.3	29416.99
675.649	30047.94
675.998	29908.28
676.346	30004.1
676.695	30153.25
677.044	29808.62
677.393	29872.8
677.741	29931.33
678.09	29894.5
678.438	29742.18
678.787	29750.09
679.135	29639.81
679.484	29515.3
679.832	29606.59
680.181	29459.93
680.529	29491.57
680.877	29545.35
681.225	29302.2
681.573	29513.26
681.922	29303.33
682.27	29243.21
682.618	29233.72
682.966	29213.16
683.314	29365.47
683.661	29072.37
684.009	28974.97
684.357	28943.79
684.705	28859.5
685.053	28881.19
685.4	28964.13
685.748	28690.69
686.095	28621.08
686.443	28478.71
686.79	28506.06
687.138	28582.67
687.485	28459.51
687.832	28396
688.18	28447.75
688.527	28338.38
688.874	28275.78
689.221	28119.85
689.568	28069.46
689.915	27989.01
690.262	27974.09
690.609	27926.64
690.956	27834.44
691.303	27788.11
691.65	27624.95
691.997	27666.53
692.344	27473.54
692.69	27477.38
693.037	27429.25
693.383	27154.68
693.73	27281.23
694.077	27014.35
694.423	26989.26
694.769	26959.66
695.116	26926.89
695.462	26831.98
695.808	26648.48
696.155	26721.92
696.501	26613
696.847	26488.48
697.193	26264.54
697.539	26437.86
697.885	26220.92
698.231	26047.14
698.577	26140.7
698.923	26065.9
699.269	25923.53
699.614	25793.81
699.96	25823.42
700.306	25605.8
700.651	25540.03
700.997	25429.98
701.342	25487.15
701.688	25361.51
702.033	25309.53
702.379	25307.95
702.724	25051.69
703.069	25176.2
703.415	24787.74
703.76	24768.76
704.105	24792.26
704.45	24795.2
704.795	24514.98
705.14	24566.27
705.485	24491.02
705.83	24467.97
706.175	24521.08
706.52	24336
706.865	24178.04
707.209	24244.48
707.554	24181.65
707.899	24296.23
708.243	24033.86
708.588	23949.34
708.932	23884.71
709.277	23816.69
709.621	23773.08
709.966	23670.48
710.31	23700.31
710.654	23497.6
710.998	23597.49
711.342	23587.09
711.687	23460.77
712.031	23325.18
712.375	23272.75
712.719	23335.8
713.063	23259.87
713.407	23275.24
713.75	23074.11
714.094	23233.2
714.438	23042.7
714.782	23114.34
715.125	22976.26
715.469	22945.98
715.812	22810.16
716.156	22680
716.499	22712.31
716.843	22882.7
717.186	22676.38
717.53	22751.86
717.873	22699.21
718.216	22695.14
718.559	22635.03
718.902	22389.16
719.246	22531.98
719.589	22453.79
719.932	22344.41
720.275	22392.32
720.617	22348.93
720.96	22339.89
721.303	22282.27
721.646	22325.2
721.989	22254.02
722.331	22328.37
722.674	22189.84
723.016	22211.31
723.359	22250.18
723.701	22381.93
724.044	22138.54
724.386	22075.94
724.729	22102.84
725.071	22143.29
725.413	22159.78
725.755	22180.8
726.097	21995.04
726.439	22086.57
726.782	21911.66
727.124	22017.87
727.465	21837.08
727.807	21878.66
728.149	21936.06
728.491	21881.83
728.833	21760.47
729.175	21834.14
729.516	21793.69
729.858	21733.58
730.199	21835.95
730.541	21887.48
730.882	21794.14
731.224	21894.48
731.565	21699.23
731.906	21785.33
732.248	21809.74
732.589	21699.91
732.93	21723.41
733.271	21777.65
733.612	21728.61
733.953	21722.28
734.294	21674.15
734.635	21703.98
734.976	21728.61
735.317	21649.97
735.658	21605.67
735.999	21640.93
736.339	21613.13
736.68	21632.57
737.021	21617.43
737.361	21467.15
737.702	21608.39
738.042	21564.32
738.383	21575.39
738.723	21694.94
739.063	21582.85
739.404	21616.3
739.744	21547.15
740.084	21487.94
740.424	21583.08
740.764	21580.36
741.104	21731.1
741.444	21603.19
741.784	21534.72
742.124	21639.8
742.464	21561.38
742.804	21553.92
743.143	21509.18
743.483	21605.22
743.823	21435.96
744.162	21472.12
744.502	21521.61
744.841	21473.7
745.181	21544.43
745.52	21552.57
745.86	21458.56
746.199	21504.66
746.538	21431.22
746.877	21513.25
747.216	21593.02
747.556	21470.09
747.895	21546.69
748.234	21548.95
748.573	21546.02
748.911	21483.87
749.25	21422.63
749.589	21459.24
749.928	21373.59
750.267	21407.94
750.605	21482.29
750.944	21336.3
751.283	21271.67
751.621	21447.94
751.96	21266.7
752.298	21382.18
752.636	21365.23
752.975	21224.89
753.313	21240.26
753.651	21366.59
753.989	21145.8
754.327	21136.53
754.666	21121.85
755.004	21102.64
755.342	21193.48
755.679	21125.91
756.017	21020.38
756.355	21064.22
756.693	20962.3
757.031	21009.53
757.368	20941.29
757.706	20961.4
758.044	20844.11
758.381	20865.13
758.719	20697.45
759.056	20802.98
759.394	20743.32
759.731	20516.66
760.068	20526.38
760.405	20500.85
760.743	20431.47
761.08	20480.73
761.417	20367.74
761.754	20438.93
762.091	20395.54
762.428	20282.55
762.765	20164.36
763.102	20243.45
763.438	19994.87
763.775	20036.45
764.112	20084.36
764.449	20031.48
764.785	20034.64
765.122	19916.23
765.458	19872.39
765.795	19835.55
766.131	19706.52
766.467	19662.68
766.804	19587.87
767.14	19500.87
767.476	19531.61
767.812	19412.51
768.148	19403.02
768.485	19229.69
768.821	19136.36
769.157	19153.99
769.492	19114.67
769.828	19051.84
770.164	18981.79
770.5	18890.49
770.836	18887.78
771.171	18826.09
771.507	18803.49
771.842	18573.44
772.178	18638.97
772.513	18645.3
772.849	18555.81
773.184	18450.73
773.519	18445.98
773.855	18331.18
774.19	18251.64
774.525	18186.1
774.86	18165.31
775.195	18201.02
775.53	17988.37
775.865	18026.11
776.2	17861.14
776.535	17781.14
776.87	17761.03
777.205	17730.52
777.539	17700.24
777.874	17642.84
778.209	17500.92
778.543	17430.19
778.878	17319.01
779.212	17454.15
779.547	17253.25
779.881	17276.75
780.215	17199.91
780.55	17190.2
780.884	17030.43
781.218	17067.94
781.552	17012.12
781.886	16853.26
782.22	16830.66
782.554	16768.29
782.888	16634.73
783.222	16490.78
783.556	16525.13
783.889	16459.82
784.223	16326.94
784.557	16367.39
784.89	16351.58
785.224	16237
785.557	16126.95
785.891	16199.49
786.224	16099.6
786.558	16106.84
786.891	15904.81
787.224	15886.73
787.557	15837.01
787.891	15807.18
788.224	15721.08
788.557	15700.29
788.89	15654.19
789.223	15618.04
789.556	15543.46
789.888	15542.78
790.221	15415.33
790.554	15304.37
790.887	15316.57
791.219	15292.62
791.552	15160.42
791.884	15109.57
792.217	15100.76
792.549	15090.59
792.882	14941.44
793.214	14889.24
793.546	14889.47
793.879	14830.03
794.211	14754.33
794.543	14889.92
794.875	14748.45
795.207	14789.58
795.539	14605.86
795.871	14670.94
796.203	14557.05
796.535	14404.06
796.867	14425.75
797.198	14436.37
797.53	14362.25
797.862	14252.2
798.193	14226.21
798.525	14240.67
798.856	14214
799.188	14109.83
799.519	14072.54
799.85	13985.76
800.182	14040.68
800.513	13965.2
800.844	13866.22
801.175	13825.77
801.506	13850.62
801.837	13770.4
802.168	13751.64
802.499	13650.63
802.83	13638.2
803.161	13675.71
803.491	13575.38
803.822	13573.12
804.153	13426.23
804.483	13414.7
804.814	13401.82
805.145	13431.43
805.475	13350.98
805.805	13292.22
806.136	13301.94
806.466	13260.81
806.796	13223.97
807.126	13163.86
807.457	13109.63
807.787	13139.68
808.117	13033.47
808.447	12987.82
808.777	12994.15
809.107	12941.04
809.436	12887.71
809.766	12884.77
810.096	12912.34
810.426	12685.23
810.755	12816.53
811.085	12718.22
811.414	12728.17
811.744	12632.58
812.073	12562.75
812.403	12605.46
812.732	12519.81
813.061	12554.39
813.39	12478.46
813.719	12459.93
814.049	12431.23
814.378	12430.55
814.707	12292.25
815.036	12311.23
815.365	12318.46
815.693	12169.76
816.022	12170.44
816.351	12138.13
816.68	12111.46
817.008	12174.96
817.337	12092.03
817.665	12085.02
817.994	12085.47
818.322	12075.76
818.651	11938.13
818.979	11951.24
819.307	12005.02
819.636	11909.88
819.964	11844.35
820.292	11934.29
820.62	11854.52
820.948	11832.6
821.276	11829.43
821.604	11785.37
821.932	11853.61
822.259	11795.54
822.587	11779.04
822.915	11752.83
823.243	11877.8
823.57	11826.95
823.898	11788.98
824.225	11784.46
824.553	11730.68
824.88	11817.68
825.207	11786.27
825.535	11712.15
825.862	11806.61
826.189	11665.6
826.516	11738.14
826.843	11855.2
827.17	11788.31
827.497	11893.61
827.824	11813.62
828.151	11855.87
828.478	11783.11
828.805	11788.08
829.131	11662.66
829.458	11699.49
829.785	11630.34
830.111	11726.61
830.438	11784.01
830.764	11713.05
831.09	11700.4
831.417	11635.54
831.743	11708.99
832.069	11722.32
832.395	11671.92
832.722	11694.97
833.048	11716.9
833.374	11647.52
833.7	11513.96
834.026	11594.86
834.351	11645.48
834.677	11560.29
835.003	11669.66
835.329	11521.65
835.654	11535.66
835.98	11555.54
836.306	11567.29
836.631	11536.34
836.956	11541.31
837.282	11537.01
837.607	11497.92
837.932	11410.69
838.258	11472.16
838.583	11461.53
838.908	11303.57
839.233	11367.98
839.558	11358.03
839.883	11330.69
840.208	11243.46
840.533	11305.38
840.858	11263.57
841.182	11257.47
841.507	11246.85
841.832	11230.58
842.156	11189
842.481	11199.62
842.805	11182.67
843.13	11120.3
843.454	11137.7
843.778	11151.03
844.103	11023.13
844.427	11027.87
844.751	10987.65
845.075	11024.26
845.399	10959.4
845.723	10947.2
846.047	10865.62
846.371	10807.99
846.695	10780.2
847.019	10735.45
847.343	10718.5
847.666	10606.42
847.99	10603.7
848.313	10595.79
848.637	10553.54
848.96	10471.5
849.284	10473.99
849.607	10404.39
849.931	10380.66
850.254	10307.89
850.577	10274
850.9	10181.79
851.223	10215.24
851.546	10173.66
851.869	10114.23
852.192	10206.88
852.515	10005.3
852.838	9987.68
853.161	10006.88
853.483	9871.29
853.806	9905.87
854.129	9860.9
854.451	9842.82
854.774	9800.56
855.096	9718.3
855.419	9725.54
855.741	9667.01
856.063	9723.73
856.385	9691.19
856.708	9643.96
857.03	9563.96
857.352	9561.02
857.674	9581.81
857.996	9474.02
858.318	9443.73
858.64	9533.68
858.961	9429.95
859.283	9423.17
859.605	9310.63
859.926	9347.47
860.248	9418.65
860.57	9289.84
860.891	9313.12
861.212	9236.28
861.534	9225.44
861.855	9205.1
862.176	9228.83
862.498	9179.11
862.819	9180.46
863.14	9121.03
863.461	9139.56
863.782	9100.69
864.103	9148.83
864.424	9051.88
864.745	9141.14
865.065	8986.8
865.386	9030.86
865.707	8967.14
866.027	9061.15
866.348	9046.68
866.668	8983.41
866.989	8933.69
867.309	8889.63
867.63	8897.76
867.95	8874.26
868.27	8849.17
868.59	8907.03
868.91	8843.98
869.23	8835.16
869.55	8789.97
869.87	8886.24
870.19	8820.25
870.51	8786.8
870.83	8780.93
871.15	8721.27
871.469	8718.78
871.789	8742.06
872.109	8693.25
872.428	8646.24
872.748	8742.74
873.067	8719.46
873.386	8648.73
873.706	8619.8
874.025	8579.58
874.344	8561.27
874.663	8568.5
874.982	8620.48
875.301	8562.18
875.62	8587.49
875.939	8481.95
876.258	8492.35
876.577	8498.67
876.896	8500.71
877.214	8474.72
877.533	8536.19
877.852	8440.82
878.17	8440.82
878.489	8454.61
878.807	8431.78
879.125	8438.56
879.444	8415.74
879.762	8375.97
880.08	8324.67
880.398	8367.83
880.716	8354.05
881.034	8299.13
881.352	8356.08
881.67	8271.56
881.988	8273.37
882.306	8293.93
882.624	8248.74
882.941	8201.06
883.259	8135.07
883.577	8195.63
883.894	8164.9
884.212	8147.05
884.529	8130.77
884.846	8107.05
885.164	8073.83
885.481	8057.33
885.798	8089.19
886.115	8028.18
886.432	8060.72
886.75	7994.06
887.067	8023.66
887.383	7934.62
887.7	7978.69
888.017	7885.13
888.334	7907.05
888.651	7866.15
888.967	7905.24
889.284	7866.15
889.6	7864.79
889.917	7700.5
890.233	7736.43
890.55	7722.88
890.866	7769.65
891.182	7757.68
891.498	7724.23
891.815	7644.91
892.131	7630
892.447	7624.8
892.763	7609.43
893.079	7622.77
893.395	7515.42
893.71	7569.21
894.026	7525.59
894.342	7510.68
894.657	7464.58
894.973	7432.26
895.289	7370.57
895.604	7423
895.92	7338.71
896.235	7261.42
896.55	7301.42
896.865	7296.9
897.181	7255.32
897.496	7287.86
897.811	7193.4
898.126	7186.17
898.441	7097.13
898.756	7144.59
899.071	7074.31
899.386	7151.82
899.7	7114.53
900.015	7001.31
900.33	6979.17
900.644	6922.22
900.959	6996.34
901.273	6939.62
901.588	6918.38
901.902	6858.72
902.216	6839.96
902.531	6829.57
902.845	6767.65
903.159	6799.51
903.473	6707.54
903.787	6770.58
904.101	6713.64
904.415	6769
904.729	6694.43
905.042	6644.71
905.356	6651.04
905.67	6605.39
905.984	6619.18
906.297	6577.37
906.611	6549.57
906.924	6530.59
907.237	6523.13
907.551	6460.54
907.864	6469.35
908.177	6437.49
908.491	6396.36
908.804	6389.13
909.117	6309.58
909.43	6284.72
909.743	6211.96
910.056	6286.98
910.368	6241.56
910.681	6216.47
910.994	6171.5
911.307	6198.62
911.619	6108.91
911.932	6089.92
912.244	6109.13
912.557	6079.3
912.869	6056.48
913.181	5973.09
913.494	6010.83
913.806	5951.85
914.118	5971.28
914.43	5926.99
914.742	5914.56
915.054	5874.79
915.366	5908.01
915.678	5857.16
915.99	5805.86
916.302	5735.81
916.613	5748.92
916.925	5740.33
917.236	5730.16
917.548	5695.58
917.859	5714.34
918.171	5604.74
918.482	5611.52
918.794	5581.92
919.105	5564.06
919.416	5528.58
919.727	5537.4
920.038	5520.22
920.349	5496.95
920.66	5425.08
920.971	5419.43
921.282	5421.92
921.593	5452.2
921.903	5379.43
922.214	5366.1
922.525	5348.48
922.835	5293.56
923.146	5289.72
923.456	5276.39
923.767	5197.52
924.077	5255.14
924.387	5222.83
924.697	5139.44
925.008	5138.09
925.318	5178.08
925.628	5108.93
925.938	5126.56
926.248	5090.63
926.558	5052.21
926.867	5013.12
927.177	4985.09
927.487	4993.91
927.796	4946.23
928.106	4989.61
928.416	4915.49
928.725	4937.86
929.034	4891.76
929.344	4910.29
929.653	4853.12
929.962	4746.01
930.271	4805.89
930.581	4813.57
930.89	4818.09
931.199	4724.54
931.508	4736.29
931.817	4733.8
932.125	4675.5
932.434	4668.95
932.743	4636.4
933.051	4617.42
933.36	4610.19
933.669	4573.35
933.977	4578.1
934.286	4570.64
934.594	4501.04
934.902	4467.59
935.21	4510.31
935.519	4464.66
935.827	4481.83
936.135	4442.06
936.443	4417.2
936.751	4396.86
937.059	4389.86
937.367	4327.26
937.674	4371.1
937.982	4317.09
938.29	4332
938.597	4313.25
938.905	4263.53
939.213	4271.44
939.52	4225.11
939.827	4270.31
940.135	4200.93
940.442	4184.89
940.749	4158.9
941.056	4183.99
941.363	4126.81
941.67	4131.11
941.977	4088.17
942.284	4096.3
942.591	4085.01
942.898	4004.33
943.205	4002.07
943.511	3984.9
943.818	3999.13
944.125	3955.97
944.431	3939.25
944.738	3927.5
945.044	3941.73
945.35	3920.72
945.657	3921.85
945.963	3856.09
946.269	3880.04
946.575	3851.57
946.881	3847.05
947.187	3843.43
947.493	3792.13
947.799	3795.75
948.105	3779.48
948.41	3731.57
948.716	3752.13
949.022	3726.14
949.327	3733.15
949.633	3681.85
949.938	3714.39
950.244	3705.35
950.549	3640.72
950.854	3626.49
951.16	3633.72
951.465	3582.42
951.77	3616.77
952.075	3557.79
952.38	3559.37
952.685	3556.21
952.99	3520.73
953.294	3481.63
953.599	3465.13
953.904	3472.37
954.209	3418.81
954.513	3435.98
954.818	3421.97
955.122	3430.33
955.426	3401.63
955.731	3397.79
956.035	3366.83
956.339	3332.03
956.643	3358.47
956.948	3305.37
957.252	3306.49
957.556	3333.39
957.86	3295.42
958.163	3278.47
958.467	3272.82
958.771	3239.6
959.075	3232.82
959.378	3241.86
959.682	3205.71
959.985	3191.24
960.289	3195.09
960.592	3161.41
960.896	3133.84
961.199	3119.61
961.502	3164.8
961.805	3136.33
962.108	3082.77
962.411	3073.51
962.714	3048.65
963.017	3034.41
963.32	3046.61
963.623	3078.25
963.926	2987.63
964.228	3008.42
964.531	3013.62
964.833	3001.87
965.136	2985.6
965.438	2960.52
965.741	2969.78
966.043	2952.83
966.345	2912.83
966.648	2896.56
966.95	2874.19
967.252	2893.85
967.554	2889.78
967.856	2841.42
968.158	2835.32
968.46	2803.68
968.761	2841.65
969.063	2821.54
969.365	2772.72
969.666	2790.8
969.968	2753.97
970.269	2775.66
970.571	2750.35
970.872	2721.43
971.174	2703.57
971.475	2709.22
971.776	2683.01
972.077	2681.65
972.378	2685.49
972.679	2640.07
972.98	2668.55
973.281	2617.25
973.582	2626.74
973.883	2622.22
974.183	2645.72
974.484	2603.46
974.785	2592.62
975.085	2585.84
975.386	2572.73
975.686	2553.75
975.986	2548.77
976.287	2517.59
976.587	2507.65
976.887	2508.1
977.187	2511.71
977.487	2472.17
977.787	2485.95
978.087	2440.53
978.387	2464.03
978.687	2452.05
978.987	2458.38
979.286	2424.71
979.586	2422.45
979.885	2400.76
980.185	2404.15
980.484	2374.32
980.784	2368.21
981.083	2358.5
981.382	2384.26
981.682	2387.88
981.981	2383.58
982.28	2351.49
982.579	2311.72
982.878	2327.99
983.177	2333.41
983.475	2316.69
983.774	2285.5
984.073	2299.29
984.372	2277.37
984.67	2255.45
984.969	2223.59
985.267	2261.55
985.566	2220.65
985.864	2201.44
986.162	2213.87
986.461	2222.46
986.759	2194.43
987.057	2148.33
987.355	2116.02
987.653	2157.6
987.951	2135
988.249	2154.66
988.547	2137.49
988.844	2112.18
989.142	2121.67
989.44	2105.17
989.737	2093.87
990.035	2077.15
990.332	2080.31
990.63	2085.96
990.927	2092.97
991.224	2062.91
991.521	2031.73
991.819	2030.14
992.116	2036.47
992.413	2000.77
992.71	1998.73
993.006	1992.18
993.303	1989.24
993.6	1984.95
993.897	1963.03
994.193	1962.12
994.49	1946.3
994.787	1945.4
995.083	1906.98
995.379	1904.72
995.676	1903.59
995.972	1869.92
996.268	1886.65
996.565	1887.55
996.861	1874.22
997.157	1868.57
997.453	1857.49
997.749	1846.42
998.044	1819.08
998.34	1838.51
998.636	1796.7
998.932	1792.18
999.227	1800.32
999.523	1799.64
999.818	1758.29
1000.114	1763.71
1000.409	1769.59
1000.704	1761.68
1001	1728.91
1001.295	1762.13
1001.59	1703.83
1001.885	1737.27
1002.18	1712.19
1002.475	1711.96
1002.77	1703.37
1003.065	1685.07
1003.359	1698.18
1003.654	1670.38
1003.949	1666.99
1004.243	1645.3
1004.538	1637.61
1004.832	1634.67
1005.127	1632.87
1005.421	1629.02
1005.715	1602.36
1006.009	1587.44
1006.304	1578.63
1006.598	1582.25
1006.892	1575.69
1007.186	1567.11
1007.48	1596.26
1007.773	1539.99
1008.067	1526.65
1008.361	1522.36
1008.655	1535.92
1008.948	1528.91
1009.242	1531.17
1009.535	1515.81
1009.829	1512.87
1010.122	1490.05
1010.415	1470.61
1010.708	1466.09
1011.001	1452.76
1011.295	1457.28
1011.588	1440.56
1011.881	1427.22
1012.173	1438.75
1012.466	1415.25
1012.759	1422.02
1013.052	1424.74
1013.344	1379.77
1013.637	1398.07
1013.93	1379.31
1014.222	1383.83
1014.514	1365.08
1014.807	1347.45
1015.099	1330.5
1015.391	1365.76
1015.683	1354.68
1015.976	1313.1
1016.268	1314
1016.56	1294.8
1016.851	1311.07
1017.143	1292.31
1017.435	1276.94
1017.727	1273.33
1018.018	1293.67
1018.31	1271.97
1018.602	1265.42
1018.893	1247.34
1019.185	1232.2
1019.476	1250.96
1019.767	1235.36
1020.058	1253.67
1020.35	1241.69
1020.641	1202.6
1020.932	1217.96
1021.223	1192.43
1021.514	1192.2
1021.804	1175.7
1022.095	1173.22
1022.386	1172.54
1022.677	1151.3
1022.967	1166.66
1023.258	1144.97
1023.548	1142.48
1023.839	1144.07
1024.129	1111.07
1024.419	1109.94
1024.709	1092.32
1025	1128.25
1025.29	1102.49
1025.58	1081.02
1025.87	1076.5
1026.16	1101.13
1026.449	1055.03
1026.739	1069.49
1027.029	1064.97
1027.319	1047.12
1027.608	1062.03
1027.898	1075.14
1028.187	1053.22
1028.477	1066.78
1028.766	1012.09
1029.055	1031.75
1029.344	993.11
1029.634	987.01
1029.923	988.14
1030.212	1015.93
1030.501	965.77
1030.79	1001.47
1031.078	981.36
1031.367	953.11
1031.656	964.18
1031.945	949.49
1032.233	945.65
1032.522	917.86
1032.81	954.24
1033.099	950.17
1033.387	925.09
1033.675	954.24
1033.963	907.24
1034.251	914.47
1034.54	889.16
1034.828	901.36
1035.116	916.28
1035.403	897.74
1035.691	886.67
1035.979	886.45
1036.267	884.64
1036.554	865.66
1036.842	862.72
1037.129	863.85
1037.417	858.42
1037.704	825.2
1037.992	834.92
1038.279	846.22
1038.566	824.53
1038.853	824.53
1039.14	824.53
