Data from tablewood_dark_bookshelf_FLMS001491_00006.txt Node
Date: Wed Feb 08 14:13:20 GMT 2017
User: dcchb
Spectrometer: FLMS00149
Trigger mode: 0
Integration Time (sec): 2.000000E-2
Scans to average: 10
Electric dark correction enabled: true
Nonlinearity correction enabled: false
Boxcar width: 0
XAxis mode: Wavelengths
Number of Pixels in Spectrum: 2048
>>>>>Begin Spectral Data<<<<<
341.393	-36.1
341.776	-36.1
342.16	-36.1
342.543	-44.91
342.927	-75.2
343.31	-66.61
343.693	-63.67
344.077	-54.41
344.46	-62.54
344.843	-64.57
345.226	-40.17
345.61	-24.12
345.993	-38.36
346.376	11.58
346.759	1.86
347.142	37.12
347.525	46.16
347.908	56.1
348.291	76.66
348.674	81.18
349.057	103.78
349.44	113.05
349.823	123.67
350.206	171.8
350.588	196.66
350.971	221.75
351.354	223.78
351.737	225.36
352.119	235.3
352.502	257.22
352.884	249.09
353.267	278.47
353.65	266.94
354.032	273.95
354.414	305.59
354.797	290.44
355.179	315.3
355.562	327.28
355.944	315.3
356.326	330.44
356.709	315.3
357.091	309.43
357.473	331.12
357.855	339.71
358.238	346.71
358.62	345.13
359.002	330.9
359.384	322.76
359.766	338.13
360.148	313.04
360.53	339.48
360.912	332.25
361.294	341.52
361.676	336.09
362.057	326.15
362.439	330.44
362.821	331.35
363.203	345.36
363.584	310.33
363.966	312.82
364.348	329.99
364.729	318.01
365.111	325.25
365.493	321.4
365.874	322.53
366.256	317.79
366.637	320.27
367.019	310.56
367.4	329.77
367.781	334.96
368.163	324.34
368.544	311.23
368.925	307.39
369.306	337.67
369.688	315.53
370.069	317.11
370.45	321.63
370.831	336.09
371.212	325.7
371.593	325.7
371.974	337
372.355	333.61
372.736	341.74
373.117	315.53
373.498	327.51
373.879	310.56
374.26	334.51
374.641	318.01
375.021	329.31
375.402	333.83
375.783	337.45
376.163	346.04
376.544	337
376.925	360.72
377.305	334.06
377.686	362.76
378.066	329.31
378.447	348.3
378.827	366.83
379.208	361.4
379.588	361.63
379.968	354.85
380.349	367.05
380.729	369.09
381.109	355.53
381.489	362.31
381.87	365.47
382.25	372.48
382.63	367.96
383.01	389.2
383.39	368.63
383.77	378.58
384.15	376.54
384.53	365.24
384.91	391.91
385.29	378.13
385.67	384.91
386.049	407.73
386.429	386.71
386.809	418.8
387.189	392.36
387.568	387.84
387.948	414.73
388.328	398.46
388.707	426.03
389.087	397.11
389.466	418.8
389.846	418.8
390.225	436.66
390.605	407.96
390.984	415.64
391.363	420.16
391.743	411.12
392.122	445.02
392.501	441.63
392.881	430.55
393.26	438.24
393.639	445.47
394.018	435.53
394.397	426.26
394.776	456.09
395.155	461.97
395.534	440.72
395.913	453.15
396.292	460.61
396.671	470.78
397.05	480.27
397.429	469.2
397.808	461.97
398.186	484.56
398.565	474.39
398.944	468.74
399.323	454.73
399.701	480.27
400.08	477.78
400.458	488.18
400.837	503.77
401.215	498.12
401.594	485.92
401.972	514.17
402.351	508.52
402.729	509.65
403.107	487.95
403.486	499.25
403.864	507.16
404.242	520.95
404.62	527.05
404.999	529.08
405.377	557.33
405.755	536.09
406.133	552.58
406.511	553.49
406.889	545.8
407.267	565.92
407.645	567.27
408.023	576.76
408.401	586.26
408.779	570.89
409.156	569.08
409.534	587.61
409.912	585.8
410.29	586.71
410.667	615.63
411.045	615.41
411.422	594.39
411.8	613.6
412.178	623.99
412.555	616.54
412.933	645.24
413.31	637.1
413.687	649.76
414.065	644.11
414.442	660.38
414.819	668.29
415.197	661.06
415.574	680.49
415.951	685.01
416.328	698.57
416.705	687.95
417.082	690.66
417.46	704.67
417.837	695.63
418.214	706.48
418.591	733.6
418.967	708.29
419.344	724.33
419.721	739.02
420.098	719.36
420.475	746.7
420.852	784.67
421.228	752.58
421.605	769.75
421.982	783.09
422.358	777.21
422.735	751.9
423.111	784.22
423.488	794.39
423.864	800.71
424.241	802.3
424.617	825.8
424.994	811.11
425.37	804.33
425.746	819.7
426.123	820.83
426.499	865.12
426.875	860.15
427.251	862.86
427.627	859.47
428.003	889.98
428.379	889.3
428.756	901.05
429.132	914.83
429.507	944.44
429.883	936.98
430.259	944.44
430.635	920.94
431.011	966.58
431.387	983.31
431.763	1016.98
432.138	997.54
432.514	1004.78
432.89	1015.4
433.265	1042.74
433.641	1025.79
434.016	1041.16
434.392	1061.5
434.767	1058.79
435.143	1062.4
435.518	1106.02
435.894	1120.25
436.269	1077.99
436.644	1117.99
437.02	1113.25
437.395	1110.08
437.77	1132.68
438.145	1169.97
438.52	1136.98
438.895	1173.81
439.271	1192.12
439.646	1204.09
440.021	1203.87
440.395	1220.59
440.77	1228.27
441.145	1224.66
441.52	1243.87
441.895	1256.75
442.27	1256.97
442.645	1276.63
443.019	1250.65
443.394	1289.51
443.769	1277.99
444.143	1284.54
444.518	1322.73
444.892	1317.31
445.267	1324.54
445.641	1338.78
446.016	1335.84
446.39	1338.55
446.764	1356.63
447.139	1334.71
447.513	1364.54
447.887	1393.69
448.262	1374.71
448.636	1378.55
449.01	1397.31
449.384	1444.54
449.758	1390.08
450.132	1407.93
450.506	1456.06
450.88	1460.58
451.254	1459.68
451.628	1463.07
452.002	1499.68
452.376	1523.63
452.75	1537.87
453.123	1550.3
453.497	1542.39
453.871	1569.51
454.244	1615.38
454.618	1629.39
454.992	1629.17
455.365	1611.54
455.739	1667.13
456.112	1687.7
456.486	1704.64
456.859	1741.03
457.232	1720.24
457.606	1752.1
457.979	1779.22
458.352	1773.8
458.725	1842.49
459.099	1830.52
459.472	1890.85
459.845	1887.24
460.218	1877.3
460.591	1933.79
460.964	1925.2
461.337	1990.51
461.71	1985.32
462.083	1995.03
462.456	2010.4
462.829	1999.78
463.201	2067.8
463.574	2070.74
463.947	2085.65
464.32	2160.68
464.692	2163.62
465.065	2187.34
465.438	2211.98
465.81	2248.58
466.183	2233.44
466.555	2297.62
466.928	2278.87
467.3	2320.67
467.672	2403.61
468.045	2404.06
468.417	2433.21
468.789	2402.71
469.161	2464.17
469.534	2497.84
469.906	2538.29
470.278	2571.06
470.65	2596.6
471.022	2635.47
471.394	2703.26
471.766	2716.6
472.138	2734
472.51	2792.53
472.882	2839.08
473.253	2838.4
473.625	2907.32
473.997	2979.41
474.369	2980.32
474.74	2957.04
475.112	3035.46
475.484	3066.19
475.855	3144.61
476.227	3219.41
476.598	3263.7
476.97	3306.18
477.341	3364.94
477.713	3416.46
478.084	3496.01
478.455	3531.49
478.827	3502.11
479.198	3650.13
479.569	3674.31
479.94	3787.75
480.311	3727.42
480.682	3850.12
481.053	3937.13
481.424	3973.29
481.795	4072.27
482.166	4100.97
482.537	4143.68
482.908	4217.35
483.279	4300.06
483.65	4364.69
484.021	4434.74
484.391	4485.81
484.762	4518.36
485.133	4585.02
485.503	4613.27
485.874	4704.57
486.244	4751.57
486.615	4891.45
486.985	4909.53
487.356	4923.77
487.726	4997.89
488.097	5087.38
488.467	5106.81
488.837	5237.88
489.207	5286.02
489.578	5313.36
489.948	5427.03
490.318	5475.39
490.688	5493.7
491.058	5614.37
491.428	5689.17
491.798	5705.22
492.168	5821.82
492.538	5876.96
492.908	5856.17
493.278	5982.5
493.648	5983.18
494.017	6144.98
494.387	6128.93
494.757	6191.31
495.126	6270.4
495.496	6323.96
495.866	6333.68
496.235	6413.67
496.605	6482.15
496.974	6506.55
497.344	6528.02
497.713	6635.81
498.082	6685.76
498.452	6660.67
498.821	6798.52
499.19	6815.47
499.559	6833.32
499.928	6894.34
500.298	6956.26
500.667	7078.06
501.036	7081.9
501.405	7104.28
501.774	7108.12
502.143	7156.03
502.512	7180.43
502.88	7249.81
503.249	7337.04
503.618	7404.38
503.987	7417.26
504.356	7495.9
504.724	7496.81
505.093	7557.6
505.462	7584.04
505.83	7666.75
506.199	7762.34
506.567	7787.65
506.936	7809.57
507.304	7885.05
507.672	7962.78
508.041	7917.14
508.409	8085.49
508.777	8113.52
509.145	8227.64
509.514	8234.19
509.882	8254.53
510.25	8352.38
510.618	8398.71
510.986	8429.44
511.354	8509.89
511.722	8553.73
512.09	8681.18
512.458	8640.06
512.826	8712.37
513.193	8730
513.561	8845.93
513.929	8873.5
514.297	8918.24
514.664	9031.91
515.032	9046.15
515.4	9146.71
515.767	9150.78
516.135	9220.15
516.502	9162.98
516.869	9368.17
517.237	9494.95
517.604	9462.86
517.972	9628.28
518.339	9611.1
518.706	9635.51
519.073	9747.6
519.44	9829.63
519.808	9875.5
520.175	9957.76
520.542	10052.67
520.909	10123.18
521.276	10129.06
521.643	10278.43
522.009	10320.01
522.376	10411.76
522.743	10445.21
523.11	10543.06
523.477	10667.57
523.843	10714.8
524.21	10784.86
524.577	10940.33
524.943	10969.71
525.31	11068.69
525.676	11122.7
526.043	11200.89
526.409	11286.54
526.776	11386.88
527.142	11410.83
527.508	11481.11
527.874	11581.22
528.241	11659.86
528.607	11726.98
528.973	11802.23
529.339	11851.5
529.705	11894.66
530.071	12077.71
530.437	12160.87
530.803	12177.82
531.169	12249.45
531.535	12261.88
531.901	12366.51
532.267	12386.62
532.632	12456.45
532.998	12567.41
533.364	12653.28
533.73	12704.58
534.095	12794.97
534.461	12859.38
534.826	12837.46
535.192	12841.53
535.557	13005.59
535.923	13006.27
536.288	13164.46
536.653	13181.18
537.019	13153.16
537.384	13269.76
537.749	13436.99
538.114	13393.83
538.479	13446.26
538.845	13510.44
539.21	13476.31
539.575	13561.06
539.94	13600.83
540.305	13673.6
540.67	13680.83
541.034	13735.97
541.399	13866.36
541.764	13911.1
542.129	13886.47
542.494	13922.4
542.858	14017.32
543.223	14013.25
543.587	14135.5
543.952	14102.96
544.316	14212.79
544.681	14239
545.045	14207.59
545.41	14440.35
545.774	14399.23
546.138	14364.2
546.503	14463.63
546.867	14463.63
547.231	14642.61
547.595	14678.09
547.959	14709.27
548.324	14751.53
548.688	14752.66
549.052	14848.48
549.416	14909.27
549.779	14874.47
550.143	14926.22
550.507	15131.41
550.871	15174.35
551.235	15169.15
551.599	15236.04
551.962	15296.15
552.326	15344.06
552.689	15425.64
553.053	15428.13
553.417	15421.8
553.78	15699.76
554.143	15584.05
554.507	15797.38
554.87	15789.7
555.234	15920.09
555.597	15946.08
555.96	15976.81
556.323	16077.37
556.686	16113.53
557.05	16176.81
557.413	16284.37
557.776	16248.89
558.139	16411.38
558.502	16469.91
558.865	16477.14
559.228	16573.86
559.59	16667.41
559.953	16744.25
560.316	16894.08
560.679	16866.28
561.041	17045.94
561.404	17094.75
561.767	17141.53
562.129	17162.09
562.492	17363.22
562.854	17370.45
563.217	17413.61
563.579	17515.98
563.941	17583.77
564.304	17709.87
564.666	17869.19
565.028	17866.93
565.39	17954.84
565.753	18079.36
566.115	18072.35
566.477	18154.38
566.839	18223.76
567.201	18446.8
567.563	18372
567.925	18561.38
568.287	18508.72
568.648	18646.35
569.01	18775.83
569.372	18898.99
569.734	18835.72
570.095	18949.61
570.457	19012.44
570.819	19107.12
571.18	19058.76
571.542	19178.76
571.903	19319.77
572.265	19375.59
572.626	19474.12
572.987	19549.15
573.349	19619.43
573.71	19776.26
574.071	19839.31
574.432	19762.47
574.794	19935.58
575.155	19990.27
575.516	19973.09
575.877	20086.31
576.238	20171.73
576.599	20164.05
576.96	20312.52
577.32	20410.59
577.681	20430.25
578.042	20490.59
578.403	20449.24
578.763	20469.35
579.124	20555.22
579.485	20730.81
579.845	20780.75
580.206	20727.2
580.566	20792.96
580.927	20879.28
581.287	20900.07
581.648	20828.66
582.008	21062.1
582.368	20926.29
582.728	21097.13
583.089	21051.25
583.449	21159.27
583.809	21093.51
584.169	21216
584.529	21251.25
584.889	21393.17
585.249	21258.03
585.609	21287.18
585.969	21351.36
586.329	21282.43
586.688	21350.68
587.048	21418.7
587.408	21392.94
587.768	21413.28
588.127	21413.5
588.487	21330.34
588.846	21609.43
589.206	21454.18
589.565	21538.47
589.925	21626.83
590.284	21637.91
590.643	21673.61
591.003	21809.65
591.362	21824.34
591.721	21702.08
592.08	21741.18
592.44	21797.22
592.799	21847.17
593.158	21841.29
593.517	21958.58
593.876	21961.29
594.235	21907.28
594.593	22028.18
594.952	22149.08
595.311	21868.18
595.67	22037.67
596.029	22202.18
596.387	22151.56
596.746	22206.48
597.104	22161.73
597.463	22107.72
597.822	22287.61
598.18	22152.47
598.538	22222.3
598.897	22452.12
599.255	22272.24
599.613	22469.97
599.972	22462.06
600.33	22486.7
600.688	22471.33
601.046	22646.47
601.404	22645.34
601.762	22579.12
602.12	22707.71
602.478	22679.23
602.836	22798.78
603.194	22667.71
603.552	22649.86
603.91	22540.25
604.268	22858.21
604.625	22787.93
604.983	22675.84
605.341	22780.02
605.698	22866.12
606.056	23054.14
606.413	22953.35
606.771	22937.76
607.128	23000.13
607.485	22953.13
607.843	23030.86
608.2	23112.44
608.557	23270.41
608.914	23093.69
609.272	23244.19
609.629	23197.86
609.986	23319.9
610.343	23236.06
610.7	23490.96
611.057	23361.93
611.414	23291.65
611.771	23419.55
612.127	23484.86
612.484	23439.21
612.841	23501.36
613.198	23394.7
613.554	23554.69
613.911	23716.04
614.267	23667
614.624	23643.5
614.98	23803.5
615.337	23805.31
615.693	23728.25
616.05	23852.31
616.406	23885.98
616.762	23875.13
617.118	23808.47
617.475	23850.95
617.831	24039.42
618.187	23826.32
618.543	23925.98
618.899	24157.61
619.255	24076.71
619.611	24074.45
619.967	24204.17
620.323	24145.18
620.678	24158.52
621.034	23993.32
621.39	24064.73
621.746	24019.31
622.101	24264.96
622.457	24069.25
622.812	24087.33
623.168	24221.34
623.523	24223.83
623.879	24246.65
624.234	24149.7
624.589	24281
624.945	24205.97
625.3	24180.89
625.655	24285.29
626.01	24256.37
626.365	24191.51
626.72	24306.54
627.075	24247.1
627.43	24263.15
627.785	24127.78
628.14	24179.08
628.495	24316.71
628.85	24169.59
629.205	24044.62
629.559	24353.31
629.914	24243.49
630.269	24071.29
630.623	24037.16
630.978	23978.86
631.332	24061.8
631.687	24066.09
632.041	24015.47
632.396	24098.63
632.75	24012.08
633.104	24003.49
633.459	23831.97
633.813	23945.42
634.167	23935.92
634.521	23909.03
634.875	23985.64
635.229	23855.02
635.583	23732.99
635.937	23877.62
636.291	23760.56
636.645	23823.38
636.999	23892.54
637.352	23873.78
637.706	23709.04
638.06	23761.69
638.413	23756.49
638.767	23535.48
639.121	23593.11
639.474	23567.35
639.828	23420.01
640.181	23539.55
640.534	23604.18
640.888	23475.82
641.241	23363.51
641.594	23462.72
641.947	23566.67
642.301	23528.7
642.654	23430.4
643.007	23478.76
643.36	23382.72
643.713	23399.67
644.066	23461.59
644.419	23343.17
644.771	23229.73
645.124	23028.38
645.477	22945.44
645.83	22804.2
646.182	22593.59
646.535	22537.77
646.888	22612.8
647.24	22445.34
647.593	22603.53
647.945	22531.22
648.298	22417.32
648.65	22429.07
649.002	22262.75
649.355	22428.85
649.707	22328.96
650.059	22466.58
650.411	22810.53
650.763	22766.69
651.115	23016.4
651.467	22910.64
651.819	22927.36
652.171	22800.13
652.523	22759.23
652.875	22807.37
653.227	22864.09
653.578	22891.88
653.93	22849.63
654.282	22734.83
654.633	22692.57
654.985	22817.54
655.337	22747.25
655.688	22638.78
656.039	22853.69
656.391	22619.57
656.742	22667.48
657.094	22764.43
657.445	22811.43
657.796	22766.46
658.147	22666.35
658.498	22642.85
658.849	22709.74
659.2	22718.33
659.551	22566.02
659.902	22618.9
660.253	22643.53
660.604	22658.67
660.955	22506.36
661.306	22605.34
661.656	22648.73
662.007	22691.89
662.358	22631.78
662.708	22678.78
663.059	22558.33
663.409	22554.94
663.76	22700.02
664.11	22519.01
664.461	22677.2
664.811	22578.67
665.161	22663.64
665.511	22478.56
665.862	22522.4
666.212	22586.58
666.562	22580.48
666.912	22519.24
667.262	22619.57
667.612	22583.87
667.962	22517.2
668.312	22462.74
668.662	22564.43
669.011	22537.54
669.361	22556.3
669.711	22550.65
670.06	22448.96
670.41	22533.02
670.76	22391.56
671.109	22536.41
671.459	22362.86
671.808	22352.92
672.157	22470.2
672.507	22299.36
672.856	22279.24
673.205	22362.63
673.554	22474.27
673.904	22223.43
674.253	22450.31
674.602	22299.58
674.951	22013.04
675.3	21995.64
675.649	22218
675.998	22356.08
676.346	22188.4
676.695	22379.13
677.044	22140.94
677.393	22306.14
677.741	22266.59
678.09	22147.5
678.438	22241.28
678.787	22212.13
679.135	22253.26
679.484	22040.83
679.832	22193.15
680.181	21962.19
680.529	22150.43
680.877	22050.1
681.225	21927.16
681.573	22098.23
681.922	22012.59
682.27	21982.98
682.618	21887.62
682.966	21851.23
683.314	21939.59
683.661	21871.57
684.009	21696.89
684.357	21777.79
684.705	21680.84
685.053	21785.92
685.4	21564.69
685.748	21539.15
686.095	21524.69
686.443	21448.76
686.79	21541.19
687.138	21448.76
687.485	21558.81
687.832	21436.33
688.18	21287.41
688.527	21382.77
688.874	21271.59
689.221	21204.24
689.568	21200.85
689.915	21204.24
690.262	21028.66
690.609	21126.28
690.956	21096.9
691.303	21025.72
691.65	20867.98
691.997	20906.17
692.344	20722.68
692.69	20758.38
693.037	20654.65
693.383	20538.05
693.73	20636.35
694.077	20557.03
694.423	20493.75
694.769	20446.98
695.116	20412.85
695.462	20357.49
695.808	20329.47
696.155	20355.45
696.501	20186.87
696.847	20237.72
697.193	20084.27
697.539	20164.05
697.885	19966.31
698.231	19957.05
698.577	20044.95
698.923	19994.33
699.269	19843.38
699.614	19749.59
699.96	19682.48
700.306	19761.57
700.651	19642.7
700.997	19545.08
701.342	19599.54
701.688	19472.99
702.033	19565.64
702.379	19406.1
702.724	19375.82
703.069	19418.53
703.415	19220.34
703.76	19317.06
704.105	19168.59
704.45	19205.88
704.795	19113.23
705.14	19070.06
705.485	18948.03
705.83	18990.52
706.175	18870.29
706.52	18837.53
706.865	18834.14
707.209	18755.95
707.554	18666.68
707.899	18744.87
708.243	18643.86
708.588	18557.76
708.932	18526.8
709.277	18531.77
709.621	18534.48
709.966	18393.7
710.31	18461.04
710.654	18306.69
710.998	18354.38
711.342	18302.85
711.687	18188.05
712.031	18232.35
712.375	18122.97
712.719	18090.43
713.063	18079.81
713.407	18157.55
713.75	18091.33
714.094	18092.91
714.438	18005.46
714.782	18055.17
715.125	17937.21
715.469	17929.3
715.812	17829.64
716.156	17723.88
716.499	17776.54
716.843	17783.09
717.186	17777.44
717.53	17751.68
717.873	17805.01
718.216	17694.51
718.559	17663.77
718.902	17483.44
719.246	17601.18
719.589	17524.12
719.932	17478.92
720.275	17482.99
720.617	17483.66
720.96	17362.99
721.303	17436.89
721.646	17490.67
721.989	17325.02
722.331	17419.26
722.674	17369.32
723.016	17432.14
723.359	17305.36
723.701	17313.5
724.044	17245.7
724.386	17207.74
724.729	17257.68
725.071	17184.69
725.413	17251.35
725.755	17155.54
726.097	17110.79
726.439	16995.09
726.782	16999.16
727.124	17136.33
727.465	16913.06
727.807	16921.87
728.149	16927.3
728.491	16900.63
728.833	16939.27
729.175	16867.64
729.516	16913.51
729.858	16864.7
730.199	16873.96
730.541	16857.92
730.882	16802.33
731.224	16887.07
731.565	16691.82
731.906	16726.85
732.248	16761.42
732.589	16659.96
732.93	16608.66
733.271	16608.43
733.612	16654.76
733.953	16766.62
734.294	16538.83
734.635	16578.38
734.976	16624.03
735.317	16599.39
735.658	16534.99
735.999	16539.51
736.339	16487.53
736.68	16571.37
737.021	16474.43
737.361	16440.75
737.702	16504.03
738.042	16386.97
738.383	16446.63
738.723	16434.88
739.063	16334.32
739.404	16394.2
739.744	16352.17
740.084	16305.84
740.424	16332.51
740.764	16242.12
741.104	16363.24
741.444	16219.97
741.784	16209.8
742.124	16274.43
742.464	16215.45
742.804	16196.69
743.143	16134.32
743.483	16140.2
743.823	16072.63
744.162	16081.22
744.502	16140.65
744.841	16045.51
745.181	16231.95
745.52	16099.29
745.86	16174.55
746.199	16031.73
746.538	16000.31
746.877	16068.33
747.216	16060.2
747.556	15964.38
747.895	15966.42
748.234	15840.32
748.573	15832.86
748.911	15863.59
749.25	15915.34
749.589	15881.9
749.928	15833.31
750.267	15897.04
750.605	15744.28
750.944	15753.09
751.283	15717.38
751.621	15772.07
751.96	15581.57
752.298	15718.06
752.636	15678.97
752.975	15579.53
753.313	15617.95
753.651	15643.04
753.989	15498.41
754.327	15519.2
754.666	15493.43
755.004	15487.33
755.342	15445.75
755.679	15416.83
756.017	15318.52
756.355	15465.19
756.693	15409.37
757.031	15284.4
757.368	15211.41
757.706	15232.42
758.044	15142.03
758.381	15211.18
758.719	15154.23
759.056	15158.75
759.394	15055.25
759.731	15019.55
760.068	14952.43
760.405	14884.86
760.743	14887.57
761.08	14894.35
761.417	14818.42
761.754	14820.68
762.091	14682.16
762.428	14764.19
762.765	14653.46
763.102	14656.17
763.438	14582.5
763.775	14556.96
764.112	14481.71
764.449	14548.15
764.785	14404.88
765.122	14361.49
765.458	14286.69
765.795	14200.59
766.131	14218.89
766.467	14209.4
766.804	14123.07
767.14	14050.31
767.476	14036.98
767.812	13953.14
768.148	13994.72
768.485	13856.64
768.821	13746.14
769.157	13844.21
769.492	13786.59
769.828	13753.82
770.164	13686.93
770.5	13605.35
770.836	13528.74
771.171	13512.7
771.507	13459.59
771.842	13455.52
772.178	13389.31
772.513	13352.47
772.849	13312.02
773.184	13298.24
773.519	13241.97
773.855	13178.02
774.19	12997
774.525	13055.98
774.86	13100.5
775.195	13026.15
775.53	12953.84
775.865	12877.46
776.2	12820.96
776.535	12750.46
776.87	12684.92
777.205	12691.25
777.539	12648.31
777.874	12607.63
778.209	12518.15
778.543	12511.59
778.878	12486.73
779.212	12451.25
779.547	12283.12
779.881	12298.94
780.215	12244.93
780.55	12283.8
780.884	12185.72
781.218	12199.74
781.552	12098.5
781.886	12058.72
782.22	11983.24
782.554	12006.75
782.888	11893.53
783.222	11806.53
783.556	11773.76
783.889	11645.4
784.223	11649.02
784.557	11650.37
784.89	11683.37
785.224	11630.94
785.557	11584.38
785.891	11484.27
786.224	11507.32
786.558	11466.42
786.891	11322.92
787.224	11252.87
787.557	11352.3
787.891	11341
788.224	11278.63
788.557	11291.51
788.89	11222.36
789.223	11133.32
789.556	11063.27
789.888	11019.43
790.221	11033.21
790.554	10941.69
790.887	10924.74
791.219	10876.15
791.552	10858.3
791.884	10819.66
792.217	10728.81
792.549	10708.93
792.882	10730.17
793.214	10638.65
793.546	10617.86
793.879	10561.59
794.211	10469.39
794.543	10544.86
794.875	10464.19
795.207	10486.56
795.539	10414.25
795.871	10410.4
796.203	10309.16
796.535	10268.04
796.867	10190.97
797.198	10175.16
797.53	10270.75
797.862	10153.01
798.193	10120.24
798.525	10073.24
798.856	10146.46
799.188	9955.27
799.519	10030.08
799.85	9924.99
800.182	9897.65
800.513	9923.19
800.844	9823.3
801.175	9871.44
801.506	9915.05
801.837	9781.27
802.168	9750.08
802.499	9774.71
802.83	9678.9
803.161	9663.08
803.491	9675.06
803.822	9630.31
804.153	9593.25
804.483	9411.56
804.814	9470.54
805.145	9485
805.475	9455.4
805.805	9432.58
806.136	9454.05
806.466	9377.44
806.796	9380.37
807.126	9301.96
807.457	9295.41
807.787	9355.52
808.117	9298.8
808.447	9165.92
808.777	9211.57
809.107	9188.97
809.436	9157.1
809.766	9184.67
810.096	9068.07
810.426	9075.75
810.755	9020.16
811.085	9030.55
811.414	8990.78
811.744	8911.46
812.073	8911.69
812.403	8918.47
812.732	8807.06
813.061	8876.66
813.39	8779.26
813.719	8766.61
814.049	8829.43
814.378	8759.37
814.707	8712.37
815.036	8725.25
815.365	8656.55
815.693	8611.13
816.022	8646.38
816.351	8624.46
816.68	8532.04
817.008	8590.79
817.337	8525.71
817.665	8497.91
817.994	8578.36
818.322	8465.82
818.651	8455.88
818.979	8400.06
819.307	8403
819.636	8415.2
819.964	8362.32
820.292	8411.81
820.62	8394.41
820.948	8303.34
821.276	8398.25
821.604	8319.84
821.932	8343.34
822.259	8349.89
822.587	8306.96
822.915	8365.94
823.243	8367.07
823.57	8314.41
823.898	8398.03
824.225	8253.85
824.553	8264.02
824.88	8313.74
825.207	8326.39
825.535	8257.24
825.862	8344.7
826.189	8259.95
826.516	8338.37
826.843	8355.54
827.17	8364.81
827.497	8380.63
827.824	8400.29
828.151	8360.29
828.478	8282.78
828.805	8378.59
829.131	8273.51
829.458	8288.2
829.785	8271.25
830.111	8193.29
830.438	8308.99
830.764	8250.46
831.09	8291.36
831.417	8227.41
831.743	8258.6
832.069	8256.34
832.395	8240.07
832.722	8285.49
833.048	8258.14
833.374	8264.25
833.7	8143.8
834.026	8175.66
834.351	8215.89
834.677	8206.62
835.003	8181.99
835.329	8154.87
835.654	8195.32
835.98	8168.43
836.306	8138.6
836.631	8151.25
836.956	8133.85
837.282	8107.19
837.607	8094.76
837.932	8034.2
838.258	8052.73
838.583	8041.2
838.908	8007.53
839.233	8022.22
839.558	7976.34
839.883	7991.48
840.208	7970.47
840.533	8000.07
840.858	7970.69
841.182	7957.59
841.507	7924.82
841.832	7844.82
842.156	7882.79
842.481	7855.67
842.805	7849.34
843.13	7781.09
843.454	7816.35
843.778	7768.21
844.103	7765.95
844.427	7729.8
844.751	7731.38
845.075	7746.52
845.399	7674.66
845.723	7656.58
846.047	7599.86
846.371	7653.87
846.695	7569.8
847.019	7504.27
847.343	7495.23
847.666	7456.36
847.99	7476.92
848.313	7437.83
848.637	7397.15
848.96	7380.88
849.284	7399.86
849.607	7303.37
849.931	7249.58
850.254	7232.41
850.577	7224.27
850.9	7186.99
851.223	7160.77
851.546	7127.33
851.869	7086.2
852.192	7132.52
852.515	7019.53
852.838	6989.03
853.161	6994.45
853.483	6972.08
853.806	6961.68
854.129	6942.92
854.451	6955.35
854.774	6860.89
855.096	6887.33
855.419	6833.32
855.741	6778.18
856.063	6793.32
856.385	6757.39
856.708	6742.25
857.03	6735.02
857.352	6725.53
857.674	6752.42
857.996	6712.87
858.318	6602.59
858.64	6627.45
858.961	6631.29
859.283	6606.66
859.605	6598.98
859.926	6605.08
860.248	6615.7
860.57	6563.5
860.891	6558.75
861.212	6516.95
861.534	6480.79
861.855	6504.29
862.176	6563.5
862.498	6487.57
862.819	6477.17
863.14	6474.91
863.461	6421.58
863.782	6408.7
864.103	6392.2
864.424	6448.02
864.745	6434.92
865.065	6377.29
865.386	6376.39
865.707	6372.54
866.027	6359.89
866.348	6338.87
866.668	6314.92
866.989	6300
867.309	6252.1
867.63	6305.2
867.95	6304.75
868.27	6243.73
868.59	6276.95
868.91	6220.23
869.23	6238.99
869.55	6183.4
869.87	6202.83
870.19	6196.5
870.51	6241.25
870.83	6259.55
871.15	6187.46
871.469	6199.89
871.789	6185.66
872.109	6210.06
872.428	6124.87
872.748	6168.03
873.067	6116.28
873.386	6123.29
873.706	6148.37
874.025	6108.6
874.344	6094.81
874.663	6115.38
874.982	6071.99
875.301	6094.13
875.62	6051.65
875.939	6044.64
876.258	6037.19
876.577	6011.2
876.896	6050.74
877.214	6025.66
877.533	6013.01
877.852	6002.38
878.17	5953.35
878.489	5993.8
878.807	5975.27
879.125	6023.85
879.444	5966
879.762	6006.68
880.08	5986.11
880.398	5924.19
880.716	5879.45
881.034	5909.96
881.352	5873.8
881.67	5899.11
881.988	5884.2
882.306	5860.92
882.624	5806.46
882.941	5835.16
883.259	5806.01
883.577	5803.52
883.894	5789.96
884.212	5762.84
884.529	5771.2
884.846	5774.82
885.164	5731.43
885.481	5734.37
885.798	5747.7
886.115	5688.04
886.432	5718.55
886.75	5687.82
887.067	5717.65
887.383	5655.28
887.7	5639.91
888.017	5636.74
888.334	5623.19
888.651	5663.86
888.967	5572.79
889.284	5562.17
889.6	5557.88
889.917	5531.89
890.233	5590.19
890.55	5547.26
890.866	5475.17
891.182	5525.11
891.498	5449.63
891.815	5429.29
892.131	5459.57
892.447	5496.64
892.763	5429.97
893.079	5419.12
893.395	5434.04
893.71	5383.64
894.026	5350.65
894.342	5368.5
894.657	5281.27
894.973	5316.53
895.289	5300.71
895.604	5332.35
895.92	5264.78
896.235	5291.22
896.55	5251.22
896.865	5235.85
897.181	5178.23
897.496	5159.02
897.811	5215.96
898.126	5184.55
898.441	5169.64
898.756	5130.09
899.071	5102.75
899.386	5136.19
899.7	5074.95
900.015	5047.38
900.33	5066.36
900.644	5058.68
900.959	5039.25
901.273	5010.55
901.588	5001.73
901.902	4969.64
902.216	4964.45
902.531	4974.84
902.845	4927.61
903.159	4900.27
903.473	4881.96
903.787	4900.72
904.101	4870.89
904.415	4852.36
904.729	4768.29
905.042	4845.13
905.356	4769.87
905.67	4804.45
905.984	4834.28
906.297	4744.34
906.611	4724
906.924	4727.39
907.237	4705.7
907.551	4697.33
907.864	4652.14
908.177	4676.77
908.491	4685.58
908.804	4638.13
909.117	4625.02
909.43	4629.31
909.743	4578.02
910.056	4598.81
910.368	4538.47
910.681	4504.12
910.994	4473.16
911.307	4508.64
911.619	4470
911.932	4489.43
912.244	4485.59
912.557	4458.7
912.869	4437
913.181	4404.69
913.494	4424.35
913.806	4362.2
914.118	4327.4
914.43	4288.31
914.742	4345.03
915.054	4280.17
915.366	4296.44
915.678	4282.43
915.99	4253.73
916.302	4228.42
916.613	4210.12
916.925	4180.74
917.236	4198.36
917.548	4201.3
917.859	4187.52
918.171	4135.99
918.482	4099.61
918.794	4159.04
919.105	4094.41
919.416	4059.61
919.727	4004.92
920.038	4093.96
920.349	4005.83
920.66	4027.3
920.971	3970.57
921.282	4020.74
921.593	3956.11
921.903	3925.15
922.214	3971.48
922.525	3925.6
922.835	3936.45
923.146	3873.17
923.456	3878.82
923.767	3868.66
924.077	3909.78
924.387	3826.17
924.697	3821.88
925.008	3830.92
925.318	3778.94
925.628	3783.01
925.938	3786.62
926.248	3760.18
926.558	3778.49
926.867	3713.41
927.177	3714.76
927.487	3700.07
927.796	3688.1
928.106	3668.66
928.416	3644.03
928.725	3652.16
929.034	3602.67
929.344	3677.93
929.653	3592.28
929.962	3603.8
930.271	3567.65
930.581	3550.25
930.89	3526.29
931.199	3537.36
931.508	3493.98
931.817	3520.19
932.125	3489.46
932.434	3488.78
932.743	3453.07
933.051	3411.72
933.36	3438.61
933.669	3418.27
933.977	3419.4
934.286	3379.63
934.594	3399.74
934.902	3370.36
935.21	3378.05
935.519	3342.12
935.827	3339.63
936.135	3316.58
936.443	3326.75
936.751	3313.19
937.059	3284.94
937.367	3253.76
937.674	3301.89
937.982	3232.06
938.29	3223.7
938.597	3231.84
938.905	3199.97
939.213	3200.65
939.52	3175.79
939.827	3223.02
940.135	3195.45
940.442	3141.22
940.749	3178.73
941.056	3159.07
941.363	3097.83
941.67	3116.13
941.977	3111.16
942.284	3115.23
942.591	3086.98
942.898	3059.41
943.205	3078.85
943.511	3040.2
943.818	2995.68
944.125	3004.05
944.431	3010.6
944.738	3014.67
945.044	2953.88
945.35	2964.5
945.657	2956.81
945.963	2945.52
946.269	2931.05
946.575	2928.34
946.881	2890.6
947.187	2919.08
947.493	2893.99
947.799	2865.29
948.105	2870.49
948.41	2811.96
948.716	2839.76
949.022	2807.89
949.327	2822.36
949.633	2811.51
949.938	2790.27
950.244	2777.61
950.549	2767.44
950.854	2750.49
951.16	2745.07
951.465	2734.9
951.77	2732.64
952.075	2706.88
952.38	2719.53
952.685	2714.34
952.99	2704.62
953.294	2688.8
953.599	2675.01
953.904	2640.21
954.209	2679.31
954.513	2649.03
954.818	2640.21
955.122	2633.89
955.426	2606.77
955.731	2617.16
956.035	2597.05
956.339	2590.95
956.643	2554.57
956.948	2530.16
957.252	2573.32
957.556	2552.76
957.86	2556.37
958.163	2548.24
958.467	2508.69
958.771	2512.76
959.075	2513.44
959.378	2496.49
959.682	2494.45
959.985	2465.98
960.289	2449.26
960.592	2429.15
960.896	2433.44
961.199	2464.85
961.502	2447
961.805	2423.27
962.108	2405.19
962.411	2412.65
962.714	2380.33
963.017	2363.38
963.32	2378.98
963.623	2350.28
963.926	2351.63
964.228	2348.47
964.531	2315.48
964.833	2359.09
965.136	2304.85
965.438	2314.35
965.741	2314.57
966.043	2296.95
966.345	2261.92
966.648	2262.6
966.95	2249.26
967.252	2292.2
967.554	2233.67
967.856	2211.75
968.158	2204.07
968.46	2196.83
968.761	2226.44
969.063	2196.61
969.365	2196.61
969.666	2165.2
969.968	2200
970.269	2178.3
970.571	2185.76
970.872	2156.16
971.174	2172.65
971.475	2143.05
971.776	2135.37
972.077	2109.15
972.378	2115.03
972.679	2120.45
972.98	2079.55
973.281	2070.06
973.582	2080.68
973.883	2070.51
974.183	2073.22
974.484	2053.34
974.785	2051.53
975.085	2042.71
975.386	2035.94
975.686	2026.44
975.986	1998.42
976.287	2027.35
976.587	1986.67
976.887	1985.77
977.187	2007.46
977.487	1959.33
977.787	1967.69
978.087	1924.3
978.387	1952.55
978.687	1964.52
978.987	1948.93
979.286	1915.94
979.586	1934.69
979.885	1914.81
980.185	1931.76
980.484	1922.27
980.784	1911.42
981.083	1906.67
981.382	1870.74
981.682	1869.61
981.981	1883.17
982.28	1870.06
982.579	1820.12
982.878	1866.22
983.177	1815.6
983.475	1839.56
983.774	1847.69
984.073	1835.71
984.372	1793.46
984.67	1790.29
984.969	1792.1
985.267	1792.1
985.566	1779.22
985.864	1802.04
986.162	1753.68
986.461	1752.55
986.759	1751.87
987.057	1753
987.355	1737.64
987.653	1745.77
987.951	1727.47
988.249	1754.36
988.547	1699.9
988.844	1726.34
989.142	1711.88
989.44	1700.12
989.737	1677.53
990.035	1674.59
990.332	1693.57
990.63	1659.45
990.927	1657.41
991.224	1633.46
991.521	1619.67
991.819	1665.1
992.116	1650.41
992.413	1654.7
992.71	1637.53
993.006	1637.08
993.303	1569.73
993.6	1622.39
993.897	1591.88
994.193	1587.59
994.49	1583.07
994.787	1580.58
995.083	1567.7
995.379	1577.19
995.676	1524.08
995.972	1557.3
996.268	1529.06
996.565	1537.87
996.861	1533.8
997.157	1539.9
997.453	1496.06
997.749	1488.83
998.044	1526.34
998.34	1514.14
998.636	1491.77
998.932	1456.52
999.227	1465.78
999.523	1452.45
999.818	1433.24
1000.114	1451.54
1000.409	1437.76
1000.704	1436.18
1001	1440.47
1001.295	1402.05
1001.59	1424.65
1001.885	1438.66
1002.18	1396.63
1002.475	1397.53
1002.77	1384.65
1003.065	1386.46
1003.359	1346.91
1003.654	1381.26
1003.949	1370.64
1004.243	1369.74
1004.538	1346.01
1004.832	1319.34
1005.127	1352.11
1005.421	1320.47
1005.715	1321.15
1006.009	1314.37
1006.304	1318.21
1006.598	1325.9
1006.892	1306.01
1007.186	1297.42
1007.48	1291.55
1007.773	1270.53
1008.067	1287.93
1008.361	1261.49
1008.655	1266.46
1008.948	1225.79
1009.242	1268.5
1009.535	1225.11
1009.829	1243.87
1010.122	1212
1010.415	1231.66
1010.708	1216.52
1011.001	1214.49
1011.295	1226.01
1011.588	1189.63
1011.881	1193.47
1012.173	1182.4
1012.466	1188.5
1012.759	1166.58
1013.052	1172.68
1013.344	1179.01
1013.637	1150.76
1013.93	1130.42
1014.222	1153.25
1014.514	1144.43
1014.807	1138.33
1015.099	1139.91
1015.391	1109.41
1015.683	1115.28
1015.976	1122.51
1016.268	1110.99
1016.56	1090.65
1016.851	1087.71
1017.143	1097.2
1017.435	1074.6
1017.727	1057.88
1018.018	1076.86
1018.31	1078.67
1018.602	1063.31
1018.893	1061.95
1019.185	1048.84
1019.476	1036.19
1019.767	1018.33
1020.058	1027.83
1020.35	1028.5
1020.641	1020.59
1020.932	1025.57
1021.223	986.92
1021.514	979.24
1021.804	997.32
1022.095	988.05
1022.386	984.21
1022.677	956.64
1022.967	981.05
1023.258	973.59
1023.548	961.16
1023.839	960.26
1024.129	971.78
1024.419	923.42
1024.709	947.83
1025	940.6
1025.29	911.22
1025.58	940.6
1025.87	891.78
1026.16	921.39
1026.449	920.94
1026.739	904.89
1027.029	903.99
1027.319	892.24
1027.608	882.29
1027.898	889.3
1028.187	873.03
1028.477	877.1
1028.766	899.02
1029.055	878.23
1029.344	877.1
1029.634	834.16
1029.923	861.05
1030.212	830.32
1030.501	827.61
1030.79	854.05
1031.078	829.64
1031.367	845.23
1031.656	833.48
1031.945	822.18
1032.233	784.22
1032.522	807.49
1032.81	825.57
1033.099	807.27
1033.387	794.84
1033.675	797.1
1033.963	767.95
1034.251	788.06
1034.54	770.88
1034.828	756.87
1035.116	765.91
1035.403	756.87
1035.691	764.78
1035.979	762.3
1036.267	762.52
1036.554	750.09
1036.842	732.92
1037.129	759.13
1037.417	740.6
1037.704	749.87
1037.992	715.29
1038.279	732.01
1038.566	741.73
1038.853	741.73
1039.14	741.73
