Data from tablewood_dark_bookshelf_FLMS001491_00023.txt Node
Date: Wed Feb 08 14:14:05 GMT 2017
User: dcchb
Spectrometer: FLMS00149
Trigger mode: 0
Integration Time (sec): 2.000000E-2
Scans to average: 10
Electric dark correction enabled: true
Nonlinearity correction enabled: false
Boxcar width: 0
XAxis mode: Wavelengths
Number of Pixels in Spectrum: 2048
>>>>>Begin Spectral Data<<<<<
341.393	-9.25
341.776	-9.25
342.16	-9.25
342.543	-51.06
342.927	-60.1
343.31	-57.61
343.693	-58.29
344.077	-66.88
344.46	-65.75
344.843	-54.22
345.226	-52.19
345.61	-45.63
345.993	-12.87
346.376	1.14
346.759	9.28
347.142	47.24
347.525	32.33
347.908	56.51
348.291	89.73
348.674	76.62
349.057	100.58
349.44	112.1
349.823	139.22
350.206	176.96
350.588	178.09
350.971	197.3
351.354	217.18
351.737	220.57
352.119	240.01
352.502	253.11
352.884	255.83
353.267	280.68
353.65	285.88
354.032	297.63
354.414	285.88
354.797	289.27
355.179	315.71
355.562	316.39
355.944	331.3
356.326	314.81
356.709	307.35
357.091	326.33
357.473	319.33
357.855	315.26
358.238	330.17
358.62	333.56
359.002	324.07
359.384	335.6
359.766	329.95
360.148	337.63
360.53	312.55
360.912	326.56
361.294	324.98
361.676	324.98
362.057	315.71
362.439	307.12
362.821	307.58
363.203	339.67
363.584	291.08
363.966	305.32
364.348	309.61
364.729	318.2
365.111	301.93
365.493	304.64
365.874	307.8
366.256	300.35
366.637	321.59
367.019	304.41
367.4	305.32
367.781	301.93
368.163	305.09
368.544	301.48
368.925	315.49
369.306	331.08
369.688	323.62
370.069	285.43
370.45	305.09
370.831	313
371.212	298.09
371.593	326.33
371.974	313.45
372.355	310.97
372.736	311.19
373.117	309.16
373.498	322.94
373.879	309.16
374.26	294.24
374.641	313
375.021	305.32
375.402	330.17
375.783	320.91
376.163	327.46
376.544	331.98
376.925	316.16
377.305	317.29
377.686	305.32
378.066	320.01
378.447	303.06
378.827	329.27
379.208	333.34
379.588	329.5
379.968	331.3
380.349	336.28
380.729	339.21
381.109	332.89
381.489	342.38
381.87	340.12
382.25	345.09
382.63	343.06
383.01	357.52
383.39	335.15
383.77	326.56
384.15	334.24
384.53	324.53
384.91	345.77
385.29	348.25
385.67	343.28
386.049	346.22
386.429	356.84
386.809	378.99
387.189	370.17
387.568	381.7
387.948	366.33
388.328	356.39
388.707	378.54
389.087	374.02
389.466	367.24
389.846	376.28
390.225	397.74
390.605	375.6
390.984	383.05
391.363	387.12
391.743	376.05
392.122	374.47
392.501	398.87
392.881	397.97
393.26	366.33
393.639	406.33
394.018	378.99
394.397	376.95
394.776	401.36
395.155	379.67
395.534	399.55
395.913	414.01
396.292	394.58
396.671	388.93
397.05	401.81
397.429	408.14
397.808	404.52
398.186	390.96
398.565	426.44
398.944	423.73
399.323	414.47
399.701	407.46
400.08	431.64
400.458	414.01
400.837	426.67
401.215	429.61
401.594	439.78
401.972	462.15
402.351	447.01
402.729	444.52
403.107	447.01
403.486	428.25
403.864	445.2
404.242	439.78
404.62	446.56
404.999	449.49
405.377	466.44
405.755	454.69
406.133	457.18
406.511	474.13
406.889	440.91
407.267	480.23
407.645	435.71
408.023	466.89
408.401	474.35
408.779	478.19
409.156	486.56
409.534	500.57
409.912	521.58
410.29	500.57
410.667	492.43
411.045	503.73
411.422	520.45
411.8	501.47
412.178	514.58
412.555	528.81
412.933	507.35
413.31	496.95
413.687	518.87
414.065	509.83
414.442	522.94
414.819	538.31
415.197	552.09
415.574	538.31
415.951	531.53
416.328	534.46
416.705	539.21
417.082	565.87
417.46	537.63
417.837	555.03
418.214	554.58
418.591	555.93
418.967	571.3
419.344	585.08
419.721	589.83
420.098	580.79
420.475	576.27
420.852	575.14
421.228	618.3
421.605	600.22
421.982	585.31
422.358	611.75
422.735	603.16
423.111	608.81
423.488	621.69
423.864	623.73
424.241	647.23
424.617	636.38
424.994	634.57
425.37	662.6
425.746	642.71
426.123	651.75
426.499	678.87
426.875	653.78
427.251	651.75
427.627	666.44
428.003	677.06
428.379	706.44
428.756	691.75
429.132	719.32
429.507	711.41
429.883	725.87
430.259	699.88
430.635	718.41
431.011	711.18
431.387	719.09
431.763	735.36
432.138	741.92
432.514	746.21
432.89	748.7
433.265	759.77
433.641	788.69
434.016	748.92
434.392	758.86
434.767	778.3
435.143	797.06
435.518	798.19
435.894	831.86
436.269	849.94
436.644	836.15
437.02	833.44
437.395	837.73
437.77	830.73
438.145	830.05
438.52	868.24
438.895	858.07
439.271	866.66
439.646	848.13
440.021	882.48
440.395	911.63
440.77	879.09
441.145	882.02
441.52	904.17
441.895	913.44
442.27	917.73
442.645	898.07
443.019	914.34
443.394	943.04
443.769	948.24
444.143	929.03
444.518	940.55
444.892	914.79
445.267	953.44
445.641	914.34
446.016	942.81
446.39	945.3
446.764	980.55
447.139	976.94
447.513	979.88
447.887	983.72
448.262	1002.02
448.636	981.01
449.01	994.11
449.384	1012.87
449.758	998.18
450.132	1016.48
450.506	1017.39
450.88	1040.21
451.254	1047.22
451.628	1050.83
452.002	1062.13
452.376	1067.78
452.75	1058.29
453.123	1081.12
453.497	1093.32
453.871	1095.58
454.244	1114.11
454.618	1129.02
454.992	1124.73
455.365	1138.29
455.739	1145.52
456.112	1160.21
456.486	1172.64
456.859	1163.15
457.232	1193.66
457.606	1209.02
457.979	1190.49
458.352	1225.52
458.725	1235.24
459.099	1247.44
459.472	1273.2
459.845	1287.21
460.218	1288.79
460.591	1303.26
460.964	1333.54
461.337	1324.27
461.71	1364.27
462.083	1366.08
462.456	1354.55
462.829	1369.47
463.201	1405.85
463.574	1395.46
463.947	1423.93
464.32	1431.61
464.692	1434.1
465.065	1454.89
465.438	1479.75
465.81	1467.32
466.183	1507.09
466.555	1505.74
466.928	1534.44
467.3	1554.32
467.672	1557.26
468.045	1606.3
468.417	1619.63
468.789	1661.21
469.161	1650.82
469.534	1663.02
469.906	1688.11
470.278	1702.57
470.65	1741.89
471.022	1714.09
471.394	1773.53
471.766	1778.72
472.138	1819.4
472.51	1849.46
472.882	1879.06
473.253	1875.9
473.625	1881.32
473.997	1947.76
474.369	1932.84
474.74	1982.11
475.112	1993.41
475.484	2046.29
475.855	2045.61
476.227	2070.02
476.598	2139.84
476.97	2148.21
477.341	2195.89
477.713	2179.84
478.084	2227.53
478.455	2279.5
478.827	2313.4
479.198	2354.08
479.569	2365.15
479.94	2398.37
480.311	2458.71
480.682	2479.95
481.053	2543.68
481.424	2587.52
481.795	2605.37
482.166	2620.06
482.537	2651.24
482.908	2716.33
483.279	2761.98
483.65	2754.74
484.021	2801.97
484.391	2849.43
484.762	2868.64
485.133	2907.51
485.503	2922.2
485.874	2985.47
486.244	3030.22
486.615	3092.36
486.985	3095.75
487.356	3167.39
487.726	3178.46
488.097	3250.1
488.467	3286.03
488.837	3346.82
489.207	3375.52
489.578	3408.29
489.948	3419.36
490.318	3476.98
490.688	3464.33
491.058	3570.77
491.428	3617.55
491.798	3614.83
492.168	3667.49
492.538	3664.32
492.908	3738.67
493.278	3769.63
493.648	3814.6
494.017	3838.78
494.387	3852.34
494.757	3892.12
495.126	3975.95
495.496	3970.31
495.866	4000.59
496.235	4048.95
496.605	4064.77
496.974	4062.05
497.344	4132.11
497.713	4119
498.082	4184.08
498.452	4213.01
498.821	4214.59
499.19	4259.34
499.559	4307.7
499.928	4321.26
500.298	4347.92
500.667	4391.09
501.036	4394.47
501.405	4428.82
501.774	4442.61
502.143	4483.74
502.512	4518.77
502.88	4515.83
503.249	4551.98
503.618	4554.47
503.987	4611.42
504.356	4592.66
504.724	4685.99
505.093	4671.98
505.462	4728.93
505.83	4700.91
506.199	4764.18
506.567	4838.76
506.936	4845.76
507.304	4876.04
507.672	4987.68
508.041	4923.27
508.409	4986.55
508.777	4993.1
509.145	5086.89
509.514	5053.89
509.882	5108.58
510.25	5093.89
510.618	5156.49
510.986	5199.88
511.354	5246.43
511.722	5270.38
512.09	5316.71
512.458	5347.22
512.826	5372.53
513.193	5429.48
513.561	5398.52
513.929	5490.04
514.297	5546.99
514.664	5580.43
515.032	5605.06
515.4	5652.52
515.767	5680.54
516.135	5770.94
516.502	5704.5
516.869	5759.86
517.237	5790.14
517.604	5768
517.972	5917.82
518.339	5939.52
518.706	5880.09
519.073	5992.62
519.44	6024.49
519.808	6074.88
520.175	6078.72
520.542	6153.07
520.909	6178.83
521.276	6191.26
521.643	6311.49
522.009	6344.71
522.376	6360.98
522.743	6451.14
523.11	6454.76
523.477	6572.72
523.843	6538.37
524.21	6643
524.577	6657.01
524.943	6713.28
525.31	6723.68
525.676	6786.05
526.043	6843
526.409	6906.73
526.776	6974.29
527.142	6993.95
527.508	7049.77
527.874	7112.14
528.241	7141.3
528.607	7123.22
528.973	7220.62
529.339	7196.21
529.705	7332.93
530.071	7389.65
530.437	7390.78
530.803	7478.24
531.169	7453.15
531.535	7464
531.901	7556.88
532.267	7576.09
532.632	7663.77
532.998	7617.89
533.364	7677.33
533.73	7687.72
534.095	7781.05
534.461	7810.88
534.826	7895.17
535.192	7866.93
535.557	7901.5
535.923	7929.3
536.288	7927.04
536.653	8038.9
537.019	7988.96
537.384	8118.9
537.749	8119.12
538.114	8143.98
538.479	8165.9
538.845	8222.85
539.21	8170.87
539.575	8237.99
539.94	8239.35
540.305	8291.77
540.67	8374.48
541.034	8409.74
541.399	8414.26
541.764	8474.37
542.129	8464.88
542.494	8443.86
542.858	8497.87
543.223	8494.25
543.587	8590.3
543.952	8536.06
544.316	8620.35
544.681	8604.08
545.045	8694.93
545.41	8742.16
545.774	8705.1
546.138	8762.27
546.503	8835.49
546.867	8848.37
547.231	8926.56
547.595	8841.59
547.959	8966.78
548.324	8980.34
548.688	8953.9
549.052	9010.4
549.416	9030.74
549.779	9084.07
550.143	9107.57
550.507	9148.02
550.871	9235.93
551.235	9267.57
551.599	9299.66
551.962	9270.05
552.326	9277.06
552.689	9411.97
553.053	9306.66
553.417	9413.33
553.78	9580.55
554.143	9446.55
554.507	9573.77
554.87	9584.85
555.234	9647.44
555.597	9615.81
555.96	9668.91
556.323	9726.76
556.686	9767.67
557.05	9772.19
557.413	9933.99
557.776	9884.5
558.139	9945.52
558.502	9941.67
558.865	10017.38
559.228	10120.43
559.59	10194.32
559.953	10118.39
560.316	10278.61
560.679	10329.01
561.041	10328.33
561.404	10493.52
561.767	10428.67
562.129	10447.88
562.492	10550.7
562.854	10577.14
563.217	10566.74
563.579	10637.93
563.941	10689.9
564.304	10797.24
564.666	10825.04
565.028	10865.49
565.39	10884.93
565.753	10978.93
566.115	11076.56
566.477	11068.2
566.839	11181.64
567.201	11256.67
567.563	11198.82
567.925	11227.06
568.287	11329.89
568.648	11439.71
569.01	11464.8
569.372	11582.76
569.734	11541.63
570.095	11617.56
570.457	11629.76
570.819	11716.54
571.18	11764.68
571.542	11839.7
571.903	11889.19
572.265	11909.31
572.626	11905.24
572.987	11947.04
573.349	12031.79
573.71	12182.52
574.071	12127.6
574.432	12192.91
574.794	12358.33
575.155	12271.56
575.516	12260.48
575.877	12447.37
576.238	12382.97
576.599	12430.87
576.96	12476.52
577.32	12528.72
577.681	12563.98
578.042	12583.19
578.403	12683.97
578.763	12620.7
579.124	12667.48
579.485	12775.5
579.845	12890.07
580.206	12795.16
580.566	12853.46
580.927	12895.49
581.287	12923.97
581.648	12950.41
582.008	12958.54
582.368	12999.22
582.728	13051.42
583.089	13100.91
583.449	13079.67
583.809	13144.98
584.169	13159.67
584.529	13216.39
584.889	13269.95
585.249	13162.38
585.609	13197.18
585.969	13358.76
586.329	13253.68
586.688	13391.98
587.048	13341.36
587.408	13324.64
587.768	13361.92
588.127	13434.01
588.487	13418.64
588.846	13552.65
589.206	13412.99
589.565	13436.72
589.925	13539.77
590.284	13555.14
590.643	13587.68
591.003	13634.01
591.362	13686.43
591.721	13665.64
592.08	13702.7
592.44	13807.33
592.799	13685.3
593.158	13669.71
593.517	13803.27
593.876	13782.02
594.235	13794
594.593	13816.15
594.952	13894.11
595.311	13925.52
595.67	13862.93
596.029	13967.56
596.387	13915.13
596.746	13913.32
597.104	13983.15
597.463	14010.95
597.822	14049.59
598.18	13981.34
598.538	14021.79
598.897	14152.64
599.255	14078.51
599.613	14249.81
599.972	14070.15
600.33	14146.31
600.688	14131.85
601.046	14168.23
601.404	14303.82
601.762	14193.54
602.12	14352.18
602.478	14368.68
602.836	14377.94
603.194	14442.57
603.552	14460.88
603.91	14349.24
604.268	14418.62
604.625	14355.12
604.983	14465.4
605.341	14410.93
605.698	14511.05
606.056	14539.29
606.413	14536.58
606.771	14617.93
607.128	14594.43
607.485	14633.98
607.843	14641.66
608.2	14772.96
608.557	14766.63
608.914	14630.59
609.272	14754.2
609.629	14745.16
609.986	14822.22
610.343	14751.94
610.7	14842.11
611.057	14865.61
611.414	14870.58
611.771	14874.88
612.127	14942.9
612.484	14998.49
612.841	15097.02
613.198	14970.92
613.554	15017.47
613.911	15107.19
614.267	15080.3
614.624	14968.43
614.98	15086.62
615.337	15169.56
615.693	15116.68
616.05	15124.59
616.406	15285.71
616.762	15196.22
617.118	15186.73
617.475	15222.44
617.831	15238.03
618.187	15236.68
618.543	15253.17
618.899	15359.61
619.255	15348.09
619.611	15240.07
619.967	15404.81
620.323	15412.49
620.678	15297.92
621.034	15386.73
621.39	15461.3
621.746	15358.03
622.101	15479.83
622.457	15366.16
622.812	15360.74
623.168	15469.66
623.523	15458.59
623.879	15404.81
624.234	15370.01
624.589	15438.7
624.945	15508.08
625.3	15528.65
625.655	15506.27
626.01	15477.8
626.365	15496.56
626.72	15463.56
627.075	15463.79
627.43	15372.27
627.785	15567.97
628.14	15447.52
628.495	15454.97
628.85	15511.47
629.205	15475.31
629.559	15506.5
629.914	15430.57
630.269	15481.41
630.623	15410.23
630.978	15431.7
631.332	15466.5
631.687	15453.85
632.041	15353.06
632.396	15451.36
632.75	15410.46
633.104	15357.8
633.459	15323.23
633.813	15305.83
634.167	15312.61
634.521	15330.46
634.875	15369.55
635.229	15338.37
635.583	15238.94
635.937	15256.11
636.291	15255.66
636.645	15266.96
636.999	15150.12
637.352	15148.09
637.706	15171.59
638.06	15195.77
638.413	15114.19
638.767	15105.83
639.121	15248.88
639.474	15081.43
639.828	15114.19
640.181	15013.18
640.534	15094.76
640.888	15089.11
641.241	14967.08
641.594	15052.5
641.947	15039.62
642.301	15009.34
642.654	15003.01
643.007	15006.63
643.36	15013.63
643.713	14943.8
644.066	15035.55
644.419	14932.95
644.771	14836.46
645.124	14582.68
645.477	14661.78
645.83	14624.71
646.182	14565.51
646.535	14427.88
646.888	14544.94
647.24	14518.28
647.593	14605.05
647.945	14555.34
648.298	14506.53
648.65	14506.98
649.002	14411.39
649.355	14376.81
649.707	14438.28
650.059	14528.22
650.411	14598.73
650.763	14613.87
651.115	14905.61
651.467	14800.08
651.819	14786.52
652.171	14733.41
652.523	14725.28
652.875	14717.82
653.227	14598.95
653.578	14737.48
653.93	14745.39
654.282	14635.34
654.633	14634.88
654.985	14632.17
655.337	14696.58
655.688	14689.35
656.039	14759.4
656.391	14561.89
656.742	14700.87
657.094	14630.59
657.445	14580.42
657.796	14576.58
658.147	14579.97
658.498	14613.64
658.849	14644.15
659.2	14628.56
659.551	14592.62
659.902	14647.76
660.253	14638.05
660.604	14583.59
660.955	14621.78
661.306	14626.52
661.656	14579.52
662.007	14576.58
662.358	14556.47
662.708	14620.42
663.059	14669.23
663.409	14491.16
663.76	14666.97
664.11	14558.73
664.461	14558.05
664.811	14556.92
665.161	14596.69
665.511	14522.57
665.862	14674.88
666.212	14551.72
666.562	14640.76
666.912	14553.98
667.262	14670.14
667.612	14577.71
667.962	14609.35
668.312	14612.06
668.662	14685.05
669.011	14650.7
669.361	14593.08
669.711	14583.59
670.06	14514.43
670.41	14557.15
670.76	14475.11
671.109	14628.1
671.459	14511.72
671.808	14502.46
672.157	14560.99
672.507	14525.96
672.856	14522.12
673.205	14605.51
673.554	14632.4
673.904	14507.88
674.253	14618.16
674.602	14468.11
674.951	14326.87
675.3	14323.03
675.649	14467.2
675.998	14459.52
676.346	14508.33
676.695	14517.82
677.044	14411.84
677.393	14379.52
677.741	14504.27
678.09	14460.88
678.438	14354.89
678.787	14459.52
679.135	14465.85
679.484	14376.36
679.832	14392.18
680.181	14303.59
680.529	14316.7
680.877	14340.65
681.225	14249.81
681.573	14320.32
681.922	14275.34
682.27	14257.49
682.618	14240.77
682.966	14181.34
683.314	14237.83
683.661	14137.27
684.009	14164.61
684.357	14034.45
684.705	14133.2
685.053	14118.51
685.4	14051.62
685.748	14012.08
686.095	14004.84
686.443	13982.92
686.79	13913.77
687.138	13986.77
687.485	13925.52
687.832	13903.38
688.18	13947.67
688.527	13866.77
688.874	13878.97
689.221	13826.09
689.568	13840.33
689.915	13796.26
690.262	13753.78
690.609	13673.33
690.956	13699.77
691.303	13649.37
691.65	13543.16
691.997	13606.89
692.344	13549.49
692.69	13616.38
693.037	13556.72
693.383	13357.85
693.73	13468.81
694.077	13431.07
694.423	13435.82
694.769	13453.67
695.116	13335.71
695.462	13355.6
695.808	13295.71
696.155	13309.49
696.501	13156.73
696.847	13139.56
697.193	13109.5
697.539	13108.82
697.885	13064.53
698.231	13082.38
698.577	13056.17
698.923	13003.51
699.269	12886
699.614	12878.09
699.96	12878.77
700.306	12868.83
700.651	12850.3
700.997	12762.62
701.342	12822.5
701.688	12715.16
702.033	12728.94
702.379	12760.58
702.724	12690.75
703.069	12595.62
703.415	12577.99
703.76	12647.82
704.105	12565.11
704.45	12540.48
704.795	12406.24
705.14	12409.18
705.485	12485.56
705.83	12381.61
706.175	12325.79
706.52	12314.27
706.865	12262.06
707.209	12353.59
707.554	12222.97
707.899	12260.48
708.243	12196.08
708.588	12130.32
708.932	12139.58
709.277	12103.2
709.621	12124.67
709.966	12066.14
710.31	12062.97
710.654	11981.62
710.998	12093.26
711.342	12041.73
711.687	11917.21
712.031	11856.88
712.375	11863.88
712.719	11898.01
713.063	11888.29
713.407	11933.94
713.75	11777.56
714.094	11888.97
714.438	11815.07
714.782	11942.52
715.125	11738.01
715.469	11771.68
715.812	11717.45
716.156	11608.75
716.499	11656.88
716.843	11669.54
717.186	11595.42
717.53	11739.14
717.873	11696.43
718.216	11698.92
718.559	11568.98
718.902	11552.25
719.246	11527.62
719.589	11547.73
719.932	11452.14
720.275	11470.67
720.617	11524
720.96	11465.93
721.303	11535.3
721.646	11495.53
721.989	11394.97
722.331	11460.5
722.674	11421.63
723.016	11373.27
723.359	11366.04
723.701	11435.65
724.044	11374.63
724.386	11263.45
724.729	11379.38
725.071	11263.9
725.413	11278.59
725.755	11303.22
726.097	11258.25
726.439	11196.56
726.782	11238.59
727.124	11295.08
727.465	11194.07
727.807	11185.71
728.149	11208.08
728.491	11169.21
728.833	11235.88
729.175	11204.69
729.516	11164.47
729.858	11158.82
730.199	11132.15
730.541	11123.79
730.882	11059.16
731.224	11176.67
731.565	11146.39
731.906	11100.29
732.248	11104.13
732.589	11044.7
732.93	10978.93
733.271	11013.28
733.612	11039.5
733.953	11110.46
734.294	11007.63
734.635	10967.18
734.976	11083.79
735.317	11050.12
735.658	10951.82
735.999	11000.85
736.339	11000.85
736.68	11061.64
737.021	10945.49
737.361	10972.16
737.702	11063
738.042	11034.75
738.383	10939.61
738.723	10995.66
739.063	10942.1
739.404	10974.64
739.744	10954.53
740.084	10825.49
740.424	10877.24
740.764	10886.06
741.104	10886.28
741.444	10854.42
741.784	10837.47
742.124	10900.07
742.464	10885.15
742.804	10869.78
743.143	10857.58
743.483	10810.8
743.823	10797.92
744.162	10856.68
744.502	10897.13
744.841	10814.42
745.181	10839.05
745.52	10835.66
745.86	10839.05
746.199	10809.22
746.538	10849.45
746.877	10771.03
747.216	10806.06
747.556	10736
747.895	10779.17
748.234	10768.32
748.573	10761.99
748.911	10752.5
749.25	10770.58
749.589	10727.19
749.928	10739.62
750.267	10710.47
750.605	10698.04
750.944	10670.24
751.283	10632.05
751.621	10693.97
751.96	10632.5
752.298	10633.18
752.636	10613.07
752.975	10478.83
753.313	10535.1
753.651	10607.64
753.989	10584.82
754.327	10527.42
754.666	10352.28
755.004	10484.71
755.342	10471.6
755.679	10410.81
756.017	10467.31
756.355	10420.53
756.693	10438.61
757.031	10412.4
757.368	10334.88
757.706	10346.41
758.044	10367.43
758.381	10332.17
758.719	10384.15
759.056	10320.19
759.394	10225.06
759.731	10155.45
760.068	10237.03
760.405	10150.26
760.743	10142.12
761.08	10129.01
761.417	10048.34
761.754	10074.78
762.091	10051.73
762.428	10004.5
762.765	9926.31
763.102	9955.23
763.438	9942.13
763.775	9937.83
764.112	9853.99
764.449	9923.14
764.785	9839.53
765.122	9735.8
765.458	9734.22
765.795	9738.06
766.131	9677.27
766.467	9651.06
766.804	9644.51
767.14	9541.91
767.476	9579.88
767.812	9559.76
768.148	9581.01
768.485	9503.49
768.821	9432.76
769.157	9495.81
769.492	9448.81
769.828	9481.35
770.164	9355.93
770.5	9316.15
770.836	9315.48
771.171	9269.6
771.507	9236.83
771.842	9161.81
772.178	9187.8
772.513	9115.03
772.849	9114.35
773.184	9110.96
773.519	8968.14
773.855	9035.26
774.19	8994.13
774.525	8960.46
774.86	8980.34
775.195	8859.22
775.53	8935.6
775.865	8894.7
776.2	8826.45
776.535	8796.84
776.87	8716.17
777.205	8744.87
777.539	8658.09
777.874	8689.73
778.209	8589.17
778.543	8511.43
778.878	8528.83
779.212	8554.37
779.547	8486.57
779.881	8534.25
780.215	8403.86
780.55	8412.9
780.884	8374.48
781.218	8303.07
781.552	8348.95
781.886	8298.55
782.22	8325.44
782.554	8183.53
782.888	8107.82
783.222	8112.12
783.556	8107.15
783.889	8070.31
784.223	8014.72
784.557	8020.82
784.89	8039.12
785.224	7977.88
785.557	7939.47
785.891	7944.44
786.224	7885.91
786.558	7950.09
786.891	7793.26
787.224	7764.78
787.557	7727.27
787.891	7787.38
788.224	7746.48
788.557	7734.5
788.89	7723.88
789.223	7693.82
789.556	7694.05
789.888	7558.69
790.221	7552.36
790.554	7459.7
790.887	7514.39
791.219	7518.01
791.552	7497.44
791.884	7451.12
792.217	7404.11
792.549	7354.62
792.882	7420.38
793.214	7276.43
793.546	7343.32
793.879	7243.44
794.211	7263.33
794.543	7239.6
794.875	7191.24
795.207	7213.84
795.539	7194.63
795.871	7199.82
796.203	7079.83
796.535	7059.94
796.867	7089.32
797.198	7050
797.53	7044.8
797.862	6984.46
798.193	7018.13
798.525	6901.98
798.856	7007.51
799.188	6911.92
799.519	6852.26
799.85	6819.27
800.182	6849.55
800.513	6850.23
800.844	6785.37
801.175	6845.71
801.506	6768.2
801.837	6656.34
802.168	6716
802.499	6706.05
802.83	6691.14
803.161	6707.18
803.491	6650.01
803.822	6671.93
804.153	6568.2
804.483	6548.54
804.814	6544.25
805.145	6555.77
805.475	6516.23
805.805	6489.34
806.136	6497.47
806.466	6511.48
806.796	6453.63
807.126	6429.45
807.457	6390.35
807.787	6414.53
808.117	6378.6
808.447	6353.07
808.777	6320.98
809.107	6351.26
809.436	6277.82
809.766	6322.33
810.096	6282.79
810.426	6232.39
810.755	6267.87
811.085	6224.26
811.414	6198.5
811.744	6173.19
812.073	6189.91
812.403	6223.35
812.732	6127.99
813.061	6154.2
813.39	6095.67
813.719	6066.97
814.049	6067.2
814.378	6097.71
814.707	6018.39
815.036	6056.58
815.365	5999.63
815.693	5985.62
816.022	5982.23
816.351	5957.15
816.68	5973.42
817.008	5952.85
817.337	5931.84
817.665	5881.67
817.994	5906.98
818.322	5873.53
818.651	5830.82
818.979	5844.15
819.307	5832.18
819.636	5782.46
819.964	5768.9
820.292	5791.05
820.62	5823.36
820.948	5793.31
821.276	5816.13
821.604	5785.85
821.932	5796.25
822.259	5794.44
822.587	5801.44
822.915	5780.43
823.243	5777.26
823.57	5815
823.898	5801.9
824.225	5800.99
824.553	5724.61
824.88	5758.96
825.207	5737.94
825.535	5786.53
825.862	5772.74
826.189	5739.07
826.516	5793.99
826.843	5844.38
827.17	5819.3
827.497	5777.04
827.824	5776.81
828.151	5735
828.478	5751.05
828.805	5780.2
829.131	5759.18
829.458	5748.56
829.785	5737.04
830.111	5744.5
830.438	5727.32
830.764	5765.29
831.09	5777.72
831.417	5699.53
831.743	5708.79
832.069	5768
832.395	5699.07
832.722	5710.6
833.048	5682.8
833.374	5737.04
833.7	5675.57
834.026	5672.41
834.351	5700.43
834.677	5695.46
835.003	5739.75
835.329	5718.06
835.654	5652.52
835.98	5653.88
836.306	5639.87
836.631	5644.39
836.956	5652.52
837.282	5627.66
837.607	5610.26
837.932	5645.29
838.258	5570.26
838.583	5618.17
838.908	5612.07
839.233	5619.98
839.558	5545.18
839.883	5513.54
840.208	5512.41
840.533	5485.52
840.858	5521
841.182	5529.36
841.507	5531.17
841.832	5463.83
842.156	5487.78
842.481	5492.3
842.805	5463.37
843.13	5473.32
843.454	5466.99
843.778	5450.27
844.103	5394.22
844.427	5363.04
844.751	5375.01
845.075	5388.35
845.399	5355.81
845.723	5291.85
846.047	5313.55
846.371	5291.17
846.695	5288.69
847.019	5253.21
847.343	5242.81
847.666	5214.79
847.99	5182.48
848.313	5195.13
848.637	5157.39
848.96	5123.72
849.284	5152.42
849.607	5105.87
849.931	5060.22
850.254	5006.44
850.577	5003.27
850.9	4974.8
851.223	5014.12
851.546	4956.27
851.869	4958.3
852.192	4952.65
852.515	4909.26
852.838	4900.68
853.161	4900.45
853.483	4909.26
853.806	4863.62
854.129	4865.65
854.451	4856.38
854.774	4835.37
855.096	4848.47
855.419	4824.97
855.741	4833.33
856.063	4739.32
856.385	4785.2
856.708	4754.69
857.03	4727.35
857.352	4738.87
857.674	4742.04
857.996	4709.49
858.318	4695.94
858.64	4699.55
858.961	4653.23
859.283	4636.73
859.605	4628.59
859.926	4658.2
860.248	4635.15
860.57	4595.6
860.891	4612.32
861.212	4556.28
861.534	4516.05
861.855	4562.83
862.176	4548.6
862.498	4566.45
862.819	4540.69
863.14	4555.6
863.461	4532.78
863.782	4528.71
864.103	4508.14
864.424	4516.73
864.745	4511.53
865.065	4495.49
865.386	4461.37
865.707	4501.59
866.027	4484.19
866.348	4411.65
866.668	4434.25
866.989	4430.63
867.309	4442.16
867.63	4417.53
867.95	4413.23
868.27	4401.48
868.59	4414.36
868.91	4379.79
869.23	4412.1
869.55	4367.13
869.87	4419.33
870.19	4380.69
870.51	4384.31
870.83	4394.25
871.15	4374.59
871.469	4343.63
871.789	4293.23
872.109	4337.98
872.428	4324.19
872.748	4351.09
873.067	4319.45
873.386	4321.71
873.706	4337.53
874.025	4338.66
874.344	4251.88
874.663	4304.53
874.982	4277.19
875.301	4258.43
875.62	4271.99
875.939	4304.08
876.258	4217.98
876.577	4231.54
876.896	4212.56
877.214	4188.6
877.533	4243.07
877.852	4227.02
878.17	4201.71
878.489	4211.43
878.807	4231.54
879.125	4240.81
879.444	4220.47
879.762	4192.45
880.08	4201.94
880.398	4193.12
880.716	4179.79
881.034	4193.12
881.352	4183.63
881.67	4169.4
881.988	4154.03
882.306	4102.28
882.624	4151.32
882.941	4163.29
883.259	4131.66
883.577	4106.8
883.894	4085.56
884.212	4103.41
884.529	4101.83
884.846	4025.22
885.164	4060.02
885.481	4050.98
885.798	4081.71
886.115	4019.57
886.432	4032
886.75	4027.25
887.067	4036.07
887.383	3957.65
887.7	3986.35
888.017	3958.1
888.334	4008.95
888.651	3947.48
888.967	3971.21
889.284	3937.99
889.6	3962.4
889.917	3892.12
890.233	3939.8
890.55	3922.85
890.866	3889.63
891.182	3940.48
891.498	3919.91
891.815	3924.66
892.131	3893.25
892.447	3915.17
892.763	3820.93
893.079	3841.04
893.395	3838.56
893.71	3829.74
894.026	3780.93
894.342	3797.2
894.657	3783.19
894.973	3756.07
895.289	3780.93
895.604	3794.72
895.92	3744.1
896.235	3750.42
896.55	3747.26
896.865	3725.57
897.181	3726.47
897.496	3684.66
897.811	3695.06
898.126	3648.05
898.441	3695.06
898.756	3678.34
899.071	3635.85
899.386	3627.72
899.7	3610.99
900.015	3598.79
900.33	3604.67
900.644	3607.83
900.959	3603.99
901.273	3589.75
901.588	3553.37
901.902	3570.99
902.216	3510.88
902.531	3532.35
902.845	3504.78
903.159	3513.37
903.473	3502.29
903.787	3463.88
904.101	3453.48
904.415	3448.74
904.729	3465.91
905.042	3449.64
905.356	3397.44
905.67	3467.95
905.984	3458
906.297	3379.81
906.611	3382.98
906.924	3408.29
907.237	3363.99
907.551	3350.89
907.864	3413.03
908.177	3326.93
908.491	3321.28
908.804	3304.79
909.117	3287.39
909.43	3257.56
909.743	3263.43
910.056	3262.98
910.368	3258.46
910.681	3250.78
910.994	3223.66
911.307	3216.43
911.619	3197.44
911.932	3200.61
912.244	3232.7
912.557	3193.83
912.869	3165.81
913.181	3163.77
913.494	3173.26
913.806	3130.33
914.118	3146.15
914.43	3128.52
914.742	3091.68
915.054	3099.59
915.366	3054.62
915.678	3068.18
915.99	3039.26
916.302	3046.26
916.613	3036.54
916.925	3006.04
917.236	3027.73
917.548	2982.53
917.859	3006.04
918.171	3004.68
918.482	2996.09
918.794	2950.9
919.105	2986.15
919.416	2926.94
919.727	2954.06
920.038	2911.8
920.349	2929.88
920.66	2891.46
920.971	2873.16
921.282	2893.5
921.593	2877
921.903	2871.35
922.214	2838.58
922.525	2827.51
922.835	2830.45
923.146	2825.02
923.456	2799.04
923.767	2799.26
924.077	2775.99
924.387	2789.77
924.697	2753.84
925.008	2762.88
925.318	2739.83
925.628	2757.91
925.938	2719.94
926.248	2733.05
926.558	2719.04
926.867	2679.49
927.177	2689.43
927.487	2673.62
927.796	2634.75
928.106	2659.61
928.416	2658.02
928.725	2630.91
929.034	2644.24
929.344	2622.09
929.653	2599.04
929.962	2580.74
930.271	2614.18
930.581	2605.14
930.89	2557.91
931.199	2555.2
931.508	2548.42
931.817	2551.81
932.125	2547.07
932.434	2512.04
932.743	2524.24
933.051	2490.34
933.36	2505.71
933.669	2484.69
933.977	2491.93
934.286	2458.48
934.594	2489.44
934.902	2462.77
935.21	2449.89
935.519	2441.76
935.827	2441.08
936.135	2386.17
936.443	2389.33
936.751	2392.04
937.059	2388.43
937.367	2416.45
937.674	2410.57
937.982	2354.53
938.29	2373.96
938.597	2366.28
938.905	2351.14
939.213	2323.79
939.52	2333.51
939.827	2339.61
940.135	2310.91
940.442	2304.81
940.749	2333.29
941.056	2304.81
941.363	2276.79
941.67	2276.79
941.977	2244.47
942.284	2247.86
942.591	2254.42
942.898	2245.38
943.205	2239.5
943.511	2182.33
943.818	2208.77
944.125	2198.37
944.431	2214.65
944.738	2197.92
945.044	2160.41
945.35	2189.34
945.657	2145.72
945.963	2173.52
946.269	2150.69
946.575	2180.97
946.881	2143.46
947.187	2120.41
947.493	2107.53
947.799	2098.26
948.105	2128.32
948.41	2115.66
948.716	2081.54
949.022	2066.85
949.327	2073.86
949.633	2059.17
949.938	2068.43
950.244	2061.2
950.549	2048.32
950.854	2021.2
951.16	2031.83
951.465	2036.12
951.77	2013.07
952.075	2025.27
952.38	2016.46
952.685	2012.16
952.99	2003.35
953.294	1990.02
953.599	1993.41
953.904	2009.45
954.209	1959.96
954.513	1955.22
954.818	1988.44
955.122	1964.71
955.426	1934.88
955.731	1961.09
956.035	1941.43
956.339	1950.47
956.643	1932.84
956.948	1896.46
957.252	1905.5
957.556	1870.47
957.86	1857.14
958.163	1892.39
958.467	1868.44
958.771	1856.01
959.075	1849.23
959.378	1865.28
959.682	1822.11
959.985	1823.02
960.289	1828.89
960.592	1825.28
960.896	1823.02
961.199	1819.4
961.502	1819.85
961.805	1775.56
962.108	1790.25
962.411	1777.82
962.714	1746.63
963.017	1742.12
963.32	1784.6
963.623	1760.19
963.926	1768.33
964.228	1740.99
964.531	1702.12
964.833	1736.01
965.136	1725.84
965.438	1731.27
965.741	1738.95
966.043	1707.54
966.345	1707.99
966.648	1682.68
966.95	1697.82
967.252	1703.47
967.554	1692.62
967.856	1662.8
968.158	1665.06
968.46	1660.54
968.761	1663.02
969.063	1641.1
969.365	1636.13
969.666	1630.93
969.968	1630.71
970.269	1651.04
970.571	1630.71
970.872	1618.28
971.174	1608.79
971.475	1626.41
971.776	1607.43
972.077	1605.62
972.378	1595.23
972.679	1563.59
972.98	1577.6
973.281	1566.75
973.582	1559.52
973.883	1528.11
974.183	1546.19
974.484	1545.06
974.785	1519.52
975.085	1521.33
975.386	1541.44
975.686	1523.14
975.986	1510.48
976.287	1504.16
976.587	1499.18
976.887	1505.96
977.187	1548.67
977.487	1500.31
977.787	1538.28
978.087	1487.21
978.387	1475.23
978.687	1501.44
978.987	1472.07
979.286	1455.8
979.586	1465.74
979.885	1460.31
980.185	1446.76
980.484	1425.74
980.784	1414.89
981.083	1449.47
981.382	1436.36
981.682	1411.05
981.981	1418.73
982.28	1400.66
982.579	1383.48
982.878	1396.36
983.177	1396.59
983.475	1381.22
983.774	1359.3
984.073	1358.85
984.372	1362.46
984.67	1383.48
984.969	1368.79
985.267	1385.51
985.566	1365.63
985.864	1351.84
986.162	1340.54
986.461	1337.38
986.759	1336.48
987.057	1357.49
987.355	1334.89
987.653	1324.73
987.951	1320.88
988.249	1319.98
988.547	1319.75
988.844	1301.67
989.142	1258.29
989.44	1293.31
989.737	1267.33
990.035	1286.76
990.332	1239.3
990.63	1249.02
990.927	1259.87
991.224	1248.12
991.521	1228
991.819	1246.08
992.116	1233.2
992.413	1239.53
992.71	1222.35
993.006	1239.98
993.303	1257.83
993.6	1200.21
993.897	1231.85
994.193	1220.32
994.49	1233.88
994.787	1217.16
995.083	1194.11
995.379	1171.73
995.676	1180.77
995.972	1186.2
996.268	1176.93
996.565	1183.71
996.861	1155.92
997.157	1163.6
997.453	1164.5
997.749	1162.7
998.044	1165.86
998.34	1167.67
998.636	1170.6
998.932	1156.82
999.227	1129.25
999.523	1130.38
999.818	1115.69
1000.114	1114.56
1000.409	1120.89
1000.704	1122.24
1001	1108.01
1001.295	1095.8
1001.59	1096.93
1001.885	1072.3
1002.18	1092.19
1002.475	1062.36
1002.77	1082.7
1003.065	1061
1003.359	1091.06
1003.654	1090.38
1003.949	1070.49
1004.243	1065.3
1004.538	1077.05
1004.832	1043.15
1005.127	1055.13
1005.421	1050.38
1005.715	1061.23
1006.009	1055.35
1006.304	1019.2
1006.598	1008.12
1006.892	1000.67
1007.186	996.37
1007.48	1001.8
1007.773	1019.42
1008.067	987.56
1008.361	993.43
1008.655	993.43
1008.948	1002.7
1009.242	981.23
1009.535	993.43
1009.829	984.17
1010.122	955.47
1010.415	954.57
1010.708	948.24
1011.001	969.25
1011.295	952.08
1011.588	915.92
1011.881	936.03
1012.173	941.91
1012.466	919.09
1012.759	921.57
1013.052	929.03
1013.344	915.24
1013.637	929.48
1013.93	896.71
1014.222	916.83
1014.514	900.1
1014.807	919.54
1015.099	882.93
1015.391	900.56
1015.683	872.76
1015.976	876.38
1016.268	887.22
1016.56	887.67
1016.851	871.4
1017.143	868.47
1017.435	881.12
1017.727	863.49
1018.018	838.64
1018.31	845.87
1018.602	838.64
1018.893	847.9
1019.185	826.21
1019.476	835.02
1019.767	823.72
1020.058	830.95
1020.35	834.57
1020.641	812.42
1020.932	813.1
1021.223	811.97
1021.514	790.05
1021.804	807.68
1022.095	770.39
1022.386	801.57
1022.677	757.73
1022.967	769.71
1023.258	792.31
1023.548	763.16
1023.839	778.52
1024.129	776.26
1024.419	767.9
1024.709	757.06
1025	747.11
1025.29	758.19
1025.58	759.54
1025.87	746.66
1026.16	738.3
1026.449	732.88
1026.739	729.03
1027.029	746.66
1027.319	725.19
1027.608	708.7
1027.898	706.21
1028.187	730.84
1028.477	715.48
1028.766	710.73
1029.055	697.62
1029.344	711.63
1029.634	681.8
1029.923	692.43
1030.212	684.97
1030.501	667.79
1030.79	679.54
1031.078	672.76
1031.367	671.41
1031.656	658.75
1031.945	682.26
1032.233	658.53
1032.522	662.6
1032.81	662.14
1033.099	661.24
1033.387	658.75
1033.675	640.9
1033.963	649.04
1034.251	648.36
1034.54	640.68
1034.828	625.08
1035.116	644.97
1035.403	640.68
1035.691	656.04
1035.979	629.6
1036.267	629.83
1036.554	627.79
1036.842	619.21
1037.129	626.21
1037.417	621.01
1037.704	637.29
1037.992	606.55
1038.279	605.2
1038.566	589.6
1038.853	589.6
1039.14	589.6
