Data from tablewood_dark_bookshelf_FLMS001491_00093.txt Node
Date: Wed Feb 08 14:16:01 GMT 2017
User: dcchb
Spectrometer: FLMS00149
Trigger mode: 0
Integration Time (sec): 2.000000E-2
Scans to average: 10
Electric dark correction enabled: true
Nonlinearity correction enabled: false
Boxcar width: 0
XAxis mode: Wavelengths
Number of Pixels in Spectrum: 2048
>>>>>Begin Spectral Data<<<<<
341.393	2.06
341.776	2.06
342.16	2.06
342.543	-52.63
342.927	-51.72
343.31	-63.02
343.693	-59.18
344.077	-53.76
344.46	-76.13
344.843	-31.16
345.226	-34.1
345.61	-39.52
345.993	-13.08
346.376	-15.79
346.759	0.03
347.142	37.09
347.525	20.37
347.908	54.49
348.291	75.51
348.674	99.69
349.057	98.56
349.44	140.59
349.823	127.48
350.206	167.03
350.588	179.91
350.971	204.99
351.354	220.81
351.737	223.07
352.119	216.97
352.502	243.64
352.884	258.33
353.267	263.3
353.65	271.21
354.032	294.03
354.414	297.65
354.797	292.9
355.179	301.94
355.562	317.53
355.944	316.18
356.326	315.95
356.709	324.31
357.091	316.86
357.473	367.02
357.855	317.53
358.238	327.25
358.62	332.67
359.002	328.38
359.384	331.32
359.766	324.77
360.148	335.39
360.53	316.4
360.912	331.77
361.294	325.67
361.676	324.99
362.057	345.1
362.439	336.52
362.821	322.96
363.203	333.8
363.584	323.64
363.966	325.67
364.348	338.1
364.729	317.53
365.111	321.15
365.493	302.85
365.874	331.54
366.256	308.04
366.637	321.15
367.019	332.9
367.4	320.7
367.781	316.18
368.163	317.31
368.544	302.85
368.925	317.99
369.306	304.2
369.688	305.1
370.069	307.59
370.45	311.88
370.831	302.17
371.212	324.99
371.593	323.41
371.974	329.51
372.355	318.44
372.736	335.39
373.117	313.24
373.498	323.86
373.879	312.56
374.26	318.89
374.641	323.41
375.021	311.88
375.402	322.05
375.783	326.12
376.163	341.49
376.544	329.51
376.925	330.42
377.305	322.96
377.686	332.45
378.066	320.7
378.447	308.49
378.827	344.2
379.208	359.79
379.588	343.07
379.968	349.85
380.349	333.13
380.729	345.33
381.109	338.1
381.489	332.45
381.87	358.21
382.25	338.1
382.63	355.73
383.01	363.63
383.39	352.56
383.77	343.75
384.15	351.88
384.53	346.69
384.91	364.31
385.29	374.71
385.67	361.83
386.049	379.23
386.429	374.26
386.809	356.86
387.189	373.13
387.568	367.93
387.948	378.32
388.328	390.53
388.707	383.97
389.087	387.14
389.466	389.85
389.846	396.85
390.225	388.27
390.605	400.24
390.984	398.21
391.363	389.4
391.743	380.36
392.122	381.04
392.501	391.66
392.881	417.42
393.26	412.67
393.639	408.61
394.018	403.63
394.397	406.57
394.776	411.99
395.155	418.77
395.534	419
395.913	415.61
396.292	429.85
396.671	422.62
397.05	426.68
397.429	441.15
397.808	448.83
398.186	435.72
398.565	438.43
398.944	419.23
399.323	433.69
399.701	430.75
400.08	450.86
400.458	432.33
400.837	459.45
401.215	440.92
401.594	453.58
401.972	438.89
402.351	456.06
402.729	469.17
403.107	465.1
403.486	448.83
403.864	467.36
404.242	467.13
404.62	481.37
404.999	488.83
405.377	462.39
405.755	478.89
406.133	493.35
406.511	473.46
406.889	486.12
407.267	500.81
407.645	502.61
408.023	495.61
408.401	513.24
408.779	519.56
409.156	518.88
409.534	494.25
409.912	543.06
410.29	529.73
410.667	560.01
411.045	556.85
411.422	543.52
411.8	548.49
412.178	547.13
412.555	551.43
412.933	548.49
413.31	564.99
413.687	575.83
414.065	569.05
414.442	569.28
414.819	585.78
415.197	581.93
415.574	573.12
415.951	597.98
416.328	570.18
416.705	599.79
417.082	585.78
417.46	613.35
417.837	614.93
418.214	604.08
418.591	609.96
418.967	618.32
419.344	630.97
419.721	645.89
420.098	610.18
420.475	635.04
420.852	641.82
421.228	659.22
421.605	682.95
421.982	656.51
422.358	669.39
422.735	668.03
423.111	661.48
423.488	693.34
423.864	686.56
424.241	681.37
424.617	685.89
424.994	716.17
425.37	712.55
425.746	709.61
426.123	712.33
426.499	731.76
426.875	740.8
427.251	740.35
427.627	757.52
428.003	758.43
428.379	770.86
428.756	769.5
429.132	741.03
429.507	771.08
429.883	763.62
430.259	804.53
430.635	798.65
431.011	786.67
431.387	809.72
431.763	827.35
432.138	823.28
432.514	845.88
432.89	850.63
433.265	838.88
433.641	866.67
434.016	851.98
434.392	876.39
434.767	889.5
435.143	890.17
435.518	901.93
435.894	897.86
436.269	920.91
436.644	902.15
437.02	934.24
437.395	953.68
437.77	943.28
438.145	960.23
438.52	976.27
438.895	975.6
439.271	978.76
439.646	980.34
440.021	982.6
440.395	1023.05
440.77	972.88
441.145	1033.22
441.52	1028.25
441.895	1042.94
442.27	1042.94
442.645	1040.68
443.019	1039.1
443.394	1049.94
443.769	1064.86
444.143	1058.08
444.518	1104.86
444.892	1083.39
445.267	1079.77
445.641	1086.55
446.016	1097.17
446.39	1101.92
446.764	1115.71
447.139	1093.33
447.513	1103.5
447.887	1136.95
448.262	1150.73
448.636	1128.36
449.01	1153.44
449.384	1163.61
449.758	1168.36
450.132	1169.49
450.506	1196.38
450.88	1192.31
451.254	1201.35
451.628	1195.03
452.002	1231.18
452.376	1210.62
452.75	1233.44
453.123	1236.38
453.497	1256.27
453.871	1276.38
454.244	1284.97
454.618	1302.82
454.992	1333.33
455.365	1290.39
455.739	1354.57
456.112	1369.71
456.486	1376.94
456.859	1352.54
457.232	1387.11
457.606	1401.57
457.979	1417.84
458.352	1458.52
458.725	1443.61
459.099	1462.36
459.472	1480.22
459.845	1499.42
460.218	1519.76
460.591	1505.98
460.964	1536.03
461.337	1555.24
461.71	1587.56
462.083	1598.86
462.456	1609.93
462.829	1625.07
463.201	1628.69
463.574	1630.95
463.947	1655.13
464.32	1700.77
464.692	1694.45
465.065	1713.88
465.438	1744.62
465.81	1757.72
466.183	1787.1
466.555	1817.61
466.928	1820.32
467.3	1818.29
467.672	1855.12
468.045	1897.83
468.417	1884.05
468.789	1915.23
469.161	1937.83
469.534	1988.68
469.906	1996.36
470.278	2012.4
470.65	2063.02
471.022	2088.79
471.394	2105.51
471.766	2142.8
472.138	2153.19
472.51	2173.98
472.882	2225.05
473.253	2226.18
473.625	2293.98
473.997	2318.39
474.369	2336.92
474.74	2360.64
475.112	2401.32
475.484	2434.99
475.855	2481.54
476.227	2484.48
476.598	2551.83
476.97	2560.19
477.341	2594.76
477.713	2663.91
478.084	2675.66
478.455	2726.06
478.827	2758.83
479.198	2807.19
479.569	2853.96
479.94	2903.91
480.311	2929.67
480.682	2989.78
481.053	3056.9
481.424	3105.03
481.795	3083.79
482.166	3161.53
482.537	3225.48
482.908	3276.78
483.279	3271.81
483.65	3414.85
484.021	3423.67
484.391	3459.15
484.762	3485.59
485.133	3533.27
485.503	3549.99
485.874	3663.43
486.244	3650.55
486.615	3720.61
486.985	3764.22
487.356	3845.12
487.726	3922.86
488.097	3920.15
488.467	3904.33
488.837	4054.61
489.207	4110.65
489.578	4150.65
489.948	4215.74
490.318	4264.32
490.688	4233.14
491.058	4310.65
491.428	4372.12
491.798	4439.46
492.168	4517.2
492.538	4501.6
492.908	4566.69
493.278	4617.31
493.648	4643.75
494.017	4701.37
494.387	4768.72
494.757	4737.98
495.126	4797.42
495.496	4812.11
495.866	4956.28
496.235	4947.47
496.605	4980.01
496.974	4969.39
497.344	5080.12
497.713	5138.2
498.082	5089.16
498.452	5112.89
498.821	5218.87
499.19	5207.8
499.559	5292.54
499.928	5310.62
500.298	5342.49
500.667	5410.96
501.036	5420.45
501.405	5424.97
501.774	5462.48
502.143	5480.34
502.512	5512.43
502.88	5527.11
503.249	5561.01
503.618	5701.35
503.987	5629.03
504.356	5677.85
504.724	5748.13
505.093	5783.6
505.462	5797.84
505.83	5844.17
506.199	5897.95
506.567	6012.07
506.936	5982.24
507.304	6049.13
507.672	6059.08
508.041	6103.14
508.409	6135.69
508.777	6230.15
509.145	6227.44
509.514	6213.2
509.882	6322.35
510.25	6286.87
510.618	6316.25
510.986	6397.83
511.354	6469.01
511.722	6530.25
512.09	6573.41
512.458	6605.5
512.826	6641.66
513.193	6654.09
513.561	6703.13
513.929	6811.15
514.297	6838.94
514.664	6920.75
515.032	6902.9
515.4	6925.04
515.767	6967.75
516.135	7079.16
516.502	7000.52
516.869	7165.49
517.237	7176.11
517.604	7132.04
517.972	7316.67
518.339	7319.16
518.706	7336.56
519.073	7394.86
519.44	7470.79
519.808	7572.71
520.175	7552.37
520.542	7635.76
520.909	7716.89
521.276	7738.13
521.643	7760.05
522.009	7830.56
522.376	7896.54
522.743	7931.57
523.11	7997.78
523.477	8036.88
523.843	8178.12
524.21	8259.47
524.577	8282.52
524.943	8359.13
525.31	8340.6
525.676	8463.31
526.043	8517.32
526.409	8611.33
526.776	8636.19
527.142	8710.53
527.508	8713.47
527.874	8813.81
528.241	8822.85
528.607	8917.99
528.973	8979.91
529.339	8998.44
529.705	8988.04
530.071	9160.01
530.437	9179
530.803	9258.99
531.169	9253.34
531.535	9334.47
531.901	9373.79
532.267	9363.17
532.632	9462.38
532.998	9514.35
533.364	9588.48
533.73	9523.17
534.095	9692.65
534.461	9703.5
534.826	9747.12
535.192	9736.72
535.557	9892.88
535.923	9818.75
536.288	9981.69
536.653	9923.84
537.019	10002.93
537.384	10081.57
537.749	10114.34
538.114	10086.99
538.479	10143.04
538.845	10178.29
539.21	10204.51
539.575	10248.57
539.94	10272.98
540.305	10324.95
540.67	10396.37
541.034	10391.85
541.399	10463.93
541.764	10457.15
542.129	10555.23
542.494	10527.66
542.858	10626.19
543.223	10598.17
543.587	10725.4
543.952	10701.67
544.316	10733.98
544.681	10698.96
545.045	10831.83
545.41	10944.6
545.774	10895.11
546.138	10965.84
546.503	10915.67
546.867	10929.46
547.231	10986.63
547.595	11081.32
547.959	11084.03
548.324	11188.43
548.688	11146.18
549.052	11165.61
549.416	11263.46
549.779	11273.86
550.143	11336.23
550.507	11401.08
550.871	11479.27
551.235	11405.15
551.599	11547.3
551.962	11512.72
552.326	11594.3
552.689	11703.22
553.053	11632.49
553.417	11754.07
553.78	11885.14
554.143	11820.28
554.507	11870.22
554.87	11883.78
555.234	12059.15
555.597	11961.3
555.96	12067.73
556.323	12126.72
556.686	12107.28
557.05	12217.56
557.413	12239.03
557.776	12339.14
558.139	12457.1
558.502	12486.93
558.865	12504.56
559.228	12563.31
559.59	12622.07
559.953	12666.59
560.316	12802.4
560.679	12872.68
561.041	12959.91
561.404	13052.79
561.767	13059.57
562.129	13000.36
562.492	13173.24
562.854	13185.44
563.217	13206.91
563.579	13222.73
563.941	13455.72
564.304	13444.19
564.666	13455.72
565.028	13546.34
565.39	13632.21
565.753	13722.38
566.115	13802.83
566.477	13835.6
566.839	13838.53
567.201	13902.26
567.563	13942.03
567.925	14092.31
568.287	14082.14
568.648	14226.09
569.01	14255.25
569.372	14339.76
569.734	14341.8
570.095	14439.87
570.457	14501.79
570.819	14616.59
571.18	14639.87
571.542	14708.79
571.903	14833.31
572.265	14855.46
572.626	14921.67
572.987	14984.04
573.349	15023.14
573.71	15105.85
574.071	15161.66
574.432	15241.44
574.794	15355.33
575.155	15309.68
575.516	15313.07
575.877	15400.3
576.238	15545.16
576.599	15569.34
576.96	15538.15
577.32	15632.84
577.681	15680.29
578.042	15739.73
578.403	15721.2
578.763	15767.52
579.124	15856.79
579.485	15965.94
579.845	16002.77
580.206	16064.01
580.566	16068.08
580.927	16159.15
581.287	16256.1
581.648	16226.49
582.008	16318.47
582.368	16330.67
582.728	16331.58
583.089	16391.46
583.449	16395.53
583.809	16426.26
584.169	16449.99
584.529	16515.07
584.889	16667.39
585.249	16513.72
585.609	16535.64
585.969	16709.87
586.329	16614.73
586.688	16733.37
587.048	16747.84
587.408	16646.82
587.768	16830.77
588.127	16807.72
588.487	16749.19
588.846	17014.95
589.206	16883.88
589.565	16830.32
589.925	17070.77
590.284	17050.2
590.643	17109.63
591.003	17094.27
591.362	17172.91
591.721	17079.81
592.08	17164.77
592.44	17251.1
592.799	17362.28
593.158	17216.98
593.517	17297.65
593.876	17411.77
594.235	17414.71
594.593	17389.4
594.952	17457.42
595.311	17392.34
595.67	17516.86
596.029	17654.25
596.387	17547.14
596.746	17602.73
597.104	17562.05
597.463	17648.83
597.822	17681.82
598.18	17658.55
598.538	17702.84
598.897	17855.6
599.255	17784.87
599.613	17977.18
599.972	17861.93
600.33	17918.88
600.688	17835.27
601.046	18000.01
601.404	18030.51
601.762	18056.05
602.12	18063.73
602.478	18050.4
602.836	18175.6
603.194	18057.41
603.552	18143.05
603.91	18045.66
604.268	18229.15
604.625	18093.34
604.983	18176.05
605.341	18124.07
605.698	18347.79
606.056	18403.16
606.413	18400.9
606.771	18313.22
607.128	18418.08
607.485	18402.93
607.843	18403.39
608.2	18631.4
608.557	18559.77
608.914	18447.45
609.272	18684.06
609.629	18645.41
609.986	18768.12
610.343	18669.59
610.7	18802.7
611.057	18849.02
611.414	18781.23
611.771	18800.89
612.127	18943.03
612.484	18841.79
612.841	18953.65
613.198	18879.08
613.554	18909.59
613.911	18968.57
614.267	19105.06
614.624	18989.81
614.98	18954.78
615.337	19099.64
615.693	19131.73
616.05	19120.2
616.406	19134.21
616.762	19206.3
617.118	19111.84
617.475	19180.09
617.831	19124.95
618.187	19257.6
618.543	19265.28
618.899	19412.17
619.255	19349.35
619.611	19353.42
619.967	19415.79
620.323	19414.88
620.678	19417.14
621.034	19363.59
621.39	19391.83
621.746	19327.2
622.101	19570.36
622.457	19355.45
622.812	19509.57
623.168	19431.16
623.523	19548.67
623.879	19550.47
624.234	19496.01
624.589	19461.89
624.945	19492.85
625.3	19541.21
625.655	19574.43
626.01	19592.28
626.365	19633.41
626.72	19526.75
627.075	19687.42
627.43	19555.9
627.785	19635.9
628.14	19562.23
628.495	19580.3
628.85	19523.13
629.205	19444.71
629.559	19634.09
629.914	19548.44
630.269	19537.59
630.623	19583.24
630.978	19502.57
631.332	19487.88
631.687	19512.28
632.041	19515.9
632.396	19467.76
632.75	19392.51
633.104	19427.09
633.459	19377.37
633.813	19347.54
634.167	19340.31
634.521	19401.55
634.875	19351.38
635.229	19449.01
635.583	19227.09
635.937	19284.72
636.291	19267.54
636.645	19357.71
636.999	19313.64
637.352	19284.72
637.706	19314.55
638.06	19288.11
638.413	19237.04
638.767	19110.94
639.121	19211.5
639.474	19064.61
639.828	19021
640.181	19109.13
640.534	19116.59
640.888	19025.06
641.241	18967.44
641.594	18993.43
641.947	19063.71
642.301	18912.07
642.654	18987.1
643.007	18891.28
643.36	18989.59
643.713	18953.2
644.066	18955.46
644.419	18847.67
644.771	18834.11
645.124	18689.93
645.477	18639.54
645.83	18536.04
646.182	18536.04
646.535	18377.4
646.888	18359.32
647.24	18253.56
647.593	18399.32
647.945	18229.15
648.298	18136.73
648.65	18199.1
649.002	18095.37
649.355	18295.59
649.707	18186.67
650.059	18240
650.411	18620.33
650.763	18549.15
651.115	18701.46
651.467	18626.66
651.819	18666.43
652.171	18610.39
652.523	18606.09
652.875	18592.08
653.227	18478.19
653.578	18643.15
653.93	18607.9
654.282	18577.39
654.633	18468.02
654.985	18515.93
655.337	18465.08
655.688	18496.94
656.039	18582.14
656.391	18427.79
656.742	18558.41
657.094	18529.26
657.445	18465.98
657.796	18491.97
658.147	18366.1
658.498	18478.41
658.849	18535.81
659.2	18474.34
659.551	18484.06
659.902	18518.41
660.253	18429.83
660.604	18475.93
660.955	18377.85
661.306	18496.04
661.656	18413.78
662.007	18495.36
662.358	18365.65
662.708	18385.99
663.059	18364.29
663.409	18323.39
663.76	18518.86
664.11	18392.31
664.461	18483.38
664.811	18457.17
665.161	18420.79
665.511	18443.16
665.862	18448.13
666.212	18484.97
666.562	18485.19
666.912	18511.18
667.262	18458.75
667.612	18393.22
667.962	18396.83
668.312	18307.57
668.662	18483.38
669.011	18432.99
669.361	18378.3
669.711	18418.75
670.06	18448.36
670.41	18499.43
670.76	18350.05
671.109	18368.36
671.459	18267.34
671.808	18270.96
672.157	18411.52
672.507	18355.7
672.856	18331.98
673.205	18335.59
673.554	18479.77
673.904	18372.65
674.253	18517.73
674.602	18306.89
674.951	18119.55
675.3	18020.35
675.649	18285.88
675.998	18258.53
676.346	18314.57
676.695	18345.99
677.044	18179.89
677.393	18302.15
677.741	18337.85
678.09	18237.06
678.438	18145.77
678.787	18203.62
679.135	18250.4
679.484	18184.63
679.832	18178.53
680.181	18046.56
680.529	18187.35
680.877	18096.95
681.225	18128.82
681.573	18288.59
681.922	18060.34
682.27	18031.64
682.618	18054.47
682.966	17932.66
683.314	17985.09
683.661	17925.43
684.009	17825.77
684.357	17889.95
684.705	17875.94
685.053	17840.01
685.4	17806.79
685.748	17757.3
686.095	17735.38
686.443	17669.39
686.79	17650.64
687.138	17738.54
687.485	17620.36
687.832	17583.52
688.18	17685.66
688.527	17594.14
688.874	17594.82
689.221	17514.82
689.568	17431.21
689.915	17461.49
690.262	17517.53
690.609	17319.8
690.956	17284.77
691.303	17338.78
691.65	17222.63
691.997	17245.68
692.344	17176.07
692.69	17083.87
693.037	17190.31
693.383	16963.65
693.73	17187.37
694.077	16887.95
694.423	16987.38
694.769	16906.93
695.116	16826.7
695.462	16862.41
695.808	16854.05
696.155	16814.73
696.501	16593.72
696.847	16739.25
697.193	16620.61
697.539	16652.02
697.885	16484.79
698.231	16422.2
698.577	16477.56
698.923	16452.93
699.269	16435.08
699.614	16316.89
699.96	16301.29
700.306	16221.75
700.651	16270.79
700.997	16123.67
701.342	16157.57
701.688	16156.21
702.033	16024.47
702.379	16028.99
702.724	16072.83
703.069	16073.73
703.415	15881.42
703.76	15900.18
704.105	15938.14
704.45	15803.23
704.795	15739.28
705.14	15710.58
705.485	15730.01
705.83	15622.89
706.175	15659.5
706.52	15642.1
706.865	15557.13
707.209	15541.31
707.554	15528.21
707.899	15572.27
708.243	15345.84
708.588	15433.07
708.932	15287.08
709.277	15213.19
709.621	15351.04
709.966	15174.77
710.31	15235.33
710.654	15133.87
710.998	15054.1
711.342	15138.84
711.687	15104.04
712.031	15054.32
712.375	15010.93
712.719	15063.59
713.063	15037.15
713.407	15155.79
713.75	14893.42
714.094	15063.59
714.438	15008
714.782	14940.65
715.125	14930.03
715.469	14928.45
715.812	14844.38
716.156	14744.5
716.499	14744.27
716.843	14793.76
717.186	14717.83
717.53	14682.13
717.873	14785.4
718.216	14688
718.559	14589.7
718.902	14492.75
719.246	14529.14
719.589	14545.18
719.932	14495.24
720.275	14548.8
720.617	14459.99
720.96	14476.94
721.303	14496.37
721.646	14469.25
721.989	14381.35
722.331	14461.57
722.674	14346.32
723.016	14414.79
723.359	14430.61
723.701	14458.86
724.044	14298.86
724.386	14282.82
724.729	14379.99
725.071	14376.15
725.413	14288.92
725.755	14338.41
726.097	14272.2
726.439	14194.01
726.782	14293.89
727.124	14297.05
727.465	14287.56
727.807	14197.62
728.149	14115.82
728.491	14114.91
728.833	14204.17
729.175	14110.39
729.516	14153.78
729.858	14084.86
730.199	14173.44
730.541	14078.53
730.882	14092.77
731.224	14083.5
731.565	13982.49
731.906	14044.63
732.248	14063.39
732.589	14017.06
732.93	13968.02
733.271	13973.67
733.612	14029.26
733.953	14003.05
734.294	13901.13
734.635	13878.31
734.976	14022.03
735.317	13924.41
735.658	13933.45
735.999	13963.73
736.339	13845.54
736.68	13955.59
737.021	13865.2
737.361	13909.04
737.702	13913.79
738.042	13877.18
738.383	13845.09
738.723	13866.56
739.063	13798.54
739.404	13801.25
739.744	13769.16
740.084	13773.23
740.424	13764.19
740.764	13742.94
741.104	13745.88
741.444	13756.05
741.784	13706.33
742.124	13694.81
742.464	13714.7
742.804	13737.52
743.143	13730.97
743.483	13714.24
743.823	13714.47
744.162	13639.22
744.502	13693.91
744.841	13665.21
745.181	13662.49
745.52	13617.75
745.86	13605.09
746.199	13587.47
746.538	13564.64
746.877	13554.25
747.216	13588.82
747.556	13566.45
747.895	13559.67
748.234	13589.05
748.573	13516.96
748.911	13521.25
749.25	13474.7
749.589	13480.58
749.928	13450.97
750.267	13462.05
750.605	13552.44
750.944	13535.27
751.283	13449.39
751.621	13403.29
751.96	13377.98
752.298	13349.96
752.636	13314.48
752.975	13387.7
753.313	13313.8
753.651	13343.18
753.989	13167.14
754.327	13244.43
754.666	13256.85
755.004	13243.3
755.342	13264.54
755.679	13193.35
756.017	13076.29
756.355	13237.87
756.693	13117.2
757.031	13103.86
757.368	13096.18
757.706	13021.83
758.044	13030.87
758.381	12988.16
758.719	13038.56
759.056	12958.11
759.394	12933.7
759.731	12796.75
760.068	12782.07
760.405	12744.1
760.743	12728.06
761.08	12740.94
761.417	12664.33
761.754	12657.77
762.091	12659.36
762.428	12601.73
762.765	12462.07
763.102	12578.23
763.438	12529.42
763.775	12462.75
764.112	12421.4
764.449	12479.93
764.785	12339.59
765.122	12241.74
765.458	12227.96
765.795	12216.43
766.131	12200.16
766.467	12191.57
766.804	12124.46
767.14	12052.82
767.476	12150.22
767.812	12016.44
768.148	12017.57
768.485	11954.74
768.821	11940.51
769.157	11912.48
769.492	11782.32
769.828	11774.63
770.164	11678.59
770.5	11666.16
770.836	11745.93
771.171	11590.68
771.507	11484.25
771.842	11496.68
772.178	11424.36
772.513	11408.09
772.849	11402.67
773.184	11327.64
773.519	11352.72
773.855	11266.62
774.19	11221.43
774.525	11163.8
774.86	11163.58
775.195	11181.88
775.53	11063.92
775.865	11065.05
776.2	10910.25
776.535	10966.52
776.87	10901.89
777.205	10891.72
777.539	10923.13
777.874	10883.58
778.209	10773.53
778.543	10677.26
778.878	10722.91
779.212	10713.87
779.547	10586.19
779.881	10595
780.215	10582.12
780.55	10541.45
780.884	10458.06
781.218	10420.77
781.552	10401.34
781.886	10381
782.22	10305.07
782.554	10251.06
782.888	10177.61
783.222	10141.91
783.556	10112.08
783.889	10085.64
784.223	9957.05
784.557	10041.57
784.89	10018.07
785.224	9941.91
785.557	9864.18
785.891	9864.4
786.224	9862.82
786.558	9797.51
786.891	9681.13
787.224	9731.52
787.557	9676.61
787.891	9697.63
788.224	9709.83
788.557	9681.81
788.89	9579.21
789.223	9615.14
789.556	9520.91
789.888	9494.92
790.221	9531.3
790.554	9444.07
790.887	9401.36
791.219	9378.76
791.552	9342.38
791.884	9316.17
792.217	9268.94
792.549	9242.27
792.882	9209.73
793.214	9143.97
793.546	9142.16
793.879	9023.07
794.211	9019.9
794.543	9047.47
794.875	9026.23
795.207	9084.08
795.539	9007.02
795.871	8967.02
796.203	8876.86
796.535	8857.2
796.867	8810.42
797.198	8834.6
797.53	8806.12
797.862	8766.58
798.193	8777.88
798.525	8739.69
798.856	8691.1
799.188	8584.21
799.519	8593.02
799.85	8534.95
800.182	8542.63
800.513	8563.42
800.844	8469.86
801.175	8443.87
801.506	8482.52
801.837	8433.7
802.168	8362.52
802.499	8347.15
802.83	8290.43
803.161	8331.79
803.491	8309.41
803.822	8286.82
804.153	8242.52
804.483	8170.66
804.814	8168.63
805.145	8180.83
805.475	8122.3
805.805	8120.72
806.136	8110.78
806.466	8059.03
806.796	8011.12
807.126	8024.22
807.457	7980.61
807.787	7977.22
808.117	8003.66
808.447	7842.99
808.777	7931.8
809.107	7897.45
809.436	7840.95
809.766	7859.71
810.096	7824.68
810.426	7795.3
810.755	7792.37
811.085	7802.99
811.414	7752.14
811.744	7704.46
812.073	7706.04
812.403	7675.31
812.732	7652.93
813.061	7614.52
813.39	7562.99
813.719	7604.57
814.049	7567.74
814.378	7594.86
814.707	7492.26
815.036	7596.89
815.365	7456.1
815.693	7404.13
816.022	7428.99
816.351	7370.91
816.68	7405.03
817.008	7418.14
817.337	7314.41
817.665	7329.33
817.994	7319.38
818.322	7255.66
818.651	7284.81
818.979	7267.63
819.307	7291.59
819.636	7199.61
819.964	7177.92
820.292	7217.92
820.62	7176.79
820.948	7169.78
821.276	7165.49
821.604	7162.78
821.932	7172.72
822.259	7165.49
822.587	7143.12
822.915	7147.18
823.243	7169.11
823.57	7109.45
823.898	7164.36
824.225	7138.15
824.553	7135.89
824.88	7102.67
825.207	7156
825.535	7128.65
825.862	7126.62
826.189	7125.72
826.516	7162.78
826.843	7170.91
827.17	7162.33
827.497	7119.62
827.824	7096.34
828.151	7174.75
828.478	7089.79
828.805	7117.36
829.131	7119.84
829.458	7045.04
829.785	7066.51
830.111	7170.46
830.438	7113.29
830.764	7089.56
831.09	7082.55
831.417	7029.9
831.743	7023.12
832.069	7111.25
832.395	7061.09
832.722	6986.29
833.048	7048.2
833.374	7021.54
833.7	6993.74
834.026	7040.97
834.351	7087.07
834.677	6992.84
835.003	7008.88
835.329	7013.63
835.654	7001.2
835.98	7045.27
836.306	6986.96
836.631	6986.74
836.956	6972.05
837.282	6949.68
837.607	6927.08
837.932	6877.81
838.258	6929.56
838.583	6868.55
838.908	6861.09
839.233	6861.77
839.558	6806.85
839.883	6814.76
840.208	6828.32
840.533	6804.82
840.858	6839.62
841.182	6872.39
841.507	6819.51
841.832	6754.43
842.156	6753.52
842.481	6737.93
842.805	6758.72
843.13	6730.7
843.454	6768.44
843.778	6692.51
844.103	6624.26
844.427	6637.59
844.751	6715.56
845.075	6631.72
845.399	6595.56
845.723	6614.09
846.047	6584.94
846.371	6584.04
846.695	6575.22
847.019	6484.38
847.343	6501.33
847.666	6408.9
847.99	6424.49
848.313	6369.58
848.637	6371.39
848.96	6360.99
849.284	6307.88
849.607	6288.22
849.931	6306.76
850.254	6232.63
850.577	6215.91
850.9	6201
851.223	6100.66
851.546	6096.59
851.869	6056.59
852.192	6159.87
852.515	6080.09
852.838	6092.07
853.161	6057.72
853.483	6024.28
853.806	6015.01
854.129	5999.42
854.451	5972.98
854.774	5967.1
855.096	5891.4
855.419	5844.39
855.741	5832.42
856.063	5848.01
856.385	5814.56
856.708	5830.16
857.03	5776.83
857.352	5827.22
857.674	5784.96
857.996	5802.14
858.318	5746.09
858.64	5734.79
858.961	5749.48
859.283	5693.21
859.605	5693.89
859.926	5688.47
860.248	5658.86
860.57	5645.08
860.891	5627.45
861.212	5596.94
861.534	5635.13
861.855	5648.47
862.176	5645.76
862.498	5558.75
862.819	5605.08
863.14	5534.12
863.461	5544.52
863.782	5482.14
864.103	5542.93
864.424	5572.99
864.745	5523.27
865.065	5484.86
865.386	5524.85
865.707	5488.92
866.027	5547.45
866.348	5478.98
866.668	5482.37
866.989	5480.34
867.309	5381.81
867.63	5445.99
867.95	5457.29
868.27	5437.4
868.59	5458.19
868.91	5410.06
869.23	5386.78
869.55	5350.17
869.87	5392.65
870.19	5404.86
870.51	5363.96
870.83	5389.49
871.15	5323.73
871.469	5364.18
871.789	5323.96
872.109	5362.6
872.428	5267.23
872.748	5358.76
873.067	5360.79
873.386	5285.31
873.706	5308.36
874.025	5311.98
874.344	5274.24
874.663	5306.1
874.982	5281.47
875.301	5318.53
875.62	5236.73
875.939	5220.68
876.258	5249.83
876.577	5216.84
876.896	5256.84
877.214	5216.84
877.533	5255.03
877.852	5174.81
878.17	5201.7
878.489	5224.3
878.807	5185.65
879.125	5166.22
879.444	5160.57
879.762	5156.28
880.08	5165.77
880.398	5133.23
880.716	5135.26
881.034	5174.36
881.352	5118.09
881.67	5051.87
881.988	5117.18
882.306	5074.47
882.624	5077.86
882.941	5020.91
883.259	5008.94
883.577	5055.94
883.894	5006.68
884.212	5022.95
884.529	4975.72
884.846	5041.25
885.164	4978.88
885.481	4988.15
885.798	4968.71
886.115	4902.5
886.432	5007.13
886.75	4968.71
887.067	4976.39
887.383	4929.62
887.7	4962.16
888.017	4908.15
888.334	4866.79
888.651	4888.94
888.967	4885.78
889.284	4885.32
889.6	4883.52
889.917	4818.21
890.233	4844.87
890.55	4826.57
890.866	4798.09
891.182	4778.89
891.498	4798.09
891.815	4788.15
892.131	4786.34
892.447	4708.61
892.763	4715.84
893.079	4693.92
893.395	4745.89
893.71	4672.67
894.026	4719
894.342	4670.64
894.657	4662.96
894.973	4629.29
895.289	4634.26
895.604	4640.58
895.92	4632.22
896.235	4588.16
896.55	4552.9
896.865	4539.57
897.181	4589.74
897.496	4530.76
897.811	4548.61
898.126	4491.44
898.441	4491.44
898.756	4467.48
899.071	4477.65
899.386	4471.55
899.7	4451.66
900.015	4447.37
900.33	4375.96
900.644	4387.26
900.959	4371.44
901.273	4410.31
901.588	4348.84
901.902	4347.94
902.216	4375.51
902.531	4295.06
902.845	4333.02
903.159	4261.39
903.473	4258.22
903.787	4247.83
904.101	4239.92
904.415	4233.36
904.729	4194.49
905.042	4216.41
905.356	4220.71
905.67	4256.64
905.984	4210.54
906.297	4171.9
906.611	4154.72
906.924	4124.44
907.237	4125.57
907.551	4095.74
907.864	4111.33
908.177	4116.3
908.491	4074.72
908.804	4065.68
909.117	4034.5
909.43	3996.53
909.743	3982.07
910.056	3999.92
910.368	3982.75
910.681	3942.52
910.994	3956.53
911.307	3958.12
911.619	3942.75
911.932	3963.99
912.244	3870.89
912.557	3866.14
912.869	3869.98
913.181	3900.26
913.494	3823.2
913.806	3846.71
914.118	3843.54
914.43	3778.46
914.742	3784.11
915.054	3776.2
915.366	3774.84
915.678	3763.32
915.99	3715.86
916.302	3713.15
916.613	3714.51
916.925	3674.06
917.236	3664.56
917.548	3683.55
917.859	3719.93
918.171	3671.8
918.482	3671.8
918.794	3613.94
919.105	3625.02
919.416	3585.47
919.727	3580.27
920.038	3532.82
920.349	3530.56
920.66	3533.04
920.971	3548.41
921.282	3513.38
921.593	3487.85
921.903	3497.11
922.214	3490.33
922.525	3461.41
922.835	3434.97
923.146	3444.91
923.456	3430.67
923.767	3384.8
924.077	3393.84
924.387	3417.79
924.697	3351.35
925.008	3331.69
925.318	3332.14
925.628	3357.68
925.938	3309.77
926.248	3304.57
926.558	3325.59
926.867	3284.69
927.177	3284.46
927.487	3289.89
927.796	3236.55
928.106	3260.73
928.416	3238.14
928.725	3274.07
929.034	3202.88
929.344	3205.82
929.653	3205.82
929.962	3147.97
930.271	3131.47
930.581	3203.79
930.89	3116.56
931.199	3128.08
931.508	3121.98
931.817	3085.6
932.125	3113.62
932.434	3085.82
932.743	3089.66
933.051	3063.22
933.36	3052.38
933.669	3069.78
933.977	3042.66
934.286	3047.86
934.594	3044.02
934.902	2997.92
935.21	2964.92
935.519	2988.65
935.827	2984.13
936.135	2972.15
936.443	2925.83
936.751	2923.34
937.059	2898.03
937.367	2913.4
937.674	2925.15
937.982	2895.32
938.29	2886.05
938.597	2862.33
938.905	2881.08
939.213	2884.7
939.52	2839.05
939.827	2841.08
940.135	2816.9
940.442	2790.69
940.749	2827.07
941.056	2814.19
941.363	2767.19
941.67	2763.12
941.977	2784.59
942.284	2737.58
942.591	2717.7
942.898	2741.88
943.205	2726.96
943.511	2699.62
943.818	2714.76
944.125	2667.53
944.431	2662.78
944.738	2626.63
945.044	2663.01
945.35	2617.13
945.657	2669.34
945.963	2647.87
946.269	2632.73
946.575	2664.82
946.881	2606.29
947.187	2627.98
947.493	2560.64
947.799	2568.77
948.105	2572.84
948.41	2552.73
948.716	2548.66
949.022	2542.33
949.327	2513.86
949.633	2528.32
949.938	2492.62
950.244	2516.8
950.549	2486.52
950.854	2467.76
951.16	2484.48
951.465	2458.04
951.77	2468.89
952.075	2440.87
952.38	2448.78
952.685	2427.08
952.99	2444.26
953.294	2439.06
953.599	2416.46
953.904	2391.38
954.209	2371.49
954.513	2381.21
954.818	2377.59
955.122	2352.51
955.426	2330.81
955.731	2338.95
956.035	2308.89
956.339	2288.56
956.643	2341.89
956.948	2307.31
957.252	2281.55
957.556	2307.09
957.86	2290.59
958.163	2257.37
958.467	2270.7
958.771	2265.28
959.075	2230.93
959.378	2279.29
959.682	2231.38
959.985	2223.25
960.289	2200.2
960.592	2198.16
960.896	2198.84
961.199	2189.12
961.502	2213.3
961.805	2203.13
962.108	2156.36
962.411	2128.79
962.714	2136.02
963.017	2137.37
963.32	2149.12
963.623	2136.92
963.926	2111.16
964.228	2109.13
964.531	2077.49
964.833	2078.17
965.136	2075
965.438	2089.24
965.741	2076.36
966.043	2101.44
966.345	2071.16
966.648	2047.21
966.95	2059.41
967.252	2045.62
967.554	2055.34
967.856	2010.82
968.158	2004.5
968.46	1991.39
968.761	1968.34
969.063	1987.09
969.365	1986.42
969.666	1967.66
969.968	1963.14
970.269	1932.41
970.571	1970.82
970.872	1956.59
971.174	1944.84
971.475	1944.16
971.776	1930.82
972.077	1908.9
972.378	1904.38
972.679	1938.06
972.98	1907.1
973.281	1895.57
973.582	1888.11
973.883	1872.52
974.183	1869.58
974.484	1843.6
974.785	1834.33
975.085	1844.95
975.386	1852.86
975.686	1817.38
975.986	1809.02
976.287	1807.89
976.587	1797.27
976.887	1804.27
977.187	1792.75
977.487	1842.69
977.787	1776.25
978.087	1745.75
978.387	1781.9
978.687	1751.85
978.987	1784.61
979.286	1763.37
979.586	1727.67
979.885	1737.84
980.185	1754.11
980.484	1736.03
980.784	1718.85
981.083	1701.68
981.382	1722.92
981.682	1728.34
981.981	1728.8
982.28	1698.51
982.579	1659.19
982.878	1677.27
983.177	1675.46
983.475	1674.56
983.774	1661
984.073	1647.89
984.372	1640.89
984.67	1635.47
984.969	1653.32
985.267	1630.04
985.566	1621
985.864	1610.16
986.162	1622.13
986.461	1596.82
986.759	1574.68
987.057	1580.55
987.355	1574.45
987.653	1576.71
987.951	1565.41
988.249	1557.73
988.547	1559.54
988.844	1543.72
989.142	1558.18
989.44	1556.37
989.737	1554.56
990.035	1519.76
990.332	1525.19
990.63	1534.68
990.927	1543.49
991.224	1517.28
991.521	1534.68
991.819	1485.41
992.116	1496.71
992.413	1473.89
992.71	1471.18
993.006	1481.57
993.303	1486.99
993.6	1477.28
993.897	1465.3
994.193	1439.09
994.49	1458.07
994.787	1430.27
995.083	1423.49
995.379	1431.63
995.676	1429.82
995.972	1422.14
996.268	1423.49
996.565	1416.26
996.861	1390.95
997.157	1365.64
997.453	1375.36
997.749	1374
998.044	1372.42
998.34	1376.26
998.636	1324.29
998.932	1345.98
999.227	1354.12
999.523	1359.54
999.818	1353.89
1000.114	1348.69
1000.409	1333.55
1000.704	1315.47
1001	1305.3
1001.295	1333.78
1001.59	1310.28
1001.885	1276.38
1002.18	1282.93
1002.475	1253.55
1002.77	1288.81
1003.065	1274.8
1003.359	1264.85
1003.654	1235.48
1003.949	1240.22
1004.243	1261.92
1004.538	1240.45
1004.832	1247.23
1005.127	1265.31
1005.421	1237.06
1005.715	1224.18
1006.009	1216.04
1006.304	1209.49
1006.598	1209.26
1006.892	1213.56
1007.186	1205.19
1007.48	1176.27
1007.773	1180.11
1008.067	1160.22
1008.361	1159.55
1008.655	1164.29
1008.948	1171.52
1009.242	1153.9
1009.535	1158.64
1009.829	1152.77
1010.122	1134.69
1010.415	1134.91
1010.708	1148.02
1011.001	1108.47
1011.295	1126.33
1011.588	1115.03
1011.881	1116.84
1012.173	1126.55
1012.466	1102.6
1012.759	1068.25
1013.052	1089.04
1013.344	1077.97
1013.637	1086.55
1013.93	1080.45
1014.222	1062.83
1014.514	1044.07
1014.807	1037.06
1015.099	1042.03
1015.391	1034.35
1015.683	1043.62
1015.976	1051.3
1016.268	1005.65
1016.56	997.52
1016.851	1010.62
1017.143	1009.27
1017.435	1018.53
1017.727	1010.85
1018.018	1004.07
1018.31	988.02
1018.602	966.33
1018.893	978.99
1019.185	966.33
1019.476	973.79
1019.767	983.96
1020.058	960.91
1020.35	947.57
1020.641	950.06
1020.932	943.51
1021.223	958.42
1021.514	907.35
1021.804	947.35
1022.095	929.27
1022.386	909.83
1022.677	912.55
1022.967	895.6
1023.258	893.34
1023.548	908.25
1023.839	895.37
1024.129	894.02
1024.419	901.7
1024.709	870.51
1025	864.64
1025.29	871.87
1025.58	863.06
1025.87	845.66
1026.16	851.31
1026.449	853.11
1026.739	836.84
1027.029	829.16
1027.319	831.19
1027.608	856.28
1027.898	826.22
1028.187	811.76
1028.477	802.27
1028.766	815.83
1029.055	817.41
1029.344	822.61
1029.634	803.17
1029.923	811.76
1030.212	810.85
1030.501	790.97
1030.79	783.28
1031.078	789.39
1031.367	772.66
1031.656	783.96
1031.945	785.09
1032.233	764.53
1032.522	768.37
1032.81	760.01
1033.099	718.2
1033.387	743.29
1033.675	741.25
1033.963	729.27
1034.251	724.53
1034.54	741.03
1034.828	735.38
1035.116	733.34
1035.403	735.83
1035.691	712.55
1035.979	698.54
1036.267	695.15
1036.554	709.84
1036.842	692.21
1037.129	701.25
1037.417	701.03
1037.704	694.25
1037.992	690.63
1038.279	682.95
1038.566	667.81
1038.853	667.81
1039.14	667.81
