Data from tablewood_dark_bookshelf_FLMS001491_00094.txt Node
Date: Wed Feb 08 14:16:01 GMT 2017
User: dcchb
Spectrometer: FLMS00149
Trigger mode: 0
Integration Time (sec): 2.000000E-2
Scans to average: 10
Electric dark correction enabled: true
Nonlinearity correction enabled: false
Boxcar width: 0
XAxis mode: Wavelengths
Number of Pixels in Spectrum: 2048
>>>>>Begin Spectral Data<<<<<
341.393	-34.9
341.776	-34.9
342.16	-34.9
342.543	-55.92
342.927	-65.86
343.31	-73.09
343.693	-65.86
344.077	-60.66
344.46	-53.88
344.843	-40.78
345.226	-49.82
345.61	-24.28
345.993	-17.05
346.376	-19.31
346.759	29.96
347.142	28.37
347.525	29.73
347.908	54.14
348.291	80.35
348.674	79.9
349.057	102.27
349.44	114.25
349.823	153.8
350.206	163.06
350.588	188.6
350.971	204.87
351.354	212.32
351.737	201.03
352.119	240.8
352.502	255.94
352.884	254.13
353.267	258.2
353.65	284.64
354.032	274.02
354.414	284.41
354.797	310.18
355.179	307.69
355.562	325.54
355.944	344.52
356.326	325.09
356.709	341.14
357.091	341.14
357.473	343.17
357.855	315.37
358.238	331.42
358.62	330.06
359.002	357.63
359.384	361.47
359.766	326.22
360.148	324.19
360.53	346.78
360.912	320.57
361.294	332.32
361.676	346.33
362.057	315.6
362.439	327.58
362.821	334.36
363.203	349.5
363.584	325.54
363.966	319.89
364.348	310.4
364.729	331.42
365.111	321.47
365.493	322.83
365.874	304.53
366.256	307.24
366.637	327.35
367.019	335.71
367.4	315.15
367.781	313.79
368.163	330.06
368.544	306.79
368.925	321.02
369.306	317.86
369.688	311.76
370.069	306.79
370.45	313.11
370.831	325.99
371.212	328.71
371.593	318.08
371.974	313.34
372.355	312.21
372.736	341.81
373.117	322.15
373.498	325.09
373.879	330.97
374.26	317.41
374.641	316.5
375.021	316.73
375.402	320.8
375.783	328.25
376.163	338.88
376.544	335.03
376.925	337.75
377.305	319.89
377.686	311.31
378.066	321.7
378.447	317.86
378.827	338.65
379.208	343.17
379.588	342.72
379.968	335.26
380.349	363.73
380.729	334.58
381.109	349.04
381.489	341.36
381.87	353.11
382.25	370.06
382.63	355.37
383.01	356.5
383.39	369.38
383.77	348.14
384.15	363.28
384.53	355.15
384.91	373.9
385.29	365.54
385.67	380
386.049	370.29
386.429	370.29
386.809	382.04
387.189	358.99
387.568	387.01
387.948	371.87
388.328	366.22
388.707	363.06
389.087	384.07
389.466	387.46
389.846	380.68
390.225	405.77
390.605	377.52
390.984	380
391.363	375.26
391.743	405.99
392.122	394.92
392.501	386.33
392.881	426.33
393.26	416.16
393.639	400.34
394.018	412.09
394.397	392.21
394.776	413.68
395.155	402.83
395.534	435.14
395.913	428.82
396.292	426.33
396.671	409.38
397.05	424.3
397.429	409.83
397.808	427.91
398.186	439.21
398.565	439.21
398.944	448.25
399.323	420
399.701	463.84
400.08	439.66
400.458	449.15
400.837	443.51
401.215	469.04
401.594	471.3
401.972	449.61
402.351	437.63
402.729	463.62
403.107	445.77
403.486	463.39
403.864	464.52
404.242	483.73
404.62	463.62
404.999	478.53
405.377	461.81
405.755	497.29
406.133	494.8
406.511	493.45
406.889	497.52
407.267	496.16
407.645	508.14
408.023	504.07
408.401	504.29
408.779	499.55
409.156	531.86
409.534	521.02
409.912	525.99
410.29	517.63
410.667	537.06
411.045	544.52
411.422	545.65
411.8	547.68
412.178	539.55
412.555	550.4
412.933	566.44
413.31	540.9
413.687	586.33
414.065	559.21
414.442	582.48
414.819	568.47
415.197	580
415.574	594.69
415.951	580.45
416.328	609.83
416.705	594.24
417.082	598.3
417.46	589.49
417.837	602.82
418.214	618.42
418.591	635.14
418.967	619.32
419.344	633.56
419.721	643.05
420.098	644.18
420.475	643.95
420.852	644.18
421.228	681.69
421.605	667.45
421.982	652.77
422.358	662.03
422.735	681.47
423.111	660.45
423.488	681.92
423.864	688.24
424.241	698.41
424.617	683.27
424.994	712.2
425.37	696.61
425.746	723.95
426.123	721.69
426.499	707.45
426.875	713.55
427.251	731.41
427.627	752.65
428.003	738.64
428.379	780.45
428.756	771.41
429.132	774.34
429.507	769.6
429.883	779.09
430.259	791.29
430.635	821.8
431.011	816.6
431.387	839.2
431.763	839.2
432.138	842.82
432.514	845.98
432.89	826.55
433.265	862.25
433.641	868.58
434.016	860.9
434.392	897.96
434.767	923.72
435.143	891.63
435.518	942.93
435.894	928.69
436.269	941.12
436.644	934.79
437.02	939.76
437.395	930.05
437.77	956.71
438.145	964.4
438.52	971.4
438.895	970.95
439.271	963.94
439.646	977.05
440.021	998.52
440.395	1009.59
440.77	1011.4
441.145	994.23
441.52	1021.34
441.895	1008.24
442.27	1042.13
442.645	1053.43
443.019	1062.47
443.394	1057.5
443.769	1067.22
444.143	1050.27
444.518	1083.04
444.892	1097.27
445.267	1070.83
445.641	1078.97
446.016	1105.63
446.39	1117.39
446.764	1115.13
447.139	1106.09
447.513	1128.91
447.887	1126.88
448.262	1165.07
448.636	1108.57
449.01	1156.93
449.384	1163.49
449.758	1158.29
450.132	1184.05
450.506	1195.35
450.88	1195.35
451.254	1172.75
451.628	1193.54
452.002	1220.89
452.376	1261.34
452.75	1237.61
453.123	1219.98
453.497	1265.18
453.871	1263.14
454.244	1288.68
454.618	1306.53
454.992	1318.28
455.365	1334.1
455.739	1361
456.112	1344.5
456.486	1378.62
456.859	1381.11
457.232	1415.68
457.606	1417.94
457.979	1422.69
458.352	1447.09
458.725	1438.28
459.099	1476.92
459.472	1495.91
459.845	1525.74
460.218	1478.51
460.591	1540.2
460.964	1544.95
461.337	1556.92
461.71	1589.69
462.083	1592.85
462.456	1618.39
462.829	1615.9
463.201	1662.23
463.574	1654.77
463.947	1674.66
464.32	1711.49
464.692	1705.84
465.065	1703.59
465.438	1760.08
465.81	1765.73
466.183	1761.21
466.555	1822.45
466.928	1842.56
467.3	1862
467.672	1864.26
468.045	1909.23
468.417	1885.28
468.789	1910.36
469.161	1933.18
469.534	1985.61
469.906	2000.07
470.278	2009.79
470.65	2046.85
471.022	2065.84
471.394	2117.13
471.766	2130.24
472.138	2148.55
472.51	2187.87
472.882	2222.22
473.253	2232.16
473.625	2306.51
473.997	2322.33
474.369	2336.34
474.74	2374.53
475.112	2416.11
475.484	2455.43
475.855	2495.43
476.227	2487.29
476.598	2547.4
476.97	2536.33
477.341	2593.73
477.713	2643
478.084	2675.76
478.455	2758.02
478.827	2795.53
479.198	2823.56
479.569	2837.57
479.94	2922.54
480.311	2915.98
480.682	3009.77
481.053	3045.47
481.424	3151
481.795	3147.16
482.166	3162.08
482.537	3216.31
482.908	3294.96
483.279	3276.43
483.65	3342.86
484.021	3421.96
484.391	3463.99
484.762	3472.58
485.133	3520.49
485.503	3595.51
485.874	3636.64
486.244	3677.32
486.615	3730.2
486.985	3762.29
487.356	3821.27
487.726	3865.11
488.097	3969.97
488.467	3953.47
488.837	4086.12
489.207	4136.74
489.578	4115.95
489.948	4168.83
490.318	4209.06
490.688	4213.8
491.058	4313.46
491.428	4376.74
491.798	4401.59
492.168	4478.88
492.538	4509.16
492.908	4533.12
493.278	4614.47
493.648	4659.21
494.017	4731.53
494.387	4708.93
494.757	4795.71
495.126	4848.14
495.496	4808.14
495.866	4928.81
496.235	4945.99
496.605	5002.48
496.974	5012.2
497.344	5086.32
497.713	5071.18
498.082	5160.9
498.452	5158.18
498.821	5173.32
499.19	5214.68
499.559	5276.15
499.928	5309.82
500.298	5315.92
500.667	5406.76
501.036	5382.81
501.405	5425.75
501.774	5489.02
502.143	5498.51
502.512	5539.64
502.88	5579.87
503.249	5596.59
503.618	5628
503.987	5692.18
504.356	5683.14
504.724	5731.73
505.093	5783.93
505.462	5820.54
505.83	5873.19
506.199	5869.58
506.567	5936.02
506.936	5994.32
507.304	6019.63
507.672	6065.28
508.041	6091.04
508.409	6161.55
508.777	6206.29
509.145	6263.47
509.514	6214.88
509.882	6241.09
510.25	6321.99
510.618	6374.87
510.986	6419.62
511.354	6507.3
511.722	6501.65
512.09	6610.57
512.458	6592.95
512.826	6640.86
513.193	6665.04
513.561	6713.4
513.929	6742.32
514.297	6858.7
514.664	6903
515.032	6894.64
515.4	6971.92
515.767	7006.27
516.135	7031.58
516.502	6989.1
516.869	7211.91
517.237	7126.72
517.604	7162.2
517.972	7291.91
518.339	7320.61
518.706	7346.15
519.073	7380.05
519.44	7422.53
519.808	7547.5
520.175	7524.9
520.542	7660.49
520.909	7706.82
521.276	7662.3
521.643	7749.98
522.009	7795.18
522.376	7918.56
522.743	7994.04
523.11	8040.37
523.477	8134.15
523.843	8187.03
524.21	8243.3
524.577	8260.93
524.943	8362.17
525.31	8388.16
525.676	8524.42
526.043	8455.27
526.409	8570.52
526.776	8648.26
527.142	8736.39
527.508	8761.48
527.874	8814.36
528.241	8879.44
528.607	8852.32
528.973	8967.57
529.339	8965.54
529.705	9083.5
530.071	9179.09
530.437	9137.74
530.803	9253.9
531.169	9351.75
531.535	9308.13
531.901	9342.93
532.267	9445.08
532.632	9471.06
532.998	9459.77
533.364	9558.29
533.73	9631.74
534.095	9678.74
534.461	9721
534.826	9746.99
535.192	9801.23
535.557	9875.57
535.923	9821.34
536.288	9910.83
536.653	9974.78
537.019	9974.33
537.384	9939.3
537.749	10116.47
538.114	10085.51
538.479	10124.38
538.845	10203.02
539.21	10226.52
539.575	10256.35
539.94	10266.3
540.305	10362.34
540.67	10446.86
541.034	10415.22
541.399	10420.19
541.764	10473.98
542.129	10516.46
542.494	10488.66
542.858	10668.1
543.223	10588.55
543.587	10694.31
543.952	10725.27
544.316	10721.65
544.681	10682.78
545.045	10807.53
545.41	10849.33
545.774	10891.59
546.138	10887.3
546.503	10996
546.867	11008.2
547.231	11084.81
547.595	11033.74
547.959	11076.22
548.324	11142.88
548.688	11139.27
549.052	11292.49
549.416	11286.84
549.779	11278.7
550.143	11257.91
550.507	11372.94
550.871	11397.34
551.235	11434.4
551.599	11520.95
551.962	11604.79
552.326	11636.88
552.689	11674.85
553.053	11667.39
553.417	11741.74
553.78	11915.52
554.143	11839.82
554.507	11892.7
554.87	11834.17
555.234	12060.15
555.597	12021.51
555.96	12002.07
556.323	12110.09
556.686	12200.94
557.05	12206.36
557.413	12307.6
557.776	12277.32
558.139	12433.7
558.502	12432.79
558.865	12533.13
559.228	12534.94
559.59	12604.54
559.953	12641.83
560.316	12740.81
560.679	12748.27
561.041	12906.91
561.404	13036.39
561.767	13035.26
562.129	13045.21
562.492	13214.02
562.854	13169.27
563.217	13230.06
563.579	13218.99
563.941	13304.64
564.304	13465.99
564.666	13545.76
565.028	13463.05
565.39	13634.34
565.753	13744.17
566.115	13780.78
566.477	13802.48
566.839	13893.32
567.201	14014.9
567.563	13853.1
567.925	14129.47
568.287	14144.84
568.648	14160.88
569.01	14275.01
569.372	14350.71
569.734	14341.22
570.095	14527.43
570.457	14494.89
570.819	14694.88
571.18	14576.69
571.542	14758.38
571.903	14773.52
572.265	14857.82
572.626	14923.35
572.987	14918.6
573.349	14988.21
573.71	15152.95
574.071	15169.22
574.432	15218.03
574.794	15375.77
575.155	15267.3
575.516	15345.03
575.877	15450.12
576.238	15445.14
576.599	15483.79
576.96	15578.7
577.32	15596.55
577.681	15815.53
578.042	15813.04
578.403	15810.11
578.763	15837.9
579.124	15913.61
579.485	15892.36
579.845	15991.8
580.206	16076.31
580.566	16096.2
580.927	16120.16
581.287	16241.06
581.648	16213.26
582.008	16293.03
582.368	16268.63
582.728	16386.36
583.089	16441.95
583.449	16398.57
583.809	16431.33
584.169	16394.27
584.529	16456.87
584.889	16648.28
585.249	16605.11
585.609	16587.94
585.969	16685.34
586.329	16636.53
586.688	16809.63
587.048	16755.84
587.408	16817.99
587.768	16753.58
588.127	16736.64
588.487	16859.12
588.846	16921.04
589.206	16834.94
589.565	16956.74
589.925	17078.55
590.284	17020.92
590.643	17020.92
591.003	17155.38
591.362	17174.36
591.721	17203.29
592.08	17137.76
592.44	17261.82
592.799	17293.46
593.158	17292.33
593.517	17302.95
593.876	17353.57
594.235	17263.4
594.593	17396.28
594.952	17527.12
595.311	17402.16
595.67	17441.7
596.029	17591.53
596.387	17625.65
596.746	17681.02
597.104	17548.14
597.463	17612.55
597.822	17710.4
598.18	17612.77
598.538	17636.5
598.897	17809.6
599.255	17544.52
599.613	17872.2
599.972	17759.89
600.33	17921.92
600.688	17824.74
601.046	17968.24
601.404	18085.75
601.762	18061.35
602.12	18007.11
602.478	18123.04
602.836	18104.74
603.194	17993.1
603.552	18084.62
603.91	18109.48
604.268	18233.77
604.625	18130.72
604.983	18191.97
605.341	18246.2
605.698	18382.24
606.056	18322.13
606.413	18405.74
606.771	18479.19
607.128	18456.82
607.485	18393.32
607.843	18489.81
608.2	18521.9
608.557	18472.18
608.914	18520.09
609.272	18699.3
609.629	18561.45
609.986	18792.63
610.343	18690.71
610.7	18820.65
611.057	18679.64
611.414	18766.87
611.771	18757.15
612.127	18838.05
612.484	18863.13
612.841	18924.83
613.198	18890.48
613.554	18823.59
613.911	19020.42
614.267	19007.31
614.624	18968.22
614.98	18987.88
615.337	19184.71
615.693	19047.31
616.05	19054.32
616.406	19169.34
616.762	19134.77
617.118	19177.02
617.475	19146.29
617.831	19252.28
618.187	19227.87
618.543	19317.13
618.899	19404.14
619.255	19350.13
619.611	19239.4
619.967	19509.67
620.323	19452.95
620.678	19400.07
621.034	19349.9
621.39	19399.84
621.746	19404.81
622.101	19529.11
622.457	19449.79
622.812	19475.1
623.168	19535.88
623.523	19572.72
623.879	19651.81
624.234	19525.72
624.589	19555.77
624.945	19528.65
625.3	19461.08
625.655	19534.75
626.01	19654.75
626.365	19656.79
626.72	19544.7
627.075	19559.84
627.43	19660.4
627.785	19582.44
628.14	19619.5
628.495	19540.4
628.85	19596
629.205	19415.21
629.559	19561.65
629.914	19503.34
630.269	19597.8
630.623	19546.73
630.978	19416.34
631.332	19502.21
631.687	19551.93
632.041	19360.97
632.396	19530.46
632.75	19323.46
633.104	19338.6
633.459	19372.27
633.813	19375.66
634.167	19350.35
634.521	19446.17
634.875	19394.65
635.229	19457.92
635.583	19278.26
635.937	19232.84
636.291	19254.76
636.645	19246.4
636.999	19205.72
637.352	19269.45
637.706	19103.13
638.06	19242.78
638.413	19218.38
638.767	19060.42
639.121	19130.02
639.474	18997.14
639.828	18972.28
640.181	19079.85
640.534	19039.63
640.888	19026.97
641.241	18950.36
641.594	18963.7
641.947	19005.5
642.301	18907.2
642.654	18946.3
643.007	18951.27
643.36	19005.73
643.713	18921.44
644.066	18970.93
644.419	18875.56
644.771	18802.12
645.124	18653.2
645.477	18591.5
645.83	18492.97
646.182	18417.04
646.535	18487.32
646.888	18400.1
647.24	18225.18
647.593	18303.6
647.945	18237.16
648.298	18182.93
648.65	18179.31
649.002	18089.59
649.355	18201
649.707	18200.33
650.059	18328.23
650.411	18558.28
650.763	18525.52
651.115	18780.88
651.467	18653.87
651.819	18683.93
652.171	18630.37
652.523	18660.2
652.875	18596.47
653.227	18472.86
653.578	18671.05
653.93	18636.02
654.282	18591.28
654.633	18452.07
654.985	18554.22
655.337	18546.08
655.688	18482.35
656.039	18641.9
656.391	18433.31
656.742	18555.57
657.094	18533.2
657.445	18564.61
657.796	18552.63
658.147	18506.76
658.498	18390.6
658.849	18575.91
659.2	18457.04
659.551	18413.65
659.902	18496.59
660.253	18412.52
660.604	18358.51
660.955	18393.32
661.306	18441.45
661.656	18479.64
662.007	18433.77
662.358	18412.75
662.708	18422.92
663.059	18424.73
663.409	18304.5
663.76	18459.98
664.11	18446.65
664.461	18436.93
664.811	18406.42
665.161	18497.27
665.511	18408.23
665.862	18433.09
666.212	18581.11
666.562	18535.68
666.912	18507.44
667.262	18447.33
667.612	18440.32
667.962	18424.05
668.312	18408.46
668.662	18424.5
669.011	18473.54
669.361	18325.75
669.711	18439.87
670.06	18407.33
670.41	18408.68
670.76	18321.23
671.109	18439.42
671.459	18352.86
671.808	18369.81
672.157	18373.66
672.507	18337.27
672.856	18299.08
673.205	18429.47
673.554	18406.2
673.904	18327.78
674.253	18471.28
674.602	18302.47
674.951	18097.5
675.3	17992.2
675.649	18305.18
675.998	18269.25
676.346	18283.71
676.695	18446.2
677.044	18228.57
677.393	18264.73
677.741	18264.05
678.09	18276.71
678.438	18215.24
678.787	18176.15
679.135	18219.31
679.484	18117.62
679.832	18168.24
680.181	18172.3
680.529	18224.28
680.877	18194
681.225	18126.2
681.573	18156.49
681.922	18161.46
682.27	18099.09
682.618	18014.57
682.966	18026.09
683.314	18052.31
683.661	17925.31
684.009	17894.12
684.357	17932.54
684.705	17939.32
685.053	17871.52
685.4	17811.41
685.748	17756.04
686.095	17722.6
686.443	17759.66
686.79	17696.61
687.138	17807.79
687.485	17644.41
687.832	17636.95
688.18	17650.51
688.527	17562.38
688.874	17643.28
689.221	17517.63
689.568	17445.77
689.915	17346.34
690.262	17390.63
690.609	17303.17
690.956	17337.07
691.303	17370.07
691.65	17302.5
691.997	17294.36
692.344	17104.54
692.69	17078.32
693.037	17196.29
693.383	17080.36
693.73	17009.85
694.077	16950.64
694.423	16943.41
694.769	16974.14
695.116	16877.65
695.462	16921.49
695.808	16786.8
696.155	16791.1
696.501	16695.51
696.847	16768.73
697.193	16556.75
697.539	16615.96
697.885	16554.95
698.231	16525.79
698.577	16438.11
698.923	16490.09
699.269	16464.33
699.614	16370.32
699.96	16323.77
700.306	16356.08
700.651	16140.49
700.997	16166.03
701.342	16153.37
701.688	16150.21
702.033	16039.25
702.379	16060.5
702.724	15969.88
703.069	16029.54
703.415	15904.34
703.76	15816.66
704.105	15909.54
704.45	15893.72
704.795	15784.57
705.14	15674.52
705.485	15680.84
705.83	15620.51
706.175	15747.96
706.52	15550
706.865	15538.93
707.209	15524.92
707.554	15463
707.899	15520.62
708.243	15449.21
708.588	15362.66
708.932	15284.7
709.277	15377.35
709.621	15364.24
709.966	15300.06
710.31	15229.78
710.654	15136
710.998	15131.93
711.342	15122.67
711.687	15121.09
712.031	15081.76
712.375	15053.06
712.719	15048.54
713.063	15051.71
713.407	15076.57
713.75	15054.65
714.094	15007.19
714.438	14880.64
714.782	14949.79
715.125	14898.72
715.469	14963.35
715.812	14840.87
716.156	14776.91
716.499	14799.96
716.843	14762
717.186	14746.41
717.53	14740.3
717.873	14699.4
718.216	14728.1
718.559	14652.62
718.902	14540.08
719.246	14565.39
719.589	14532.4
719.932	14480.42
720.275	14487.43
720.617	14476.13
720.96	14355.23
721.303	14557.48
721.646	14559.29
721.989	14402.46
722.331	14495.34
722.674	14388.68
723.016	14421.67
723.359	14385.96
723.701	14415.57
724.044	14363.59
724.386	14328.79
724.729	14359.52
725.071	14333.08
725.413	14320.2
725.755	14371.73
726.097	14279.75
726.439	14143.94
726.782	14201.11
727.124	14260.77
727.465	14224.61
727.807	14189.13
728.149	14180.09
728.491	14197.95
728.833	14266.19
729.175	14161.79
729.516	14117.72
729.858	14091.51
730.199	14077.95
730.541	14065.75
730.882	14086.76
731.224	14055.35
731.565	13942.36
731.906	14029.14
732.248	14151.85
732.589	14060.77
732.93	13930.38
733.271	14075.46
733.612	13960.66
733.953	14033.88
734.294	13907.11
734.635	13985.07
734.976	13973.09
735.317	13910.72
735.658	13950.49
735.999	13921.34
736.339	13856.94
736.68	13826.66
737.021	13876.37
737.361	13892.64
737.702	13900.33
738.042	13821.46
738.383	13821.23
738.723	13829.59
739.063	13809.26
739.404	13765.64
739.744	13732.65
740.084	13773.1
740.424	13841.12
740.764	13766.77
741.104	13774.23
741.444	13665.08
741.784	13719.09
742.124	13730.16
742.464	13812.19
742.804	13752.31
743.143	13763.38
743.483	13727.68
743.823	13578.3
744.162	13691.74
744.502	13620.11
744.841	13657.85
745.181	13675.93
745.52	13609.26
745.86	13659.65
746.199	13613.78
746.538	13562.93
746.877	13613.55
747.216	13643.61
747.556	13549.83
747.895	13582.82
748.234	13475.93
748.573	13482.71
748.911	13510.73
749.25	13493.56
749.589	13501.24
749.928	13480.45
750.267	13514.8
750.605	13408.14
750.944	13468.02
751.283	13416.5
751.621	13458.76
751.96	13398.42
752.298	13317.52
752.636	13349.15
752.975	13247.91
753.313	13333.79
753.651	13336.27
753.989	13277.07
754.327	13237.97
754.666	13154.36
755.004	13173.79
755.342	13188.25
755.679	13207.24
756.017	13181.25
756.355	13164.98
756.693	13127.69
757.031	13107.81
757.368	13050.41
757.706	13063.51
758.044	12950.97
758.381	13033
758.719	12964.76
759.056	12971.31
759.394	12934.25
759.731	12847.47
760.068	12820.58
760.405	12867.81
760.743	12749.4
761.08	12779
761.417	12658.78
761.754	12699.68
762.091	12623.07
762.428	12680.92
762.765	12529.74
763.102	12580.81
763.438	12474.38
763.775	12419.24
764.112	12435.73
764.449	12385.79
764.785	12315.28
765.122	12289.3
765.458	12235.06
765.795	12313.48
766.131	12174.72
766.467	12205.68
766.804	12092.01
767.14	12094.72
767.476	12073.93
767.812	12000.94
768.148	11996.87
768.485	11995.07
768.821	11861.06
769.157	11835.97
769.492	11809.76
769.828	11773.6
770.164	11638.92
770.5	11722.3
770.836	11646.6
771.171	11562.76
771.507	11553.95
771.842	11498.81
772.178	11505.14
772.513	11398.92
772.849	11391.47
773.184	11327.06
773.519	11382.43
773.855	11280.06
774.19	11200.06
774.525	11195.54
774.86	11178.59
775.195	11134.75
775.53	11098.14
775.865	11025.37
776.2	10983.79
776.535	10912.61
776.87	10886.39
777.205	10857.69
777.539	10816.79
777.874	10892.04
778.209	10759.84
778.543	10735.66
778.878	10687.76
779.212	10680.3
779.547	10565.73
779.881	10571.83
780.215	10539.06
780.55	10559.17
780.884	10453.19
781.218	10447.31
781.552	10337.71
781.886	10435.56
782.22	10281.44
782.554	10249.35
782.888	10247.09
783.222	10170.48
783.556	10146.53
783.889	10044.16
784.223	9976.36
784.557	9947.21
784.89	10071.95
785.224	9968.23
785.557	9871.05
785.891	9927.1
786.224	9879.42
786.558	9771.4
786.891	9747.89
787.224	9710.15
787.557	9695.24
787.891	9691.17
788.224	9678.52
788.557	9687.78
788.89	9605.52
789.223	9593.32
789.556	9553.55
789.888	9475.13
790.221	9431.07
790.554	9424.06
790.887	9437.62
791.219	9377.28
791.552	9346.77
791.884	9289.6
792.217	9233.33
792.549	9316.72
792.882	9105.88
793.214	9123.5
793.546	9112.66
793.879	9112.66
794.211	9022.71
794.543	8995.6
794.875	9001.92
795.207	9071.08
795.539	8935.26
795.871	8981.59
796.203	8896.62
796.535	8807.13
796.867	8780.69
797.198	8794.47
797.53	8723.29
797.862	8771.87
798.193	8817.75
798.525	8694.36
798.856	8686.23
799.188	8623.18
799.519	8622.27
799.85	8589.73
800.182	8552.67
800.513	8500.47
800.844	8474.48
801.175	8506.8
801.506	8446.68
801.837	8388.38
802.168	8387.48
802.499	8348.16
802.83	8349.29
803.161	8325.11
803.491	8343.18
803.822	8307.71
804.153	8260.7
804.483	8194.94
804.814	8116.52
805.145	8083.98
805.475	8172.57
805.805	8084.21
806.136	8090.31
806.466	8079.91
806.796	8089.41
807.126	8056.86
807.457	7981.61
807.787	7966.92
808.117	7958.56
808.447	7924.89
808.777	7965.79
809.107	7876.53
809.436	7871.78
809.766	7777.32
810.096	7832.69
810.426	7791.33
810.755	7832.01
811.085	7776.42
811.414	7745.91
811.744	7741.17
812.073	7673.82
812.403	7669.3
812.732	7639.7
813.061	7587.72
813.39	7582.53
813.719	7542.3
814.049	7588.18
814.378	7538.69
814.707	7498.69
815.036	7455.07
815.365	7506.82
815.693	7396.54
816.022	7395.64
816.351	7371.68
816.68	7357.67
817.008	7347.5
817.337	7314.51
817.665	7258.47
817.994	7319.03
818.322	7305.25
818.651	7229.32
818.979	7272.48
819.307	7238.13
819.636	7249.65
819.964	7218.92
820.292	7258.69
820.62	7187.96
820.948	7166.94
821.276	7210.56
821.604	7112.48
821.932	7168.75
822.259	7199.49
822.587	7194.51
822.915	7129.21
823.243	7196.77
823.57	7121.97
823.898	7097.57
824.225	7105.48
824.553	7158.81
824.88	7095.99
825.207	7142.76
825.535	7069.32
825.862	7133.5
826.189	7070.45
826.516	7187.73
826.843	7129.66
827.17	7123.1
827.497	7128.98
827.824	7127.17
828.151	7143.67
828.478	7093.73
828.805	7129.21
829.131	7063.67
829.458	7137.11
829.785	7094.63
830.111	7123.56
830.438	7147.74
830.764	7079.26
831.09	7072.26
831.417	7094.4
831.743	7044.46
832.069	6995.65
832.395	7026.84
832.722	6985.03
833.048	7009.43
833.374	7070
833.7	6980.06
834.026	7029.09
834.351	7017.8
834.677	6958.81
835.003	7009.21
835.329	7073.84
835.654	7042.43
835.98	6954.52
836.306	7037
836.631	6944.8
836.956	7053.5
837.282	6959.49
837.607	6926.05
837.932	6961.98
838.258	6925.59
838.583	6939.83
838.908	6903.22
839.233	6825.26
839.558	6879.49
839.883	6814.41
840.208	6822.55
840.533	6808.08
840.858	6813.73
841.182	6787.75
841.507	6797.24
841.832	6811.93
842.156	6723.79
842.481	6795.65
842.805	6732.38
843.13	6682.66
843.454	6721.31
843.778	6678.14
844.103	6687.18
844.427	6674.75
844.751	6646.73
845.075	6623.68
845.399	6626.62
845.723	6616.45
846.047	6571.48
846.371	6580.52
846.695	6602.89
847.019	6473.18
847.343	6489.67
847.666	6462.56
847.99	6380.52
848.313	6441.77
848.637	6391.6
848.96	6283.13
849.284	6311.83
849.607	6277.93
849.931	6249.23
850.254	6218.95
850.577	6167.65
850.9	6155.22
851.223	6201.77
851.546	6105.96
851.869	6086.75
852.192	6104.37
852.515	6094.43
852.838	5988.44
853.161	6016.69
853.483	6061.66
853.806	6000.2
854.129	5988.67
854.451	5964.49
854.774	5911.38
855.096	5949.12
855.419	5893.08
855.741	5898.05
856.063	5855.34
856.385	5789.81
856.708	5812.4
857.03	5811.73
857.352	5833.65
857.674	5797.71
857.996	5779.64
858.318	5742.12
858.64	5760.43
858.961	5773.99
859.283	5726.98
859.605	5694.44
859.926	5672.29
860.248	5677.94
860.57	5649.24
860.891	5666.64
861.212	5679.75
861.534	5653.09
861.855	5616.7
862.176	5674.55
862.498	5596.14
862.819	5605.4
863.14	5571.96
863.461	5579.19
863.782	5560.66
864.103	5577.83
864.424	5522.47
864.745	5530.83
865.065	5476.37
865.386	5497.84
865.707	5480.66
866.027	5496.48
866.348	5484.73
866.668	5495.8
866.989	5447.89
867.309	5464.84
867.63	5475.01
867.95	5440.89
868.27	5414.9
868.59	5415.13
868.91	5392.98
869.23	5429.59
869.55	5356.6
869.87	5395.92
870.19	5375.13
870.51	5413.77
870.83	5378.74
871.15	5355.69
871.469	5334.68
871.789	5347.11
872.109	5333.77
872.428	5317.5
872.748	5296.49
873.067	5309.82
873.386	5312.76
873.706	5317.05
874.025	5269.59
874.344	5283.38
874.663	5297.39
874.982	5305.75
875.301	5246.09
875.62	5249.71
875.939	5239.99
876.258	5239.76
876.577	5267.33
876.896	5205.41
877.214	5225.3
877.533	5209.03
877.852	5232.31
878.17	5210.16
878.489	5207.45
878.807	5158.64
879.125	5184.17
879.444	5181.69
879.762	5164.06
880.08	5188.47
880.398	5133.55
880.716	5114.12
881.034	5093.55
881.352	5161.8
881.67	5096.49
881.988	5113.44
882.306	5072.08
882.624	5104.63
882.941	5069.37
883.259	5098.52
883.577	5025.76
883.894	4984.4
884.212	4992.31
884.529	5028.47
884.846	5029.15
885.164	5034.12
885.481	5002.93
885.798	4959.32
886.115	4997.96
886.432	4935.36
886.75	4948.02
887.067	4937.85
887.383	4973.56
887.7	4920.22
888.017	4948.47
888.334	4896.27
888.651	4870.73
888.967	4888.81
889.284	4865.54
889.6	4863.5
889.917	4811.75
890.233	4830.73
890.55	4798.19
890.866	4833.22
891.182	4847.23
891.498	4793
891.815	4755.03
892.131	4762.04
892.447	4744.41
892.763	4728.59
893.079	4710.74
893.395	4718.2
893.71	4687.69
894.026	4658.31
894.342	4739.44
894.657	4664.41
894.973	4653.56
895.289	4611.31
895.604	4633.23
895.92	4646.11
896.235	4602.72
896.55	4660.12
896.865	4622.38
897.181	4554.81
897.496	4578.99
897.811	4524.75
898.126	4503.96
898.441	4510.29
898.756	4472.55
899.071	4466
899.386	4434.36
899.7	4441.59
900.015	4396.4
900.33	4445.89
900.644	4400.46
900.959	4410.18
901.273	4406.11
901.588	4382.84
901.902	4396.85
902.216	4362.5
902.531	4369.05
902.845	4307.36
903.159	4311.65
903.473	4293.35
903.787	4268.04
904.101	4244.76
904.415	4263.07
904.729	4233.46
905.042	4217.87
905.356	4227.59
905.67	4187.59
905.984	4184.65
906.297	4186.01
906.611	4156.4
906.924	4135.84
907.237	4203.41
907.551	4120.47
907.864	4092.67
908.177	4075.27
908.491	4073.47
908.804	4039.79
909.117	4047.93
909.43	4054.71
909.743	4000.7
910.056	3971.1
910.368	3974.71
910.681	3926.58
910.994	3916.18
911.307	3975.39
911.619	3880.25
911.932	3926.8
912.244	3887.93
912.557	3877.09
912.869	3850.42
913.181	3875.51
913.494	3822.63
913.806	3861.95
914.118	3804.77
914.43	3791.21
914.742	3815.17
915.054	3734.72
915.366	3743.98
915.678	3789.63
915.99	3751.89
916.302	3761.84
916.613	3713.93
916.925	3689.3
917.236	3689.3
917.548	3640.48
917.859	3680.03
918.171	3620.37
918.482	3669.18
918.794	3590.99
919.105	3615.85
919.416	3585.8
919.727	3604.78
920.038	3549.86
920.349	3586.93
920.66	3534.95
920.971	3579.69
921.282	3545.8
921.593	3526.36
921.903	3498.57
922.214	3482.97
922.525	3443.2
922.835	3403.65
923.146	3448.62
923.456	3410.21
923.767	3425.57
924.077	3451.34
924.387	3382.64
924.697	3369.08
925.008	3395.29
925.318	3366.82
925.628	3319.14
925.938	3355.75
926.248	3299.48
926.558	3319.36
926.867	3332.24
927.177	3290.44
927.487	3275.97
927.796	3211.12
928.106	3254.96
928.416	3237.33
928.725	3228.97
929.034	3213.83
929.344	3245.47
929.653	3251.79
929.962	3192.59
930.271	3174.51
930.581	3155.3
930.89	3130.67
931.199	3125.24
931.508	3096.32
931.817	3138.35
932.125	3135.64
932.434	3076.2
932.743	3065.81
933.051	3069.2
933.36	3046.37
933.669	3013.16
933.977	3020.39
934.286	3014.06
934.594	3022.19
934.902	2975.42
935.21	2979.94
935.519	2963.21
935.827	2974.74
936.135	2954.4
936.443	2977.22
936.751	2950.33
937.059	2944.91
937.367	2902.65
937.674	2929.09
937.982	2890.67
938.29	2889.09
938.597	2869.43
938.905	2857.23
939.213	2876.44
939.52	2845.7
939.827	2840.5
940.135	2814.74
940.442	2772.48
940.749	2800.73
941.056	2794.63
941.363	2775.87
941.67	2749.43
941.977	2733.16
942.284	2759.38
942.591	2730.9
942.898	2715.08
943.205	2728.87
943.511	2725.71
943.818	2707.63
944.125	2647.52
944.431	2670.57
944.738	2674.18
945.044	2646.61
945.35	2630.79
945.657	2626.72
945.963	2642.09
946.269	2615.2
946.575	2577.46
946.881	2590.34
947.187	2596.44
947.493	2567.52
947.799	2587.18
948.105	2569.55
948.41	2546.95
948.716	2531.36
949.022	2584.92
949.327	2551.25
949.633	2483.45
949.938	2499.5
950.244	2477.8
950.549	2471.02
950.854	2466.28
951.16	2464.02
951.465	2434.19
951.77	2436
952.075	2436
952.38	2453.17
952.685	2422.89
952.99	2410.01
953.294	2410.23
953.599	2396
953.904	2396.45
954.209	2401.65
954.513	2355.09
954.818	2356.68
955.122	2358.48
955.426	2372.95
955.731	2337.47
956.035	2287.98
956.339	2354.64
956.643	2310.35
956.948	2274.87
957.252	2299.28
957.556	2235.55
957.86	2290.69
958.163	2284.81
958.467	2272.38
958.771	2268.32
959.075	2257.47
959.378	2205.94
959.682	2234.64
959.985	2215.89
960.289	2181.31
960.592	2213.63
960.896	2205.49
961.199	2177.7
961.502	2181.09
961.805	2140.64
962.108	2147.87
962.411	2146.96
962.714	2153.97
963.017	2122.11
963.32	2131.82
963.623	2156.68
963.926	2126.62
964.228	2114.87
964.531	2085.72
964.833	2094.31
965.136	2093.63
965.438	2088.21
965.741	2060.64
966.043	2056.34
966.345	2083.24
966.648	2027.87
966.95	2040.75
967.252	2045.72
967.554	2020.64
967.856	2042.33
968.158	2016.57
968.46	2008.21
968.761	1978.61
969.063	2005.05
969.365	1977.48
969.666	1944.71
969.968	1995.1
970.269	1968.21
970.571	1979.06
970.872	1958.04
971.174	1948.32
971.475	1948.55
971.776	1920.3
972.077	1941.77
972.378	1938.61
972.679	1898.38
972.98	1904.48
973.281	1872.62
973.582	1882.56
973.883	1857.48
974.183	1855.22
974.484	1872.17
974.785	1862.23
975.085	1870.36
975.386	1853.41
975.686	1834.2
975.986	1830.81
976.287	1817.71
976.587	1823.13
976.887	1807.99
977.187	1776.58
977.487	1789.68
977.787	1783.36
978.087	1742
978.387	1775.9
978.687	1779.97
978.987	1761.21
979.286	1781.78
979.586	1749.23
979.885	1757.6
980.185	1734.09
980.484	1727.31
980.784	1741.1
981.083	1734.09
981.382	1714.88
981.682	1725.73
981.981	1707.65
982.28	1704.72
982.579	1666.98
982.878	1672.17
983.177	1695
983.475	1692.29
983.774	1673.08
984.073	1637.37
984.372	1634.43
984.67	1638.95
984.969	1654.32
985.267	1644.83
985.566	1629.91
985.864	1613.42
986.162	1624.72
986.461	1627.88
986.759	1615.45
987.057	1588.33
987.355	1580.65
987.653	1564.61
987.951	1551.72
988.249	1590.37
988.547	1548.56
988.844	1579.75
989.142	1555.11
989.44	1536.81
989.737	1548.56
990.035	1554.66
990.332	1533.87
990.63	1515.57
990.927	1495.46
991.224	1498.84
991.521	1516.47
991.819	1494.55
992.116	1507.66
992.413	1464.95
992.71	1483.03
993.006	1483.03
993.303	1459.98
993.6	1444.16
993.897	1453.2
994.193	1450.94
994.49	1457.49
994.787	1450.03
995.083	1422.46
995.379	1409.13
995.676	1414.1
995.972	1417.72
996.268	1424.5
996.565	1384.27
996.861	1379.53
997.157	1408.23
997.453	1369.81
997.749	1353.76
998.044	1357.15
998.34	1346.31
998.636	1354.22
998.932	1352.18
999.227	1341.56
999.523	1351.05
999.818	1339.53
1000.114	1293.43
1000.409	1302.47
1000.704	1319.64
1001	1305.86
1001.295	1302.92
1001.59	1314.67
1001.885	1312.86
1002.18	1276.03
1002.475	1264.73
1002.77	1316.02
1003.065	1271.28
1003.359	1269.25
1003.654	1258.63
1003.949	1260.43
1004.243	1263.6
1004.538	1250.49
1004.832	1236.48
1005.127	1243.71
1005.421	1222.92
1005.715	1250.26
1006.009	1212.52
1006.304	1203.49
1006.598	1217.27
1006.892	1203.71
1007.186	1184.95
1007.48	1200.1
1007.773	1187.21
1008.067	1193.09
1008.361	1164.84
1008.655	1158.97
1008.948	1161.68
1009.242	1178.18
1009.535	1159.42
1009.829	1138.4
1010.122	1116.71
1010.415	1139.31
1010.708	1139.98
1011.001	1132.07
1011.295	1110.83
1011.588	1114.45
1011.881	1116.71
1012.173	1085.3
1012.466	1104.05
1012.759	1083.71
1013.052	1091.4
1013.344	1061.34
1013.637	1065.18
1013.93	1079.65
1014.222	1072.19
1014.514	1057.05
1014.807	1041.23
1015.099	1042.36
1015.391	1020.21
1015.683	1038.29
1015.976	1049.37
1016.268	991.29
1016.56	1013.21
1016.851	997.16
1017.143	1041
1017.435	1011.4
1017.727	1007.78
1018.018	984.96
1018.31	994.23
1018.602	984.51
1018.893	991.06
1019.185	959.88
1019.476	972.3
1019.767	974.11
1020.058	939.09
1020.35	951.29
1020.641	954.9
1020.932	953.55
1021.223	925.07
1021.514	908.35
1021.804	917.17
1022.095	899.54
1022.386	936.6
1022.677	911.97
1022.967	904.06
1023.258	928.01
1023.548	906.09
1023.839	899.31
1024.129	908.13
1024.419	897.05
1024.709	865.42
1025	889.14
1025.29	871.52
1025.58	879.43
1025.87	842.36
1026.16	851.18
1026.449	875.81
1026.739	841.23
1027.029	832.2
1027.319	812.54
1027.608	820.67
1027.898	821.57
1028.187	842.59
1028.477	834
1028.766	806.43
1029.055	815.47
1029.344	787.23
1029.634	795.81
1029.923	796.26
1030.212	794.68
1030.501	804.4
1030.79	782.71
1031.078	775.47
1031.367	776.38
1031.656	782.48
1031.945	772.31
1032.233	769.37
1032.522	757.85
1032.81	746.1
1033.099	753.55
1033.387	754.68
1033.675	742.93
1033.963	743.16
1034.251	754.91
1034.54	725.53
1034.828	728.24
1035.116	719.2
1035.403	720.79
1035.691	746.77
1035.979	725.98
1036.267	710.62
1036.554	688.92
1036.842	687.79
1037.129	694.57
1037.417	694.35
1037.704	694.57
1037.992	685.76
1038.279	695.48
1038.566	694.8
1038.853	694.8
1039.14	694.8
