Data from tablewood_dark_bookshelf_FLMS001491_00032.txt Node
Date: Wed Feb 08 14:14:25 GMT 2017
User: dcchb
Spectrometer: FLMS00149
Trigger mode: 0
Integration Time (sec): 2.000000E-2
Scans to average: 10
Electric dark correction enabled: true
Nonlinearity correction enabled: false
Boxcar width: 0
XAxis mode: Wavelengths
Number of Pixels in Spectrum: 2048
>>>>>Begin Spectral Data<<<<<
341.393	-26.78
341.776	-26.78
342.16	-26.78
342.543	-53.22
342.927	-50.96
343.31	-71.52
343.693	-65.42
344.077	-66.55
344.46	-75.82
344.843	-56.83
345.226	-36.27
345.61	-40.11
345.993	-35.14
346.376	2.82
346.759	20.9
347.142	32.2
347.525	42.82
347.908	59.32
348.291	69.72
348.674	113.33
349.057	106.55
349.44	129.15
349.823	121.24
350.206	165.31
350.588	176.61
350.971	187.23
351.354	196.72
351.737	215.93
352.119	229.94
352.502	252.76
352.884	277.62
353.267	264.74
353.65	265.64
354.032	265.64
354.414	296.83
354.797	291.63
355.179	309.48
355.562	318.52
355.944	330.95
356.326	325.3
356.709	309.94
357.091	295.02
357.473	323.27
357.855	317.84
358.238	314.23
358.62	316.26
359.002	351.52
359.384	342.02
359.766	316.49
360.148	333.89
360.53	318.3
360.912	341.12
361.294	327.34
361.676	307.68
362.057	314.23
362.439	318.3
362.821	322.59
363.203	315.58
363.584	335.7
363.966	295.02
364.348	324.4
364.729	306.77
365.111	321.69
365.493	307
365.874	313.33
366.256	318.75
366.637	321.46
367.019	334.12
367.4	311.97
367.781	302.93
368.163	305.64
368.544	299.99
368.925	316.94
369.306	297.51
369.688	309.71
370.069	281.24
370.45	315.58
370.831	309.03
371.212	308.58
371.593	311.29
371.974	317.84
372.355	319.88
372.736	305.64
373.117	279.2
373.498	308.13
373.879	315.13
374.26	327.79
374.641	318.3
375.021	309.03
375.402	311.74
375.783	318.07
376.163	346.09
376.544	314.46
376.925	322.36
377.305	327.56
377.686	334.79
378.066	322.36
378.447	304.06
378.827	342.02
379.208	344.96
379.588	320.56
379.968	340.44
380.349	317.84
380.729	334.34
381.109	330.5
381.489	351.74
381.87	349.26
382.25	339.31
382.63	351.74
383.01	345.87
383.39	353.55
383.77	350.39
384.15	343.61
384.53	357.84
384.91	356.04
385.29	366.21
385.67	339.31
386.049	360.1
386.429	341.57
386.809	353.78
387.189	370.95
387.568	359.65
387.948	386.54
388.328	372.98
388.707	382.7
389.087	382.48
389.466	381.8
389.846	367.33
390.225	379.09
390.605	396.03
390.984	384.51
391.363	393.32
391.743	381.12
392.122	384.06
392.501	396.26
392.881	397.84
393.26	401.01
393.639	407.11
394.018	409.37
394.397	406.2
394.776	400.55
395.155	414.79
395.534	417.5
395.913	414.79
396.292	425.41
396.671	406.43
397.05	422.47
397.429	428.35
397.808	410.95
398.186	442.36
398.565	420.44
398.944	453.43
399.323	402.14
399.701	438.97
400.08	441.01
400.458	436.03
400.837	419.54
401.215	441.01
401.594	428.58
401.972	461.34
402.351	437.62
402.729	472.87
403.107	453.43
403.486	442.36
403.864	463.15
404.242	447.11
404.62	454.34
404.999	473.77
405.377	454.11
405.755	469.71
406.133	485.75
406.511	481.23
406.889	488.24
407.267	472.19
407.645	484.39
408.023	482.59
408.401	518.52
408.779	485.3
409.156	513.77
409.534	493.43
409.912	524.84
410.29	525.75
410.667	517.16
411.045	530.49
411.422	525.75
411.8	531.17
412.178	541.57
412.555	552.19
412.933	529.36
413.31	561.45
413.687	563.71
414.065	561.68
414.442	572.3
414.819	571.17
415.197	566.65
415.574	557.16
415.951	580.21
416.328	579.53
416.705	565.97
417.082	575.24
417.46	581.57
417.837	574.56
418.214	605.29
418.591	584.96
418.967	596.26
419.344	587.67
419.721	605.97
420.098	609.14
420.475	610.72
420.852	617.05
421.228	652.98
421.605	612.75
421.982	636.93
422.358	636.03
422.735	626.31
423.111	634.67
423.488	654.79
423.864	655.01
424.241	649.81
424.617	651.85
424.994	675.8
425.37	674.67
425.746	664.05
426.123	707.21
426.499	704.28
426.875	673.09
427.251	704.5
427.627	747.44
428.003	733.65
428.379	745.86
428.756	729.81
429.132	720.55
429.507	735.69
429.883	751.28
430.259	751.05
430.635	780.21
431.011	765.52
431.387	778.17
431.763	786.98
432.138	805.06
432.514	798.74
432.89	801
433.265	819.75
433.641	814.78
434.016	828.34
434.392	825.85
434.767	838.06
435.143	818.85
435.518	834.67
435.894	848.9
436.269	856.36
436.644	871.5
437.02	868.11
437.395	872.18
437.77	888.23
438.145	913.99
438.52	913.54
438.895	917.15
439.271	935.68
439.646	927.77
440.021	958.51
440.395	931.61
440.77	933.42
441.145	957.15
441.52	960.09
441.895	956.92
442.27	931.61
442.645	997.15
443.019	951.5
443.394	956.7
443.769	995.34
444.143	983.36
444.518	997.83
444.892	982.69
445.267	1001.22
445.641	1011.39
446.016	1012.74
446.39	1013.87
446.764	1022.01
447.139	1016.36
447.513	1033.53
447.887	1027.43
448.262	1047.77
448.636	1020.43
449.01	1067.66
449.384	1041.22
449.758	1079.18
450.132	1101.78
450.506	1102
450.88	1085.06
451.254	1090.03
451.628	1098.39
452.002	1100.88
452.376	1160.31
452.75	1139.74
453.123	1149.24
453.497	1137.71
453.871	1173.64
454.244	1190.14
454.618	1180.87
454.992	1181.55
455.365	1189.46
455.739	1213.64
456.112	1232.85
456.486	1237.14
456.859	1254.09
457.232	1264.94
457.606	1265.16
457.979	1305.16
458.352	1324.37
458.725	1357.82
459.099	1332.73
459.472	1335.9
459.845	1359.4
460.218	1393.75
460.591	1370.02
460.964	1401.66
461.337	1414.09
461.71	1434.88
462.083	1478.27
462.456	1460.87
462.829	1453.18
463.201	1479.4
463.574	1497.02
463.947	1501.54
464.32	1538.15
464.692	1564.82
465.065	1538.6
465.438	1596.68
465.81	1610.69
466.183	1589.9
466.555	1610.92
466.928	1633.29
467.3	1622.44
467.672	1681.42
468.045	1705.83
468.417	1719.16
468.789	1721.2
469.161	1721.2
469.534	1754.42
469.906	1780.86
470.278	1819.27
470.65	1822.44
471.022	1832.83
471.394	1886.62
471.766	1918.03
472.138	1922.1
472.51	1939.27
472.882	1981.76
473.253	1994.86
473.625	2025.37
473.997	2041.64
474.369	2075.99
474.74	2113.96
475.112	2115.09
475.484	2152.6
475.855	2181.07
476.227	2217.91
476.598	2238.02
476.97	2231.69
477.341	2302.2
477.713	2350.11
478.084	2401.18
478.455	2439.14
478.827	2471.91
479.198	2482.99
479.569	2492.48
479.94	2573.6
480.311	2594.85
480.682	2644.11
481.053	2681.4
481.424	2728.4
481.795	2752.13
482.166	2756.2
482.537	2783.32
482.908	2898.34
483.279	2909.87
483.65	2954.61
484.021	3023.31
484.391	3052.24
484.762	3056.08
485.133	3092.69
485.503	3122.74
485.874	3197.09
486.244	3202.51
486.615	3298.33
486.985	3299.01
487.356	3357.54
487.726	3372.91
488.097	3391.89
488.467	3458.55
488.837	3517.31
489.207	3568.38
489.578	3619.45
489.948	3638.66
490.318	3633.92
490.688	3708.04
491.058	3767.25
491.428	3760.24
491.798	3841.14
492.168	3867.58
492.538	3894.47
492.908	3990.06
493.278	3985.54
493.648	4007.92
494.017	4085.2
494.387	4065.77
494.757	4144.64
495.126	4178.53
495.496	4193.22
495.866	4221.24
496.235	4229.61
496.605	4287.91
496.974	4316.84
497.344	4371.52
497.713	4383.5
498.082	4397.74
498.452	4473.89
498.821	4469.83
499.19	4498.07
499.559	4582.14
499.928	4576.72
500.298	4599.54
500.667	4613.55
501.036	4593.89
501.405	4700.33
501.774	4672.76
502.143	4688.8
502.512	4799.53
502.88	4811.29
503.249	4807.67
503.618	4835.47
503.987	4905.75
504.356	4921.79
504.724	4927.89
505.093	4945.97
505.462	4990.49
505.83	5035.46
506.199	5047.44
506.567	5168.34
506.936	5097.15
507.304	5197.04
507.672	5186.42
508.041	5199.07
508.409	5246.98
508.777	5328.33
509.145	5380.99
509.514	5357.03
509.882	5395
510.25	5475.45
510.618	5471.61
510.986	5477.48
511.354	5543.7
511.722	5581.44
512.09	5667.08
512.458	5609.91
512.826	5675.9
513.193	5706.4
513.561	5777.81
513.929	5742.11
514.297	5853.52
514.664	5879.73
515.032	5884.25
515.4	5995.66
515.767	5945.95
516.135	6039.73
516.502	5999.05
516.869	6086.51
517.237	6116.11
517.604	6102.55
517.972	6185.71
518.339	6219.84
518.706	6227.29
519.073	6313.62
519.44	6324.24
519.808	6338.25
520.175	6417.57
520.542	6546.83
520.909	6546.61
521.276	6546.16
521.643	6603.33
522.009	6672.03
522.376	6751.57
522.743	6763.32
523.11	6800.39
523.477	6879.03
523.843	6980.27
524.21	6974.62
524.577	7022.3
524.943	7065.92
525.31	7135.97
525.676	7237.21
526.043	7222.07
526.409	7291.22
526.776	7347.49
527.142	7395.85
527.508	7524.21
527.874	7473.36
528.241	7578.9
528.607	7523.98
528.973	7682.85
529.339	7700.25
529.705	7725.79
530.071	7787.03
530.437	7875.16
530.803	7849.62
531.169	7946.34
531.535	7930.98
531.901	7967.14
532.267	8036.51
532.632	8057.53
532.998	8081.71
533.364	8122.61
533.73	8165.77
534.095	8195.15
534.461	8278.77
534.826	8334.13
535.192	8363.28
535.557	8421.13
535.923	8413.45
536.288	8478.76
536.653	8558.53
537.019	8532.32
537.384	8522.83
537.749	8602.82
538.114	8664.74
538.479	8628.36
538.845	8696.16
539.21	8678.75
539.575	8750.62
539.94	8834.46
540.305	8827
540.67	8857.96
541.034	8856.38
541.399	8969.82
541.764	8981.57
542.129	8969.14
542.494	9002.81
542.858	9021.34
543.223	9019.31
543.587	9132.75
543.952	9148.8
544.316	9118.97
544.681	9191.51
545.045	9190.15
545.41	9253.65
545.774	9300.89
546.138	9276.93
546.503	9373.43
546.867	9388.34
547.231	9454.1
547.595	9418.62
547.959	9570.26
548.324	9515.57
548.688	9524.38
549.052	9640.09
549.416	9685.96
549.779	9659.07
550.143	9683.47
550.507	9797.14
550.871	9824.71
551.235	9812.51
551.599	9841.66
551.962	9907.42
552.326	9981.32
552.689	10005.95
553.053	9951.04
553.417	10031.71
553.78	10165.04
554.143	10160.52
554.507	10284.36
554.87	10216.79
555.234	10330.46
555.597	10301.99
555.96	10283.23
556.323	10382.44
556.686	10461.53
557.05	10509.67
557.413	10572.72
557.776	10598.93
558.139	10687.06
558.502	10688.42
558.865	10733.39
559.228	10750.11
559.59	10856.78
559.953	10891.35
560.316	11024.91
560.679	11041.18
561.041	11202.98
561.404	11137
561.767	11146.71
562.129	11217.9
562.492	11308.52
562.854	11304.67
563.217	11400.27
563.579	11392.58
563.941	11508.74
564.304	11566.59
564.666	11619.92
565.028	11710.31
565.39	11727.49
565.753	11786.7
566.115	11795.06
566.477	11911.44
566.839	11926.13
567.201	12022.4
567.563	12173.8
567.925	12225.33
568.287	12179.91
568.648	12240.47
569.01	12266.46
569.372	12393.69
569.734	12330.18
570.095	12463.29
570.457	12567.47
570.819	12671.42
571.18	12666.9
571.542	12632.78
571.903	12712.1
572.265	12796.84
572.626	12899.89
572.987	12858.31
573.349	12974.46
573.71	13048.13
574.071	13143.27
574.432	13267.79
574.794	13296.03
575.155	13297.16
575.516	13254
575.877	13359.99
576.238	13432.98
576.599	13445.64
576.96	13484.28
577.32	13552.98
577.681	13588.46
578.042	13671.62
578.403	13657.16
578.763	13752.29
579.124	13662.13
579.485	13846.53
579.845	13884.72
580.206	13893.08
580.566	13869.8
580.927	13906.64
581.287	14076.35
581.648	14047.88
582.008	14030.93
582.368	14042.46
582.728	14147.54
583.089	14179.18
583.449	14113.19
583.809	14157.48
584.169	14193.19
584.529	14235.9
584.889	14359.74
585.249	14262.34
585.609	14375.55
585.969	14413.29
586.329	14462.11
586.688	14440.41
587.048	14516.57
587.408	14461.88
587.768	14536
588.127	14519.73
588.487	14527.19
588.846	14648.77
589.206	14603.57
589.565	14603.34
589.925	14846.5
590.284	14690.57
590.643	14746.84
591.003	14769.22
591.362	14891.92
591.721	14874.07
592.08	14862.77
592.44	14978.7
592.799	14963.34
593.158	14926.95
593.517	14912.94
593.876	14990.45
594.235	14942.32
594.593	15000.85
594.952	15044.69
595.311	15008.53
595.67	15058.7
596.029	15242.42
596.387	15239.03
596.746	15229.09
597.104	15143.67
597.463	15230
597.822	15295.98
598.18	15219.6
598.538	15324.91
598.897	15394.28
599.255	15339.37
599.613	15430.22
599.972	15458.46
600.33	15438.58
600.688	15415.75
601.046	15510.44
601.404	15584.79
601.762	15523.55
602.12	15586.82
602.478	15691.9
602.836	15656.88
603.194	15514.73
603.552	15715.63
603.91	15642.19
604.268	15749.53
604.625	15740.04
604.983	15701.4
605.341	15684.45
605.698	15782.07
606.056	15815.52
606.413	15785.23
606.771	15897.55
607.128	15904.55
607.485	15833.14
607.843	15856.65
608.2	15923.76
608.557	16121.95
608.914	16012.12
609.272	16111.78
609.629	16105.45
609.986	16092.57
610.343	16090.31
610.7	16241.72
611.057	16297.54
611.414	16132.57
611.771	16218.44
612.127	16326.46
612.484	16294.6
612.841	16415.27
613.198	16346.12
613.554	16350.64
613.911	16420.02
614.267	16427.03
614.624	16465.67
614.98	16433.35
615.337	16557.64
615.693	16576.4
616.05	16535.27
616.406	16575.72
616.762	16488.04
617.118	16526.01
617.475	16573.24
617.831	16681.48
618.187	16664.53
618.543	16712.89
618.899	16737.75
619.255	16773.01
619.611	16705.66
619.967	16778.65
620.323	16857.52
620.678	16733.68
621.034	16723.74
621.39	16638.09
621.746	16716.96
622.101	16854.59
622.457	16744.53
622.812	16860.69
623.168	16796.28
623.523	16898.88
623.879	16926.22
624.234	16773.23
624.589	16784.76
624.945	16872.89
625.3	16860.69
625.655	16766.45
626.01	16916.73
626.365	16920.57
626.72	16917.63
627.075	16886.67
627.43	16867.69
627.785	16773.91
628.14	16949.05
628.495	16911.08
628.85	16897.3
629.205	16747.24
629.559	16902.49
629.914	16751.76
630.269	16824.98
630.623	16819.33
630.978	16679.22
631.332	16773.01
631.687	16946.79
632.041	16822.5
632.396	16821.82
632.75	16738.43
633.104	16745.44
633.459	16734.14
633.813	16664.76
634.167	16772.1
634.521	16756.28
634.875	16798.77
635.229	16760.12
635.583	16674.7
635.937	16784.08
636.291	16598.32
636.645	16673.35
636.999	16604.87
637.352	16663.4
637.706	16579.34
638.06	16633.57
638.413	16551.32
638.767	16612.56
639.121	16524.65
639.474	16497.98
639.828	16493.92
640.181	16446.46
640.534	16389.96
640.888	16387.93
641.241	16370.53
641.594	16418.44
641.947	16459.12
642.301	16290.08
642.654	16341.38
643.007	16369.4
643.36	16416.86
643.713	16321.04
644.066	16304.54
644.419	16230.87
644.771	16094.61
645.124	15942.97
645.477	15997.66
645.83	15832.92
646.182	15836.31
646.535	15625.92
646.888	15958.79
647.24	15776.65
647.593	15932.8
647.945	15867.49
648.298	15775.74
648.65	15834.72
649.002	15762.18
649.355	15822.3
649.707	15599.25
650.059	15820.94
650.411	15924.67
650.763	15960.82
651.115	16192.23
651.467	16072.68
651.819	16131.67
652.171	16114.04
652.523	16011.67
652.875	16078.56
653.227	15945.68
653.578	16039.69
653.93	16020.26
654.282	15993.36
654.633	15936.42
654.985	15977.77
655.337	15965.12
655.688	15948.85
656.039	16097.09
656.391	15902.75
656.742	16027.04
657.094	15989.98
657.445	16027.49
657.796	16022.52
658.147	15970.31
658.498	15987.26
658.849	15979.81
659.2	15940.94
659.551	15989.52
659.902	15976.87
660.253	15930.32
660.604	15947.72
660.955	15952.69
661.306	15930.32
661.656	15906.81
662.007	15905.23
662.358	15941.39
662.708	15900.94
663.059	15898.9
663.409	15833.82
663.76	15970.09
664.11	15853.93
664.461	15906.81
664.811	15896.42
665.161	15956.08
665.511	15828.62
665.862	15861.39
666.212	15965.57
666.562	16029.07
666.912	15822.3
667.262	15820.49
667.612	15882.63
667.962	15887.6
668.312	15888.96
668.662	15974.83
669.011	15858
669.361	15834.72
669.711	15876.98
670.06	15897.1
670.41	15843.54
670.76	15875.63
671.109	15944.33
671.459	15916.76
671.808	15952.69
672.157	15833.82
672.507	15735.97
672.856	15803.31
673.205	15801.05
673.554	15863.65
673.904	15765.8
674.253	15887.6
674.602	15790.43
674.951	15618.91
675.3	15594.51
675.649	15797.21
675.998	15768.74
676.346	15766.25
676.695	15824.78
677.044	15756.31
677.393	15699.14
677.741	15821.17
678.09	15727.61
678.438	15777.55
678.787	15722.19
679.135	15797.44
679.484	15681.96
679.832	15750.21
680.181	15632.02
680.529	15653.03
680.877	15670.66
681.225	15615.97
681.573	15698.01
681.922	15660.72
682.27	15571
682.618	15589.53
682.966	15518.35
683.314	15634.28
683.661	15505.24
684.009	15499.14
684.357	15471.12
684.705	15428.41
685.053	15441.06
685.4	15447.16
685.748	15340.73
686.095	15293.27
686.443	15299.37
686.79	15349.31
687.138	15335.75
687.485	15245.59
687.832	15207.62
688.18	15283.55
688.527	15210.79
688.874	15179.83
689.221	15129.21
689.568	15069.77
689.915	15062.32
690.262	15024.12
690.609	15017.8
690.956	14929.21
691.303	14987.74
691.65	14873.85
691.997	14841.53
692.344	14818.48
692.69	14758.14
693.037	14820.29
693.383	14649.9
693.73	14795.43
694.077	14675.21
694.423	14620.52
694.769	14628.2
695.116	14607.86
695.462	14647.41
695.808	14568.77
696.155	14493.97
696.501	14368.1
696.847	14387.98
697.193	14325.84
697.539	14397.25
697.885	14341.43
698.231	14143.24
698.577	14240.19
698.923	14246.07
699.269	14155.67
699.614	14119.74
699.96	14067.09
700.306	14121.1
700.651	14033.42
700.997	13969.69
701.342	14018.28
701.688	13989.58
702.033	13863.03
702.379	13909.58
702.724	13826.87
703.069	13927.43
703.415	13743.48
703.76	13708.45
704.105	13712.97
704.45	13742.8
704.795	13651.05
705.14	13588
705.485	13495.58
705.83	13445.41
706.175	13489.93
706.52	13470.72
706.865	13446.09
707.209	13414.9
707.554	13412.42
707.899	13451.51
708.243	13300.33
708.588	13319.08
708.932	13149.15
709.277	13314.79
709.621	13258.3
709.966	13194.79
710.31	13280.44
710.654	13102.59
710.998	13133.78
711.342	13127.68
711.687	13124.29
712.031	13027.12
712.375	13043.16
712.719	13096.72
713.063	13068.92
713.407	13003.39
713.75	13035.48
714.094	12927.46
714.438	12886.1
714.782	12958.64
715.125	12907.57
715.469	12861.47
715.812	12871.19
716.156	12699.44
716.499	12806.33
716.843	12766.11
717.186	12731.98
717.53	12832.09
717.873	12794.58
718.216	12745.54
718.559	12668.93
718.902	12613.34
719.246	12694.24
719.589	12635.49
719.932	12543.29
720.275	12715.48
720.617	12669.16
720.96	12546.9
721.303	12510.07
721.646	12617.86
721.989	12474.81
722.331	12544.64
722.674	12498.54
723.016	12548.03
723.359	12497.41
723.701	12492.44
724.044	12433.46
724.386	12359.11
724.729	12471.88
725.071	12388.71
725.413	12358.88
725.755	12375.61
726.097	12410.86
726.439	12344.87
726.782	12340.58
727.124	12316.85
727.465	12291.99
727.807	12372.9
728.149	12233.01
728.491	12313.24
728.833	12356.4
729.175	12209.96
729.516	12134.03
729.858	12292.67
730.199	12284.31
730.541	12280.69
730.882	12180.58
731.224	12262.84
731.565	12218.55
731.906	12118.44
732.248	12210.87
732.589	12113.01
732.93	12143.07
733.271	12142.39
733.612	12162.73
733.953	12096.74
734.294	12180.58
734.635	12092.22
734.976	12099
735.317	12054.94
735.658	12032.34
735.999	12037.54
736.339	12143.07
736.68	12080.47
737.021	12114.14
737.361	12059.68
737.702	12091.09
738.042	12050.87
738.383	11958.44
738.723	12040.93
739.063	12056.75
739.404	12008.84
739.744	12003.19
740.084	12036.41
740.424	12005.67
740.764	12000.7
741.104	11955.73
741.444	11986.69
741.784	11855.62
742.124	11902.85
742.464	11945.79
742.804	11993.24
743.143	11836.64
743.483	11826.92
743.823	11822.85
744.162	11863.3
744.502	11810.42
744.841	11838.9
745.181	11775.62
745.52	11860.82
745.86	11882.96
746.199	11864.43
746.538	11772.23
746.877	11932.91
747.216	11812.23
747.556	11887.48
747.895	11874.38
748.234	11747.6
748.573	11757.09
748.911	11692.69
749.25	11732.01
749.589	11642.52
749.928	11811.33
750.267	11670.77
750.605	11788.28
750.944	11736.08
751.283	11652.01
751.621	11757.32
751.96	11691.11
752.298	11648.17
752.636	11638
752.975	11544.22
753.313	11627.83
753.651	11614.27
753.989	11519.58
754.327	11597.55
754.666	11432.58
755.004	11469.87
755.342	11515.74
755.679	11457.21
756.017	11423.99
756.355	11464.9
756.693	11409.53
757.031	11447.95
757.368	11283.88
757.706	11352.58
758.044	11347.61
758.381	11310.55
758.719	11269.42
759.056	11270.33
759.394	11240.04
759.731	11148.75
760.068	11167.95
760.405	11097.45
760.743	11035.53
761.08	11063.78
761.417	11016.32
761.754	10970.9
762.091	11061.29
762.428	11025.59
762.765	10927.51
763.102	10930
763.438	10888.87
763.775	10800.28
764.112	10816.55
764.449	10793.28
764.785	10825.14
765.122	10711.02
765.458	10714.18
765.795	10754.86
766.131	10678.48
766.467	10676.67
766.804	10616.56
767.14	10558.25
767.476	10531.36
767.812	10393.06
768.148	10495.66
768.485	10489.78
768.821	10385.83
769.157	10286.17
769.492	10317.13
769.828	10352.38
770.164	10248.21
770.5	10261.09
770.836	10249.79
771.171	10170.69
771.507	10163.69
771.842	10047.31
772.178	10060.19
772.513	10044.59
772.849	9911.49
773.184	9925.73
773.519	10002.34
773.855	9884.37
774.19	9807.54
774.525	9801.21
774.86	9778.39
775.195	9702.46
775.53	9711.5
775.865	9631.72
776.2	9563.48
776.535	9541.11
776.87	9549.01
777.205	9543.14
777.539	9460.43
777.874	9499.3
778.209	9389.02
778.543	9393.76
778.878	9378.85
779.212	9391.28
779.547	9303.37
779.881	9292.98
780.215	9215.69
780.55	9211.62
780.884	9169.59
781.218	9120.55
781.552	9085.52
781.886	9092.98
782.22	8980.67
782.554	9013.66
782.888	8976.15
783.222	8850.5
783.556	8847.34
783.889	8883.72
784.223	8820.45
784.557	8813.67
784.89	8775.93
785.224	8708.81
785.557	8696.61
785.891	8643.95
786.224	8647.12
786.558	8689.38
786.891	8568.25
787.224	8598.08
787.557	8498.87
787.891	8436.73
788.224	8492.77
788.557	8538.19
788.89	8424.07
789.223	8365.09
789.556	8304.98
789.888	8298.43
790.221	8291.87
790.554	8219.33
790.887	8223.85
791.219	8165.32
791.552	8127.81
791.884	8105.66
792.217	8092.1
792.549	8123.97
792.882	7978.43
793.214	8067.47
793.546	7976.85
793.879	7939.11
794.211	7923.52
794.543	7986.8
794.875	7922.62
795.207	7954.03
795.539	7829.29
795.871	7864.99
796.203	7785.45
796.535	7768.95
796.867	7747.03
797.198	7729.4
797.53	7714.03
797.862	7678.56
798.193	7671.1
798.525	7629.52
798.856	7619.8
799.188	7505.9
799.519	7521.95
799.85	7502.74
800.182	7485.11
800.513	7501.38
800.844	7434.95
801.175	7439.24
801.506	7392.01
801.837	7385.91
802.168	7350.88
802.499	7322.86
802.83	7304.33
803.161	7300.26
803.491	7300.49
803.822	7269.98
804.153	7214.16
804.483	7160.83
804.814	7160.15
805.145	7146.14
805.475	7164.44
805.805	7030.66
806.136	7026.59
806.466	7086.93
806.796	7083.54
807.126	7032.02
807.457	6973.71
807.787	7027.72
808.117	6872.93
808.447	6913.83
808.777	6916.32
809.107	6938.24
809.436	6851.01
809.766	6894.17
810.096	6813.04
810.426	6839.03
810.755	6864.57
811.085	6816.43
811.414	6859.59
811.744	6772.59
812.073	6761.29
812.403	6670.22
812.732	6689.43
813.061	6687.85
813.39	6650.79
813.719	6644.91
814.049	6673.16
814.378	6632.93
814.707	6587.06
815.036	6561.75
815.365	6573.27
815.693	6503.44
816.022	6516.55
816.351	6463.22
816.68	6477.46
817.008	6447.63
817.337	6403.79
817.665	6411.24
817.994	6451.92
818.322	6422.99
818.651	6378.7
818.979	6394.07
819.307	6416.89
819.636	6412.83
819.964	6355.43
820.292	6376.89
820.62	6384.35
820.948	6328.53
821.276	6396.78
821.604	6381.41
821.932	6340.51
822.259	6307.74
822.587	6227.07
822.915	6269.55
823.243	6279.95
823.57	6317.24
823.898	6285.15
824.225	6291.02
824.553	6298.25
824.88	6292.38
825.207	6300.06
825.535	6246.28
825.862	6258.71
826.189	6254.64
826.516	6276.11
826.843	6305.94
827.17	6285.15
827.497	6268.42
827.824	6288.54
828.151	6290.12
828.478	6301.64
828.805	6316.33
829.131	6305.03
829.458	6255.09
829.785	6246.73
830.111	6241.98
830.438	6263.9
830.764	6272.49
831.09	6236.33
831.417	6225.94
831.743	6250.57
832.069	6242.89
832.395	6254.19
832.722	6210.8
833.048	6205.6
833.374	6247.63
833.7	6179.61
834.026	6234.53
834.351	6148.65
834.677	6173.74
835.003	6182.55
835.329	6161.08
835.654	6188.88
835.98	6133.29
836.306	6143.91
836.631	6117.69
836.956	6153.4
837.282	6163.57
837.607	6114.75
837.932	6084.25
838.258	6127.86
838.583	6040.86
838.908	6076.34
839.233	6093.06
839.558	6043.34
839.883	6053.97
840.208	6006.28
840.533	6016.68
840.858	5994.31
841.182	5993.4
841.507	6020.07
841.832	5970.8
842.156	5977.58
842.481	5956.57
842.805	5949.34
843.13	5923.35
843.454	5899.84
843.778	5875.66
844.103	5912.73
844.427	5894.2
844.751	5845.38
845.075	5873.63
845.399	5851.03
845.723	5834.99
846.047	5816.01
846.371	5826.17
846.695	5774.88
847.019	5741.88
847.343	5724.48
847.666	5643.13
847.99	5649.46
848.313	5670.47
848.637	5630.7
848.96	5623.69
849.284	5633.64
849.607	5552.06
849.931	5557.48
850.254	5485.39
850.577	5490.14
850.9	5444.72
851.223	5457.14
851.546	5451.27
851.869	5387.77
852.192	5407.43
852.515	5385.73
852.838	5319.97
853.161	5330.59
853.483	5340.76
853.806	5284.72
854.129	5304.61
854.451	5271.61
854.774	5239.75
855.096	5187.32
855.419	5201.78
855.741	5248.79
856.063	5136.02
856.385	5152.97
856.708	5184.84
857.03	5127.21
857.352	5137.38
857.674	5107.55
857.996	5146.19
858.318	5104.61
858.64	5045.18
858.961	5060.09
859.283	5059.19
859.605	5071.84
859.926	5027.1
860.248	5056.93
860.57	4989.36
860.891	4996.37
861.212	4976.25
861.534	4989.13
861.855	4949.59
862.176	4949.59
862.498	4959.53
862.819	4950.27
863.14	4894.45
863.461	4941.68
863.782	4894.9
864.103	4889.48
864.424	4932.86
864.745	4875.24
865.065	4860.32
865.386	4899.42
865.707	4839.08
866.027	4855.13
866.348	4881.34
866.668	4850.38
866.989	4833.21
867.309	4767.67
867.63	4806.31
867.95	4799.76
868.27	4797.27
868.59	4804.51
868.91	4788.24
869.23	4787.56
869.55	4729.93
869.87	4750.27
870.19	4736.94
870.51	4771.06
870.83	4734
871.15	4699.88
871.469	4746.2
871.789	4753.89
872.109	4738.97
872.428	4706.66
872.748	4694.9
873.067	4737.62
873.386	4689.03
873.706	4716.15
874.025	4652.19
874.344	4654.91
874.663	4660.33
874.982	4654.23
875.301	4677.05
875.62	4700.33
875.939	4648.13
876.258	4643.15
876.577	4650.16
876.896	4610.39
877.214	4607.68
877.533	4612.65
877.852	4642.02
878.17	4662.82
878.489	4585.08
878.807	4569.26
879.125	4557.28
879.444	4565.87
879.762	4589.37
880.08	4562.93
880.398	4524.51
880.716	4491.07
881.034	4537.17
881.352	4545.98
881.67	4564.96
881.988	4507.11
882.306	4554.8
882.624	4488.58
882.941	4478.64
883.259	4465.31
883.577	4483.38
883.894	4442.03
884.212	4456.49
884.529	4482.93
884.846	4419.66
885.164	4454.91
885.481	4398.87
885.798	4438.64
886.115	4409.04
886.432	4408.58
886.75	4402.71
887.067	4428.92
887.383	4348.47
887.7	4354.35
888.017	4363.61
888.334	4333.56
888.651	4323.16
888.967	4364.74
889.284	4353.44
889.6	4293.11
889.917	4310.28
890.233	4251.98
890.55	4270.74
890.866	4261.92
891.182	4276.61
891.498	4255.59
891.815	4209.72
892.131	4224.18
892.447	4242.49
892.763	4200.45
893.079	4144.18
893.395	4178.99
893.71	4157.74
894.026	4107.8
894.342	4178.76
894.657	4122.72
894.973	4117.97
895.289	4087.46
895.604	4128.14
895.92	4075.94
896.235	4049.05
896.55	4075.49
896.865	4055.6
897.181	4028.93
897.496	4058.76
897.811	4055.37
898.126	3992.78
898.441	4017.63
898.756	3992.78
899.071	3956.39
899.386	3938.31
899.7	3927.24
900.015	3927.92
900.33	3914.59
900.644	3920.46
900.959	3922.27
901.273	3894.25
901.588	3891.54
901.902	3854.02
902.216	3839.79
902.531	3832.1
902.845	3833.91
903.159	3811.31
903.473	3785.32
903.787	3771.54
904.101	3739.68
904.415	3757.98
904.729	3767.25
905.042	3770.64
905.356	3739.9
905.67	3719.79
905.984	3763.18
906.297	3725.21
906.611	3695.16
906.924	3706.91
907.237	3684.99
907.551	3647.25
907.864	3623.97
908.177	3647.25
908.491	3617.87
908.804	3587.14
909.117	3639.34
909.43	3576.06
909.743	3573.8
910.056	3540.58
910.368	3513.69
910.681	3491.77
910.994	3539
911.307	3520.47
911.619	3516.4
911.932	3516.86
912.244	3474.15
912.557	3481.83
912.869	3452.23
913.181	3454.03
913.494	3443.19
913.806	3428.72
914.118	3437.08
914.43	3362.06
914.742	3371.78
915.054	3401.61
915.366	3338.1
915.678	3343.3
915.99	3336.97
916.302	3333.36
916.613	3311.66
916.925	3322.96
917.236	3279.35
917.548	3258.33
917.859	3288.16
918.171	3259.46
918.482	3261.5
918.794	3198.9
919.105	3207.26
919.416	3214.94
919.727	3212.01
920.038	3191.44
920.349	3154.38
920.66	3193.93
920.971	3127.71
921.282	3129.07
921.593	3146.02
921.903	3112.35
922.214	3120.71
922.525	3081.84
922.835	3085.91
923.146	3062.18
923.456	3085.46
923.767	3035.74
924.077	3020.6
924.387	3026.7
924.697	3015.4
925.008	3032.12
925.318	3020.37
925.628	2979.92
925.938	2996.64
926.248	2974.72
926.558	2973.82
926.867	2959.81
927.177	2914.61
927.487	2948.06
927.796	2900.15
928.106	2901.51
928.416	2908.74
928.725	2853.15
929.034	2890.43
929.344	2853.6
929.653	2849.76
929.962	2843.88
930.271	2825.58
930.581	2799.36
930.89	2805.69
931.199	2788.06
931.508	2788.06
931.817	2775.18
932.125	2772.24
932.434	2758.01
932.743	2703.77
933.051	2724.34
933.36	2748.52
933.669	2724.56
933.977	2706.71
934.286	2707.16
934.594	2693.15
934.902	2666.94
935.21	2656.09
935.519	2647.95
935.827	2621.96
936.135	2638.46
936.443	2619.71
936.751	2594.17
937.059	2626.26
937.367	2580.84
937.674	2610.67
937.982	2591.46
938.29	2579.71
938.597	2564.57
938.905	2534.96
939.213	2532.02
939.52	2549.42
939.827	2533.15
940.135	2521.4
940.442	2512.82
940.749	2479.82
941.056	2485.92
941.363	2471.46
941.67	2474.4
941.977	2460.84
942.284	2458.58
942.591	2477.34
942.898	2442.76
943.205	2443.89
943.511	2445.7
943.818	2427.39
944.125	2428.3
944.431	2405.93
944.738	2406.15
945.044	2397.79
945.35	2392.59
945.657	2348.75
945.963	2312.82
946.269	2341.29
946.575	2339.26
946.881	2350.33
947.187	2326.61
947.493	2304.91
947.799	2263.56
948.105	2283.89
948.41	2248.87
948.716	2259.49
949.022	2277.12
949.327	2270.79
949.633	2246.16
949.938	2254.52
950.244	2251.13
950.549	2216.33
950.854	2219.26
951.16	2224.46
951.465	2219.49
951.77	2211.58
952.075	2180.85
952.38	2193.73
952.685	2163.9
952.99	2149.21
953.294	2162.09
953.599	2148.53
953.904	2166.84
954.209	2162.09
954.513	2134.07
954.818	2118.93
955.122	2134.52
955.426	2111.47
955.731	2080.74
956.035	2055.65
956.339	2087.29
956.643	2092.49
956.948	2040.29
957.252	2075.31
957.556	2062.66
957.86	2053.17
958.163	2044.58
958.467	2027.4
958.771	2042.09
959.075	2018.82
959.378	2004.13
959.682	2010.68
959.985	1988.54
960.289	2014.3
960.592	1988.08
960.896	1975.88
961.199	1975.43
961.502	1961.87
961.805	1970.91
962.108	1934.75
962.411	1932.27
962.714	1972.94
963.017	1916.9
963.32	1947.86
963.623	1923.9
963.926	1897.01
964.228	1900.4
964.531	1882.1
964.833	1879.16
965.136	1868.31
965.438	1873.06
965.741	1866.96
966.043	1844.58
966.345	1833.29
966.648	1817.69
966.95	1845.04
967.252	1846.17
967.554	1820.4
967.856	1798.71
968.158	1800.52
968.46	1818.6
968.761	1789.67
969.063	1775.43
969.365	1784.92
969.666	1774.08
969.968	1727.53
970.269	1774.08
970.571	1771.59
970.872	1760.29
971.174	1738.82
971.475	1765.49
971.776	1744.93
972.077	1744.93
972.378	1753.97
972.679	1715.32
972.98	1731.37
973.281	1734.98
973.582	1675.78
973.883	1682.33
974.183	1682.55
974.484	1682.78
974.785	1697.47
975.085	1651.82
975.386	1659.96
975.686	1661.99
975.986	1646.17
976.287	1632.61
976.587	1629.67
976.887	1653.18
977.187	1649.79
977.487	1636.68
977.787	1624.25
978.087	1614.08
978.387	1600.75
978.687	1593.29
978.987	1587.87
979.286	1590.13
979.586	1577.7
979.885	1562.33
980.185	1551.26
980.484	1547.64
980.784	1538.38
981.083	1578.83
981.382	1557.59
981.682	1543.8
981.981	1538.6
982.28	1539.06
982.579	1500.64
982.878	1525.5
983.177	1506.97
983.475	1482.56
983.774	1472.84
984.073	1466.29
984.372	1494.99
984.67	1472.39
984.969	1477.59
985.267	1478.49
985.566	1463.35
985.864	1481.66
986.162	1467.65
986.461	1450.47
986.759	1438.49
987.057	1412.05
987.355	1418.15
987.653	1445.72
987.951	1422.67
988.249	1435.78
988.547	1385.61
988.844	1395.1
989.142	1413.41
989.44	1419.06
989.737	1376.57
990.035	1381.55
990.332	1370.92
990.63	1375.67
990.927	1370.47
991.224	1356.69
991.521	1347.65
991.819	1345.61
992.116	1361.66
992.413	1348.1
992.71	1339.51
993.006	1341.09
993.303	1310.81
993.6	1325.5
993.897	1324.82
994.193	1318.27
994.49	1318.95
994.787	1300.19
995.083	1307.42
995.379	1294.32
995.676	1280.53
995.972	1276.69
996.268	1282.11
996.565	1281.44
996.861	1279.18
997.157	1267.65
997.453	1257.48
997.749	1270.14
998.044	1227.88
998.34	1246.41
998.636	1256.35
998.932	1225.17
999.227	1214.54
999.523	1214.54
999.818	1235.33
1000.114	1222.45
1000.409	1214.77
1000.704	1176.58
1001	1198.73
1001.295	1171.16
1001.59	1205.28
1001.885	1179.74
1002.18	1183.81
1002.475	1163.25
1002.77	1193.98
1003.065	1156.01
1003.359	1132.29
1003.654	1150.59
1003.949	1113.53
1004.243	1131.16
1004.538	1120.76
1004.832	1131.83
1005.127	1136.81
1005.421	1113.53
1005.715	1116.92
1006.009	1100.65
1006.304	1113.3
1006.598	1097.03
1006.892	1111.04
1007.186	1068.79
1007.48	1087.09
1007.773	1115.56
1008.067	1069.46
1008.361	1063.81
1008.655	1065.62
1008.948	1043.48
1009.242	1034.21
1009.535	1021.56
1009.829	1028.79
1010.122	1024.04
1010.415	994.66
1010.708	1024.27
1011.001	1004.61
1011.295	1017.94
1011.588	1031.5
1011.881	979.3
1012.173	1009.13
1012.466	998.73
1012.759	977.26
1013.052	987.43
1013.344	984.27
1013.637	981.33
1013.93	995.57
1014.222	969.35
1014.514	960.09
1014.807	959.18
1015.099	949.24
1015.391	960.54
1015.683	971.84
1015.976	934.33
1016.268	939.75
1016.56	917.6
1016.851	940.65
1017.143	902.01
1017.435	939.07
1017.727	918.96
1018.018	887.1
1018.31	888.9
1018.602	913.08
1018.893	879.64
1019.185	894.55
1019.476	881.22
1019.767	885.29
1020.058	875.34
1020.35	876.25
1020.641	858.17
1020.932	876.25
1021.223	851.16
1021.514	874.21
1021.804	871.73
1022.095	848.23
1022.386	847.32
1022.677	842.35
1022.967	825.63
1023.258	839.19
1023.548	825.85
1023.839	800.09
1024.129	770.04
1024.419	817.94
1024.709	789.47
1025	795.35
1025.29	767.55
1025.58	801
1025.87	794.67
1026.16	792.41
1026.449	766.19
1026.739	788.11
1027.029	768.68
1027.319	785.86
1027.608	767.55
1027.898	767.1
1028.187	751.51
1028.477	772.97
1028.766	747.21
1029.055	751.05
1029.344	742.92
1029.634	732.52
1029.923	734.56
1030.212	728.68
1030.501	700.89
1030.79	727.78
1031.078	705.18
1031.367	727.55
1031.656	722.81
1031.945	688.46
1032.233	716.93
1032.522	710.83
1032.81	707.67
1033.099	684.84
1033.387	697.5
1033.675	688
1033.963	693.43
1034.251	683.03
1034.54	675.58
1034.828	666.08
1035.116	666.08
1035.403	689.59
1035.691	664.05
1035.979	669.02
1036.267	667.21
1036.554	638.29
1036.842	633.99
1037.129	642.13
1037.417	643.49
1037.704	619.08
1037.992	639.87
1038.279	614.11
1038.566	624.28
1038.853	624.28
1039.14	624.28
