Data from tablewood_brown_FLMS001491_090.txt Node
Date: Tue Feb 07 11:11:09 GMT 2017
User: dcchb
Spectrometer: FLMS00149
Trigger mode: 0
Integration Time (sec): 2.000000E-2
Scans to average: 10
Electric dark correction enabled: true
Nonlinearity correction enabled: false
Boxcar width: 0
XAxis mode: Wavelengths
Number of Pixels in Spectrum: 2048
>>>>>Begin Spectral Data<<<<<
341.393	-17.44
341.776	-17.44
342.16	-17.44
342.543	-71.23
342.927	-60.61
343.31	-71.23
343.693	-67.61
344.077	-52.24
344.46	-73.26
344.843	-62.87
345.226	-32.81
345.61	-17.9
345.993	-21.51
346.376	12.39
346.759	8.32
347.142	23.01
347.525	48.32
347.908	46.06
348.291	73.4
348.674	93.06
349.057	94.87
349.44	129.22
349.823	149.33
350.206	153.17
350.588	197.92
350.971	223.91
351.354	206.05
351.737	242.66
352.119	260.97
352.502	248.09
352.884	272.94
353.267	290.57
353.65	291.25
354.032	300.06
354.414	298.25
354.797	292.15
355.179	322.89
355.562	344.81
355.944	323.11
356.326	333.96
356.709	354.3
357.091	346.84
357.473	330.12
357.855	353.39
358.238	356.11
358.62	337.35
359.002	352.26
359.384	351.81
359.766	355.88
360.148	355.43
360.53	348.65
360.912	337.35
361.294	359.5
361.676	365.15
362.057	345.26
362.439	349.55
362.821	340.06
363.203	326.5
363.584	325.37
363.966	334.64
364.348	318.14
364.729	345.71
365.111	327.86
365.493	329.44
365.874	324.92
366.256	340.51
366.637	360.63
367.019	331.93
367.4	314.53
367.781	346.62
368.163	334.64
368.544	331.47
368.925	343.68
369.306	346.39
369.688	320.18
370.069	311.36
370.45	332.15
370.831	344.13
371.212	312.72
371.593	325.82
371.974	338.93
372.355	339.16
372.736	334.86
373.117	326.95
373.498	321.08
373.879	356.78
374.26	324.69
374.641	350.91
375.021	340.51
375.402	357.46
375.783	328.54
376.163	357.69
376.544	350.46
376.925	327.63
377.305	331.7
377.686	359.5
378.066	351.36
378.447	362.89
378.827	373.28
379.208	369.89
379.588	355.88
379.968	376.67
380.349	373.28
380.729	364.24
381.109	353.17
381.489	368.76
381.87	355.43
382.25	362.89
382.63	383.9
383.01	367.63
383.39	364.92
383.77	364.69
384.15	370.12
384.53	374.41
384.91	392.72
385.29	382.09
385.67	368.76
386.049	388.42
386.429	385.94
386.809	405.14
387.189	394.52
387.568	390.23
387.948	408.53
388.328	407.63
388.707	400.85
389.087	421.19
389.466	416.9
389.846	421.42
390.225	434.3
390.605	415.77
390.984	420.29
391.363	402.43
391.743	423.9
392.122	441.98
392.501	460.06
392.881	462.09
393.26	427.74
393.639	458.7
394.018	457.35
394.397	445.6
394.776	439.27
395.155	456.89
395.534	463.22
395.913	450.57
396.292	460.96
396.671	468.42
397.05	479.04
397.429	472.94
397.808	486.72
398.186	476.78
398.565	438.14
398.944	463.22
399.323	507.06
399.701	493.05
400.08	487.85
400.458	496.89
400.837	509.32
401.215	490.34
401.594	504.8
401.972	506.84
402.351	511.58
402.729	538.25
403.107	522.66
403.486	513.62
403.864	506.84
404.242	540.73
404.62	554.29
404.999	550.45
405.377	547.06
405.755	549.55
406.133	571.69
406.511	542.99
406.889	558.36
407.267	573.28
407.645	578.7
408.023	574.86
408.401	602.88
408.779	582.54
409.156	600.85
409.534	604.24
409.912	615.08
410.29	619.15
410.667	631.13
411.045	620.28
411.422	620.28
411.8	631.35
412.178	625.48
412.555	644.69
412.933	626.61
413.31	661.64
413.687	677.23
414.065	678.81
414.442	679.49
414.819	658.25
415.197	655.31
415.574	677.45
415.951	692.14
416.328	702.76
416.705	690.11
417.082	710.45
417.46	703.22
417.837	721.52
418.214	722.88
418.591	718.58
418.967	759.71
419.344	743.44
419.721	767.4
420.098	746.6
420.475	774.17
420.852	760.39
421.228	745.25
421.605	759.03
421.982	758.13
422.358	760.62
422.735	781.41
423.111	805.59
423.488	807.39
423.864	800.39
424.241	823.21
424.617	811.91
424.994	834.96
425.37	839.26
425.746	839.03
426.123	822.08
426.499	848.3
426.875	868.41
427.251	878.13
427.627	903.89
428.003	890.56
428.379	884.68
428.756	916.77
429.132	935.07
429.507	926.26
429.883	925.58
430.259	933.04
430.635	934.4
431.011	990.21
431.387	987.28
431.763	1004.23
432.138	993.6
432.514	988.63
432.89	1015.3
433.265	1018.24
433.641	1027.28
434.016	1030.21
434.392	1055.75
434.767	1056.43
435.143	1062.3
435.518	1103.43
435.894	1085.35
436.269	1117.89
436.644	1112.24
437.02	1119.48
437.395	1140.72
437.77	1151.34
438.145	1188.17
438.52	1194.05
438.895	1178.91
439.271	1203.77
439.646	1234.95
440.021	1201.28
440.395	1206.25
440.77	1215.07
441.145	1246.93
441.52	1268.62
441.895	1254.16
442.27	1285.12
442.645	1276.53
443.019	1296.65
443.394	1288.74
443.769	1301.17
444.143	1323.54
444.518	1325.8
444.892	1334.61
445.267	1340.49
445.641	1359.02
446.016	1354.05
446.39	1367.38
446.764	1366.48
447.139	1375.51
447.513	1378.9
447.887	1380.71
448.262	1401.95
448.636	1415.06
449.01	1452.8
449.384	1462.29
449.758	1441.5
450.132	1457.09
450.506	1450.31
450.88	1468.85
451.254	1467.72
451.628	1507.49
452.002	1498.22
452.376	1553.36
452.75	1568.05
453.123	1556.75
453.497	1556.53
453.871	1572.35
454.244	1589.29
454.618	1601.72
454.992	1641.04
455.365	1639.24
455.739	1660.48
456.112	1703.42
456.486	1660.03
456.859	1733.47
457.232	1724.21
457.606	1751.32
457.979	1788.39
458.352	1800.14
458.725	1817.31
459.099	1854.82
459.472	1839.46
459.845	1865.22
460.218	1895.73
460.591	1874.26
460.964	1925.1
461.337	1945.67
461.71	1981.6
462.083	2013.92
462.456	2027.7
462.829	2041.71
463.201	2099.11
463.574	2066.8
463.947	2113.12
464.32	2161.48
464.692	2193.12
465.065	2234.02
465.438	2223.4
465.81	2260.92
466.183	2281.03
466.555	2324.64
466.928	2334.13
467.3	2367.13
467.672	2391.53
468.045	2441.25
468.417	2446.45
468.789	2474.24
469.161	2526.9
469.534	2560.34
469.906	2613.22
470.278	2616.84
470.65	2702.26
471.022	2753.56
471.394	2793.1
471.766	2807.12
472.138	2821.35
472.51	2932.08
472.882	2931.41
473.253	3038.52
473.625	3040.56
473.997	3139.99
474.369	3155.35
474.74	3175.69
475.112	3275.58
475.484	3334.11
475.855	3409.81
476.227	3453.2
476.598	3537.94
476.97	3625.4
477.341	3669.92
477.713	3710.37
478.084	3759.41
478.455	3887.09
478.827	3910.14
479.198	4051.83
479.569	4085.5
479.94	4178.6
480.311	4232.84
480.682	4347.41
481.053	4428.54
481.424	4496.56
481.795	4568.65
482.166	4654.75
482.537	4710.34
482.908	4868.76
483.279	4895.87
483.65	5004.57
484.021	5093.83
484.391	5145.81
484.762	5213.15
485.133	5246.6
485.503	5343.55
485.874	5482.75
486.244	5522.52
486.615	5655.85
486.985	5728.85
487.356	5859.92
487.726	5864.89
488.097	6024.43
488.467	6066.69
488.837	6156.18
489.207	6289.28
489.578	6373.58
489.948	6430.07
490.318	6550.29
490.688	6547.36
491.058	6624.64
491.428	6769.95
491.798	6806.33
492.168	6927.91
492.538	6965.42
492.908	7024.86
493.278	7124.06
493.648	7196.6
494.017	7326.32
494.387	7327.67
494.757	7414.23
495.126	7510.72
495.496	7578.06
495.866	7662.13
496.235	7737.83
496.605	7714.56
496.974	7815.8
497.344	7881.56
497.713	7941.67
498.082	8004.49
498.452	8125.39
498.821	8132.17
499.19	8169.23
499.559	8282.45
499.928	8325.84
500.298	8373.75
500.667	8461.66
501.036	8435.44
501.405	8584.82
501.774	8568.77
502.143	8720.86
502.512	8662.33
502.88	8881.08
503.249	8817.58
503.618	8866.39
503.987	9000.85
504.356	9065.48
504.724	9149.32
505.093	9210.34
505.462	9241.52
505.83	9256.21
506.199	9371.46
506.567	9438.35
506.936	9438.35
507.304	9600.16
507.672	9577.11
508.041	9708.18
508.409	9738.01
508.777	9898.91
509.145	9955.85
509.514	9883.77
509.882	10057.32
510.25	10073.37
510.618	10225.68
510.986	10232.23
511.354	10319.01
511.722	10387.93
512.09	10577.08
512.458	10534.37
512.826	10720.35
513.193	10703.86
513.561	10785.21
513.929	10939.33
514.297	10990.4
514.664	11119.67
515.032	11138.87
515.4	11230.17
515.767	11245.54
516.135	11366.66
516.502	11320.11
516.869	11625.64
517.237	11657.73
517.604	11597.39
517.972	11813.88
518.339	11901.79
518.706	11976.14
519.073	12052.75
519.44	12140.2
519.808	12261.56
520.175	12338.84
520.542	12467.88
520.909	12509.01
521.276	12532.06
521.643	12672.84
522.009	12819.96
522.376	12906.96
522.743	12969.79
523.11	13153.06
523.477	13252.94
523.843	13436.44
524.21	13488.19
524.577	13546.95
524.943	13731.8
525.31	13847.5
525.676	13997.78
526.043	14020.83
526.409	14079.81
526.776	14255.18
527.142	14384.21
527.508	14430.31
527.874	14589.4
528.241	14643.41
528.607	14686.35
528.973	14846.57
529.339	14995.27
529.705	15062.16
530.071	15127.47
530.437	15121.82
530.803	15253.57
531.169	15312.32
531.535	15431.42
531.901	15458.53
532.267	15571.98
532.632	15654.24
532.998	15714.35
533.364	15819.88
533.73	15887
534.095	16027.11
534.461	16034.11
534.826	16124.28
535.192	16229.81
535.557	16371.96
535.923	16311.39
536.288	16457.38
536.653	16545.06
537.019	16488.34
537.384	16517.04
537.749	16641.78
538.114	16686.52
538.479	16855.79
538.845	16911.15
539.21	16872.96
539.575	16975.56
539.94	17042.67
540.305	17187.3
540.67	17156.34
541.034	17264.36
541.399	17313.4
541.764	17313.63
542.129	17428.88
542.494	17509.78
542.858	17507.07
543.223	17486.5
543.587	17670.91
543.952	17580.74
544.316	17797.46
544.681	17743.9
545.045	17849.88
545.41	17969.88
545.774	18046.71
546.138	18009.88
546.503	18220.5
546.867	18119.48
547.231	18302.75
547.595	18364.9
547.959	18384.33
548.324	18459.13
548.688	18517.21
549.052	18619.13
549.416	18636.98
549.779	18740.03
550.143	18788.39
550.507	18974.83
550.871	18898.67
551.235	19042.17
551.599	19324.65
551.962	19248.94
552.326	19369.62
552.689	19508.6
553.053	19507.69
553.417	19611.19
553.78	19906.1
554.143	19772.77
554.507	20008.92
554.87	20133.89
555.234	20334.11
555.597	20174.79
555.96	20394.22
556.323	20464.28
556.686	20521.23
557.05	20757.38
557.413	20799.41
557.776	20901.78
558.139	21123.02
558.502	21243.24
558.865	21361.43
559.228	21459.28
559.59	21611.82
559.953	21671.48
560.316	22070.79
560.679	22021.75
561.041	22127.74
561.404	22326.15
561.767	22504.68
562.129	22599.59
562.492	22747.16
562.854	22894.5
563.217	22976.75
563.579	23156.18
563.941	23461.71
564.304	23551.65
564.666	23762.04
565.028	23851.53
565.39	23936.05
565.753	24110.28
566.115	24316.38
566.477	24518.86
566.839	24604.73
567.201	24828.46
567.563	24905.07
567.925	25176.92
568.287	25224.83
568.648	25401.1
569.01	25631.37
569.372	25843.57
569.734	25822.56
570.095	26122.89
570.457	26294.41
570.819	26408.75
571.18	26429.55
571.542	26759.25
571.903	26829.76
572.265	27066.14
572.626	27168.51
572.987	27268.39
573.349	27456.41
573.71	27709.06
574.071	27831.99
574.432	28030.86
574.794	28299.55
575.155	28380.91
575.516	28368.93
575.877	28686.43
576.238	28683.72
576.599	28909.48
576.96	28996.26
577.32	29098.18
577.681	29291.39
578.042	29478.96
578.403	29537.71
578.763	29547.43
579.124	29897.02
579.485	30011.82
579.845	30207.98
580.206	30079.17
580.566	30208.43
580.927	30280.74
581.287	30502.66
581.648	30458.59
582.008	30629.43
582.368	30666.95
582.728	30837.11
583.089	30892.25
583.449	30826.49
583.809	30863.55
584.169	31042.08
584.529	31066.49
584.889	31311.22
585.249	31212.92
585.609	31212.02
585.969	31368.4
586.329	31441.84
586.688	31434.61
587.048	31556.42
587.408	31527.49
587.768	31550.77
588.127	31503.99
588.487	31558.68
588.846	31938.78
589.206	31700.14
589.565	31675.96
589.925	31914.15
590.284	31877.09
590.643	32028.95
591.003	32017.19
591.362	32179.22
591.721	32061.94
592.08	32109.4
592.44	32144.42
592.799	32211.99
593.158	32194.59
593.517	32242.5
593.876	32251.76
594.235	32294.7
594.593	32286.11
594.952	32349.16
595.311	32281.59
595.67	32537.63
596.029	32594.13
596.387	32640.23
596.746	32654.92
597.104	32428.71
597.463	32481.36
597.822	32578.99
598.18	32506.67
598.538	32475.71
598.897	32767.23
599.255	32409.95
599.613	32974.68
599.972	32799.77
600.33	32844.97
600.688	32701.7
601.046	32878.64
601.404	32920.9
601.762	33020.33
602.12	33180.1
602.478	33105.53
602.836	33106.88
603.194	33071.86
603.552	33072.53
603.91	32859.88
604.268	33033.67
604.625	33088.81
604.983	33095.81
605.341	32958.19
605.698	33282.02
606.056	33364.05
606.413	33218.97
606.771	33230.72
607.128	33397.27
607.485	33272.98
607.843	33358.85
608.2	33471.17
608.557	33595.68
608.914	33515.91
609.272	33614.67
609.629	33793.19
609.986	33683.82
610.343	33607.66
610.7	33755.45
611.057	33852.63
611.414	33753.42
611.771	33862.57
612.127	33848.11
612.484	33895.34
612.841	34085.16
613.198	33938.73
613.554	33897.37
613.911	34094.43
614.267	34078.38
614.624	33976.92
614.98	33995.9
615.337	34298.26
615.693	34246.29
616.05	34226.85
616.406	34400.64
616.762	34302.78
617.118	34323.57
617.475	34344.59
617.831	34558.15
618.187	34487.64
618.543	34645.37
618.899	34775.09
619.255	34731.7
619.611	34541.65
619.967	34704.36
620.323	34684.92
620.678	34629.1
621.034	34558.6
621.39	34651.7
621.746	34583.46
622.101	34865.71
622.457	34606.73
622.812	34760.85
623.168	34838.36
623.523	34837.69
623.879	34934.86
624.234	34777.35
624.589	34786.16
624.945	34869.32
625.3	34942.09
625.655	34951.13
626.01	34884.24
626.365	34940.51
626.72	34770.79
627.075	34813.28
627.43	34857.8
627.785	34576.22
628.14	34804.01
628.495	34786.84
628.85	34771.92
629.205	34698.25
629.559	34932.15
629.914	34705.49
630.269	34724.47
630.623	34654.41
630.978	34647.18
631.332	34668.65
631.687	34766.73
632.041	34561.08
632.396	34541.2
632.75	34533.96
633.104	34524.25
633.459	34360.41
633.813	34312.5
634.167	34370.13
634.521	34386.62
634.875	34318.83
635.229	34458.49
635.583	34192.96
635.937	34285.61
636.291	34168.78
636.645	34281.77
636.999	34204.03
637.352	34255.33
637.706	33953.64
638.06	34125.84
638.413	33912.29
638.767	33946.86
639.121	33958.39
639.474	33753.65
639.828	33684.95
640.181	33853.76
640.534	33922
640.888	33684.04
641.241	33528.79
641.594	33635.91
641.947	33662.12
642.301	33667.09
642.654	33563.59
643.007	33574.67
643.36	33610.37
643.713	33584.61
644.066	33705.51
644.419	33511.39
644.771	33313.43
645.124	33005.19
645.477	33023.5
645.83	32651.98
646.182	32586.45
646.535	32559.78
646.888	32468.26
647.24	32426.45
647.593	32446.56
647.945	32484.98
648.298	32350.29
648.65	32337.41
649.002	32179.22
649.355	32407.02
649.707	32326.79
650.059	32457.64
650.411	32845.87
650.763	32869.6
651.115	33196.37
651.467	33035.47
651.819	33040.9
652.171	33053.78
652.523	32870.28
652.875	32931.07
653.227	32758.42
653.578	33035.93
653.93	33061.69
654.282	32920
654.633	32769.72
654.985	32880.22
655.337	32927.45
655.688	32883.39
656.039	33034.12
656.391	32705.09
656.742	32934.68
657.094	32786.44
657.445	32912.54
657.796	32968.81
658.147	32875.7
658.498	32933.55
658.849	32938.75
659.2	32909.37
659.551	32713.9
659.902	32935.59
660.253	32898.98
660.604	32872.99
660.955	32668.03
661.306	32794.12
661.656	32628.93
662.007	32663.05
662.358	32784.41
662.708	32757.51
663.059	32609.27
663.409	32509.39
663.76	32728.14
664.11	32771.75
664.461	32771.98
664.811	32764.97
665.161	32784.86
665.511	32604.3
665.862	32681.13
666.212	32826.21
666.562	32775.14
666.912	32726.33
667.262	32622.15
667.612	32619.44
667.962	32773.56
668.312	32656.05
668.662	32716.16
669.011	32568.82
669.361	32631.19
669.711	32589.16
670.06	32503.51
670.41	32490.4
670.76	32451.76
671.109	32586.67
671.459	32557.97
671.808	32450.63
672.157	32492.89
672.507	32364.76
672.856	32322.95
673.205	32332.44
673.554	32365.21
673.904	32379.22
674.253	32584.64
674.602	32349.16
674.951	31911.43
675.3	31727.03
675.649	32239.56
675.998	32222.16
676.346	32206.34
676.695	32316.62
677.044	31861.49
677.393	32114.14
677.741	32152.78
678.09	31894.71
678.438	31941.49
678.787	32028.72
679.135	31887.03
679.484	31708.05
679.832	31849.06
680.181	31609.52
680.529	31805.22
680.877	31776.07
681.225	31591.67
681.573	31896.52
681.922	31514.38
682.27	31486.59
682.618	31359.36
682.966	31410.66
683.314	31476.19
683.661	31307.16
684.009	31199.14
684.357	31135.86
684.705	31104.45
685.053	31154.17
685.4	31115.52
685.748	30989.88
686.095	30972.02
686.443	30758.02
686.79	30863.55
687.138	30823.55
687.485	30574.07
687.832	30649.77
688.18	30736.55
688.527	30405.03
688.874	30442.1
689.221	30278.71
689.568	30214.98
689.915	30296.11
690.262	30225.15
690.609	30039.85
690.956	30078.49
691.303	29944.93
691.65	29843.92
691.997	29810.02
692.344	29547.2
692.69	29483.48
693.037	29691.61
693.383	29351.95
693.73	29417.72
694.077	29148.8
694.423	29166.65
694.769	29129.14
695.116	29048.91
695.462	29080.1
695.808	28913.55
696.155	28890.27
696.501	28636.04
696.847	28632.2
697.193	28411.41
697.539	28417.52
697.885	28225.2
698.231	28171.87
698.577	28165.54
698.923	28104.76
699.269	27950.86
699.614	27921.26
699.96	27705.67
700.306	27821.6
700.651	27626.12
700.997	27501.38
701.342	27493.92
701.688	27387.03
702.033	27446.24
702.379	27203.76
702.724	27206.25
703.069	27198.34
703.415	26832.47
703.76	26822.53
704.105	26894.62
704.45	26723.77
704.795	26650.1
705.14	26597.22
705.485	26590.44
705.83	26431.58
706.175	26523.1
706.52	26317.91
706.865	26258.02
707.209	26177.35
707.554	26179.38
707.899	26056.9
708.243	25958.82
708.588	25870.24
708.932	25726.96
709.277	25787.98
709.621	25831.37
709.966	25706.63
710.31	25781.65
710.654	25412.62
710.998	25542.34
711.342	25502.34
711.687	25364.49
712.031	25288.33
712.375	25125.17
712.719	25264.6
713.063	25152.06
713.407	25218.73
713.75	25045.85
714.094	25035.91
714.438	24992.52
714.782	25000.66
715.125	24809.25
715.469	24929.25
715.812	24698.07
716.156	24626.43
716.499	24785.07
716.843	24756.14
717.186	24530.16
717.53	24655.35
717.873	24655.81
718.216	24536.71
718.559	24496.04
718.902	24301.47
719.246	24351.86
719.589	24312.31
719.932	24192.32
720.275	24143.28
720.617	24200
720.96	24159.55
721.303	24219.21
721.646	24194.35
721.989	24035.48
722.331	24113.45
722.674	24065.31
723.016	24059.21
723.359	24136.27
723.701	24052.66
724.044	23957.07
724.386	23893.11
724.729	23929.05
725.071	23876.62
725.413	23802.5
725.755	23910.29
726.097	23822.61
726.439	23796.17
726.782	23733.8
727.124	23949.16
727.465	23645.44
727.807	23583.97
728.149	23602.05
728.491	23582.61
728.833	23648.38
729.175	23668.04
729.516	23652.67
729.858	23575.61
730.199	23641.37
730.541	23653.57
730.882	23623.29
731.224	23639.34
731.565	23451.77
731.906	23594.59
732.248	23528.38
732.589	23406.12
732.93	23375.16
733.271	23522.5
733.612	23480.47
733.953	23445.89
734.294	23353.92
734.635	23442.73
734.976	23490.41
735.317	23305.11
735.658	23420.58
735.999	23434.14
736.339	23406.35
736.68	23468.04
737.021	23414.26
737.361	23276.86
737.702	23219.91
738.042	23398.44
738.383	23204.77
738.723	23310.08
739.063	23312.34
739.404	23337.2
739.744	23386.46
740.084	23274.6
740.424	23255.84
740.764	23229.4
741.104	23334.03
741.444	23141.95
741.784	23150.76
742.124	23243.64
742.464	23250.87
742.804	23154.83
743.143	23229.86
743.483	23184.88
743.823	23143.98
744.162	23176.98
744.502	23111.44
744.841	23085
745.181	23099.24
745.52	23099.24
745.86	23188.95
746.199	23070.99
746.538	23141.04
746.877	23170.65
747.216	23097.88
747.556	23082.29
747.895	23118.22
748.234	23023.99
748.573	23060.59
748.911	23102.4
749.25	23078.45
749.589	23023.76
749.928	22972.23
750.267	23106.47
750.605	22990.99
750.944	22952.35
751.283	22778.34
751.621	22907.6
751.96	22755.52
752.298	22895.63
752.636	22809.98
752.975	22774.27
753.313	22717.78
753.651	22831
753.989	22624
754.327	22671.9
754.666	22605.46
755.004	22661.28
755.342	22573.6
755.679	22597.33
756.017	22433.94
756.355	22422.19
756.693	22338.81
757.031	22550.33
757.368	22251.35
757.706	22283.44
758.044	22270.11
758.381	22236.44
758.719	22154.18
759.056	22220.39
759.394	22149.43
759.731	22044.12
760.068	22018.59
760.405	21981.3
760.743	21967.29
761.08	21875.99
761.417	21814.98
761.754	21841.19
762.091	21790.35
762.428	21685.26
762.765	21537.02
763.102	21615.89
763.438	21358.27
763.775	21390.36
764.112	21403.46
764.449	21483.23
764.785	21344.26
765.122	21206.18
765.458	21163.92
765.795	21170.7
766.131	21089.8
766.467	20964.6
766.804	20876.7
767.14	20777.26
767.476	20850.93
767.812	20749.92
768.148	20794.67
768.485	20652.07
768.821	20484.16
769.157	20490.49
769.492	20577.5
769.828	20430.38
770.164	20190.39
770.5	20255.92
770.836	20149.94
771.171	20038.3
771.507	19935.03
771.842	19916.27
772.178	19880.79
772.513	19782.04
772.849	19749.04
773.184	19816.61
773.519	19670.85
773.855	19631.31
774.19	19456.17
774.525	19379.34
774.86	19573.68
775.195	19370.3
775.53	19249.62
775.865	19242.62
776.2	19100.25
776.535	18956.97
776.87	18993.13
777.205	18933.02
777.539	18684.44
777.874	18812.12
778.209	18672.01
778.543	18571.67
778.878	18488.74
779.212	18476.99
779.547	18363.32
779.881	18513.37
780.215	18254.62
780.55	18364.9
780.884	18211.23
781.218	18181.17
781.552	18196.09
781.886	17973.95
782.22	17829.55
782.554	17771.02
782.888	17714.97
783.222	17706.16
783.556	17552.04
783.889	17497.35
784.223	17451.48
784.557	17433.85
784.89	17398.14
785.224	17352.72
785.557	17243.35
785.891	17194.53
786.224	17185.49
786.558	17167.87
786.891	16943.47
787.224	16979.4
787.557	16922.22
787.891	16915.67
788.224	16846.07
788.557	16791.38
788.89	16749.35
789.223	16727.43
789.556	16509.58
789.888	16507.55
790.221	16546.19
790.554	16372.63
790.887	16367.89
791.219	16308.68
791.552	16189.81
791.884	16145.97
792.217	16099.87
792.549	16091.29
792.882	15988.69
793.214	15959.76
793.546	15953.21
793.879	15843.38
794.211	15768.58
794.543	15755.7
794.875	15798.41
795.207	15762.26
795.539	15578.08
795.871	15646.55
796.203	15513
796.535	15530.4
796.867	15362.27
797.198	15380.12
797.53	15328.14
797.862	15199.78
798.193	15269.84
798.525	15158.88
798.856	15171.54
799.188	15035.27
799.519	14957.08
799.85	14882.05
800.182	14898.32
800.513	14852.22
800.844	14814.94
801.175	14867.82
801.506	14819.23
801.837	14640.7
802.168	14729.06
802.499	14612.68
802.83	14479.35
803.161	14546.24
803.491	14480.03
803.822	14464.21
804.153	14426.02
804.483	14298.56
804.814	14297.43
805.145	14288.4
805.475	14199.13
805.805	14231.9
806.136	14191.67
806.466	14152.13
806.796	14123.43
807.126	13959.36
807.457	13992.13
807.787	14016.99
808.117	13939.03
808.447	13792.14
808.777	13865.58
809.107	13786.26
809.436	13805.02
809.766	13749.88
810.096	13717.34
810.426	13659.71
810.755	13707.62
811.085	13666.04
811.414	13584.01
811.744	13577.45
812.073	13482.31
812.403	13437.8
812.732	13350.34
813.061	13362.54
813.39	13321.87
813.719	13180.4
814.049	13394.18
814.378	13234.19
814.707	13179.95
815.036	13165.71
815.365	13116.22
815.693	13116.45
816.022	13115.32
816.351	13028.09
816.68	12918.94
817.008	12927.75
817.337	12883.69
817.665	12810.02
817.994	12933.4
818.322	12852.5
818.651	12677.14
818.979	12705.84
819.307	12739.51
819.636	12754.42
819.964	12656.8
820.292	12671.04
820.62	12734.99
820.948	12612.28
821.276	12584.71
821.604	12630.81
821.932	12714.88
822.259	12618.83
822.587	12565.28
822.915	12550.59
823.243	12685.27
823.57	12591.04
823.898	12570.7
824.225	12481.21
824.553	12563.24
824.88	12467.65
825.207	12519.4
825.535	12474.88
825.862	12521.89
826.189	12505.39
826.516	12572.96
826.843	12619.06
827.17	12610.7
827.497	12596.24
827.824	12581.55
828.151	12557.37
828.478	12558.05
828.805	12598.95
829.131	12475.79
829.458	12493.19
829.785	12462.23
830.111	12507.2
830.438	12616.8
830.764	12508.33
831.09	12571.83
831.417	12464.26
831.743	12512.17
832.069	12542.68
832.395	12501.32
832.722	12552.4
833.048	12407.99
833.374	12521.44
833.7	12433.3
834.026	12482.57
834.351	12546.29
834.677	12402.8
835.003	12402.57
835.329	12440.08
835.654	12441.66
835.98	12420.87
836.306	12393.3
836.631	12356.24
836.956	12412.29
837.282	12299.3
837.607	12250.93
837.932	12221.33
838.258	12233.99
838.583	12239.64
838.908	12096.36
839.233	12120.32
839.558	12093.88
839.883	12053.65
840.208	12036.48
840.533	11996.48
840.858	12032.18
841.182	12086.19
841.507	12035.12
841.832	12004.16
842.156	11960.1
842.481	11966.42
842.805	11939.3
843.13	11953.09
843.454	11950.38
843.778	11757.16
844.103	11778.4
844.427	11742.7
844.751	11841.68
845.075	11808.01
845.399	11650.72
845.723	11620.67
846.047	11596.94
846.371	11498.86
846.695	11539.09
847.019	11427.45
847.343	11409.38
847.666	11290.06
847.99	11308.59
848.313	11291.64
848.637	11238.98
848.96	11151.08
849.284	11140.68
849.607	11123.05
849.931	10993.11
850.254	10990.4
850.577	10918.99
850.9	10884.87
851.223	10906.34
851.546	10751.31
851.869	10789.05
852.192	10749.05
852.515	10652.78
852.838	10589.28
853.161	10644.88
853.483	10663.86
853.806	10574.14
854.129	10523.3
854.451	10492.56
854.774	10413.92
855.096	10347.48
855.419	10410.08
855.741	10275.17
856.063	10284.88
856.385	10252.57
856.708	10202.63
857.03	10228.39
857.352	10221.61
857.674	10199.01
857.996	10170.09
858.318	10081.73
858.64	10095.74
858.961	10074.04
859.283	9985.91
859.605	9928.51
859.926	9980.03
860.248	9964.89
860.57	9958.57
860.891	9938.23
861.212	9909.98
861.534	9825.01
861.855	9828.4
862.176	9796.54
862.498	9799.47
862.819	9806.03
863.14	9716.76
863.461	9662.98
863.782	9742.98
864.103	9704.79
864.424	9667.05
864.745	9667.73
865.065	9608.52
865.386	9589.76
865.707	9605.58
866.027	9584.79
866.348	9542.08
866.668	9528.52
866.989	9533.49
867.309	9429.31
867.63	9459.6
867.95	9474.96
868.27	9377.34
868.59	9385.93
868.91	9413.72
869.23	9428.64
869.55	9367.85
869.87	9399.03
870.19	9371.91
870.51	9373.95
870.83	9372.82
871.15	9293.72
871.469	9354.06
871.789	9319.03
872.109	9273.61
872.428	9227.51
872.748	9310
873.067	9243.1
873.386	9287.4
873.706	9234.52
874.025	9183.9
874.344	9224.12
874.663	9196.1
874.982	9129.66
875.301	9142.54
875.62	9058.93
875.939	9114.29
876.258	9095.31
876.577	9046.27
876.896	9031.58
877.214	9046.95
877.533	9014.41
877.852	8989.78
878.17	8947.74
878.489	8982.09
878.807	8930.57
879.125	8975.54
879.444	8958.59
879.762	8908.88
880.08	8927.18
880.398	8889.22
880.716	8858.71
881.034	8796.34
881.352	8874.98
881.67	8810.35
881.988	8826.17
882.306	8825.49
882.624	8748.65
882.941	8700.52
883.259	8693.51
883.577	8728.99
883.894	8742.55
884.212	8603.35
884.529	8706.17
884.846	8613.06
885.164	8539.85
885.481	8576.91
885.798	8603.35
886.115	8490.58
886.432	8567.19
886.75	8558.15
887.067	8549.11
887.383	8508.21
887.7	8486.74
888.017	8441.32
888.334	8459.4
888.651	8354.31
888.967	8397.7
889.284	8317.93
889.6	8313.41
889.917	8255.33
890.233	8282
890.55	8275.45
890.866	8219.63
891.182	8215.33
891.498	8189.57
891.815	8113.64
892.131	8072.97
892.447	8135.56
892.763	8074.32
893.079	8094.43
893.395	8045.4
893.71	8068.22
894.026	8003.81
894.342	7940.99
894.657	7911.84
894.973	7890.37
895.289	7893.76
895.604	7899.64
895.92	7852.41
896.235	7852.18
896.55	7827.1
896.865	7761.79
897.181	7761.56
897.496	7773.09
897.811	7728.34
898.126	7648.57
898.441	7647.89
898.756	7631.85
899.071	7576.48
899.386	7588.01
899.7	7536.26
900.015	7467.33
900.33	7434.79
900.644	7419.88
900.959	7465.07
901.273	7406.09
901.588	7331.06
901.902	7284.51
902.216	7350.72
902.531	7300.33
902.845	7309.82
903.159	7225.3
903.473	7163.16
903.787	7150.05
904.101	7148.7
904.415	7138.75
904.729	7084.29
905.042	7122.71
905.356	6989.83
905.67	7011.3
905.984	7094.46
906.297	6974.69
906.611	6931.75
906.924	6944.86
907.237	6897.18
907.551	6878.42
907.864	6850.62
908.177	6825.54
908.491	6835.48
908.804	6807.01
909.117	6755.03
909.43	6703.28
909.743	6710.52
910.056	6692.21
910.368	6659.67
910.681	6638.88
910.994	6623.06
911.307	6562.27
911.619	6544.87
911.932	6533.57
912.244	6481.6
912.557	6485.21
912.869	6469.39
913.181	6434.59
913.494	6407.7
913.806	6346.23
914.118	6329.73
914.43	6311.43
914.742	6285.89
915.054	6242.96
915.366	6234.14
915.678	6204.99
915.99	6164.99
916.302	6118.67
916.613	6105.11
916.925	6122.96
917.236	6077.09
917.548	6044.09
917.859	6042.06
918.171	6005.68
918.482	6010.87
918.794	5967.03
919.105	5956.41
919.416	5891.1
919.727	5888.39
920.038	5851.78
920.349	5837.54
920.66	5835.28
920.971	5812.46
921.282	5771.33
921.593	5725
921.903	5695.4
922.214	5723.87
922.525	5708.96
922.835	5672.12
923.146	5624.67
923.456	5619.47
923.767	5625.35
924.077	5628.51
924.387	5494.73
924.697	5509.19
925.008	5499.25
925.318	5443.88
925.628	5434.17
925.938	5406.6
926.248	5330.66
926.558	5362.3
926.867	5317.78
927.177	5334.05
927.487	5345.81
927.796	5250.67
928.106	5201.18
928.416	5265.13
928.725	5193.72
929.034	5223.55
929.344	5230.55
929.653	5201.18
929.962	5127.05
930.271	5153.49
930.581	5095.42
930.89	5085.47
931.199	5013.84
931.508	5067.62
931.817	5040.96
932.125	5039.37
932.434	4977.23
932.743	4952.37
933.051	4943.1
933.36	4944.23
933.669	4853.16
933.977	4832.82
934.286	4879.83
934.594	4802.09
934.902	4792.37
935.21	4856.33
935.519	4736.33
935.827	4744.69
936.135	4716.67
936.443	4681.42
936.751	4660.63
937.059	4653.85
937.367	4617.01
937.674	4650.91
937.982	4604.81
938.29	4571.14
938.597	4584.24
938.905	4538.6
939.213	4516.22
939.52	4497.24
939.827	4537.47
940.135	4442.1
940.442	4459.05
940.749	4458.82
941.056	4398.49
941.363	4356.68
941.67	4344.7
941.977	4377.92
942.284	4356.91
942.591	4334.76
942.898	4317.36
943.205	4294.53
943.511	4253.63
943.818	4211.15
944.125	4215.44
944.431	4230.35
944.738	4173.41
945.044	4204.14
945.35	4122.79
945.657	4117.36
945.963	4131.83
946.269	4073.52
946.575	4123.69
946.881	4082.79
947.187	4083.92
947.493	4047.99
947.799	4012.96
948.105	3980.42
948.41	3974.54
948.716	3972.73
949.022	3939.29
949.327	3905.62
949.633	3922.34
949.938	3927.31
950.244	3886.41
950.549	3848.22
950.854	3812.51
951.16	3863.81
951.465	3820.42
951.77	3822.91
952.075	3797.6
952.38	3776.81
952.685	3765.51
952.99	3769.12
953.294	3742.46
953.599	3725.06
953.904	3661.56
954.209	3664.04
954.513	3641.44
954.818	3638.51
955.122	3650.94
955.426	3622.69
955.731	3596.02
956.035	3540.66
956.339	3532.52
956.643	3530.26
956.948	3523.48
957.252	3545.85
957.556	3552.63
957.86	3483.48
958.163	3460.66
958.467	3460.43
958.771	3459.75
959.075	3493.65
959.378	3432.41
959.682	3395.35
959.985	3381.34
960.289	3360.32
960.592	3343.82
960.896	3314.67
961.199	3346.99
961.502	3317.16
961.805	3301.79
962.108	3292.07
962.411	3282.81
962.714	3259.31
963.017	3258.63
963.32	3279.42
963.623	3198.29
963.926	3262.24
964.228	3192.64
964.531	3157.84
964.833	3197.16
965.136	3152.64
965.438	3151.51
965.741	3122.36
966.043	3117.39
966.345	3062.93
966.648	3111.74
966.95	3057.96
967.252	3070.84
967.554	3046.66
967.856	3053.89
968.158	3000.33
968.46	3000.1
968.761	3001.01
969.063	2979.54
969.365	2978.18
969.666	2980.9
969.968	2931.86
970.269	2924.4
970.571	2922.14
970.872	2896.83
971.174	2911.52
971.475	2867.9
971.776	2865.42
972.077	2852.09
972.378	2804.86
972.679	2866.1
972.98	2855.25
973.281	2850.5
973.582	2789.94
973.883	2812.54
974.183	2768.02
974.484	2747.23
974.785	2742.71
975.085	2751.75
975.386	2730.06
975.686	2731.41
975.986	2685.54
976.287	2692.77
976.587	2671.98
976.887	2697.06
977.187	2645.99
977.487	2688.7
977.787	2637.18
978.087	2645.99
978.387	2583.39
978.687	2587.46
978.987	2601.92
979.286	2587.91
979.586	2556.5
979.885	2570.96
980.185	2567.12
980.484	2539.1
980.784	2504.3
981.083	2525.99
981.382	2498.87
981.682	2511.3
981.981	2496.39
982.28	2464.3
982.579	2487.12
982.878	2459.1
983.177	2446
983.475	2402.61
983.774	2427.92
984.073	2406.9
984.372	2415.26
984.67	2395.6
984.969	2387.92
985.267	2387.47
985.566	2351.08
985.864	2342.72
986.162	2341.59
986.461	2316.28
986.759	2344.53
987.057	2301.37
987.355	2295.04
987.653	2271.31
987.951	2288.94
988.249	2275.6
988.547	2264.3
988.844	2248.49
989.142	2251.65
989.44	2222.72
989.737	2206.91
990.035	2224.76
990.332	2172.33
990.63	2177.98
990.927	2227.02
991.224	2176.62
991.521	2167.81
991.819	2143.18
992.116	2148.15
992.413	2160.58
992.71	2121.48
993.006	2142.5
993.303	2090.98
993.6	2082.39
993.897	2060.69
994.193	2095.95
994.49	2044.65
994.787	2045.33
995.083	2011.66
995.379	2023.41
995.676	2022.28
995.972	1997.42
996.268	1996.52
996.565	1980.47
996.861	1948.83
997.157	2011.88
997.453	1952.22
997.749	1950.64
998.044	1953.8
998.34	1908.61
998.636	1949.06
998.932	1905.67
999.227	1951.32
999.523	1914.03
999.818	1880.81
1000.114	1862.51
1000.409	1885.78
1000.704	1878.55
1001	1832.68
1001.295	1824.77
1001.59	1840.36
1001.885	1817.54
1002.18	1790.87
1002.475	1804.2
1002.77	1788.39
1003.065	1806.92
1003.359	1753.58
1003.654	1772.34
1003.949	1781.15
1004.243	1749.29
1004.538	1754.94
1004.832	1723.75
1005.127	1728.73
1005.421	1741.38
1005.715	1707.94
1006.009	1708.39
1006.304	1688.27
1006.598	1659.12
1006.892	1712
1007.186	1651.67
1007.48	1674.72
1007.773	1653.47
1008.067	1628.84
1008.361	1611.67
1008.655	1591.55
1008.948	1598.79
1009.242	1577.32
1009.535	1576.87
1009.829	1585.68
1010.122	1571.44
1010.415	1565.79
1010.708	1592.68
1011.001	1539.8
1011.295	1544.1
1011.588	1537.54
1011.881	1517.43
1012.173	1501.61
1012.466	1530.99
1012.759	1476.98
1013.052	1494.38
1013.344	1476.75
1013.637	1484.44
1013.93	1471.11
1014.222	1459.35
1014.514	1416.87
1014.807	1435.4
1015.099	1415.29
1015.391	1422.29
1015.683	1431.11
1015.976	1389.75
1016.268	1379.13
1016.56	1374.16
1016.851	1358.57
1017.143	1357.66
1017.435	1349.75
1017.727	1335.74
1018.018	1361.05
1018.31	1341.39
1018.602	1349.75
1018.893	1341.84
1019.185	1318.34
1019.476	1317.21
1019.767	1328.51
1020.058	1293.93
1020.35	1261.85
1020.641	1255.07
1020.932	1281.28
1021.223	1229.98
1021.514	1243.31
1021.804	1248.51
1022.095	1215.29
1022.386	1224.78
1022.677	1219.81
1022.967	1223.2
1023.258	1200.15
1023.548	1154.73
1023.839	1189.76
1024.129	1147.05
1024.419	1187.72
1024.709	1187.27
1025	1174.84
1025.29	1154.73
1025.58	1142.75
1025.87	1167.16
1026.16	1143.43
1026.449	1121.96
1026.739	1092.36
1027.029	1115.41
1027.319	1110.21
1027.608	1091
1027.898	1088.06
1028.187	1059.36
1028.477	1064.79
1028.766	1073.6
1029.055	1067.5
1029.344	1064.79
1029.634	1029.99
1029.923	1058.69
1030.212	1033.38
1030.501	1014.17
1030.79	998.12
1031.078	1014.17
1031.367	1013.72
1031.656	989.08
1031.945	982.98
1032.233	1006.71
1032.522	985.92
1032.81	951.57
1033.099	961.29
1033.387	984.56
1033.675	957.45
1033.963	934.4
1034.251	966.71
1034.54	932.36
1034.828	933.94
1035.116	942.98
1035.403	932.59
1035.691	951.12
1035.979	931.46
1036.267	922.87
1036.554	959.93
1036.842	901.85
1037.129	913.61
1037.417	861.4
1037.704	893.27
1037.992	877.45
1038.279	872.93
1038.566	885.81
1038.853	885.81
1039.14	885.81
