Data from tablewood_brown_FLMS001491_034.txt Node
Date: Tue Feb 07 11:10:22 GMT 2017
User: dcchb
Spectrometer: FLMS00149
Trigger mode: 0
Integration Time (sec): 2.000000E-2
Scans to average: 10
Electric dark correction enabled: true
Nonlinearity correction enabled: false
Boxcar width: 0
XAxis mode: Wavelengths
Number of Pixels in Spectrum: 2048
>>>>>Begin Spectral Data<<<<<
341.393	-13.02
341.776	-13.02
342.16	-13.02
342.543	-65.22
342.927	-70.87
343.31	-52.12
343.693	-80.82
344.077	-74.72
344.46	-62.74
344.843	-60.7
345.226	-39.24
345.61	-13.7
345.993	-28.39
346.376	-0.14
346.759	22.23
347.142	17.94
347.525	45.96
347.908	71.27
348.291	78.05
348.674	63.13
349.057	113.98
349.44	136.58
349.823	135.45
350.206	156.92
350.588	201.21
350.971	233.07
351.354	232.62
351.737	257.25
352.119	247.54
352.502	263.35
352.884	279.63
353.267	293.18
353.65	302.22
354.032	285.5
354.414	316.23
354.797	324.82
355.179	334.31
355.562	336.12
355.944	325.05
356.326	335.67
356.709	350.81
357.091	337.25
357.473	335.22
357.855	359.62
358.238	362.56
358.62	359.85
359.002	348.55
359.384	349
359.766	356.01
360.148	361.21
360.53	337.7
360.912	357.59
361.294	374.99
361.676	346.74
362.057	343.13
362.439	339.06
362.821	331.83
363.203	345.84
363.584	344.93
363.966	348.1
364.348	342.45
364.729	339.06
365.111	319.85
365.493	352.62
365.874	334.09
366.256	337.48
366.637	325.95
367.019	348.32
367.4	329.34
367.781	328.21
368.163	318.04
368.544	339.06
368.925	330.02
369.306	328.44
369.688	328.44
370.069	359.85
370.45	350.81
370.831	333.41
371.212	351.26
371.593	330.92
371.974	343.13
372.355	336.35
372.736	332.51
373.117	339.51
373.498	349.23
373.879	336.12
374.26	348.1
374.641	328.66
375.021	348.55
375.402	329.79
375.783	354.43
376.163	356.23
376.544	355.33
376.925	377.7
377.305	353.97
377.686	348.1
378.066	336.57
378.447	334.54
378.827	356.01
379.208	363.92
379.588	369.34
379.968	356.23
380.349	366.85
380.729	377.48
381.109	360.53
381.489	379.28
381.87	384.03
382.25	374.76
382.63	386.97
383.01	400.75
383.39	384.03
383.77	363.24
384.15	379.74
384.53	376.12
384.91	390.36
385.29	392.16
385.67	392.84
386.049	391.49
386.429	418.6
386.809	417.7
387.189	413.41
387.568	402.11
387.948	406.4
388.328	415.67
388.707	418.83
389.087	409.11
389.466	425.61
389.846	415.22
390.225	404.37
390.605	437.81
390.984	445.72
391.363	433.97
391.743	442.33
392.122	450.02
392.501	426.97
392.881	452.73
393.26	439.4
393.639	467.64
394.018	457.47
394.397	460.86
394.776	455.89
395.155	473.29
395.534	443.69
395.913	469.45
396.292	469.68
396.671	486.85
397.05	472.84
397.429	482.33
397.808	493.18
398.186	502.22
398.565	485.72
398.944	485.95
399.323	474.42
399.701	491.15
400.08	485.04
400.458	515.55
400.837	505.61
401.215	517.59
401.594	522.33
401.972	527.98
402.351	534.99
402.729	539.05
403.107	553.74
403.486	532.95
403.864	554.65
404.242	552.39
404.62	558.71
404.999	568.43
405.377	583.8
405.755	572.73
406.133	567.3
406.511	572.73
406.889	585.61
407.267	560.52
407.645	596.91
408.023	590.8
408.401	599.84
408.779	622.89
409.156	584.02
409.534	598.04
409.912	607.07
410.29	626.73
410.667	644.81
411.045	662.21
411.422	659.05
411.8	677.81
412.178	672.38
412.555	666.28
412.933	657.69
413.31	681.87
413.687	700.86
414.065	676.68
414.442	699.05
414.819	712.61
415.197	704.02
415.574	728.2
415.951	709.9
416.328	741.08
416.705	743.12
417.082	738.82
417.46	739.95
417.837	736.79
418.214	744.47
418.591	751.93
418.967	759.16
419.344	793.28
419.721	770.01
420.098	767.52
420.475	799.84
420.852	800.97
421.228	817.92
421.605	814.07
421.982	786.73
422.358	829.89
422.735	819.05
423.111	828.54
423.488	835.09
423.864	831.93
424.241	865.15
424.617	872.38
424.994	855.66
425.37	884.58
425.746	879.84
426.123	884.13
426.499	873.96
426.875	894.3
427.251	893.85
427.627	916.22
428.003	937.01
428.379	939.95
428.756	945.82
429.132	960.74
429.507	946.73
429.883	984.24
430.259	983.79
430.635	960.29
431.011	991.25
431.387	1008.65
431.763	1043
432.138	1037.57
432.514	1040.51
432.89	1062.88
433.265	1071.02
433.641	1074.41
434.016	1071.47
434.392	1100.62
434.767	1157.79
435.143	1103.33
435.518	1149.21
435.894	1149.66
436.269	1166.83
436.644	1182.88
437.02	1183.56
437.395	1193.5
437.77	1190.11
438.145	1223.1
438.52	1213.61
438.895	1221.3
439.271	1234.18
439.646	1250.22
440.021	1269.2
440.395	1295.64
440.77	1261.29
441.145	1289.09
441.52	1327.51
441.895	1313.04
442.27	1348.75
442.645	1296.1
443.019	1342.65
443.394	1334.06
443.769	1373.83
444.143	1376.77
444.518	1413.15
444.892	1396.88
445.267	1401.63
445.641	1381.74
446.016	1417
446.39	1450.67
446.764	1427.17
447.139	1446.37
447.513	1441.18
447.887	1437.79
448.262	1450.89
448.636	1463.1
449.01	1466.49
449.384	1497.9
449.758	1509.88
450.132	1500.84
450.506	1532.7
450.88	1526.6
451.254	1549.2
451.628	1563.21
452.002	1566.6
452.376	1583.55
452.75	1589.2
453.123	1597.78
453.497	1635.75
453.871	1625.13
454.244	1653.6
454.618	1680.27
454.992	1697.44
455.365	1704.9
455.739	1730.21
456.112	1764.78
456.486	1767.27
456.859	1796.87
457.232	1823.09
457.606	1815.18
457.979	1839.81
458.352	1852.24
458.725	1868.51
459.099	1891.11
459.472	1939.92
459.845	1932.92
460.218	1946.47
460.591	1969.3
460.964	2007.04
461.337	2043.87
461.71	2070.76
462.083	2088.39
462.456	2105.57
462.829	2130.42
463.201	2157.77
463.574	2157.54
463.947	2161.16
464.32	2227.37
464.692	2249.52
465.065	2284.09
465.438	2328.61
465.81	2391.43
466.183	2383.75
466.555	2421.49
466.928	2450.19
467.3	2442.73
467.672	2476.86
468.045	2558.89
468.417	2549.85
468.789	2596.63
469.161	2630.98
469.534	2654.25
469.906	2731.99
470.278	2785.1
470.65	2788.49
471.022	2847.47
471.394	2924.08
471.766	2903.51
472.138	2968.14
472.51	3029.61
472.882	3088.59
473.253	3112.32
473.625	3164.75
473.997	3266.89
474.369	3240.45
474.74	3348.02
475.112	3402.48
475.484	3455.14
475.855	3522.93
476.227	3556.38
476.598	3690.84
476.97	3694
477.341	3793.21
477.713	3886.54
478.084	3876.82
478.455	3995.01
478.827	4061.9
479.198	4196.81
479.569	4198.17
479.94	4368.11
480.311	4392.74
480.682	4472.06
481.053	4609.91
481.424	4676.57
481.795	4758.38
482.166	4846.74
482.537	4875.21
482.908	5025.26
483.279	5037.69
483.65	5145.26
484.021	5265.03
484.391	5375.99
484.762	5419.83
485.133	5465.03
485.503	5525.82
485.874	5622.99
486.244	5724.91
486.615	5879.93
486.985	5956.09
487.356	6033.37
487.726	6100.94
488.097	6228.85
488.467	6302.07
488.837	6373.7
489.207	6446.47
489.578	6535.51
489.948	6660.47
490.318	6681.94
490.688	6771.21
491.058	6844.88
491.428	6933.46
491.798	7033.8
492.168	7140.01
492.538	7221.82
492.908	7281.93
493.278	7323.51
493.648	7417.06
494.017	7513.33
494.387	7592.65
494.757	7671.07
495.126	7829.03
495.496	7747.9
495.866	7873.78
496.235	7997.39
496.605	7979.76
496.974	8102.24
497.344	8184.05
497.713	8178.17
498.082	8245.52
498.452	8396.7
498.821	8417.26
499.19	8520.54
499.559	8533.42
499.928	8609.58
500.298	8660.2
500.667	8772.28
501.036	8739.29
501.405	8801.21
501.774	8902.9
502.143	8989.23
502.512	9026.97
502.88	9149.22
503.249	9095.21
503.618	9203.68
503.987	9242.1
504.356	9362.78
504.724	9391.93
505.093	9438.71
505.462	9527.07
505.83	9546.05
506.199	9681.64
506.567	9790.34
506.936	9771.13
507.304	9883.89
507.672	9943.55
508.041	9991.91
508.409	10113.27
508.777	10247.27
509.145	10222.19
509.514	10268.74
509.882	10367.72
510.25	10432.8
510.618	10505.35
510.986	10561.16
511.354	10690.65
511.722	10816.98
512.09	10883.19
512.458	10909.18
512.826	11042.73
513.193	11087.7
513.561	11206.34
513.929	11268.94
514.297	11328.37
514.664	11480.69
515.032	11511.65
515.4	11586.45
515.767	11684.75
516.135	11754.13
516.502	11668.25
516.869	11924.74
517.237	11993.67
517.604	12088.35
517.972	12145.53
518.339	12309.82
518.706	12334
519.073	12452.19
519.44	12544.61
519.808	12672.97
520.175	12733.08
520.542	12960.87
520.909	12959.52
521.276	12924.72
521.643	13142.11
522.009	13265.95
522.376	13290.36
522.743	13427.08
523.11	13541.42
523.477	13686.5
523.843	13777.12
524.21	13909.1
524.577	14005.59
524.943	14157
525.31	14288.97
525.676	14367.84
526.043	14544.11
526.409	14617.78
526.776	14730.32
527.142	14806.7
527.508	14900.26
527.874	15043.76
528.241	15109.07
528.607	15120.14
528.973	15342.96
529.339	15276.07
529.705	15454.59
530.071	15643.97
530.437	15706.34
530.803	15810.97
531.169	15847.58
531.535	15798.77
531.901	15946.56
532.267	15979.1
532.632	16185.87
532.998	16229.94
533.364	16356.04
533.73	16364.17
534.095	16471.74
534.461	16495.7
534.826	16712.41
535.192	16737.27
535.557	16852.07
535.923	16934.1
536.288	16942.92
536.653	17082.8
537.019	17018.39
537.384	17146.98
537.749	17229.91
538.114	17294.55
538.479	17305.39
538.845	17343.13
539.21	17414.99
539.575	17538.38
539.94	17649.79
540.305	17626.74
540.67	17607.53
541.034	17777.24
541.399	17918.26
541.764	17918.48
542.129	17953.06
542.494	18060.63
542.858	18125.48
543.223	18229.44
543.587	18258.81
543.952	18244.35
544.316	18365.7
544.681	18338.81
545.045	18459.49
545.41	18603.21
545.774	18624.45
546.138	18722.76
546.503	18804.34
546.867	18767.27
547.231	18892.02
547.595	19009.98
547.959	19009.53
548.324	18971.56
548.688	19146.7
549.052	19153.48
549.416	19304.44
549.779	19373.59
550.143	19437.77
550.507	19713.01
550.871	19644.31
551.235	19704.65
551.599	19869.17
551.962	19972.89
552.326	19956.4
552.689	20088.14
553.053	20132.44
553.417	20219.44
553.78	20459.66
554.143	20365.88
554.507	20603.84
554.87	20683.38
555.234	20948.91
555.597	20787.79
555.96	20990.72
556.323	21095.58
556.686	21287.43
557.05	21474.1
557.413	21568.11
557.776	21638.84
558.139	21720.19
558.502	21848.55
558.865	22023.91
559.228	22151.14
559.59	22319.72
559.953	22517.46
560.316	22752.48
560.679	22789.77
561.041	23007.84
561.404	23180.94
561.767	23223.88
562.129	23337.1
562.492	23618.67
562.854	23601.27
563.217	23762.17
563.579	23973.24
563.941	24112.9
564.304	24236.06
564.666	24520.34
565.028	24575.48
565.39	24765.76
565.753	24986.32
566.115	25044.62
566.477	25262.02
566.839	25386.99
567.201	25792.63
567.563	25814.32
567.925	25938.39
568.287	26057.48
568.648	26198.72
569.01	26419.28
569.372	26563.91
569.734	26521.65
570.095	26986.72
570.457	27087.06
570.819	27312.36
571.18	27307.16
571.542	27525.01
571.903	27698.79
572.265	27854.04
572.626	28037.99
572.987	28146.46
573.349	28382.62
573.71	28541.26
574.071	28676.84
574.432	28759.55
574.794	29104.18
575.155	29229.15
575.516	29196.61
575.877	29333.55
576.238	29559.53
576.599	29784.84
576.96	29902.12
577.32	30028.45
577.681	30184.38
578.042	30319.06
578.403	30508.44
578.763	30474.09
579.124	30635.66
579.485	30789.78
579.845	30919.05
580.206	30966.5
580.566	31112.04
580.927	31174.63
581.287	31241.98
581.648	31416.89
582.008	31482.42
582.368	31562.64
582.728	31648.29
583.089	31733.49
583.449	31739.36
583.809	31763.09
584.169	31978.9
584.529	31992.24
584.889	32241.95
585.249	32130.54
585.609	32067.04
585.969	32268.39
586.329	32232.91
586.688	32329.63
587.048	32427.03
587.408	32357.43
587.768	32391.32
588.127	32453.02
588.487	32399.68
588.846	32765.1
589.206	32533.69
589.565	32652.56
589.925	32784.76
590.284	32844.19
590.643	32922.16
591.003	32853.68
591.362	32975.94
591.721	32942.04
592.08	33087.58
592.44	33015.49
592.799	32967.58
593.158	33005.09
593.517	32996.05
593.876	33057.97
594.235	33076.5
594.593	33116.5
594.952	33198.76
595.311	33190.4
595.67	33205.31
596.029	33304.75
596.387	33396.95
596.746	33487.57
597.104	33259.55
597.463	33322.82
597.822	33492.31
598.18	33480.79
598.538	33486.89
598.897	33590.84
599.255	33316.5
599.613	33760.55
599.972	33585.42
600.33	33648.69
600.688	33462.93
601.046	33730.5
601.404	33811.17
601.762	33648.92
602.12	33890.72
602.478	33983.6
602.836	34013.43
603.194	33657.5
603.552	33864.28
603.91	33708.8
604.268	33948.12
604.625	33876.48
604.983	34091.39
605.341	33897.95
605.698	34041.9
606.056	34158.51
606.413	34037.16
606.771	34142.92
607.128	34221.78
607.485	34097.49
607.843	34063.82
608.2	34211.61
608.557	34322.57
608.914	34252.74
609.272	34514.21
609.629	34395.79
609.986	34514.66
610.343	34265.17
610.7	34584.26
611.057	34517.6
611.414	34502.68
611.771	34602.56
612.127	34784.71
612.484	34768.89
612.841	34884.37
613.198	34816.34
613.554	34886.85
613.911	35151.48
614.267	34962.78
614.624	34938.6
614.98	34951.93
615.337	35176.79
615.693	35092.5
616.05	35108.09
616.406	35305.82
616.762	35251.59
617.118	35342.21
617.475	35225.37
617.831	35251.81
618.187	35319.38
618.543	35316.67
618.899	35416.78
619.255	35427.18
619.611	35320.96
619.967	35512.82
620.323	35563.44
620.678	35504.91
621.034	35444.58
621.39	35393.96
621.746	35397.57
622.101	35766.38
622.457	35492.26
622.812	35570.45
623.168	35721.41
623.523	35593.05
623.879	35853.83
624.234	35517.57
624.589	35581.52
624.945	35689.54
625.3	35694.97
625.655	35675.3
626.01	35723.67
626.365	35751.91
626.72	35549.43
627.075	35655.87
627.43	35583.56
627.785	35575.42
628.14	35629.66
628.495	35664.23
628.85	35520.51
629.205	35370.45
629.559	35575.87
629.914	35439.6
630.269	35491.35
630.623	35447.51
630.978	35344.47
631.332	35467.63
631.687	35550.79
632.041	35362.77
632.396	35385.6
632.75	35248.65
633.104	35413.62
633.459	35140.18
633.813	35138.82
634.167	35134.53
634.521	35290.68
634.875	35245.71
635.229	35009.56
635.583	34873.97
635.937	35136.79
636.291	35015.89
636.645	34897.92
636.999	34737.48
637.352	34848.66
637.706	34658.16
638.06	34950.35
638.413	34828.1
638.767	34774.09
639.121	34826.51
639.474	34557.14
639.828	34582
640.181	34777.25
640.534	34620.87
640.888	34552.17
641.241	34308.34
641.594	34479.18
641.947	34513.75
642.301	34424.04
642.654	34358.73
643.007	34469.01
643.36	34353.08
643.713	34274.89
644.066	34388.79
644.419	34208.45
644.771	33901.34
645.124	33743.38
645.477	33685.3
645.83	33505.64
646.182	33306.55
646.535	33270.4
646.888	33338.42
647.24	33093.68
647.593	33354.69
647.945	33397.62
648.298	33063.17
648.65	33036.05
649.002	32987.47
649.355	33060.23
649.707	33018.88
650.059	33221.36
650.411	33494.12
650.763	33442.37
651.115	33927.78
651.467	33904.05
651.819	33844.39
652.171	33801.23
652.523	33695.7
652.875	33740.67
653.227	33591.29
653.578	33802.36
653.93	33649.6
654.282	33567.11
654.633	33502.48
654.985	33621.8
655.337	33638.75
655.688	33648.47
656.039	33680.33
656.391	33512.88
656.742	33535.25
657.094	33538.86
657.445	33671.06
657.796	33475.59
658.147	33536.83
658.498	33523.27
658.849	33629.03
659.2	33627.22
659.551	33500.45
659.902	33625.42
660.253	33553.55
660.604	33631.06
660.955	33524.4
661.306	33643.95
661.656	33397.4
662.007	33337.74
662.358	33463.84
662.708	33414.57
663.059	33434.46
663.409	33223.17
663.76	33594
664.11	33344.97
664.461	33492.31
664.811	33449.6
665.161	33356.04
665.511	33368.7
665.862	33457.06
666.212	33442.82
666.562	33482.37
666.912	33475.36
667.262	33313.33
667.612	33241.24
667.962	33393.11
668.312	33315.37
668.662	33387
669.011	33374.57
669.361	33231.3
669.711	33292.32
670.06	33335.03
670.41	33236.72
670.76	33260.68
671.109	33376.16
671.459	33150.85
671.808	33065.88
672.157	33194.47
672.507	32898.43
672.856	33078.31
673.205	32928.71
673.554	33065.2
673.904	32781.6
674.253	33154.69
674.602	32905.66
674.951	32423.41
675.3	32506.12
675.649	32997.18
675.998	32894.36
676.346	32926.9
676.695	32876.51
677.044	32641.03
677.393	32952.66
677.741	32808.04
678.09	32736.4
678.438	32567.82
678.787	32654.59
679.135	32670.86
679.484	32457.99
679.832	32594.03
680.181	32253.47
680.529	32587.93
680.877	32441.27
681.225	32221.61
681.573	32383.64
681.922	32248.73
682.27	32155.62
682.618	32158.56
682.966	32197.2
683.314	32172.57
683.661	32017.32
684.009	31841.51
684.357	31825.69
684.705	31716.09
685.053	31695.97
685.4	31735.97
685.748	31670.21
686.095	31644.22
686.443	31410.56
686.79	31364.68
687.138	31490.78
687.485	31402.65
687.832	31282.65
688.18	31271.35
688.527	31114.75
688.874	31194.07
689.221	31117.46
689.568	30876.56
689.915	30970.12
690.262	30848.09
690.609	30813.74
690.956	30614.65
691.303	30601.54
691.65	30506.85
691.997	30400.42
692.344	30217.82
692.69	30228.89
693.037	30104.83
693.383	29938.51
693.73	30071.38
694.077	29848.79
694.423	29809.02
694.769	29710.72
695.116	29600.44
695.462	29450.84
695.808	29413.32
696.155	29447.9
696.501	29239.99
696.847	29204.51
697.193	28959.32
697.539	29071.64
697.885	28816.95
698.231	28883.85
698.577	28742.61
698.923	28591.2
699.269	28551.65
699.614	28454.03
699.96	28379
700.306	28381.26
700.651	28200.93
700.997	28111.89
701.342	28040.25
701.688	27990.54
702.033	27855.4
702.379	27959.12
702.724	27737.43
703.069	27860.37
703.415	27490.44
703.76	27368.18
704.105	27403.43
704.45	27323.21
704.795	27190.33
705.14	27099.71
705.485	27148.52
705.83	26986.95
706.175	27013.16
706.52	26935.65
706.865	26813.84
707.209	26767.06
707.554	26740.4
707.899	26742.43
708.243	26523.68
708.588	26511.93
708.932	26425.83
709.277	26248.21
709.621	26368.88
709.966	26162.33
710.31	26309
710.654	25995.33
710.998	26011.15
711.342	26093.86
711.687	25949.23
712.031	25754.44
712.375	25685.06
712.719	25835.79
713.063	25661.1
713.407	25783.81
713.75	25591.05
714.094	25590.37
714.438	25473.31
714.782	25384.5
715.125	25359.42
715.469	25385.63
715.812	25309.48
716.156	25173.89
716.499	25150.38
716.843	25262.92
717.186	25089.82
717.53	25074.68
717.873	25164.39
718.216	25031.97
718.559	24976.83
718.902	24862.26
719.246	24854.57
719.589	25001.91
719.932	24849.83
720.275	24714.01
720.617	24778.87
720.96	24698.42
721.303	24761.24
721.646	24705.2
721.989	24594.69
722.331	24592.88
722.674	24667.01
723.016	24582.49
723.359	24627.23
723.701	24539.78
724.044	24419.1
724.386	24234.02
724.729	24470.4
725.071	24427.69
725.413	24313.12
725.755	24363.29
726.097	24319.22
726.439	24263.63
726.782	24287.13
727.124	24337.75
727.465	24129.85
727.807	24228.15
728.149	24218.43
728.491	24175.27
728.833	24144.31
729.175	24129.17
729.516	24055.72
729.858	24032.22
730.199	24126.23
730.541	24097.53
730.882	24042.84
731.224	24126.23
731.565	23879.91
731.906	23885.11
732.248	23946.35
732.589	23843.53
732.93	23783.41
733.271	23889.63
733.612	23809.63
733.953	23855.95
734.294	23761.04
734.635	23765.79
734.976	23775.28
735.317	23896.18
735.658	23838.55
735.999	23808.05
736.339	23736.18
736.68	23910.19
737.021	23718.11
737.361	23810.98
737.702	23864.09
738.042	23834.71
738.383	23705.9
738.723	23824.54
739.063	23725.79
739.404	23831.32
739.744	23720.59
740.084	23586.13
740.424	23672.68
740.764	23643.08
741.104	23775.73
741.444	23578.9
741.784	23539.13
742.124	23628.39
742.464	23611.89
742.804	23561.05
743.143	23542.52
743.483	23507.04
743.823	23395.63
744.162	23409.41
744.502	23509.98
744.841	23476.76
745.181	23513.14
745.52	23371.67
745.86	23421.16
746.199	23553.59
746.538	23373.03
746.877	23640.82
747.216	23523.53
747.556	23518.11
747.895	23531.67
748.234	23455.97
748.573	23377.32
748.911	23380.03
749.25	23348.62
749.589	23325.12
749.928	23362.18
750.267	23289.19
750.605	23351.34
750.944	23319.7
751.283	23248.74
751.621	23377.78
751.96	23170.77
752.298	23180.72
752.636	23130.1
752.975	23059.37
753.313	22885.81
753.651	23103.43
753.989	23001.97
754.327	23028.18
754.666	22878.81
755.004	23032.7
755.342	22949.31
755.679	22956.54
756.017	22720.17
756.355	22856.21
756.693	22670.9
757.031	22844
757.368	22618.93
757.706	22620.73
758.044	22644.91
758.381	22572.15
758.719	22547.97
759.056	22537.12
759.394	22432.72
759.731	22348.2
760.068	22323.11
760.405	22255.54
760.743	22200.86
761.08	22131.48
761.417	22087.19
761.754	22089.45
762.091	22040.64
762.428	21999.51
762.765	21849.23
763.102	21924.48
763.438	21809.91
763.775	21616.24
764.112	21692.17
764.449	21831.83
764.785	21617.14
765.122	21458.5
765.458	21425.74
765.795	21459.18
766.131	21336.92
766.467	21323.14
766.804	21177.61
767.14	21160.66
767.476	21107.55
767.812	21093.32
768.148	21080.66
768.485	20936.94
768.821	20844.96
769.157	20839.54
769.492	20675.25
769.828	20712.31
770.164	20398.42
770.5	20447.91
770.836	20376.27
771.171	20301.7
771.507	20291.98
771.842	20241.13
772.178	20207.91
772.513	19988.71
772.849	20025.55
773.184	19943.74
773.519	19950.29
773.855	19821.94
774.19	19826.46
774.525	19656.52
774.86	19643.41
775.195	19581.26
775.53	19493.36
775.865	19428.95
776.2	19354.38
776.535	19137.43
776.87	19195.96
777.205	19156.42
777.539	18995.29
777.874	19071.67
778.209	18968.4
778.543	18888.18
778.878	18668.52
779.212	18699.71
779.547	18725.69
779.881	18609.31
780.215	18565.02
780.55	18558.01
780.884	18413.16
781.218	18359.6
781.552	18296.78
781.886	18190.79
782.22	18192.15
782.554	18087.52
782.888	17899.73
783.222	17889.11
783.556	17886.17
783.889	17802.78
784.223	17683.46
784.557	17648.89
784.89	17714.2
785.224	17558.95
785.557	17502.45
785.891	17513.75
786.224	17327.54
786.558	17350.81
786.891	17229.24
787.224	17136.36
787.557	17091.16
787.891	17078.51
788.224	16913.09
788.557	16983.82
788.89	16999.86
789.223	16878.74
789.556	16843.26
789.888	16844.84
790.221	16608.01
790.554	16611.4
790.887	16541.8
791.219	16503.83
791.552	16408.69
791.884	16332.76
792.217	16283.95
792.549	16276.04
792.882	16131.64
793.214	16064.07
793.546	16195.37
793.879	15986.78
794.211	15934.36
794.543	15981.59
794.875	15924.86
795.207	15931.19
795.539	15806.22
795.871	15821.36
796.203	15716.28
796.535	15635.38
796.867	15716.28
797.198	15528.72
797.53	15522.84
797.862	15475.84
798.193	15505.89
798.525	15488.27
798.856	15395.16
799.188	15184.09
799.519	15129.4
799.85	15053.93
800.182	15093.93
800.513	15117.65
800.844	14967.15
801.175	14976.19
801.506	14925.34
801.837	14922.18
802.168	14849.41
802.499	14890.54
802.83	14774.39
803.161	14718.34
803.491	14676.08
803.822	14710.66
804.153	14635.86
804.483	14459.82
804.814	14395.64
805.145	14420.04
805.475	14392.25
805.805	14355.19
806.136	14362.42
806.466	14354.51
806.796	14291.23
807.126	14101.86
807.457	14172.59
807.787	14091.92
808.117	14114.52
808.447	13932.15
808.777	14024.8
809.107	13941.64
809.436	13992.26
809.766	13932.83
810.096	13846.05
810.426	13875.88
810.755	13839.04
811.085	13845.6
811.414	13851.7
811.744	13615.77
812.073	13694.64
812.403	13732.83
812.732	13559.28
813.061	13533.51
813.39	13520.41
813.719	13425.04
814.049	13475.66
814.378	13450.35
814.707	13430.47
815.036	13364.25
815.365	13266.63
815.693	13188.44
816.022	13187.31
816.351	13214.43
816.68	13093.98
817.008	13091.04
817.337	12985.28
817.665	13035.9
817.994	13093.75
818.322	12955.22
818.651	12940.99
818.979	12964.26
819.307	12911.84
819.636	12853.08
819.964	12824.61
820.292	12879.52
820.62	12895.11
820.948	12840.88
821.276	12848.56
821.604	12691.28
821.932	12778.05
822.259	12843.81
822.587	12849.24
822.915	12628.23
823.243	12748.45
823.57	12818.05
823.898	12801.56
824.225	12687.66
824.553	12740.09
824.88	12744.38
825.207	12703.48
825.535	12691.5
825.862	12804.27
826.189	12761.11
826.516	12789.8
826.843	12799.97
827.17	12785.29
827.497	12723.14
827.824	12825.51
828.151	12764.04
828.478	12798.62
828.805	12784.83
829.131	12671.39
829.458	12668
829.785	12670.71
830.111	12667.55
830.438	12764.04
830.764	12688.11
831.09	12785.96
831.417	12640.88
831.743	12691.95
832.069	12719.98
832.395	12589.58
832.722	12663.93
833.048	12639.53
833.374	12664.38
833.7	12631.39
834.026	12577.61
834.351	12572.64
834.677	12582.58
835.003	12563.6
835.329	12501.9
835.654	12524.95
835.98	12516.37
836.306	12534.9
836.631	12431.4
836.956	12561.34
837.282	12526.54
837.607	12410.38
837.932	12400.44
838.258	12420.55
838.583	12421.68
838.908	12319.53
839.233	12331.51
839.558	12357.95
839.883	12268.69
840.208	12183.72
840.533	12221.46
840.858	12288.12
841.182	12167.45
841.507	12160.67
841.832	12125.42
842.156	12067.11
842.481	12141.01
842.805	12058.3
843.13	12098.07
843.454	12004.74
843.778	12039.09
844.103	11908.7
844.427	11933.1
844.751	11945.76
845.075	11939.21
845.399	11842.26
845.723	11758.42
846.047	11809.94
846.371	11663.96
846.695	11714.58
847.019	11629.84
847.343	11633.23
847.666	11538.31
847.99	11444.3
848.313	11474.13
848.637	11341.93
848.96	11341.71
849.284	11361.59
849.607	11182.84
849.931	11258.32
850.254	11105.56
850.577	11057.2
850.9	11050.87
851.223	11050.19
851.546	10942.85
851.869	10888.61
852.192	10945.56
852.515	10793.47
852.838	10776.07
853.161	10741.05
853.483	10674.83
853.806	10677.32
854.129	10666.24
854.451	10615.4
854.774	10538.56
855.096	10516.19
855.419	10521.39
855.741	10481.84
856.063	10386.25
856.385	10409.75
856.708	10386.25
857.03	10359.36
857.352	10300.15
857.674	10303.09
857.996	10203.21
858.318	10254.05
858.64	10233.94
858.961	10203.21
859.283	10160.5
859.605	10120.27
859.926	10171.57
860.248	10127.95
860.57	10060.16
860.891	10124.79
861.212	10008.64
861.534	9905.14
861.855	9915.76
862.176	9952.37
862.498	9970.9
862.819	9935.87
863.14	9942.65
863.461	9883.67
863.782	9888.86
864.103	9826.95
864.424	9747.85
864.745	9857.9
865.065	9774.97
865.386	9673.05
865.707	9658.59
866.027	9754.86
866.348	9709.66
866.668	9668.76
866.989	9648.19
867.309	9649.1
867.63	9599.38
867.95	9554.86
868.27	9502.21
868.59	9560.51
868.91	9490.23
869.23	9515.54
869.55	9483.9
869.87	9618.59
870.19	9509.21
870.51	9553.73
870.83	9546.95
871.15	9403.23
871.469	9404.36
871.789	9387.63
872.109	9405.94
872.428	9403
872.748	9444.81
873.067	9375.88
873.386	9380.18
873.706	9301.76
874.025	9343.12
874.344	9279.84
874.663	9353.29
874.982	9253.4
875.301	9229.67
875.62	9264.93
875.939	9282.1
876.258	9286.39
876.577	9234.87
876.896	9196.68
877.214	9128.88
877.533	9181.09
877.852	9132.73
878.17	9185.61
878.489	9179.73
878.807	9085.72
879.125	9094.53
879.444	9055.67
879.762	8998.94
880.08	9088.43
880.398	9030.13
880.716	9060.41
881.034	9015.67
881.352	9005.5
881.67	8966.18
881.988	8951.94
882.306	8917.36
882.624	8880.53
882.941	8835.78
883.259	8877.37
883.577	8833.98
883.894	8817.93
884.212	8749.01
884.529	8732.51
884.846	8781.1
885.164	8654.55
885.481	8730.7
885.798	8728.89
886.115	8594.44
886.432	8667.2
886.75	8594.66
887.067	8658.61
887.383	8627.43
887.7	8631.27
888.017	8557.15
888.334	8602.57
888.651	8521.67
888.967	8455.91
889.284	8493.42
889.6	8455.23
889.917	8423.37
890.233	8419.07
890.55	8364.16
890.866	8388.34
891.182	8321.67
891.498	8336.81
891.815	8282.58
892.131	8256.59
892.447	8253.43
892.763	8208.91
893.079	8156.25
893.395	8153.32
893.71	8149.02
894.026	8110.61
894.342	8083.94
894.657	8075.35
894.973	8017.28
895.289	8057.27
895.604	8066.54
895.92	7965.98
896.235	7936.37
896.55	7897.28
896.865	7915.81
897.181	7841.46
897.496	7869.48
897.811	7832.87
898.126	7750.62
898.441	7707.68
898.756	7737.73
899.071	7709.71
899.386	7687.79
899.7	7648.7
900.015	7589.04
900.33	7564.41
900.644	7526.89
900.959	7544.29
901.273	7483.96
901.588	7467.46
901.902	7448.25
902.216	7395.14
902.531	7392.21
902.845	7292.32
903.159	7388.14
903.473	7304.53
903.787	7322.38
904.101	7281.7
904.415	7172.1
904.729	7234.02
905.042	7204.42
905.356	7196.73
905.67	7158.54
905.984	7129.16
906.297	7069.28
906.611	7049.39
906.924	7026.34
907.237	7063.85
907.551	6920.81
907.864	6959.45
908.177	6961.71
908.491	6968.72
908.804	6874.25
909.117	6870.19
909.43	6845.78
909.743	6786.35
910.056	6798.32
910.368	6753.81
910.681	6703.86
910.994	6703.86
911.307	6666.12
911.619	6571.44
911.932	6671.1
912.244	6657.76
912.557	6581.61
912.869	6528.5
913.181	6549.97
913.494	6485.56
913.806	6461.61
914.118	6439.24
914.43	6369.41
914.742	6334.83
915.054	6327.15
915.366	6326.25
915.678	6301.16
915.99	6268.62
916.302	6253.93
916.613	6223.42
916.925	6205.57
917.236	6188.62
917.548	6148.4
917.859	6157.21
918.171	6100.26
918.482	6102.98
918.794	6022.3
919.105	6018.23
919.416	6000.6
919.727	5997.89
920.038	5952.7
920.349	5904.34
920.66	5906.82
920.971	5893.72
921.282	5842.19
921.593	5791.8
921.903	5790.67
922.214	5757.45
922.525	5732.14
922.835	5706.83
923.146	5653.27
923.456	5713.83
923.767	5693.27
924.077	5662.08
924.387	5627.96
924.697	5654.63
925.008	5580.73
925.318	5532.82
925.628	5547.28
925.938	5499.83
926.248	5480.39
926.558	5459.83
926.867	5399.72
927.177	5421.86
927.487	5419.83
927.796	5345.25
928.106	5361.98
928.416	5291.92
928.725	5275.43
929.034	5306.39
929.344	5268.65
929.653	5247.63
929.962	5187.07
930.271	5201.53
930.581	5156.56
930.89	5179.84
931.199	5129.89
931.508	5121.98
931.817	5072.49
932.125	5070.91
932.434	5042.89
932.743	4998.37
933.051	4949.56
933.36	4983.68
933.669	4981.87
933.977	4903.68
934.286	4999.5
934.594	4899.62
934.902	4871.6
935.21	4844.7
935.519	4819.62
935.827	4807.19
936.135	4787.53
936.443	4774.87
936.751	4769.68
937.059	4744.14
937.367	4735.55
937.674	4647.65
937.982	4639.28
938.29	4618.95
938.597	4623.47
938.905	4587.31
939.213	4553.19
939.52	4546.41
939.827	4584.15
940.135	4540.53
940.442	4514.54
940.749	4513.19
941.056	4524.26
941.363	4447.88
941.67	4423.02
941.977	4467.09
942.284	4422.57
942.591	4443.13
942.898	4348.67
943.205	4376.92
943.511	4305.06
943.818	4300.54
944.125	4284.72
944.431	4295.11
944.738	4263.02
945.044	4242.23
945.35	4213.53
945.657	4204.27
945.963	4167.43
946.269	4180.09
946.575	4166.3
946.881	4159.07
947.187	4115.46
947.493	4079.07
947.799	4051.05
948.105	4040.88
948.41	4012.41
948.716	3989.36
949.022	4015.8
949.327	3995.69
949.633	3914.56
949.938	3902.81
950.244	3922.92
950.549	3905.74
950.854	3882.02
951.16	3875.24
951.465	3837.72
951.77	3866.65
952.075	3815.8
952.38	3811.96
952.685	3815.8
952.99	3838.63
953.294	3788.01
953.599	3785.07
953.904	3755.92
954.209	3742.36
954.513	3700.33
954.818	3673.66
955.122	3727.22
955.426	3659.42
955.731	3644.96
956.035	3613.1
956.339	3635.02
956.643	3625.3
956.948	3618.07
957.252	3613.32
957.556	3571.97
957.86	3517.51
958.163	3488.58
958.467	3509.15
958.771	3519.31
959.075	3479.32
959.378	3461.46
959.682	3428.92
959.985	3453.55
960.289	3420.56
960.592	3443.61
960.896	3407.9
961.199	3391.41
961.502	3380.33
961.805	3330.84
962.108	3315.03
962.411	3323.61
962.714	3291.52
963.017	3296.72
963.32	3325.42
963.623	3267.8
963.926	3289.49
964.228	3230.28
964.531	3246.78
964.833	3203.62
965.136	3188.7
965.438	3151.64
965.741	3127.91
966.043	3160.91
966.345	3146.22
966.648	3120.91
966.95	3119.78
967.252	3119.32
967.554	3175.14
967.856	3055.6
968.158	3022.83
968.46	3064.64
968.761	3010.63
969.063	3032.1
969.365	3015.6
969.666	3029.84
969.968	2963.62
970.269	2961.14
970.571	2979.44
970.872	2944.87
971.174	2932.21
971.475	2933.34
971.776	2886.34
972.077	2929.05
972.378	2865.77
972.679	2896.51
972.98	2905.32
973.281	2826.45
973.582	2873.23
973.883	2829.16
974.183	2830.29
974.484	2787.36
974.785	2787.13
975.085	2820.12
975.386	2778.99
975.686	2764.53
975.986	2722.5
976.287	2779.45
976.587	2704.42
976.887	2710.3
977.187	2698.09
977.487	2713.46
977.787	2683.4
978.087	2639.11
978.387	2649.73
978.687	2663.97
978.987	2635.27
979.286	2647.92
979.586	2613.12
979.885	2629.62
980.185	2564.76
980.484	2534.93
980.784	2559.79
981.083	2545.55
981.382	2523.86
981.682	2555.27
981.981	2492.9
982.28	2494.93
982.579	2489.51
982.878	2450.19
983.177	2486.8
983.475	2474.6
983.774	2427.14
984.073	2467.82
984.372	2426.01
984.67	2419.68
984.969	2407.71
985.267	2415.84
985.566	2402.96
985.864	2391.43
986.162	2368.61
986.461	2346.46
986.759	2357.99
987.057	2322.74
987.355	2297.65
987.653	2341.49
987.951	2240.7
988.249	2253.58
988.547	2275.96
988.844	2277.54
989.142	2291.78
989.44	2256.07
989.737	2230.53
990.035	2241.38
990.332	2235.05
990.63	2217.88
990.927	2232.12
991.224	2220.82
991.521	2170.88
991.819	2156.64
992.116	2169.97
992.413	2155.96
992.71	2190.54
993.006	2113.93
993.303	2099.01
993.6	2110.99
993.897	2119.8
994.193	2108.73
994.49	2088.39
994.787	2074.83
995.083	2088.62
995.379	2050.88
995.676	2049.97
995.972	2035.74
996.268	2057.43
996.565	2021.95
996.861	2037.32
997.157	1979.24
997.453	2010.2
997.749	1992.57
998.044	1981.5
998.34	1976.53
998.636	1933.37
998.932	1946.25
999.227	1934.05
999.523	1951.22
999.818	1908.74
1000.114	1925.01
1000.409	1917.77
1000.704	1864.67
1001	1888.85
1001.295	1861.5
1001.59	1878.23
1001.885	1841.84
1002.18	1813.82
1002.475	1795.29
1002.77	1816.31
1003.065	1788.96
1003.359	1815.86
1003.654	1809.3
1003.949	1775.86
1004.243	1796.65
1004.538	1770.89
1004.832	1750.77
1005.127	1774.5
1005.421	1751.9
1005.715	1708.97
1006.009	1720.04
1006.304	1722.07
1006.598	1702.64
1006.892	1692.7
1007.186	1648.18
1007.48	1661.51
1007.773	1662.64
1008.067	1671.45
1008.361	1648.4
1008.655	1645.01
1008.948	1647.27
1009.242	1616.09
1009.535	1617.67
1009.829	1580.83
1010.122	1592.59
1010.415	1555.3
1010.708	1593.04
1011.001	1588.29
1011.295	1551.91
1011.588	1555.3
1011.881	1543.1
1012.173	1517.11
1012.466	1534.28
1012.759	1503.77
1013.052	1487.05
1013.344	1484.57
1013.637	1498.12
1013.93	1452.25
1014.222	1466.94
1014.514	1422.65
1014.807	1434.17
1015.099	1449.54
1015.391	1436.66
1015.683	1414.06
1015.976	1427.62
1016.268	1426.49
1016.56	1395.3
1016.851	1377.22
1017.143	1401.63
1017.435	1404.12
1017.727	1374.74
1018.018	1386.49
1018.31	1351.91
1018.602	1351.91
1018.893	1352.14
1019.185	1311.69
1019.476	1318.69
1019.767	1286.83
1020.058	1292.93
1020.35	1301.29
1020.641	1298.58
1020.932	1274.63
1021.223	1253.84
1021.514	1268.98
1021.804	1254.74
1022.095	1250
1022.386	1219.26
1022.677	1264.46
1022.967	1214.74
1023.258	1215.19
1023.548	1202.76
1023.839	1215.19
1024.129	1198.02
1024.419	1170.9
1024.709	1173.61
1025	1186.72
1025.29	1171.58
1025.58	1151.69
1025.87	1143.78
1026.16	1148.3
1026.449	1148.3
1026.739	1144.24
1027.029	1139.04
1027.319	1103.11
1027.608	1100.17
1027.898	1090.45
1028.187	1106.5
1028.477	1101.3
1028.766	1073.5
1029.055	1049.32
1029.344	1066.27
1029.634	1069.44
1029.923	1031.7
1030.212	1033.28
1030.501	1040.96
1030.79	1019.49
1031.078	1036.89
1031.367	1020.62
1031.656	1026.72
1031.945	1005.48
1032.233	1022.88
1032.522	998.7
1032.81	982.88
1033.099	984.01
1033.387	972.04
1033.675	961.42
1033.963	957.57
1034.251	980.17
1034.54	968.87
1034.828	942.21
1035.116	931.81
1035.403	944.47
1035.691	932.26
1035.979	940.17
1036.267	927.07
1036.554	905.82
1036.842	927.52
1037.129	924.35
1037.417	908.08
1037.704	875.54
1037.992	902.21
1038.279	878.93
1038.566	868.76
1038.853	868.76
1039.14	868.76
