Data from tablewood_brown_FLMS001491_059.txt Node
Date: Tue Feb 07 11:10:42 GMT 2017
User: dcchb
Spectrometer: FLMS00149
Trigger mode: 0
Integration Time (sec): 2.000000E-2
Scans to average: 10
Electric dark correction enabled: true
Nonlinearity correction enabled: false
Boxcar width: 0
XAxis mode: Wavelengths
Number of Pixels in Spectrum: 2048
>>>>>Begin Spectral Data<<<<<
341.393	-23.88
341.776	-23.88
342.16	-23.88
342.543	-89.42
342.927	-57.55
343.31	-69.31
343.693	-70.89
344.077	-66.59
344.46	-63.66
344.843	-36.99
345.226	-52.36
345.61	-39.93
345.993	-26.14
346.376	7.98
346.759	16.57
347.142	30.35
347.525	31.71
347.908	64.48
348.291	86.4
348.674	94.98
349.057	93.4
349.44	118.94
349.823	140.41
350.206	151.71
350.588	198.94
350.971	199.61
351.354	256.56
351.737	255.43
352.119	262.44
352.502	243.91
352.884	280.29
353.267	260.63
353.65	291.59
354.032	301.08
354.414	290.91
354.797	301.53
355.179	331.59
355.562	340.17
355.944	335.43
356.326	334.75
356.709	353.73
357.091	351.93
357.473	346.5
357.855	355.09
358.238	330.01
358.62	344.69
359.002	334.3
359.384	357.8
359.766	335.2
360.148	341.53
360.53	344.24
360.912	329.78
361.294	343.79
361.676	351.02
362.057	356.22
362.439	337.91
362.821	343.34
363.203	329.78
363.584	345.82
363.966	325.26
364.348	324.81
364.729	354.64
365.111	345.6
365.493	338.59
365.874	330.68
366.256	308.99
366.637	340.85
367.019	342.43
367.4	326.16
367.781	348.99
368.163	327.07
368.544	319.84
368.925	333.4
369.306	348.76
369.688	314.86
370.069	320.74
370.45	325.03
370.831	340.63
371.212	341.08
371.593	338.14
371.974	352.6
372.355	334.3
372.736	322.1
373.117	353.51
373.498	346.05
373.879	320.97
374.26	345.15
374.641	334.75
375.021	332.94
375.402	341.08
375.783	341.98
376.163	360.97
376.544	345.6
376.925	398.48
377.305	353.06
377.686	336.11
378.066	352.38
378.447	360.06
378.827	364.81
379.208	365.48
379.588	369.55
379.968	376.33
380.349	362.55
380.729	355.54
381.109	362.09
381.489	364.13
381.87	385.82
382.25	360.29
382.63	388.76
383.01	388.08
383.39	387.86
383.77	399.38
384.15	388.99
384.53	376.78
384.91	384.47
385.29	405.26
385.67	403.68
386.049	413.85
386.429	409.78
386.809	414.97
387.189	401.87
387.568	407.97
387.948	409.33
388.328	409.55
388.707	418.59
389.087	394.86
389.466	424.92
389.846	416.78
390.225	425.14
390.605	445.93
390.984	463.79
391.363	431.47
391.743	452.26
392.122	436.67
392.501	459.49
392.881	449.78
393.26	494.75
393.639	458.59
394.018	462.88
394.397	471.24
394.776	461.75
395.155	496.1
395.534	475.54
395.913	487.97
396.292	459.72
396.671	492.94
397.05	493.16
397.429	485.71
397.808	495.2
398.186	515.54
398.565	508.76
398.944	533.39
399.323	513.28
399.701	505.14
400.08	538.14
400.458	493.84
400.837	515.99
401.215	520.73
401.594	537.91
401.972	532.26
402.351	540.4
402.729	553.05
403.107	558.02
403.486	566.38
403.864	548.76
404.242	578.36
404.62	573.16
404.999	593.05
405.377	574.97
405.755	569.55
406.133	615.87
406.511	584.91
406.889	593.28
407.267	617.46
407.645	609.55
408.023	617.23
408.401	623.33
408.779	642.99
409.156	647.51
409.534	667.62
409.912	643.22
410.29	655.65
410.667	658.13
411.045	664.46
411.422	692.26
411.8	677.57
412.178	697.91
412.555	714.4
412.933	723.89
413.31	699.49
413.687	710.56
414.065	738.81
414.442	732.71
414.819	742.42
415.197	741.29
415.574	757.11
415.951	757.11
416.328	780.84
416.705	782.65
417.082	760.5
417.46	804.34
417.837	782.65
418.214	818.13
418.591	802.99
418.967	831.91
419.344	805.25
419.721	800.73
420.098	817
420.475	815.19
420.852	856.77
421.228	873.27
421.605	860.16
421.982	873.72
422.358	849.54
422.735	895.41
423.111	875.98
423.488	861.52
423.864	907.39
424.241	916.66
424.617	919.82
424.994	914.85
425.37	926.15
425.746	946.26
426.123	952.14
426.499	947.39
426.875	942.64
427.251	991.91
427.627	972.25
428.003	1001.4
428.379	1008.18
428.756	1051.57
429.132	1008.63
429.507	1026.94
429.883	1034.62
430.259	1066.26
430.635	1060.83
431.011	1068.29
431.387	1102.19
431.763	1113.26
432.138	1108.29
432.514	1138.35
432.89	1166.37
433.265	1167.5
433.641	1179.93
434.016	1187.84
434.392	1219.02
434.767	1236.42
435.143	1240.94
435.518	1224.22
435.894	1229.64
436.269	1263.09
436.644	1284.33
437.02	1282.3
437.395	1300.6
437.77	1275.52
438.145	1336.08
438.52	1347.83
438.895	1356.19
439.271	1365.46
439.646	1397.55
440.021	1394.61
440.395	1436.42
440.77	1383.76
441.145	1421.05
441.52	1416.76
441.895	1438.45
442.27	1449.98
442.645	1456.08
443.019	1485
443.394	1467.6
443.769	1477.55
444.143	1513.93
444.518	1517.09
444.892	1497.21
445.267	1516.41
445.641	1527.94
446.016	1531.78
446.39	1547.37
446.764	1561.61
447.139	1568.84
447.513	1580.82
447.887	1625.56
448.262	1611.1
448.636	1581.27
449.01	1619.01
449.384	1632.57
449.758	1649.74
450.132	1690.65
450.506	1706.01
450.88	1690.65
451.254	1706.92
451.628	1715.05
452.002	1747.37
452.376	1744.88
452.75	1767.71
453.123	1782.62
453.497	1818.78
453.871	1784.2
454.244	1841.83
454.618	1854.49
454.992	1891.55
455.365	1864.2
455.739	1902.17
456.112	1949.85
456.486	1962.96
456.859	1989.85
457.232	2018.55
457.606	2001.83
457.979	2033.01
458.352	2074.59
458.725	2108.04
459.099	2114.37
459.472	2125.44
459.845	2183.29
460.218	2192.56
460.591	2205.89
460.964	2216.96
461.337	2274.14
461.71	2309.16
462.083	2331.31
462.456	2328.82
462.829	2403.4
463.201	2434.81
463.574	2411.76
463.947	2457.86
464.32	2508.71
464.692	2512.55
465.065	2566.1
465.438	2597.29
465.81	2614.92
466.183	2677.97
466.555	2757.29
466.928	2766.78
467.3	2755.03
467.672	2772.43
468.045	2846.55
468.417	2855.81
468.789	2928.13
469.161	2951.86
469.534	3021.01
469.906	3091.06
470.278	3127.45
470.65	3143.26
471.022	3181
471.394	3274.79
471.766	3288.12
472.138	3385.74
472.51	3419.64
472.882	3506.65
473.253	3542.58
473.625	3619.18
473.997	3654.66
474.369	3698.5
474.74	3753.42
475.112	3870.03
475.484	3933.98
475.855	3976.01
476.227	4014.43
476.598	4143.92
476.97	4159.51
477.341	4280.86
477.713	4381.88
478.084	4397.24
478.455	4555.43
478.827	4621.42
479.198	4802.43
479.569	4785.26
479.94	4875.42
480.311	4981.86
480.682	5046.72
481.053	5238.35
481.424	5332.13
481.795	5347.27
482.166	5475.18
482.537	5559.92
482.908	5678.34
483.279	5757.66
483.65	5815.28
484.021	5957.88
484.391	6012.57
484.762	6128.72
485.133	6195.39
485.503	6318.1
485.874	6410.75
486.244	6455.27
486.615	6581.59
486.985	6743.17
487.356	6874.47
487.726	6912.88
488.097	7030.62
488.467	7085.76
488.837	7236.49
489.207	7302.7
489.578	7430.16
489.948	7498.4
490.318	7619.98
490.688	7643.94
491.058	7819.53
491.428	7931.39
491.798	7967.54
492.168	8112.85
492.538	8205.28
492.908	8242.11
493.278	8391.26
493.648	8424.03
494.017	8595.78
494.387	8631.93
494.757	8750.35
495.126	8864.92
495.496	8845.04
495.866	8945.6
496.235	9076.67
496.605	9117.57
496.974	9243.9
497.344	9288.64
497.713	9369.09
498.082	9449.77
498.452	9498.35
498.821	9571.57
499.19	9602.53
499.559	9740.15
499.928	9814.73
500.298	9850.43
500.667	9968.4
501.036	9986.25
501.405	10027.15
501.774	10142.85
502.143	10290.42
502.512	10315.28
502.88	10335.84
503.249	10448.61
503.618	10475.28
503.987	10531.55
504.356	10680.47
504.724	10629.62
505.093	10779.67
505.462	10903.96
505.83	10924.53
506.199	10978.76
506.567	11162.04
506.936	11177.86
507.304	11398.41
507.672	11425.98
508.041	11427.79
508.409	11573.1
508.777	11644.74
509.145	11701.01
509.514	11750.5
509.882	11887.89
510.25	12020.77
510.618	12023.71
510.986	12158.17
511.354	12183.03
511.722	12366.07
512.09	12432.96
512.458	12524.71
512.826	12648.78
513.193	12714.09
513.561	12787.08
513.929	12877.02
514.297	13049.22
514.664	13165.6
515.032	13196.11
515.4	13418.47
515.767	13363.11
516.135	13532.14
516.502	13466.84
516.869	13743.66
517.237	13730.78
517.604	13771.46
517.972	13897.33
518.339	14116.76
518.706	14135.29
519.073	14192.92
519.44	14320.37
519.808	14568.73
520.175	14529.18
520.542	14767.82
520.909	14913.58
521.276	14965.78
521.643	15042.84
522.009	15190.86
522.376	15367.35
522.743	15482.6
523.11	15608.93
523.477	15751.29
523.843	15805.98
524.21	15959.42
524.577	16125.97
524.943	16254.33
525.31	16379.3
525.676	16531.39
526.043	16605.06
526.409	16656.13
526.776	16862.68
527.142	17014.99
527.508	17016.57
527.874	17243.23
528.241	17382.89
528.607	17370.24
528.973	17638.25
529.339	17604.81
529.705	17785.82
530.071	17971.12
530.437	18075.08
530.803	18215.41
531.169	18301.74
531.535	18295.63
531.901	18394.16
532.267	18397.78
532.632	18598.68
532.998	18652.01
533.364	18854.04
533.73	18770.42
534.095	18995.5
534.461	19131.77
534.826	19170.41
535.192	19226.46
535.557	19429.16
535.923	19333.57
536.288	19445.66
536.653	19559.78
537.019	19613.79
537.384	19702.38
537.749	19841.81
538.114	19897.85
538.479	19923.16
538.845	20018.98
539.21	19974.23
539.575	20094.68
539.94	20292.87
540.305	20337.16
540.67	20337.61
541.034	20536.48
541.399	20652.18
541.764	20705.74
542.129	20656.02
542.494	20743.93
542.858	20969.24
543.223	20896.92
543.587	20979.18
543.952	20971.04
544.316	21073.19
544.681	21068.22
545.045	21290.58
545.41	21262.56
545.774	21548.66
546.138	21440.86
546.503	21477.92
546.867	21653.96
547.231	21811.25
547.595	21899.61
547.959	21902.55
548.324	21948.19
548.688	21989.55
549.052	22133.05
549.416	22207.17
549.779	22231.35
550.143	22281.07
550.507	22603.54
550.871	22657.33
551.235	22647.38
551.599	22858.68
551.962	22829.98
552.326	23040.14
552.689	23147.71
553.053	23196.07
553.417	23288.72
553.78	23634.48
554.143	23511.32
554.507	23663.63
554.87	23697.75
555.234	24040.57
555.597	24023.62
555.96	24271.75
556.323	24383.38
556.686	24398.75
557.05	24611.63
557.413	24604.4
557.776	24779.31
558.139	25074.67
558.502	25168.9
558.865	25217.94
559.228	25413.64
559.59	25569.12
559.953	25759.17
560.316	25984.7
560.679	26098.37
561.041	26361.64
561.404	26397.79
561.767	26638.24
562.129	26598.69
562.492	27010.89
562.854	27008.85
563.217	27186.93
563.579	27379.69
563.941	27539.91
564.304	27795.95
564.666	28019.45
565.028	27944.87
565.39	28219.22
565.753	28499.89
566.115	28513.67
566.477	28825.3
566.839	28971.96
567.201	29211.73
567.563	29390.94
567.925	29573.98
568.287	29515.68
568.648	29912.73
569.01	30069.56
569.372	30295.09
569.734	30201.31
570.095	30651.92
570.457	30846.72
570.819	31064.34
571.18	31181.62
571.542	31422.75
571.903	31663.64
572.265	31826.58
572.626	31892.11
572.987	32077.65
573.349	32203.07
573.71	32356.06
574.071	32631.53
574.432	32771.41
574.794	33132.31
575.155	33131.4
575.516	33164.4
575.877	33469.7
576.238	33544.5
576.599	33736.58
576.96	33877.15
577.32	34038.95
577.681	34105.84
578.042	34346.74
578.403	34476
578.763	34425.38
579.124	34675.54
579.485	34896.78
579.845	35117.57
580.206	34905.14
580.566	35278.24
580.927	35177.22
581.287	35368.41
581.648	35554.84
582.008	35620.38
582.368	35600.94
582.728	35802.52
583.089	35776.53
583.449	35868.05
583.809	35973.36
584.169	36039.57
584.529	35946.02
584.889	36404.54
585.249	36079.8
585.609	36179.68
585.969	36360.47
586.329	36314.37
586.688	36496.96
587.048	36430.75
587.408	36502.39
587.768	36563.18
588.127	36528.6
588.487	36557.53
588.846	36820.12
589.206	36625.32
589.565	36742.38
589.925	36946.44
590.284	36771.53
590.643	36969.27
591.003	37087.01
591.362	37197.06
591.721	37111.19
592.08	37063.28
592.44	37100.11
592.799	37145.08
593.158	37216.49
593.517	37199.32
593.876	37213.56
594.235	37208.81
594.593	37204.74
594.952	37249.26
595.311	37184.4
595.67	37322.48
596.029	37502.36
596.387	37572.64
596.746	37605.86
597.104	37480.89
597.463	37493.55
597.822	37684.96
598.18	37575.58
598.538	37545.98
598.897	37796.82
599.255	37455.81
599.613	37978.06
599.972	37803.37
600.33	37907.77
600.688	37781
601.046	37977.15
601.404	38009.47
601.762	37952.52
602.12	38123.59
602.478	38218.5
602.836	38266.86
603.194	37950.49
603.552	38089.46
603.91	38032.29
604.268	38143.47
604.625	38072.06
604.983	38209.24
605.341	38081.1
605.698	38368.55
606.056	38276.58
606.413	38407.42
606.771	38566.74
607.128	38492.39
607.485	38341.44
607.843	38443.35
608.2	38755.89
608.557	38649.68
608.914	38680.18
609.272	38888.31
609.629	38860.07
609.986	38920.86
610.343	38825.72
610.7	39058.03
611.057	38980.97
611.414	38885.83
611.771	39043.79
612.127	39128.76
612.484	39194.97
612.841	39293.05
613.198	39182.09
613.554	39253.05
613.911	39494.4
614.267	39295.99
614.624	39246.5
614.98	39312.48
615.337	39464.12
615.693	39418.02
616.05	39514.29
616.406	39648.97
616.762	39574.85
617.118	39427.51
617.475	39592.25
617.831	39684
618.187	39600.84
618.543	39721.29
618.899	39947.72
619.255	39833.83
619.611	39927.61
619.967	40029.98
620.323	39981.62
620.678	39933.48
621.034	39863.66
621.39	39862.07
621.746	39848.51
622.101	40185
622.457	39993.14
622.812	40054.61
623.168	40201.27
623.523	40129.18
623.879	40319.46
624.234	39961.73
624.589	40181.84
624.945	40224.78
625.3	40360.14
625.655	40067.72
626.01	40172.12
626.365	40178.45
626.72	40155.4
627.075	40006.7
627.43	40086.25
627.785	39985.23
628.14	39982.52
628.495	40026.81
628.85	39971.67
629.205	39906.82
629.559	40232.46
629.914	40002.41
630.269	39819.81
630.623	39926.48
630.978	39566.26
631.332	39978.91
631.687	39994.27
632.041	39810.32
632.396	39753.6
632.75	39679.93
633.104	39700.72
633.459	39556.54
633.813	39551.57
634.167	39425.7
634.521	39503.44
634.875	39689.2
635.229	39496.21
635.583	39396.1
635.937	39385.7
636.291	39337.34
636.645	39436.1
636.999	39185.93
637.352	39282.43
637.706	39086.73
638.06	39170.57
638.413	39039.27
638.767	38950.68
639.121	39117.91
639.474	38799.28
639.828	38904.58
640.181	38917.92
640.534	38778.71
640.888	38661.2
641.241	38585.5
641.594	38604.03
641.947	38853.74
642.301	38630.02
642.654	38655.78
643.007	38713.4
643.36	38631.37
643.713	38644.48
644.066	38600.64
644.419	38592.95
644.771	38265.51
645.124	37995.46
645.477	38083.36
645.83	37740.32
646.182	37532.87
646.535	37426.21
646.888	37581
647.24	37185.76
647.593	37442.48
647.945	37269.15
648.298	37106.44
648.65	37092.88
649.002	37032.77
649.355	37148.92
649.707	37128.81
650.059	37415.58
650.411	37834.56
650.763	37823.26
651.115	38188.22
651.467	38049.47
651.819	37857.61
652.171	38003.37
652.523	37933.54
652.875	37940.09
653.227	37772.18
653.578	38029.58
653.93	37940.32
654.282	37607.9
654.633	37676.82
654.985	37751.62
655.337	37793.65
655.688	37724.05
656.039	37790.72
656.391	37534
656.742	37717.72
657.094	37598.86
657.445	37812.41
657.796	37536.03
658.147	37566.77
658.498	37595.47
658.849	37836.36
659.2	37567.9
659.551	37532.87
659.902	37630.49
660.253	37555.24
660.604	37504.62
660.955	37404.28
661.306	37549.37
661.656	37454
662.007	37579.2
662.358	37285.42
662.708	37371.74
663.059	37442.93
663.409	37263.72
663.76	37446.77
664.11	37421.01
664.461	37452.87
664.811	37410.16
665.161	37284.74
665.511	37370.61
665.862	37248.13
666.212	37531.51
666.562	37516.37
666.912	37503.27
667.262	37546.2
667.612	37347.79
667.962	37383.27
668.312	37288.13
668.662	37423.72
669.011	37363.38
669.361	37376.94
669.711	37236.38
670.06	37188.47
670.41	37255.81
670.76	37100.56
671.109	37285.19
671.459	37080.9
671.808	37157.96
672.157	37269.15
672.507	36958.87
672.856	36988.93
673.205	36957.97
673.554	37066.21
673.904	36920
674.253	37071.19
674.602	36936.05
674.951	36434.82
675.3	36382.16
675.649	36802.27
675.998	36807.92
676.346	36924.07
676.695	36931.75
677.044	36654.47
677.393	36721.82
677.741	36663.29
678.09	36586.91
678.438	36619.22
678.787	36600.01
679.135	36471.2
679.484	36260.13
679.832	36518.88
680.181	36119.12
680.529	36401.6
680.877	36300.59
681.225	36186.69
681.573	36456.06
681.922	36055.17
682.27	35976.75
682.618	36105.34
682.966	35883.42
683.314	36072.57
683.661	35856.3
684.009	35632.35
684.357	35697.66
684.705	35714.39
685.053	35732.46
685.4	35625.12
685.748	35373.15
686.095	35447.5
686.443	35235.08
686.79	35151.91
687.138	35167.51
687.485	35223.55
687.832	35033.5
688.18	35124.34
688.527	34911.02
688.874	34957.34
689.221	34698.37
689.568	34674.64
689.915	34680.29
690.262	34484.81
690.609	34412.05
690.956	34306.74
691.303	34269.68
691.65	34103.58
691.997	34153.3
692.344	33855.23
692.69	34018.16
693.037	33940.42
693.383	33604.38
693.73	33911.04
694.077	33610.71
694.423	33513.77
694.769	33432.86
695.116	33303.6
695.462	33231.06
695.808	33059.99
696.155	33216.82
696.501	32914.91
696.847	32866.1
697.193	32597.41
697.539	32671.53
697.885	32378.88
698.231	32260.24
698.577	32228.83
698.923	32211.88
699.269	31981.6
699.614	31980.7
699.96	31838.1
700.306	31916.75
700.651	31670.88
700.997	31561.5
701.342	31551.56
701.688	31436.98
702.033	31278.34
702.379	31161.51
702.724	31178.91
703.069	31187.5
703.415	30772.82
703.76	30862.76
704.105	30967.39
704.45	30710
704.795	30570.57
705.14	30492.83
705.485	30607.85
705.83	30299.61
706.175	30419.16
706.52	30229.78
706.865	30118.6
707.209	30138.71
707.554	29890.58
707.899	30030.47
708.243	29842.9
708.588	29824.6
708.932	29606.3
709.277	29594.32
709.621	29614.21
709.966	29406.98
710.31	29512.74
710.654	29237.04
710.998	29324.72
711.342	29351.62
711.687	29204.5
712.031	29056.71
712.375	28929.48
712.719	29049.93
713.063	28946.88
713.407	28978.74
713.75	28796.83
714.094	28755.92
714.438	28629.83
714.782	28654.68
715.125	28609.94
715.469	28575.82
715.812	28402.04
716.156	28329.5
716.499	28322.04
716.843	28391.41
717.186	28159.33
717.53	28331.3
717.873	28229.38
718.216	28228.48
718.559	28137.86
718.902	28014.25
719.246	27973.35
719.589	28026.68
719.932	27885.67
720.275	27994.14
720.617	27778.55
720.96	27819.23
721.303	27754.14
721.646	27796.4
721.989	27760.92
722.331	27630.98
722.674	27758.66
723.016	27706.46
723.359	27613.13
723.701	27640.93
724.044	27440.25
724.386	27296.08
724.729	27568.16
725.071	27357.54
725.413	27341.27
725.755	27361.39
726.097	27332.91
726.439	27172.01
726.782	27140.6
727.124	27456.75
727.465	27134.72
727.807	27187.38
728.149	27078.45
728.491	27090.66
728.833	27096.53
729.175	27050.21
729.516	26986.25
729.858	27038
730.199	26963.88
730.541	26962.98
730.882	26885.69
731.224	27018.57
731.565	26884.56
731.906	26902.87
732.248	26833.04
732.589	26747.16
732.93	26760.72
733.271	26868.06
733.612	26863.09
733.953	26808.86
734.294	26735.64
734.635	26754.85
734.976	26712.59
735.317	26669.65
735.658	26621.97
735.999	26771.8
736.339	26629.65
736.68	26653.38
737.021	26557.34
737.361	26535.42
737.702	26542.88
738.042	26569.32
738.383	26554.17
738.723	26598.02
739.063	26430.56
739.404	26604.79
739.744	26465.82
740.084	26351.24
740.424	26427.4
740.764	26440.51
741.104	26467.17
741.444	26344.69
741.784	26327.29
742.124	26559.82
742.464	26481.86
742.804	26348.98
743.143	26262.2
743.483	26267.63
743.823	26196.9
744.162	26252.94
744.502	26263.33
744.841	26272.37
745.181	26275.54
745.52	26122.77
745.86	26283.22
746.199	26173.62
746.538	26166.39
746.877	26317.34
747.216	26112.38
747.556	26175.65
747.895	26252.49
748.234	26061.98
748.573	25979.05
748.911	26060.18
749.25	26037.35
749.589	25909.67
749.928	25981.76
750.267	26004.13
750.605	25877.36
750.944	25911.03
751.283	25854.31
751.621	25902.67
751.96	25808.66
752.298	25723.46
752.636	25683.69
752.975	25646.63
753.313	25567.53
753.651	25667.19
753.989	25433.53
754.327	25520.76
754.666	25349.46
755.004	25356.69
755.342	25498.16
755.679	25334.55
756.017	25346.97
756.355	25374.77
756.693	25287.09
757.031	25390.14
757.368	25272.63
757.706	25154.21
758.044	25146.53
758.381	25093.65
758.719	25011.39
759.056	24971.39
759.394	24886.2
759.731	24746.09
760.068	24721.68
760.405	24656.15
760.743	24576.83
761.08	24649.82
761.417	24541.35
761.754	24405.76
762.091	24438.07
762.428	24227.46
762.765	24113.56
763.102	24219.77
763.438	24092.09
763.775	24045.77
764.112	24033.56
764.449	24116.5
764.785	23944.53
765.122	23892.55
765.458	23784.53
765.795	23699.56
766.131	23546.8
766.467	23532.11
766.804	23397.65
767.14	23337.08
767.476	23360.36
767.812	23219.12
768.148	23321.94
768.485	22982.29
768.821	23021.16
769.157	22967.6
769.492	22884.44
769.828	22755.63
770.164	22633.6
770.5	22662.3
770.836	22621.85
771.171	22557.44
771.507	22492.81
771.842	22309.31
772.178	22298.92
772.513	22228.41
772.849	22164.01
773.184	22111.81
773.519	22051.24
773.855	22046.95
774.19	21776.9
774.525	21778.71
774.86	21816.22
775.195	21763.79
775.53	21596.34
775.865	21530.8
776.2	21386.85
776.535	21266.18
776.87	21118.16
777.205	21040.87
777.539	21026.18
777.874	21111.38
778.209	20838.62
778.543	20824.38
778.878	20689.47
779.212	20674.33
779.547	20637.95
779.881	20666.87
780.215	20496.25
780.55	20457.16
780.884	20338.74
781.218	20240.67
781.552	20275.47
781.886	20105.98
782.22	20028.02
782.554	19996.61
782.888	19835.48
783.222	19742.83
783.556	19640.01
783.889	19663.73
784.223	19513.46
784.557	19538.54
784.89	19567.24
785.224	19396.85
785.557	19257.42
785.891	19261.94
786.224	19220.81
786.558	19127.25
786.891	19015.16
787.224	19012.23
787.557	18906.47
787.891	19027.59
788.224	18899.23
788.557	18968.16
788.89	18775.4
789.223	18805.68
789.556	18529.75
789.888	18541.28
790.221	18489.53
790.554	18263.32
790.887	18241.62
791.219	18230.33
791.552	18248.63
791.884	18093.61
792.217	17994.63
792.549	17993.04
792.882	17848.87
793.214	17859.04
793.546	17821.97
793.879	17751.69
794.211	17585.82
794.543	17649.32
794.875	17559.83
795.207	17599.61
795.539	17534.75
795.871	17452.72
796.203	17291.14
796.535	17321.42
796.867	17287.07
797.198	17115.78
797.53	17177.47
797.862	17003.92
798.193	17112.62
798.525	16952.85
798.856	16919.4
799.188	16802.79
799.519	16793.3
799.85	16652.29
800.182	16707.88
800.513	16552.18
800.844	16465.17
801.175	16615.45
801.506	16537.94
801.837	16362.8
802.168	16371.62
802.499	16357.61
802.83	16273.99
803.161	16294.56
803.491	16245.52
803.822	16199.19
804.153	16122.58
804.483	15971.4
804.814	16021.34
805.145	15939.09
805.475	15937.05
805.805	15809.15
806.136	15935.24
806.466	15968.01
806.796	15727.79
807.126	15712.43
807.457	15624.29
807.787	15659.32
808.117	15560.57
808.447	15492.54
808.777	15458.2
809.107	15420.68
809.436	15401.25
809.766	15374.81
810.096	15292.78
810.426	15312.21
810.755	15157.86
811.085	15270.18
811.414	15098.88
811.744	15017.08
812.073	15044.65
812.403	15009.17
812.732	14920.58
813.061	15014.37
813.39	14826.35
813.719	14804.2
814.049	14982.95
814.378	14843.3
814.707	14816.86
815.036	14785.22
815.365	14686.01
815.693	14495.06
816.022	14583.42
816.351	14497.77
816.68	14462.74
817.008	14492.8
817.337	14370.99
817.665	14359.24
817.994	14298.23
818.322	14304.55
818.651	14198.34
818.979	14095.97
819.307	14237.21
819.636	14155.18
819.964	14035.41
820.292	14216.87
820.62	14105.01
820.948	14026.37
821.276	14114.5
821.604	14090.55
821.932	14065.01
822.259	14076.99
822.587	14140.04
822.915	13966.48
823.243	14021.85
823.57	14076.08
823.898	14067.05
824.225	14001.51
824.553	13986.6
824.88	14018.46
825.207	14066.59
825.535	14013.94
825.862	14060.49
826.189	13882.19
826.516	14023.43
826.843	13987.5
827.17	14027.05
827.497	14121.96
827.824	14043.32
828.151	14053.71
828.478	14037.22
828.805	14052.81
829.131	13991.57
829.458	13955.18
829.785	13951.34
830.111	14009.87
830.438	13967.39
830.764	14001.06
831.09	13972.13
831.417	13869.76
831.743	13977.33
832.069	13854.17
832.395	13884.68
832.722	13942.75
833.048	13839.48
833.374	13865.24
833.7	13830.89
834.026	13835.64
834.351	13880.84
834.677	13785.7
835.003	13871.34
835.329	13857.11
835.654	13834.74
835.98	13696.21
836.306	13754.29
836.631	13686.94
836.956	13689.65
837.282	13736.66
837.607	13659.6
837.932	13620.73
838.258	13599.71
838.583	13534.4
838.908	13433.39
839.233	13564.23
839.558	13500.51
839.883	13467.29
840.208	13455.08
840.533	13451.24
840.858	13384.58
841.182	13408.98
841.507	13376.44
841.832	13316.56
842.156	13303
842.481	13306.39
842.805	13291.92
843.13	13238.59
843.454	13258.93
843.778	13183.68
844.103	13107.52
844.427	13015.1
844.751	13098.03
845.075	12983.68
845.399	13021.42
845.723	12950.46
846.047	12863.91
846.371	12836.8
846.695	12815.33
847.019	12742.56
847.343	12780.75
847.666	12577.14
847.99	12600.64
848.313	12551.38
848.637	12443.13
848.96	12452.17
849.284	12452.62
849.607	12268.9
849.931	12290.37
850.254	12110.03
850.577	12123.37
850.9	12056.25
851.223	12104.84
851.546	12031.39
851.869	11942.81
852.192	12015.35
852.515	11924.5
852.838	11837.5
853.161	11839.53
853.483	11772.42
853.806	11697.16
854.129	11687.45
854.451	11637.96
854.774	11650.61
855.096	11576.49
855.419	11576.26
855.741	11550.05
856.063	11463.72
856.385	11400
856.708	11342.15
857.03	11421.01
857.352	11341.92
857.674	11313.9
857.996	11288.14
858.318	11186.67
858.64	11196.16
858.961	11161.13
859.283	11162.94
859.605	11128.37
859.926	11157.52
860.248	11023.74
860.57	11093.11
860.891	11072.32
861.212	10962.04
861.534	10900.57
861.855	10864.64
862.176	10926.34
862.498	10914.59
862.819	10806.57
863.14	10823.29
863.461	10767.02
863.782	10749.39
864.103	10760.01
864.424	10740.13
864.745	10761.37
865.065	10647.25
865.386	10677.3
865.707	10759.56
866.027	10661.26
866.348	10630.3
866.668	10621.94
866.989	10552.79
867.309	10551.88
867.63	10541.04
867.95	10510.53
868.27	10376.75
868.59	10476.41
868.91	10460.81
869.23	10525.67
869.55	10446.58
869.87	10379.91
870.19	10410.42
870.51	10385.33
870.83	10366.35
871.15	10356.18
871.469	10355.96
871.789	10393.47
872.109	10288.61
872.428	10229.18
872.748	10248.61
873.067	10273.47
873.386	10267.15
873.706	10227.6
874.025	10189.41
874.344	10188.28
874.663	10173.59
874.982	10149.86
875.301	10151.22
875.62	10085
875.939	10112.12
876.258	10078
876.577	9987.83
876.896	10091.33
877.214	10040.26
877.533	10043.2
877.852	9987.38
878.17	9970.2
878.489	9986.93
878.807	10012.24
879.125	9890.43
879.444	9966.36
879.762	9918.91
880.08	9935.63
880.398	9843.2
880.716	9820.83
881.034	9751.45
881.352	9795.97
881.67	9752.58
881.988	9795.97
882.306	9782.19
882.624	9723.43
882.941	9698.35
883.259	9681.4
883.577	9611.34
883.894	9591.91
884.212	9607.95
884.529	9609.76
884.846	9578.8
885.164	9523.66
885.481	9516.66
885.798	9524.11
886.115	9438.92
886.432	9486.37
886.75	9409.09
887.067	9469.43
887.383	9406.83
887.7	9397.56
888.017	9347.17
888.334	9375.19
888.651	9228.98
888.967	9313.72
889.284	9255.87
889.6	9209.32
889.917	9168.87
890.233	9162.54
890.55	9148.08
890.866	9137.01
891.182	9159.15
891.498	9069.21
891.815	9046.39
892.131	8971.59
892.447	9001.64
892.763	8941.08
893.079	8939.5
893.395	8892.27
893.71	8878.93
894.026	8894.75
894.342	8841.19
894.657	8853.62
894.973	8813.4
895.289	8739.05
895.604	8733.17
895.92	8684.36
896.235	8664.93
896.55	8638.49
896.865	8608.21
897.181	8535.44
897.496	8541.77
897.811	8511.49
898.126	8449.11
898.441	8431.04
898.756	8412.5
899.071	8376.57
899.386	8384.93
899.7	8305.61
900.015	8325.95
900.33	8232.4
900.644	8258.84
900.959	8265.39
901.273	8162.79
901.588	8091.38
901.902	8102.23
902.216	8095.9
902.531	8059.97
902.845	8067.2
903.159	8030.37
903.473	7995.34
903.787	7970.03
904.101	7876.93
904.415	7915.12
904.729	7878.96
905.042	7886.64
905.356	7871.73
905.67	7816.14
905.984	7756.25
906.297	7750.6
906.611	7668.57
906.924	7655.24
907.237	7645.07
907.551	7631.51
907.864	7629.02
908.177	7584.73
908.491	7562.81
908.804	7529.14
909.117	7494.79
909.43	7457.5
909.743	7433.1
910.056	7387.67
910.368	7374.11
910.681	7377.73
910.994	7316.94
911.307	7240.11
911.619	7148.81
911.932	7242.82
912.244	7180.67
912.557	7203.27
912.869	7128.47
913.181	7055.03
913.494	7005.99
913.806	7035.37
914.118	7024.52
914.43	6964.18
914.742	6981.36
915.054	6963.96
915.366	6846.22
915.678	6810.96
915.99	6814.58
916.302	6738.2
916.613	6764.64
916.925	6759.89
917.236	6700.91
917.548	6731.65
917.859	6681.93
918.171	6686
918.482	6621.82
918.794	6606.68
919.105	6587.47
919.416	6530.07
919.727	6496.85
920.038	6514.48
920.349	6392.67
920.66	6395.16
920.971	6401.71
921.282	6328.94
921.593	6320.36
921.903	6315.61
922.214	6272.22
922.525	6228.83
922.835	6231.77
923.146	6138.89
923.456	6234.03
923.767	6177.31
924.077	6223.18
924.387	6071.55
924.697	6054.15
925.008	6070.65
925.318	6033.58
925.628	6010.76
925.938	6046.24
926.248	5918.33
926.558	5921.04
926.867	5928.5
927.177	5848.28
927.487	5844.66
927.796	5810.54
928.106	5798.11
928.416	5730.54
928.725	5756.3
929.034	5709.3
929.344	5737.77
929.653	5672.24
929.962	5674.27
930.271	5654.16
930.581	5603.09
930.89	5574.61
931.199	5569.64
931.508	5502.75
931.817	5548.85
932.125	5483.09
932.434	5510.66
932.743	5464.11
933.051	5433.37
933.36	5445.35
933.669	5412.36
933.977	5347.95
934.286	5338.46
934.594	5319.03
934.902	5293.72
935.21	5209.43
935.519	5254.4
935.827	5203.1
936.135	5217.79
936.443	5193.83
936.751	5167.39
937.059	5142.31
937.367	5077.68
937.674	5110.9
937.982	5116.09
938.29	5047.85
938.597	5023.44
938.905	4973.5
939.213	4916.1
939.52	4971.69
939.827	4979.15
940.135	4921.07
940.442	4883.56
940.749	4900.51
941.056	4890.34
941.363	4819.38
941.67	4836.78
941.977	4825.71
942.284	4728.76
942.591	4797.23
942.898	4752.49
943.205	4709.33
943.511	4706.61
943.818	4646.5
944.125	4668.2
944.431	4632.94
944.738	4611.7
945.044	4598.59
945.35	4564.47
945.657	4555.43
945.963	4543.68
946.269	4499.84
946.575	4484.47
946.881	4440.86
947.187	4486.96
947.493	4376.68
947.799	4426.85
948.105	4376.23
948.41	4322.89
948.716	4404.25
949.022	4333.06
949.327	4360.18
949.633	4271.82
949.938	4269.11
950.244	4251.71
950.549	4244.48
950.854	4224.37
951.16	4256
951.465	4190.02
951.77	4140.75
952.075	4113.86
952.38	4134.65
952.685	4147.31
952.99	4072.51
953.294	4111.37
953.599	4017.14
953.904	4018.95
954.209	4051.04
954.513	4025.05
954.818	4011.94
955.122	4014.65
955.426	3946.86
955.731	3949.35
956.035	3917.71
956.339	3913.87
956.643	3892.85
956.948	3840.2
957.252	3889.69
957.556	3844.26
957.86	3822.34
958.163	3836.81
958.467	3780.54
958.771	3801.55
959.075	3778.5
959.378	3782.12
959.682	3739.18
959.985	3694.44
960.289	3690.6
960.592	3709.35
960.896	3693.08
961.199	3676.36
961.502	3626.64
961.805	3608.56
962.108	3601.11
962.411	3586.42
962.714	3572.41
963.017	3540.99
963.32	3545.51
963.623	3535.8
963.926	3506.87
964.228	3525.4
964.531	3496.02
964.833	3478.62
965.136	3476.36
965.438	3429.36
965.741	3411.73
966.043	3435.46
966.345	3389.59
966.648	3413.99
966.95	3406.53
967.252	3342.58
967.554	3373.77
967.856	3354.56
968.158	3290.15
968.46	3265.3
968.761	3303.94
969.063	3275.24
969.365	3285.63
969.666	3227.33
969.968	3238.4
970.269	3219.65
970.571	3201.79
970.872	3211.29
971.174	3178.97
971.475	3142.13
971.776	3166.99
972.077	3117.73
972.378	3130.61
972.679	3109.59
972.98	3066.43
973.281	3093.1
973.582	3094.45
973.883	3025.3
974.183	3035.7
974.484	3026.21
974.785	3000.44
975.085	2995.47
975.386	2993.66
975.686	2965.64
975.986	2964.29
976.287	2941.46
976.587	2912.99
976.887	2938.07
977.187	2882.25
977.487	2880.67
977.787	2861.69
978.087	2821.47
978.387	2812.88
978.687	2879.09
978.987	2856.04
979.286	2811.97
979.586	2809.04
979.885	2768.13
980.185	2775.14
980.484	2767.23
980.784	2785.31
981.083	2745.99
981.382	2722.03
981.682	2680.45
981.981	2703.05
982.28	2694.46
982.579	2653.33
982.878	2679.32
983.177	2667.57
983.475	2626.67
983.774	2637.06
984.073	2604.75
984.372	2574.24
984.67	2606.1
984.969	2586.9
985.267	2593
985.566	2550.96
985.864	2571.98
986.162	2548.03
986.461	2553.22
986.759	2503.51
987.057	2499.44
987.355	2500.57
987.653	2510.74
987.951	2475.71
988.249	2483.85
988.547	2478.42
988.844	2409.72
989.142	2416.05
989.44	2426.67
989.737	2407.24
990.035	2401.59
990.332	2392.78
990.63	2357.3
990.927	2369.95
991.224	2366.56
991.521	2325.89
991.819	2340.8
992.116	2319.33
992.413	2302.61
992.71	2260.8
993.006	2298.99
993.303	2314.59
993.6	2263.51
993.897	2249.5
994.193	2257.86
994.49	2266.23
994.787	2211.76
995.083	2217.87
995.379	2219.45
995.676	2187.81
995.972	2211.54
996.268	2142.39
996.565	2172.89
996.861	2174.25
997.157	2160.01
997.453	2129.05
997.749	2139.9
998.044	2095.38
998.34	2103.52
998.636	2080.02
998.932	2094.03
999.227	2070.75
999.523	2063.97
999.818	2059.23
1000.114	2042.73
1000.409	2041.6
1000.704	2019
1001	1993.01
1001.295	1995.5
1001.59	1991.43
1001.885	1968.83
1002.18	1944.2
1002.475	1927.93
1002.77	1946.23
1003.065	1923.41
1003.359	1917.31
1003.654	1906.24
1003.949	1891.32
1004.243	1881.83
1004.538	1871.43
1004.832	1849.06
1005.127	1878.44
1005.421	1858.78
1005.715	1826.92
1006.009	1836.86
1006.304	1822.62
1006.598	1806.8
1006.892	1825.56
1007.186	1806.8
1007.48	1765.67
1007.773	1751.66
1008.067	1761.61
1008.361	1719.35
1008.655	1736.97
1008.948	1733.36
1009.242	1718.22
1009.535	1711.89
1009.829	1694.04
1010.122	1715.28
1010.415	1682.96
1010.708	1670.08
1011.001	1671.21
1011.295	1654.72
1011.588	1667.82
1011.881	1603.42
1012.173	1632.8
1012.466	1595.28
1012.759	1594.83
1013.052	1587.37
1013.344	1602.06
1013.637	1594.38
1013.93	1531.56
1014.222	1575.62
1014.514	1561.39
1014.807	1581.5
1015.099	1533.14
1015.391	1518.22
1015.683	1535.85
1015.976	1528.62
1016.268	1525.23
1016.56	1474.83
1016.851	1502.18
1017.143	1483.2
1017.435	1456.76
1017.727	1453.14
1018.018	1452.91
1018.31	1418.11
1018.602	1425.12
1018.893	1394.38
1019.185	1392.35
1019.476	1398.9
1019.767	1391.45
1020.058	1414.5
1020.35	1374.05
1020.641	1370.43
1020.932	1397.77
1021.223	1341.96
1021.514	1336.31
1021.804	1311.67
1022.095	1317.78
1022.386	1312.8
1022.677	1308.51
1022.967	1258.12
1023.258	1261.96
1023.548	1296.53
1023.839	1285.23
1024.129	1282.75
1024.419	1257.66
1024.709	1240.26
1025	1266.7
1025.29	1237.1
1025.58	1243.2
1025.87	1230.09
1026.16	1210.43
1026.449	1204.33
1026.739	1205.24
1027.029	1191
1027.319	1190.77
1027.608	1193.03
1027.898	1153.49
1028.187	1143.54
1028.477	1159.36
1028.766	1142.87
1029.055	1121.17
1029.344	1157.33
1029.634	1144
1029.923	1120.95
1030.212	1113.04
1030.501	1101.74
1030.79	1123.43
1031.078	1087.95
1031.367	1078.01
1031.656	1064.9
1031.945	1050.89
1032.233	1087.73
1032.522	1073.26
1032.81	1041.17
1033.099	1029.87
1033.387	1056.99
1033.675	1055.64
1033.963	1028.52
1034.251	1000.95
1034.54	1004.79
1034.828	1030.55
1035.116	1002.98
1035.403	984.9
1035.691	967.73
1035.979	986.71
1036.267	965.02
1036.554	953.04
1036.842	964.57
1037.129	948.29
1037.417	953.72
1037.704	945.58
1037.992	911.69
1038.279	925.47
1038.566	911.69
1038.853	911.69
1039.14	911.69
