Data from tablewood_dark_bookshelf_FLMS001491_00070.txt Node
Date: Wed Feb 08 14:15:24 GMT 2017
User: dcchb
Spectrometer: FLMS00149
Trigger mode: 0
Integration Time (sec): 2.000000E-2
Scans to average: 10
Electric dark correction enabled: true
Nonlinearity correction enabled: false
Boxcar width: 0
XAxis mode: Wavelengths
Number of Pixels in Spectrum: 2048
>>>>>Begin Spectral Data<<<<<
341.393	-18.9
341.776	-18.9
342.16	-18.9
342.543	-56.86
342.927	-56.64
343.31	-78.78
343.693	-73.59
344.077	-53.47
344.46	-59.8
344.843	-31.78
345.226	-46.24
345.61	-15.73
345.993	-20.93
346.376	-7.15
346.759	25.62
347.142	-0.82
347.525	49.35
347.908	47.77
348.291	79.86
348.674	82.12
349.057	103.58
349.44	129.12
349.823	147.2
350.206	144.94
350.588	190.14
350.971	212.51
351.354	221.32
351.737	223.36
352.119	220.64
352.502	253.64
352.884	253.64
353.267	300.42
353.65	280.3
354.032	285.5
354.414	291.15
354.797	318.04
355.179	332.51
355.562	302.22
355.944	310.13
356.326	323.24
356.709	320.3
357.091	336.12
357.473	333.41
357.855	334.99
358.238	325.95
358.62	351.04
359.002	312.84
359.384	352.39
359.766	330.47
360.148	327.53
360.53	311.04
360.912	335.22
361.294	330.02
361.676	339.28
362.057	309.68
362.439	327.08
362.821	316.69
363.203	317.59
363.584	326.86
363.966	332.05
364.348	333.41
364.729	310.81
365.111	317.36
365.493	318.95
365.874	309.46
366.256	301.77
366.637	319.85
367.019	331.38
367.4	302
367.781	303.13
368.163	318.49
368.544	311.26
368.925	314.43
369.306	301.77
369.688	302.68
370.069	315.33
370.45	308.55
370.831	324.82
371.212	300.19
371.593	329.34
371.974	298.61
372.355	314.2
372.736	325.05
373.117	317.59
373.498	299.06
373.879	327.31
374.26	300.64
374.641	311.26
375.021	325.05
375.402	346.06
375.783	310.36
376.163	325.95
376.544	325.73
376.925	324.37
377.305	335.44
377.686	323.69
378.066	321.88
378.447	326.4
378.827	316.46
379.208	327.31
379.588	339.28
379.968	357.59
380.349	319.62
380.729	345.39
381.109	337.48
381.489	332.73
381.87	361.88
382.25	337.25
382.63	336.12
383.01	346.29
383.39	338.61
383.77	348.32
384.15	349
384.53	375.22
384.91	348.1
385.29	333.64
385.67	369.34
386.049	361.43
386.429	367.76
386.809	372.96
387.189	354.43
387.568	345.39
387.948	375.89
388.328	366.18
388.707	353.07
389.087	378.15
389.466	384.48
389.846	369.34
390.225	363.69
390.605	376.8
390.984	388.1
391.363	396.23
391.743	373.86
392.122	368.89
392.501	384.26
392.881	395.55
393.26	393.52
393.639	383.8
394.018	399.62
394.397	403.92
394.776	405.27
395.155	404.14
395.534	414.76
395.913	411.15
396.292	412.5
396.671	406.85
397.05	423.12
397.429	410.47
397.808	411.6
398.186	421.77
398.565	413.18
398.944	403.24
399.323	416.57
399.701	437.59
400.08	422.9
400.458	447.3
400.837	451.82
401.215	459.28
401.594	461.77
401.972	438.94
402.351	465.61
402.729	460.64
403.107	459.51
403.486	441.66
403.864	456.12
404.242	468.77
404.62	449.11
404.999	462.22
405.377	456.8
405.755	473.07
406.133	462.22
406.511	464.25
406.889	468.77
407.267	486.63
407.645	494.76
408.023	503.12
408.401	477.13
408.779	499.51
409.156	493.86
409.534	508.32
409.912	504.48
410.29	516.91
410.667	518.04
411.045	506.51
411.422	532.73
411.8	521.65
412.178	528.88
412.555	534.08
412.933	535.89
413.31	565.27
413.687	552.61
414.065	546.51
414.442	571.82
414.819	540.86
415.197	577.92
415.574	571.37
415.951	596.45
416.328	581.31
416.705	557.36
417.082	579.28
417.46	610.92
417.837	603.46
418.214	597.13
418.591	596.23
418.967	602.33
419.344	606.4
419.721	624.7
420.098	618.37
420.475	621.76
420.852	636
421.228	644.36
421.605	621.76
421.982	630.12
422.358	655.66
422.735	654.3
423.111	656.79
423.488	656.11
423.864	667.64
424.241	664.93
424.617	676.9
424.994	694.76
425.37	711.93
425.746	671.48
426.123	717.81
426.499	700.86
426.875	709.9
427.251	706.28
427.627	719.84
428.003	737.24
428.379	733.85
428.756	730.46
429.132	765.71
429.507	778.14
429.883	767.52
430.259	759.84
430.635	775.21
431.011	761.65
431.387	799.61
431.763	771.59
432.138	825.15
432.514	805.94
432.89	825.83
433.265	818.59
433.641	847.07
434.016	866.05
434.392	873.28
434.767	871.25
435.143	871.47
435.518	873.96
435.894	884.13
436.269	895.2
436.644	918.48
437.02	899.72
437.395	907.63
437.77	934.75
438.145	939.72
438.52	951.02
438.895	940.4
439.271	945.6
439.646	971.36
440.021	997.12
440.395	969.78
440.77	957.8
441.145	1013.84
441.52	1000.96
441.895	1002.09
442.27	1006.16
442.645	1008.87
443.019	1029.44
443.394	1030.11
443.769	1032.6
444.143	1046.16
444.518	1039.83
444.892	1042.54
445.267	1031.24
445.641	1086.38
446.016	1059.94
446.39	1070.11
446.764	1094.75
447.139	1091.81
447.513	1115.08
447.887	1083.45
448.262	1098.59
448.636	1124.35
449.01	1132.71
449.384	1114.63
449.758	1115.99
450.132	1131.81
450.506	1149.43
450.88	1153.73
451.254	1170.9
451.628	1186.95
452.002	1210.22
452.376	1200.51
452.75	1212.48
453.123	1242.54
453.497	1245.25
453.871	1224.46
454.244	1250
454.618	1253.39
454.992	1287.96
455.365	1264.01
455.739	1344.46
456.112	1329.77
456.486	1341.97
456.859	1348.07
457.232	1373.16
457.606	1357.11
457.979	1390.1
458.352	1376.77
458.725	1431.46
459.099	1419.03
459.472	1442.08
459.845	1478.01
460.218	1473.49
460.591	1499.48
460.964	1478.24
461.337	1509.42
461.71	1547.16
462.083	1611.12
462.456	1558.24
462.829	1585.58
463.201	1589.42
463.574	1638.91
463.947	1622.87
464.32	1672.58
464.692	1659.93
465.065	1673.26
465.438	1723.88
465.81	1705.58
466.183	1736.54
466.555	1783.99
466.928	1794.61
467.3	1768.17
467.672	1829.42
468.045	1853.6
468.417	1869.64
468.789	1869.41
469.161	1887.27
469.534	1936.08
469.906	1963.2
470.278	2001.84
470.65	2018.56
471.022	2059.69
471.394	2090.43
471.766	2067.6
472.138	2110.54
472.51	2136.07
472.882	2182.85
473.253	2199.57
473.625	2240.7
473.997	2249.97
474.369	2267.6
474.74	2324.09
475.112	2344.88
475.484	2385.11
475.855	2462.17
476.227	2464.88
476.598	2516.4
476.97	2502.39
477.341	2557.08
477.713	2602.5
478.084	2656.96
478.455	2700.35
478.827	2736.06
479.198	2769.96
479.569	2803.17
479.94	2856.73
480.311	2915.04
480.682	2947.8
481.053	3030.51
481.424	3061.25
481.795	3076.84
482.166	3143.73
482.537	3145.99
482.908	3237.29
483.279	3208.14
483.65	3300.34
484.021	3357.51
484.391	3411.29
484.762	3446.1
485.133	3453.1
485.503	3524.51
485.874	3607
486.244	3619.42
486.615	3723.38
486.985	3732.19
487.356	3798.4
487.726	3831.17
488.097	3903.26
488.467	3927.67
488.837	3986.42
489.207	4014.67
489.578	4049.92
489.948	4115.46
490.318	4204.04
490.688	4176.02
491.058	4249.92
491.428	4298.5
491.798	4331.5
492.168	4430.25
492.538	4462.57
492.908	4476.13
493.278	4569.68
493.648	4571.49
494.017	4599.74
494.387	4689.23
494.757	4669.34
495.126	4804.03
495.496	4758.83
495.866	4845.83
496.235	4856.68
496.605	4898.49
496.974	4922.67
497.344	4976.9
497.713	4989.11
498.082	5022.55
498.452	5080.18
498.821	5180.97
499.19	5183.9
499.559	5177.35
499.928	5234.3
500.298	5246.5
500.667	5352.71
501.036	5339.61
501.405	5366.05
501.774	5376.21
502.143	5445.14
502.512	5534.63
502.88	5524.23
503.249	5507.74
503.618	5542.54
503.987	5629.54
504.356	5690.1
504.724	5684.91
505.093	5725.58
505.462	5735.98
505.83	5784.57
506.199	5855.3
506.567	5903.88
506.936	5889.42
507.304	5961.06
507.672	6013.94
508.041	6058.23
508.409	6096.42
508.777	6153.14
509.145	6215.97
509.514	6201.28
509.882	6216.42
510.25	6275.85
510.618	6356.08
510.986	6303.42
511.354	6389.3
511.722	6452.57
512.09	6533.7
512.458	6526.69
512.826	6598.33
513.193	6644.2
513.561	6668.61
513.929	6732.34
514.297	6824.31
514.664	6850.3
515.032	6882.62
515.4	6849.17
515.767	6926.23
516.135	6997.19
516.502	6987.25
516.869	7113.12
517.237	7141.59
517.604	7147.02
517.972	7201.25
518.339	7242.61
518.706	7275.6
519.073	7323.51
519.44	7372.55
519.808	7469.94
520.175	7386.33
520.542	7584.52
520.909	7666.55
521.276	7703.61
521.643	7774.8
522.009	7790.84
522.376	7872.65
522.743	7903.15
523.11	7999.2
523.477	8064.05
523.843	8119.19
524.21	8145.63
524.577	8271.28
524.943	8243.71
525.31	8316.02
525.676	8357.15
526.043	8464.49
526.409	8545.62
526.776	8597.6
527.142	8654.55
527.508	8659.07
527.874	8767.76
528.241	8778.61
528.607	8790.81
528.973	8947.65
529.339	8928.66
529.705	9041.65
530.071	9136.57
530.437	9115.33
530.803	9130.69
531.169	9320.52
531.535	9307.18
531.901	9331.36
532.267	9377.92
532.632	9443.68
532.998	9470.34
533.364	9537.91
533.73	9582.21
534.095	9651.58
534.461	9647.29
534.826	9683.45
535.192	9699.04
535.557	9822.65
535.923	9843.22
536.288	9905.14
536.653	9933.61
537.019	9898.13
537.384	10016.09
537.749	10063.55
538.114	10119.14
538.479	10070.78
538.845	10193.72
539.21	10136.32
539.575	10210.21
539.94	10268.74
540.305	10341.06
540.67	10308.51
541.034	10363.88
541.399	10389.87
541.764	10427.61
542.129	10439.13
542.494	10495.18
542.858	10534.05
543.223	10542.18
543.587	10682.29
543.952	10731.33
544.316	10724.32
544.681	10636.42
545.045	10791.89
545.41	10875.05
545.774	10866.01
546.138	10879.8
546.503	10959.34
546.867	10941.27
547.231	10966.12
547.595	11034.6
547.959	11147.81
548.324	11106.23
548.688	11179.23
549.052	11119.57
549.416	11249.96
549.779	11273.69
550.143	11302.16
550.507	11369.73
550.871	11349.62
551.235	11365.21
551.599	11483.17
551.962	11499.22
552.326	11630.51
552.689	11645.2
553.053	11656.73
553.417	11639.33
553.78	11694.24
554.143	11698.08
554.507	11809.72
554.87	11924.97
555.234	12032.31
555.597	11975.14
555.96	11964.06
556.323	12061.24
556.686	12153.44
557.05	12246.77
557.413	12236.15
557.776	12220.33
558.139	12369.93
558.502	12449.02
558.865	12402.47
559.228	12557.27
559.59	12523.6
559.953	12562.92
560.316	12663.25
560.679	12711.84
561.041	12771.5
561.404	12869.12
561.767	12915.68
562.129	12950.48
562.492	13084.49
562.854	13040.87
563.217	13070.25
563.579	13208.78
563.941	13207.65
564.304	13352.5
564.666	13373.52
565.028	13522.22
565.39	13506.17
565.753	13601.54
566.115	13613.06
566.477	13712.72
566.839	13737.58
567.201	13880.62
567.563	13898.02
567.925	13942.32
568.287	14025.7
568.648	14035.2
569.01	14169.88
569.372	14214.63
569.734	14197.68
570.095	14297.11
570.457	14473.15
570.819	14514.96
571.18	14509.08
571.542	14605.8
571.903	14629.3
572.265	14692.81
572.626	14656.2
572.987	14834.5
573.349	14867.04
573.71	14935.51
574.071	14947.94
574.432	15034.72
574.794	15219.12
575.155	15158.56
575.516	15155.39
575.877	15262.06
576.238	15228.16
576.599	15279.01
576.96	15313.35
577.32	15456.4
577.681	15492.33
578.042	15454.37
578.403	15507.47
578.763	15596.51
579.124	15653.46
579.485	15745.43
579.845	15775.04
580.206	15724.19
580.566	15854.36
580.927	15946.78
581.287	15972.77
581.648	15919.21
582.008	16109.04
582.368	15997.4
582.728	16171.18
583.089	16099.1
583.449	16066.55
583.809	16071.98
584.169	16147
584.529	16149.94
584.889	16264.29
585.249	16241.01
585.609	16216.16
585.969	16354.01
586.329	16347.68
586.688	16331.18
587.048	16369.6
587.408	16327.57
587.768	16393.78
588.127	16378.19
588.487	16410.95
588.846	16584.06
589.206	16527.56
589.565	16528.69
589.925	16485.08
590.284	16477.17
590.643	16608.24
591.003	16600.33
591.362	16673.09
591.721	16703.15
592.08	16782.02
592.44	16720.32
592.799	16872.64
593.158	16853.88
593.517	16730.72
593.876	16875.8
594.235	16876.48
594.593	16857.27
594.952	16961.67
595.311	16929.58
595.67	16938.17
596.029	17083.03
596.387	17060.65
596.746	17103.36
597.104	16942.24
597.463	17065.62
597.822	17156.7
598.18	17101.33
598.538	17095.23
598.897	17198.28
599.255	17108.56
599.613	17383.13
599.972	17273.3
600.33	17306.52
600.688	17320.76
601.046	17372.28
601.404	17353.75
601.762	17466.29
602.12	17561.2
602.478	17601.88
602.836	17419.29
603.194	17459.29
603.552	17506.52
603.91	17425.39
604.268	17666.51
604.625	17494.54
604.983	17593.07
605.341	17541.77
605.698	17667.42
606.056	17648.43
606.413	17765.27
606.771	17867.64
607.128	17874.87
607.485	17751.03
607.843	17767.3
608.2	17908.77
608.557	17900.18
608.914	17867.64
609.272	17943.34
609.629	18016.33
609.986	18028.99
610.343	17929.1
610.7	18140.62
611.057	18120.51
611.414	18152.38
611.771	18096.56
612.127	18224.01
612.484	18211.81
612.841	18349.88
613.198	18212.04
613.554	18272.37
613.911	18395.31
614.267	18335.2
614.624	18301.98
614.98	18368.42
615.337	18442.76
615.693	18390.56
616.05	18440.73
616.406	18498.13
616.762	18497.23
617.118	18591.46
617.475	18451.13
617.831	18480.95
618.187	18579.26
618.543	18565.47
618.899	18666.94
619.255	18671.23
619.611	18664.23
619.967	18711.46
620.323	18774.51
620.678	18665.58
621.034	18846.37
621.39	18676.66
621.746	18710.33
622.101	18821.96
622.457	18738.35
622.812	18755.52
623.168	18729.99
623.523	18800.04
623.879	18913.03
624.234	18841.4
624.589	18807.27
624.945	18908.29
625.3	18785.58
625.655	18856.09
626.01	18813.6
626.365	18761.63
626.72	18931.34
627.075	18932.24
627.43	18819.25
627.785	18832.81
628.14	18823.77
628.495	18770.66
628.85	18836.43
629.205	18763.21
629.559	18823.54
629.914	18772.47
630.269	18753.72
630.623	18719.14
630.978	18758.24
631.332	18698.12
631.687	18774.96
632.041	18707.16
632.396	18816.31
632.75	18683.21
633.104	18624.45
633.459	18666.26
633.813	18649.76
634.167	18617
634.521	18610.44
634.875	18701.29
635.229	18551.24
635.583	18591.23
635.937	18555.53
636.291	18563.44
636.645	18429.43
636.999	18466.94
637.352	18494.06
637.706	18390.79
638.06	18457
638.413	18416.32
638.767	18351.92
639.121	18437.57
639.474	18327.51
639.828	18245.48
640.181	18336.55
640.534	18329.55
640.888	18237.8
641.241	18228.31
641.594	18280.73
641.947	18328.87
642.301	18227.18
642.654	18140.62
643.007	18165.26
643.36	18139.04
643.713	18144.47
644.066	18178.59
644.419	18096.33
644.771	18072.83
645.124	17930.69
645.477	17854.76
645.83	17683.69
646.182	17706.74
646.535	17629.45
646.888	17593.29
647.24	17509
647.593	17519.4
647.945	17534.31
648.298	17556.91
648.65	17529.57
649.002	17467.42
649.355	17498.83
649.707	17497.25
650.059	17469.68
650.411	17810.69
650.763	17699.51
651.115	17982.89
651.467	17920.29
651.819	17835.77
652.171	17931.14
652.523	17880.07
652.875	17847.07
653.227	17739.05
653.578	17868.54
653.93	17833.51
654.282	17730.92
654.633	17784.93
654.985	17686.63
655.337	17822.22
655.688	17670.81
656.039	17770.01
656.391	17744.93
656.742	17724.36
657.094	17726.4
657.445	17728.21
657.796	17772.27
658.147	17690.02
658.498	17706.96
658.849	17692.95
659.2	17736.34
659.551	17682.56
659.902	17753.52
660.253	17755.55
660.604	17774.08
660.955	17679.62
661.306	17752.61
661.656	17708.09
662.007	17633.07
662.358	17786.28
662.708	17664.71
663.059	17659.73
663.409	17589.45
663.76	17730.01
664.11	17657.02
664.461	17664.03
664.811	17690.24
665.161	17632.62
665.511	17619.96
665.862	17638.72
666.212	17749.67
666.562	17680.3
666.912	17626.97
667.262	17599.62
667.612	17631.71
667.962	17636.46
668.312	17628.32
668.662	17654.08
669.011	17713.74
669.361	17668.32
669.711	17631.26
670.06	17679.85
670.41	17597.36
670.76	17581.54
671.109	17654.99
671.459	17604.82
671.808	17542.22
672.157	17577.48
672.507	17453.19
672.856	17502
673.205	17487.76
673.554	17625.38
673.904	17464.48
674.253	17553.75
674.602	17518.27
674.951	17295
675.3	17258.16
675.649	17558.04
675.998	17443.02
676.346	17390.14
676.695	17545.39
677.044	17425.39
677.393	17392.4
677.741	17448.21
678.09	17422.45
678.438	17364.6
678.787	17462.22
679.135	17388.33
679.484	17356.92
679.832	17355.79
680.181	17292.51
680.529	17382.68
680.877	17325.96
681.225	17299.06
681.573	17422.45
681.922	17245.73
682.27	17123.7
682.618	17156.7
682.966	17187.88
683.314	17215.45
683.661	17141.55
684.009	17035.57
684.357	17038.73
684.705	17087.09
685.053	17062.23
685.4	16967.32
685.748	16956.25
686.095	16867.21
686.443	16816.82
686.79	16919.64
687.138	16893.65
687.485	16890.71
687.832	16739.08
688.18	16851.17
688.527	16799.64
688.874	16681
689.221	16731.85
689.568	16579.76
689.915	16635.58
690.262	16623.83
690.609	16621.12
690.956	16563.27
691.303	16568.01
691.65	16415.47
691.997	16402.82
692.344	16357.85
692.69	16287.57
693.037	16285.76
693.383	16133.67
693.73	16209.6
694.077	16080.11
694.423	16203.05
694.769	16131.41
695.116	16060
695.462	16045.54
695.808	15949.95
696.155	15974.58
696.501	15876.5
696.847	15887.58
697.193	15763.96
697.539	15825.43
697.885	15608.71
698.231	15721.48
698.577	15740.69
698.923	15549.28
699.269	15552.22
699.614	15488.94
699.96	15392.22
700.306	15461.37
700.651	15398.1
700.997	15313.58
701.342	15374.82
701.688	15262.06
702.033	15255.5
702.379	15290.53
702.724	15200.36
703.069	15251.89
703.415	15010.54
703.76	15125.11
704.105	15051.44
704.45	15075.39
704.795	15004.44
705.14	14885.57
705.485	14907.26
705.83	14850.32
706.175	14891.67
706.52	14781.39
706.865	14809.86
707.209	14784.33
707.554	14709.98
707.899	14698.46
708.243	14644.22
708.588	14581.4
708.932	14607.38
709.277	14574.16
709.621	14508.86
709.966	14441.96
710.31	14469.08
710.654	14399.71
710.998	14383.21
711.342	14366.94
711.687	14264.34
712.031	14346.6
712.375	14264.12
712.719	14332.82
713.063	14291.69
713.407	14353.61
713.75	14184.8
714.094	14176.21
714.438	14160.84
714.782	14154.97
715.125	14116.78
715.469	14197
715.812	13978.02
716.156	13877.01
716.499	13964.69
716.843	13982.09
717.186	13914.07
717.53	13870.91
717.873	13999.94
718.216	13871.13
718.559	13889.89
718.902	13815.31
719.246	13825.94
719.589	13810.34
719.932	13740.51
720.275	13727.86
720.617	13748.2
720.96	13725.37
721.303	13722.89
721.646	13721.98
721.989	13607.64
722.331	13728.99
722.674	13673.62
723.016	13648.99
723.359	13638.82
723.701	13689.89
724.044	13526.51
724.386	13512.95
724.729	13591.14
725.071	13475.21
725.413	13526.73
725.755	13489.45
726.097	13538.71
726.439	13452.16
726.782	13432.95
727.124	13437.47
727.465	13387.53
727.807	13395.44
728.149	13421.43
728.491	13343.24
728.833	13347.08
729.175	13269.34
729.516	13330.58
729.858	13208.55
730.199	13263.46
730.541	13338.72
730.882	13228.44
731.224	13255.33
731.565	13215.1
731.906	13215.33
732.248	13290.36
732.589	13192.73
732.93	13163.35
733.271	13221.43
733.612	13174.2
733.953	13175.33
734.294	13157.7
734.635	12999.52
734.976	13111.6
735.317	13101.21
735.658	13103.24
735.999	13164.94
736.339	13080.87
736.68	13140.76
737.021	13054.2
737.361	13037.71
737.702	13046.07
738.042	13023.47
738.383	13022.57
738.723	13037.48
739.063	13069.8
739.404	13013.08
739.744	13055.79
740.084	13012.4
740.424	12992.74
740.764	12944.15
741.104	12988.22
741.444	12931.5
741.784	12872.51
742.124	12903.93
742.464	12953.42
742.804	12920.87
743.143	12914.77
743.483	12872.06
743.823	12884.72
744.162	12816.02
744.502	12844.49
744.841	12857.37
745.181	12886.3
745.52	12843.14
745.86	12808.56
746.199	12753.65
746.538	12734.89
746.877	12740.54
747.216	12754.33
747.556	12735.57
747.895	12659.19
748.234	12632.07
748.573	12706.42
748.911	12667.1
749.25	12663.03
749.589	12629.13
749.928	12653.09
750.267	12667.77
750.605	12715.68
750.944	12604.5
751.283	12620.32
751.621	12652.18
751.96	12533.99
752.298	12452.86
752.636	12534.22
752.975	12546.2
753.313	12454.9
753.651	12498.06
753.989	12428.91
754.327	12380.55
754.666	12434.79
755.004	12409.02
755.342	12493.77
755.679	12423.94
756.017	12296.48
756.355	12324.05
756.693	12232.31
757.031	12228.01
757.368	12201.35
757.706	12234.11
758.044	12092.65
758.381	12104.85
758.719	12131.74
759.056	12151.4
759.394	12082.93
759.731	12017.62
760.068	12040.9
760.405	11905.76
760.743	11974.23
761.08	11937.4
761.417	11952.09
761.754	11867.12
762.091	11861.47
762.428	11842.03
762.765	11703.51
763.102	11753
763.438	11693.79
763.775	11546.67
764.112	11688.36
764.449	11608.14
764.785	11471.2
765.122	11446.11
765.458	11454.47
765.795	11397.07
766.131	11396.62
766.467	11394.14
766.804	11354.59
767.14	11262.84
767.476	11240.69
767.812	11211.99
768.148	11248.6
768.485	11119.34
768.821	11144.88
769.157	11044.31
769.492	11025.78
769.828	11035.5
770.164	10914.15
770.5	10962.06
770.836	10910.08
771.171	10883.41
771.507	10777.2
771.842	10742.63
772.178	10727.03
772.513	10737.43
772.849	10652.46
773.184	10633.48
773.519	10622.86
773.855	10589.86
774.19	10474.84
774.525	10491.11
774.86	10483.2
775.195	10421.73
775.53	10382.41
775.865	10375.18
776.2	10332.24
776.535	10200.04
776.87	10261.96
777.205	10175.18
777.539	10133.6
777.874	10136.32
778.209	10098.58
778.543	10010.22
778.878	10015.19
779.212	9995.98
779.547	9906.26
779.881	9998.47
780.215	9859.94
780.55	9806.83
780.884	9765.48
781.218	9770.45
781.552	9768.87
781.886	9669.66
782.22	9612.94
782.554	9652.03
782.888	9587.4
783.222	9478.71
783.556	9409.55
783.889	9438.25
784.223	9386.28
784.557	9399.84
784.89	9340.4
785.224	9284.81
785.557	9292.72
785.891	9265.83
786.224	9269.45
786.558	9221.99
786.891	9139.28
787.224	9152.84
787.557	9071.03
787.891	9102.67
788.224	9043.24
788.557	9080.52
788.89	8976.12
789.223	8976.57
789.556	8930.25
789.888	8862.9
790.221	8920.08
790.554	8840.08
790.887	8830.36
791.219	8767.76
791.552	8785.62
791.884	8697.03
792.217	8637.82
792.549	8668.56
792.882	8582.46
793.214	8586.07
793.546	8592.85
793.879	8605.28
794.211	8471.27
794.543	8536.36
794.875	8519.18
795.207	8464.95
795.539	8407.77
795.871	8335.68
796.203	8370.49
796.535	8322.35
796.867	8302.92
797.198	8243.71
797.53	8260.21
797.862	8226.08
798.193	8174.33
798.525	8186.08
798.856	8124.84
799.188	8066.77
799.519	8032.19
799.85	8058.63
800.182	8015.02
800.513	7974.34
800.844	7974.34
801.175	7975.69
801.506	7963.27
801.837	7930.72
802.168	7899.76
802.499	7848.92
802.83	7800.78
803.161	7808.69
803.491	7759.43
803.822	7774.34
804.153	7691.86
804.483	7722.14
804.814	7659.77
805.145	7685.31
805.475	7615.03
805.805	7573.67
806.136	7621.58
806.466	7548.81
806.796	7577.51
807.126	7548.13
807.457	7505.65
807.787	7439.89
808.117	7441.02
808.447	7333.68
808.777	7394.01
809.107	7418.87
809.436	7410.96
809.766	7344.52
810.096	7331.64
810.426	7279.67
810.755	7298.88
811.085	7245.32
811.414	7249.39
811.744	7187.92
812.073	7196.05
812.403	7205.09
812.732	7162.38
813.061	7119.67
813.39	7155.15
813.719	7112.89
814.049	7124.64
814.378	7094.36
814.707	7041.48
815.036	7028.83
815.365	6996.96
815.693	7043.29
816.022	6984.08
816.351	6893.91
816.68	6928.72
817.008	6914.93
817.337	6860.02
817.665	6879.23
817.994	6846.46
818.322	6870.86
818.651	6793.58
818.979	6760.81
819.307	6854.14
819.636	6774.14
819.964	6759
820.292	6766.46
820.62	6795.16
820.948	6724.2
821.276	6795.84
821.604	6775.73
821.932	6814.37
822.259	6774.6
822.587	6712.45
822.915	6691.43
823.243	6718.1
823.57	6742.51
823.898	6736.86
824.225	6687.82
824.553	6744.31
824.88	6699.34
825.207	6719.68
825.535	6685.56
825.862	6744.54
826.189	6657.31
826.516	6733.47
826.843	6771.88
827.17	6738.44
827.497	6754.71
827.824	6736.4
828.151	6739.34
828.478	6747.93
828.805	6750.64
829.131	6694.37
829.458	6729.85
829.785	6672.45
830.111	6697.31
830.438	6740.25
830.764	6687.14
831.09	6740.92
831.417	6639.46
831.743	6701.38
832.069	6718.55
832.395	6659.12
832.722	6702.28
833.048	6626.35
833.374	6666.12
833.7	6590.65
834.026	6572.79
834.351	6642.4
834.677	6595.62
835.003	6619.35
835.329	6680.59
835.654	6618.67
835.98	6606.24
836.306	6613.02
836.631	6596.97
836.956	6567.14
837.282	6575.51
837.607	6558.56
837.932	6475.62
838.258	6515.39
838.583	6467.26
838.908	6470.2
839.233	6490.08
839.558	6463.87
839.883	6488.95
840.208	6414.83
840.533	6466.13
840.858	6422.51
841.182	6423.64
841.507	6448.05
841.832	6422.06
842.156	6337.55
842.481	6346.36
842.805	6331.67
843.13	6299.58
843.454	6325.12
843.778	6341.61
844.103	6316.53
844.427	6238.56
844.751	6293.25
845.075	6276.3
845.399	6244.44
845.723	6200.15
846.047	6177.55
846.371	6157.21
846.695	6128.51
847.019	6091.9
847.343	6050.77
847.666	6053.26
847.99	6007.61
848.313	6016.88
848.637	5952.02
848.96	5971.91
849.284	5935.52
849.607	5930.78
849.931	5865.24
850.254	5823.21
850.577	5858.01
850.9	5821.85
851.223	5796.32
851.546	5772.81
851.869	5743.21
852.192	5777.11
852.515	5667.28
852.838	5742.76
853.161	5698.69
853.483	5688.07
853.806	5658.02
854.129	5655.76
854.451	5617.34
854.774	5613.72
855.096	5582.08
855.419	5569.2
855.741	5573.27
856.063	5508.19
856.385	5531.24
856.708	5541.18
857.03	5505.48
857.352	5544.57
857.674	5482.43
857.996	5473.39
858.318	5415.76
858.64	5420.73
858.961	5401.98
859.283	5366.95
859.605	5295.09
859.926	5356.78
860.248	5316.78
860.57	5345.48
860.891	5323.11
861.212	5294.86
861.534	5306.39
861.855	5302.54
862.176	5241.98
862.498	5291.47
862.819	5268.42
863.14	5270.68
863.461	5242.88
863.782	5197.24
864.103	5245.14
864.424	5230.91
864.745	5215.77
865.065	5179.16
865.386	5144.36
865.707	5199.27
866.027	5204.92
866.348	5166.5
866.668	5145.26
866.989	5161.08
867.309	5185.03
867.63	5069.1
867.95	5108.43
868.27	5077.69
868.59	5127.86
868.91	5081.76
869.23	5034.98
869.55	5077.01
869.87	5146.84
870.19	5087.18
870.51	5011.25
870.83	5071.36
871.15	5029.78
871.469	5013.06
871.789	5061.19
872.109	5033.17
872.428	5003.57
872.748	5010.35
873.067	4996.56
873.386	4974.87
873.706	4993.17
874.025	4981.2
874.344	4969.9
874.663	4963.34
874.982	4957.92
875.301	4941.65
875.62	4968.99
875.939	4935.1
876.258	4890.13
876.577	4912.27
876.896	4916.11
877.214	4909.56
877.533	4898.71
877.852	4905.72
878.17	4890.8
878.489	4883.12
878.807	4839.96
879.125	4886.96
879.444	4851.48
879.762	4830.47
880.08	4895.32
880.398	4841.77
880.716	4868.21
881.034	4809.45
881.352	4805.38
881.67	4799.96
881.988	4792.05
882.306	4830.01
882.624	4773.07
882.941	4756.8
883.259	4746.17
883.577	4761.77
883.894	4734.88
884.212	4745.27
884.529	4722.22
884.846	4732.62
885.164	4708.44
885.481	4695.78
885.798	4677.7
886.115	4689
886.432	4715.89
886.75	4650.81
887.067	4647.42
887.383	4597.7
887.7	4609.91
888.017	4607.42
888.334	4631.15
888.651	4570.81
888.967	4561.09
889.284	4568.78
889.6	4574.2
889.917	4544.15
890.233	4514.09
890.55	4530.59
890.866	4541.21
891.182	4534.2
891.498	4500.98
891.815	4447.43
892.131	4484.26
892.447	4488.78
892.763	4424.15
893.079	4408.1
893.395	4430.48
893.71	4399.29
894.026	4385.05
894.342	4365.39
894.657	4341.89
894.973	4367.65
895.289	4329.91
895.604	4371.72
895.92	4315.68
896.235	4320.88
896.55	4327.43
896.865	4302.12
897.181	4276.13
897.496	4291.27
897.811	4296.69
898.126	4273.19
898.441	4284.94
898.756	4219.86
899.071	4200.43
899.386	4194.78
899.7	4143.48
900.015	4132.18
900.33	4111.16
900.644	4111.16
900.959	4106.64
901.273	4074.55
901.588	4051.5
901.902	4079.3
902.216	4063.48
902.531	4035.68
902.845	4030.71
903.159	4028.91
903.473	3982.8
903.787	4018.06
904.101	3972.86
904.415	3933.09
904.729	3965.18
905.042	3929.7
905.356	3932.64
905.67	3935.35
905.984	3941.68
906.297	3924.28
906.611	3889.7
906.924	3876.59
907.237	3877.95
907.551	3841.11
907.864	3861.45
908.177	3831.4
908.491	3863.94
908.804	3839.31
909.117	3767.44
909.43	3817.84
909.743	3783.26
910.056	3772.41
910.368	3698.97
910.681	3730.61
910.994	3698.07
911.307	3717.05
911.619	3669.59
911.932	3663.04
912.244	3623.49
912.557	3648.8
912.869	3636.83
913.181	3642.7
913.494	3619.88
913.806	3609.93
914.118	3572.19
914.43	3561.35
914.742	3565.87
915.054	3571.52
915.366	3534.68
915.678	3507.79
915.99	3502.14
916.302	3513.21
916.613	3511.86
916.925	3439.99
917.236	3449.49
917.548	3442.03
917.859	3447
918.171	3438.19
918.482	3406.55
918.794	3390.5
919.105	3436.83
919.416	3397.96
919.727	3336.04
920.038	3352.09
920.349	3327.91
920.66	3323.61
920.971	3336.49
921.282	3348.02
921.593	3271.19
921.903	3259.43
922.214	3260.11
922.525	3257.63
922.835	3206.1
923.146	3258.08
923.456	3212.2
923.767	3167.69
924.077	3214.46
924.387	3210.17
924.697	3153.22
925.008	3152.54
925.318	3132.43
925.628	3114.13
925.938	3123.62
926.248	3059.44
926.558	3085.88
926.867	3108.93
927.177	3059.44
927.487	3058.31
927.796	3033.9
928.106	3028.48
928.416	3024.19
928.725	3056.95
929.034	3038.42
929.344	3025.99
929.653	2962.72
929.962	2970.18
930.271	2945.77
930.581	2956.84
930.89	2925.43
931.199	2901.48
931.508	2912.55
931.817	2922.04
932.125	2928.37
932.434	2909.16
932.743	2853.34
933.051	2870.74
933.36	2859.44
933.669	2825.55
933.977	2831.65
934.286	2822.16
934.594	2787.36
934.902	2764.98
935.21	2778.54
935.519	2781.48
935.827	2759.79
936.135	2780.12
936.443	2752.78
936.751	2753.91
937.059	2769.96
937.367	2743.06
937.674	2729.05
937.982	2709.62
938.29	2701.93
938.597	2698.54
938.905	2680.47
939.213	2683.63
939.52	2674.36
939.827	2666.46
940.135	2640.92
940.442	2649.73
940.749	2622.61
941.056	2634.82
941.363	2573.8
941.67	2579.68
941.977	2583.75
942.284	2592.11
942.591	2560.7
942.898	2528.61
943.205	2540.36
943.511	2547.36
943.818	2494.71
944.125	2469.85
944.431	2482.28
944.738	2495.61
945.044	2478.21
945.35	2466.69
945.657	2459.91
945.963	2475.27
946.269	2443.64
946.575	2439.34
946.881	2441.38
947.187	2452.68
947.493	2416.29
947.799	2433.24
948.105	2423.07
948.41	2398.67
948.716	2397.31
949.022	2348.27
949.327	2324.54
949.633	2349.4
949.938	2359.57
950.244	2328.39
950.549	2335.39
950.854	2320.48
951.16	2265.79
951.465	2282.96
951.77	2264.21
952.075	2280.48
952.38	2275.28
952.685	2265.11
952.99	2252.23
953.294	2251.1
953.599	2252.23
953.904	2226.47
954.209	2243.64
954.513	2192.57
954.818	2222.63
955.122	2206.58
955.426	2193.25
955.731	2171.1
956.035	2176.75
956.339	2156.41
956.643	2169.97
956.948	2127.71
957.252	2190.76
957.556	2120.03
957.86	2115.06
958.163	2111.67
958.467	2130.88
958.771	2113.7
959.075	2125.23
959.378	2088.17
959.682	2086.13
959.985	2083.87
960.289	2049.52
960.592	2026.7
960.896	2049.97
961.199	2053.82
961.502	2009.75
961.805	2042.06
962.108	2000.71
962.411	1993.25
962.714	1989.64
963.017	2010.65
963.32	1991.67
963.623	1990.77
963.926	1985.57
964.228	1989.41
964.531	1974.72
964.833	1957.1
965.136	1940.37
965.438	1912.8
965.741	1912.35
966.043	1918
966.345	1900.6
966.648	1876.87
966.95	1931.11
967.252	1892.69
967.554	1883.88
967.856	1871.9
968.158	1841.62
968.46	1851.56
968.761	1875.52
969.063	1892.24
969.365	1832.35
969.666	1870.32
969.968	1831.68
970.269	1849.75
970.571	1847.04
970.872	1823.77
971.174	1842.52
971.475	1809.3
971.776	1789.19
972.077	1769.08
972.378	1800.72
972.679	1781.96
972.98	1765.91
973.281	1777.89
973.582	1760.04
973.883	1778.34
974.183	1725.46
974.484	1740.15
974.785	1736.54
975.085	1701.51
975.386	1711.23
975.686	1714.39
975.986	1701.06
976.287	1707.84
976.587	1698.12
976.887	1704.67
977.187	1688.85
977.487	1702.86
977.787	1660.15
978.087	1687.05
978.387	1672.58
978.687	1678.91
978.987	1668.74
979.286	1641.17
979.586	1629.87
979.885	1626.03
980.185	1642.75
980.484	1630.55
980.784	1578.8
981.083	1600.49
981.382	1610.66
981.682	1599.14
981.981	1597.78
982.28	1584.68
982.579	1583.32
982.878	1584.9
983.177	1568.41
983.475	1535.86
983.774	1545.35
984.073	1527.05
984.372	1513.49
984.67	1538.12
984.969	1512.36
985.267	1515.75
985.566	1522.98
985.864	1517.11
986.162	1474.17
986.461	1517.56
986.759	1498.58
987.057	1480.95
987.355	1466.94
987.653	1475.07
987.951	1479.82
988.249	1458.58
988.547	1463.1
988.844	1454.28
989.142	1452.25
989.44	1467.39
989.737	1443.21
990.035	1436.43
990.332	1415.41
990.63	1426.26
990.927	1412.25
991.224	1406.6
991.521	1409.99
991.819	1422.87
992.116	1387.39
992.413	1387.39
992.71	1392.14
993.006	1369.54
993.303	1362.76
993.6	1371.35
993.897	1354.63
994.193	1338.81
994.49	1353.5
994.787	1326.38
995.083	1359.82
995.379	1340.84
995.676	1333.83
995.972	1324.57
996.268	1319.6
996.565	1276.44
996.861	1304.91
997.157	1337.68
997.453	1290.67
997.749	1285.7
998.044	1299.49
998.34	1273.5
998.636	1277.57
998.932	1292.71
999.227	1287.28
999.523	1274.4
999.818	1274.85
1000.114	1247.51
1000.409	1230.79
1000.704	1244.8
1001	1233.27
1001.295	1246.38
1001.59	1224.69
1001.885	1248.41
1002.18	1212.93
1002.475	1204.12
1002.77	1203.22
1003.065	1168.42
1003.359	1192.6
1003.654	1167.06
1003.949	1161.41
1004.243	1135.2
1004.538	1163.22
1004.832	1190.56
1005.127	1179.71
1005.421	1155.76
1005.715	1134.74
1006.009	1135.87
1006.304	1142.88
1006.598	1131.35
1006.892	1137
1007.186	1126.61
1007.48	1122.99
1007.773	1110.79
1008.067	1099.49
1008.361	1108.53
1008.655	1071.24
1008.948	1040.28
1009.242	1077.12
1009.535	1065.14
1009.829	1076.44
1010.122	1063.11
1010.415	1042.09
1010.708	1071.24
1011.001	1065.59
1011.295	1017.23
1011.588	1047.97
1011.881	1057.01
1012.173	1038.93
1012.466	1044.13
1012.759	1009.1
1013.052	1026.27
1013.344	1025.82
1013.637	1010.68
1013.93	1002.32
1014.222	998.93
1014.514	971.81
1014.807	984.01
1015.099	969.78
1015.391	982.66
1015.683	989.66
1015.976	968.87
1016.268	951.47
1016.56	952.38
1016.851	936.56
1017.143	930
1017.435	931.81
1017.727	932.94
1018.018	930.91
1018.31	919.83
1018.602	920.29
1018.893	918.7
1019.185	925.71
1019.476	911.7
1019.767	910.57
1020.058	909.67
1020.35	900.4
1020.641	900.17
1020.932	895.43
1021.223	876.22
1021.514	886.62
1021.804	882.32
1022.095	862.66
1022.386	829.44
1022.677	842.1
1022.967	863.11
1023.258	833.28
1023.548	866.28
1023.839	828.31
1024.129	823.11
1024.419	827.63
1024.709	843.68
1025	835.32
1025.29	827.18
1025.58	832.15
1025.87	822.21
1026.16	804.58
1026.449	814.75
1026.739	786.5
1027.029	779.27
1027.319	779.95
1027.608	792.61
1027.898	788.76
1028.187	768.43
1028.477	814.98
1028.766	778.6
1029.055	775.21
1029.344	772.49
1029.634	758.26
1029.923	769.1
1030.212	755.77
1030.501	749.67
1030.79	730.69
1031.078	738.14
1031.367	732.72
1031.656	733.17
1031.945	729.78
1032.233	718.71
1032.522	730.46
1032.81	710.8
1033.099	719.16
1033.387	690.24
1033.675	681.2
1033.963	696.79
1034.251	723.68
1034.54	700.41
1034.828	705.83
1035.116	680.97
1035.403	691.14
1035.691	685.26
1035.979	682.55
1036.267	682.33
1036.554	668.09
1036.842	683.91
1037.129	664.02
1037.417	682.55
1037.704	644.81
1037.992	651.14
1038.279	648.88
1038.566	651.82
1038.853	651.82
1039.14	651.82
