Data from tablewood_brown_FLMS001491_055.txt Node
Date: Tue Feb 07 11:10:42 GMT 2017
User: dcchb
Spectrometer: FLMS00149
Trigger mode: 0
Integration Time (sec): 2.000000E-2
Scans to average: 10
Electric dark correction enabled: true
Nonlinearity correction enabled: false
Boxcar width: 0
XAxis mode: Wavelengths
Number of Pixels in Spectrum: 2048
>>>>>Begin Spectral Data<<<<<
341.393	-18.74
341.776	-18.74
342.16	-18.74
342.543	-46.09
342.927	-56.03
343.31	-80.44
343.693	-75.69
344.077	-55.58
344.46	-56.48
344.843	-68.01
345.226	-19.87
345.61	-28.69
345.993	-14
346.376	2.95
346.759	23.52
347.142	14.03
347.525	42.05
347.908	50.41
348.291	84.08
348.674	81.14
349.057	100.58
349.44	134.02
349.823	142.84
350.206	153.46
350.588	209.73
350.971	226.67
351.354	231.42
351.737	249.73
352.119	248.82
352.502	270.29
352.884	278.42
353.267	273.45
353.65	300.12
354.032	317.97
354.414	305.32
354.797	337.86
355.179	332.43
355.562	325.88
355.944	354.13
356.326	353.23
356.709	351.64
357.091	354.13
357.473	351.19
357.855	341.93
358.238	362.72
358.62	337.18
359.002	347.8
359.384	354.58
359.766	355.94
360.148	331.98
360.53	365.65
360.912	342.6
361.294	354.13
361.676	325.66
362.057	359.78
362.439	348.25
362.821	344.19
363.203	338.31
363.584	337.18
363.966	357.74
364.348	329.05
364.729	333.11
365.111	329.05
365.493	343.06
365.874	327.46
366.256	341.02
366.637	328.59
367.019	325.88
367.4	345.32
367.781	343.51
368.163	347.35
368.544	329.05
368.925	331.08
369.306	347.35
369.688	325.43
370.069	331.98
370.45	333.11
370.831	353.9
371.212	337.63
371.593	330.17
371.974	318.42
372.355	353.9
372.736	339.67
373.117	339.44
373.498	338.76
373.879	338.08
374.26	328.82
374.641	378.99
375.021	315.03
375.402	360
375.783	337.86
376.163	355.71
376.544	365.43
376.925	362.94
377.305	352.77
377.686	371.98
378.066	364.3
378.447	352.1
378.827	364.52
379.208	362.94
379.588	376.73
379.968	368.14
380.349	355.49
380.729	373.79
381.109	387.35
381.489	371.76
381.87	383.96
382.25	374.92
382.63	393.45
383.01	377.86
383.39	383.28
383.77	374.24
384.15	390.51
384.53	392.77
384.91	386.44
385.29	416.5
385.67	391.19
386.049	417.4
386.429	411.3
386.809	425.99
387.189	403.85
387.568	404.98
387.948	411.08
388.328	423.51
388.707	423.28
389.087	417.4
389.466	445.43
389.846	421.7
390.225	425.09
390.605	432.77
390.984	442.49
391.363	433.22
391.743	422.38
392.122	447.69
392.501	455.6
392.881	462.37
393.26	461.92
393.639	456.27
394.018	492.43
394.397	479.78
394.776	468.02
395.155	474.58
395.534	484.97
395.913	480
396.292	505.31
396.671	503.28
397.05	498.31
397.429	505.76
397.808	496.95
398.186	517.74
398.565	518.42
398.944	507.12
399.323	524.29
399.701	514.8
400.08	519.32
400.458	538.08
400.837	526.33
401.215	544.41
401.594	533.11
401.972	548.93
402.351	537.18
402.729	557.51
403.107	547.8
403.486	573.33
403.864	567.91
404.242	571.07
404.62	585.76
404.999	574.69
405.377	590.96
405.755	579.89
406.133	594.8
406.511	625.08
406.889	603.84
407.267	623.5
407.645	626.21
408.023	646.78
408.401	625.53
408.779	619.88
409.156	648.36
409.534	633.9
409.912	650.84
410.29	674.35
410.667	674.35
411.045	668.02
411.422	686.32
411.8	710.5
412.178	723.16
412.555	712.09
412.933	698.07
413.31	742.59
413.687	717.74
414.065	719.09
414.442	753.67
414.819	740.56
415.197	760.67
415.574	756.83
415.951	757.28
416.328	780.56
416.705	766.77
417.082	770.16
417.46	774.46
417.837	800.22
418.214	793.44
418.591	805.19
418.967	804.74
419.344	830.27
419.721	821.46
420.098	818.52
420.475	830.73
420.852	823.95
421.228	836.83
421.605	851.52
421.982	871.18
422.358	873.44
422.735	880.22
423.111	868.92
423.488	909.37
423.864	894.45
424.241	932.87
424.617	904.85
424.994	909.37
425.37	909.14
425.746	916.83
426.123	942.81
426.499	941.68
426.875	947.33
427.251	983.94
427.627	974.68
428.003	1002.93
428.379	1018.52
428.756	1006.54
429.132	1028.46
429.507	1053.77
429.883	1067.1
430.259	1080.44
430.635	1058.52
431.011	1065.97
431.387	1117.27
431.763	1118.4
432.138	1125.63
432.514	1166.76
432.89	1129.48
433.265	1157.5
433.641	1164.5
434.016	1195.69
434.392	1193.2
434.767	1212.19
435.143	1228.23
435.518	1241.56
435.894	1247.89
436.269	1233.88
436.644	1274.78
437.02	1279.75
437.395	1293.31
437.77	1302.13
438.145	1312.07
438.52	1335.12
438.895	1367.44
439.271	1346.65
439.646	1400.88
440.021	1406.76
440.395	1398.4
440.77	1384.61
441.145	1437.94
441.52	1456.02
441.895	1444.5
442.27	1463.25
442.645	1472.97
443.019	1469.58
443.394	1484.27
443.769	1499.18
444.143	1469.35
444.518	1538.73
444.892	1499.86
445.267	1509.35
445.641	1528.34
446.016	1511.16
446.39	1557.26
446.764	1585.28
447.139	1575.34
447.513	1622.8
447.887	1591.61
448.262	1613.98
448.636	1617.37
449.01	1623.47
449.384	1632.97
449.758	1638.62
450.132	1667.09
450.506	1682.68
450.88	1698.73
451.254	1703.7
451.628	1723.58
452.002	1743.7
452.376	1764.26
452.75	1766.07
453.123	1761.1
453.497	1812.17
453.871	1804.71
454.244	1891.04
454.618	1838.16
454.992	1889.68
455.365	1888.33
455.739	1930.36
456.112	1942.56
456.486	1988.44
456.859	1984.14
457.232	2045.38
457.606	2023.01
457.979	2056.01
458.352	2097.81
458.725	2107.98
459.099	2126.06
459.472	2141.43
459.845	2170.13
460.218	2185.95
460.591	2206.06
460.964	2269.33
461.337	2281.31
461.71	2331.25
462.083	2375.77
462.456	2381.65
462.829	2369.44
463.201	2396.34
463.574	2443.34
463.947	2486.73
464.32	2512.49
464.692	2551.59
465.065	2541.87
465.438	2575.99
465.81	2628.42
466.183	2675.65
466.555	2708.64
466.928	2736.67
467.3	2755.65
467.672	2776.66
468.045	2841.3
468.417	2895.08
468.789	2929.2
469.161	2974.63
469.534	2990.67
469.906	3055.3
470.278	3114.28
470.65	3166.03
471.022	3208.29
471.394	3281.51
471.766	3314.96
472.138	3368.74
472.51	3472.92
472.882	3502.07
473.253	3513.14
473.625	3645.34
473.997	3667.71
474.369	3675.4
474.74	3754.72
475.112	3830.2
475.484	3867.03
475.855	3991.1
476.227	4010.53
476.598	4165.55
476.97	4190.86
477.341	4280.13
477.713	4377.53
478.084	4436.06
478.455	4551.76
478.827	4601.48
479.198	4744.97
479.569	4760.57
479.94	4923.05
480.311	4927.79
480.682	5105.19
481.053	5222.48
481.424	5310.83
481.795	5368.69
482.166	5437.39
482.537	5545.18
482.908	5632.41
483.279	5704.95
483.65	5846.64
484.021	5999.86
484.391	6044.15
484.762	6111.27
485.133	6200.08
485.503	6339.96
485.874	6472.61
486.244	6496.34
486.615	6646.17
486.985	6728.65
487.356	6807.29
487.726	6877.12
488.097	7074.4
488.467	7103.78
488.837	7263.78
489.207	7340.61
489.578	7447.28
489.948	7567.72
490.318	7670.55
490.688	7708.06
491.058	7831.45
491.428	7916.64
491.798	8024.21
492.168	8193.25
492.538	8188.5
492.908	8244.09
493.278	8433.24
493.648	8454.71
494.017	8557.76
494.387	8616.06
494.757	8736.28
495.126	8814.02
495.496	8778.99
495.866	8993.68
496.235	9023.05
496.605	9113.45
496.974	9173.78
497.344	9324.97
497.713	9353.89
498.082	9450.39
498.452	9536.49
498.821	9599.31
499.19	9627.56
499.559	9700.78
499.928	9807.44
500.298	9861.22
500.667	10043.37
501.036	10029.81
501.405	10042.24
501.774	10161.55
502.143	10245.17
502.512	10352.51
502.88	10403.81
503.249	10397.93
503.618	10452.85
503.987	10619.62
504.356	10642.67
504.724	10763.12
505.093	10753.4
505.462	10886.96
505.83	10980.97
506.199	11081.76
506.567	11158.14
506.936	11099.38
507.304	11393.16
507.672	11421.86
508.041	11465.25
508.409	11518.81
508.777	11595.64
509.145	11699.59
509.514	11805.58
509.882	11863.43
510.25	11946.59
510.618	12041.51
510.986	12093.26
511.354	12187.26
511.722	12254.16
512.09	12387.71
512.458	12459.57
512.826	12545
513.193	12769.4
513.561	12746.57
513.929	12916.74
514.297	13073.34
514.664	13228.59
515.032	13158.99
515.4	13353.79
515.767	13467
516.135	13488.25
516.502	13443.73
516.869	13781.12
517.237	13772.99
517.604	13838.52
517.972	13968.23
518.339	14092.98
518.706	14193.54
519.073	14395.79
519.44	14332.07
519.808	14455.45
520.175	14569.35
520.542	14747.42
520.909	14913.29
521.276	14869.91
521.643	15041.88
522.009	15218.37
522.376	15293.4
522.743	15433.96
523.11	15574.75
523.477	15748.53
523.843	15842.99
524.21	16027.39
524.577	16132.02
524.943	16253.15
525.31	16350.77
525.676	16486.13
526.043	16549.64
526.409	16735.85
526.776	16956.63
527.142	16927.93
527.508	17073.92
527.874	17375.15
528.241	17407.01
528.607	17355.49
528.973	17688.14
529.339	17672.32
529.705	17879.54
530.071	18000.9
530.437	18066.88
530.803	18135.81
531.169	18331.96
531.535	18268.46
531.901	18388.23
532.267	18531.73
532.632	18639.3
532.998	18717.94
533.364	18802.01
533.73	18893.3
534.095	19051.72
534.461	19015.11
534.826	19216.23
535.192	19264.14
535.557	19464.36
535.923	19364.93
536.288	19598.59
536.653	19576.9
537.019	19560.86
537.384	19750
537.749	19770.57
538.114	19926.72
538.479	19878.81
538.845	20104.34
539.21	20092.37
539.575	20149.09
539.94	20230.22
540.305	20342.98
540.67	20351.34
541.034	20426.37
541.399	20567.16
541.764	20637.21
542.129	20612.13
542.494	20712.46
542.858	20839.92
543.223	20881.72
543.587	21045.34
543.952	21104.09
544.316	21116.75
544.681	21130.31
545.045	21236.29
545.41	21461.14
545.774	21446.91
546.138	21502.95
546.503	21573.23
546.867	21565.32
547.231	21826.11
547.595	21914.47
547.959	21926.44
548.324	21885.77
548.688	22042.6
549.052	22180.67
549.416	22274.23
549.779	22310.16
550.143	22352.42
550.507	22564.62
550.871	22643.26
551.235	22642.36
551.599	22771.17
551.962	22969.13
552.326	22985.62
552.689	23009.58
553.053	23106.07
553.417	23284.37
553.78	23510.13
554.143	23614.31
554.507	23724.59
554.87	23828.99
555.234	24030.12
555.597	23989.44
555.96	24193.28
556.323	24276.89
556.686	24452.93
557.05	24677.56
557.413	24669.42
557.776	24753.26
558.139	24996.42
558.502	25153.03
558.865	25183.08
559.228	25429.63
559.59	25538.33
559.953	25691.09
560.316	26090.4
560.679	26091.31
561.041	26328.81
561.404	26493.78
561.767	26644.51
562.129	26746.66
562.492	27058.74
562.854	27023.26
563.217	27155.91
563.579	27365.17
563.941	27587.54
564.304	27620.98
564.666	27976.91
565.028	27993.18
565.39	28224.58
565.753	28350.68
566.115	28595.19
566.477	28808.75
566.839	29002.19
567.201	29221.17
567.563	29279.47
567.925	29648.95
568.287	29658.9
568.648	29853.01
569.01	30086.45
569.372	30285.55
569.734	30355.37
570.095	30652.99
570.457	30833.1
570.819	31027.45
571.18	31209.81
571.542	31303.6
571.903	31647.32
572.265	31727.09
572.626	31856.13
572.987	32037.82
573.349	32204.59
573.71	32392.38
574.071	32663.11
574.432	32788.53
574.794	33143.32
575.155	33184.68
575.516	33237.78
575.877	33536.31
576.238	33555.52
576.599	33771.33
576.96	33860.37
577.32	33955.96
577.681	34114.15
578.042	34240.24
578.403	34420.58
578.763	34485.44
579.124	34660.8
579.485	34818.99
579.845	34993.67
580.206	35076.38
580.566	35224.62
580.927	35244.29
581.287	35470.49
581.648	35380.55
582.008	35632.75
582.368	35637.5
582.728	35815.8
583.089	35747.32
583.449	35910.03
583.809	36007.43
584.169	36067.54
584.529	35950.93
584.889	36380.98
585.249	36194.32
585.609	36156.13
585.969	36394.76
586.329	36274.77
586.688	36468.43
587.048	36582.33
587.408	36500.52
587.768	36425.5
588.127	36581.88
588.487	36565.15
588.846	36884.69
589.206	36610.12
589.565	36754.3
589.925	36954.75
590.284	36839.95
590.643	36840.63
591.003	36964.24
591.362	37161.07
591.721	37037.68
592.08	37115.65
592.44	37195.19
592.799	37272.48
593.158	37379.14
593.517	37234.74
593.876	37290.11
594.235	37198.58
594.593	37262.31
594.952	37298.92
595.311	37270.67
595.67	37423.21
596.029	37474.73
596.387	37586.37
596.746	37651.45
597.104	37532.81
597.463	37554.51
597.822	37649.65
598.18	37577.56
598.538	37593.6
598.897	37821.84
599.255	37537.78
599.613	38035.17
599.972	37688.51
600.33	37885.35
600.688	37753.82
601.046	37926.25
601.404	38072.46
601.762	37952.46
602.12	38308.39
602.478	38187.94
602.836	38229.29
603.194	38192.68
603.552	38133.7
603.91	38073.14
604.268	38152.01
604.625	38160.37
604.983	38354.94
605.341	38281.27
605.698	38309.97
606.056	38305.9
606.413	38307.93
606.771	38443.3
607.128	38570.3
607.485	38399
607.843	38671.99
608.2	38604.2
608.557	38753.57
608.914	38699.56
609.272	38874.92
609.629	38804.64
609.986	38900.46
610.343	38725.1
610.7	39001.7
611.057	39057.07
611.414	38932.32
611.771	38952.44
612.127	39084.18
612.484	39086.9
612.841	39191.98
613.198	39225.65
613.554	39226.1
613.911	39361.92
614.267	39371.18
614.624	39325.99
614.98	39329.6
615.337	39647.56
615.693	39300.22
616.05	39513.55
616.406	39757.39
616.762	39576.83
617.118	39565.98
617.475	39603.49
617.831	39621.8
618.187	39677.84
618.543	39678.97
618.899	40028.11
619.255	39968.91
619.611	39754.9
619.967	39934.33
620.323	40214.55
620.678	39933.43
621.034	39855.69
621.39	39917.61
621.746	39768.91
622.101	40307.2
622.457	39975.91
622.812	40098.17
623.168	40151.95
623.523	40004.39
623.879	40111.05
624.234	40026.53
624.589	40252.06
624.945	40154.44
625.3	40140.2
625.655	40181.78
626.01	40192.18
626.365	40126.87
626.72	40043.26
627.075	40102.91
627.43	40016.14
627.785	40037.61
628.14	39968
628.495	39987.21
628.85	39867.44
629.205	39890.04
629.559	40136.81
629.914	39788.8
630.269	39974.56
630.623	39799.87
630.978	39738.86
631.332	39948.79
631.687	39942.69
632.041	39747.9
632.396	39777.95
632.75	39630.61
633.104	39705.41
633.459	39433.33
633.813	39602.36
634.167	39607.79
634.521	39511.97
634.875	39705.86
635.229	39542.48
635.583	39339.77
635.937	39375.93
636.291	39334.12
636.645	39422.93
636.999	39182.94
637.352	39323.73
637.706	39118.99
638.06	39271.75
638.413	39110.62
638.767	39021.59
639.121	39005.09
639.474	38845.55
639.828	38880.35
640.181	38854.59
640.534	38900.01
640.888	38766.45
641.241	38630.64
641.594	38713.8
641.947	38729.39
642.301	38676.96
642.654	38761.93
643.007	38675.83
643.36	38610.52
643.713	38479
644.066	38644.87
644.419	38460.92
644.771	38323.53
645.124	38019.35
645.477	37935.51
645.83	37787.72
646.182	37579.37
646.535	37319.48
646.888	37513.6
647.24	37300.05
647.593	37374.62
647.945	37347.28
648.298	37161.75
648.65	37189.09
649.002	37205.59
649.355	37238.36
649.707	37201.3
650.059	37303.67
650.411	37760.15
650.763	37775.52
651.115	38145.45
651.467	38130.54
651.819	38013.7
652.171	37861.62
652.523	37837.66
652.875	37842.18
653.227	37699.14
653.578	37971.67
653.93	37866.82
654.282	37729.64
654.633	37582.98
654.985	37727.84
655.337	37810.09
655.688	37825.91
656.039	37736.42
656.391	37658.46
656.742	37683.32
657.094	37681.51
657.445	37716.08
657.796	37591.34
658.147	37525.13
658.498	37668.4
658.849	37489.42
659.2	37545.47
659.551	37589.53
659.902	37660.94
660.253	37463.89
660.604	37671.11
660.955	37399.48
661.306	37582.08
661.656	37560.83
662.007	37389.09
662.358	37480.61
662.708	37406.71
663.059	37348.18
663.409	37230.9
663.76	37519.48
664.11	37426.15
664.461	37481.29
664.811	37373.27
665.161	37415.75
665.511	37379.14
665.862	37568.29
666.212	37563.09
666.562	37533.72
666.912	37370.33
667.262	37212.37
667.612	37272.03
667.962	37422.08
668.312	37312.25
668.662	37401.29
669.011	37398.13
669.361	37226.15
669.711	37260.96
670.06	37105.25
670.41	37237.45
670.76	37204.23
671.109	37183.44
671.459	37111.13
671.808	37047.4
672.157	37320.61
672.507	36831.36
672.856	36987.52
673.205	37124.01
673.554	37089.89
673.904	37097.34
674.253	37078.36
674.602	37069.32
674.951	36496.23
675.3	36322.67
675.649	36956.1
675.998	36854.19
676.346	36901.64
676.695	37014.18
677.044	36666.39
677.393	36683.12
677.741	36763.34
678.09	36739.84
678.438	36532.61
678.787	36551.82
679.135	36606.74
679.484	36315.44
679.832	36535.32
680.181	36235.9
680.529	36419.62
680.877	36494.87
681.225	36270.7
681.573	36419.4
681.922	36183.92
682.27	35961.78
682.618	36120.65
682.966	35882.91
683.314	35975.79
683.661	35884.27
684.009	35662.81
684.357	35689.7
684.705	35652.18
685.053	35785.06
685.4	35684.05
685.748	35431.17
686.095	35416.48
686.443	35223.04
686.79	35189.37
687.138	35197.96
687.485	35238.64
687.832	34994.57
688.18	35084.52
688.527	34921.36
688.874	34847.01
689.221	34792.09
689.568	34715.49
689.915	34478.88
690.262	34553.23
690.609	34511.65
690.956	34361.6
691.303	34237.31
691.65	34113.92
691.997	34159.57
692.344	33905.79
692.69	33969.97
693.037	34003.87
693.383	33810.2
693.73	33688.85
694.077	33542.18
694.423	33488.85
694.769	33394.62
695.116	33370.21
695.462	33210.44
695.808	33083.89
696.155	33129.09
696.501	32895.19
696.847	32849.77
697.193	32534.07
697.539	32586.95
697.885	32406.17
698.231	32311.93
698.577	32272.84
698.923	32232.39
699.269	32068.32
699.614	31897.93
699.96	31828.56
700.306	31856.13
700.651	31697.49
700.997	31584.04
701.342	31516.93
701.688	31401
702.033	31255.69
702.379	31300.89
702.724	31087.33
703.069	31250.72
703.415	30836.04
703.76	30836.04
704.105	30832.88
704.45	30836.72
704.795	30609.15
705.14	30478.31
705.485	30461.81
705.83	30354.24
706.175	30418.65
706.52	30299.56
706.865	30162.38
707.209	30116.96
707.554	29964.2
707.899	30083.97
708.243	29846.24
708.588	29714.04
708.932	29603.98
709.277	29543.64
709.621	29646.01
709.966	29493.93
710.31	29501.61
710.654	29238.12
710.998	29291.67
711.342	29347.94
711.687	29111.34
712.031	29091.45
712.375	28976.43
712.719	29075.18
713.063	28945.92
713.407	29056.88
713.75	28694.85
714.094	28759.94
714.438	28659.37
714.782	28757
715.125	28551.13
715.469	28627.74
715.812	28537.57
716.156	28319.5
716.499	28444.01
716.843	28371.47
717.186	28165.38
717.53	28290.12
717.873	28367.18
718.216	28233.62
718.559	28175.77
718.902	28016.45
719.246	28159.5
719.589	27950.92
719.932	27871.82
720.275	27861.43
720.617	27818.04
720.96	27893.52
721.303	27919.96
721.646	27850.81
721.989	27693.07
722.331	27722
722.674	27647.2
723.016	27767.87
723.359	27618.95
723.701	27693.07
724.044	27485.17
724.386	27303.03
724.729	27526.07
725.071	27436.81
725.413	27351.84
725.755	27345.28
726.097	27289.24
726.439	27179.41
726.782	27215.12
727.124	27339.18
727.465	27181.67
727.807	27160.66
728.149	27093.09
728.491	27173.08
728.833	27144.84
729.175	27010.15
729.516	27085.18
729.858	27067.78
730.199	27115.91
730.541	26960.44
730.882	26919.98
731.224	27077.04
731.565	26774.68
731.906	26846.31
732.248	26954.56
732.589	26907.78
732.93	26801.57
733.271	26875.24
733.612	26868.23
733.953	26808.12
734.294	26784.39
734.635	26587.56
734.976	26742.36
735.317	26714.57
735.658	26540.56
735.999	26724.74
736.339	26581.91
736.68	26654.45
737.021	26451.07
737.361	26455.59
737.702	26630.27
738.042	26461.24
738.383	26480.67
738.723	26714.34
739.063	26487
739.404	26648.35
739.744	26472.09
740.084	26429.38
740.424	26461.24
740.764	26410.85
741.104	26477.74
741.444	26257.63
741.784	26364.07
742.124	26505.98
742.464	26390.51
742.804	26223.28
743.143	26252.88
743.483	26318.42
743.823	26134.24
744.162	26227.57
744.502	26193.45
744.841	26217.4
745.181	26258.98
745.52	26392.31
745.86	26310.51
746.199	26242.49
746.538	26128.14
746.877	26387.57
747.216	26242.49
747.556	26047.92
747.895	26100.57
748.234	26156.84
748.573	26048.59
748.911	26090.4
749.25	26074.13
749.589	25924.98
749.928	25917.52
750.267	25984.64
750.605	25934.25
750.944	25900.12
751.283	25835.72
751.621	25946.9
751.96	25723.41
752.298	25844.76
752.636	25802.95
752.975	25637.31
753.313	25551.43
753.651	25663.75
753.989	25555.73
754.327	25493.36
754.666	25308.28
755.004	25515.5
755.342	25419.01
755.679	25504.2
756.017	25291.78
756.355	25335.17
756.693	25254.49
757.031	25397.99
757.368	25157.54
757.706	25136.08
758.044	25117.77
758.381	25041.39
758.719	25007.49
759.056	24925.91
759.394	24898.34
759.731	24651.12
760.068	24718.69
760.405	24706.03
760.743	24682.75
761.08	24520.5
761.417	24531.57
761.754	24311.92
762.091	24442.08
762.428	24311.24
762.765	24105.37
763.102	24285.7
763.438	24150.79
763.775	23962.1
764.112	24126.61
764.449	23967.29
764.785	23867.86
765.122	23849.78
765.458	23752.61
765.795	23670.35
766.131	23661.09
766.467	23536.34
766.804	23476.68
767.14	23392.62
767.476	23343.36
767.812	23169.8
768.148	23313.3
768.485	23008.45
768.821	22931.39
769.157	22955.12
769.492	22959.18
769.828	22863.37
770.164	22693.2
770.5	22662.92
770.836	22581.12
771.171	22444.17
771.507	22526.88
771.842	22350.61
772.178	22246.43
772.513	22139.32
772.849	22219.09
773.184	22064.97
773.519	22020
773.855	21894.81
774.19	21862.26
774.525	21834.02
774.86	21795.6
775.195	21750.4
775.53	21552.67
775.865	21563.29
776.2	21312.22
776.535	21302.28
776.87	21340.47
777.205	21300.92
777.539	21036.52
777.874	21067.71
778.209	20910.42
778.543	20942.74
778.878	20631.34
779.212	20804.44
779.547	20667.27
779.881	20642.41
780.215	20484.9
780.55	20465.24
780.884	20371.91
781.218	20269.09
781.552	20200.84
781.886	20069.77
782.22	20032.26
782.554	19965.82
782.888	19756.1
783.222	19773.51
783.556	19775.09
783.889	19706.16
784.223	19494.64
784.557	19473.4
784.89	19535.77
785.224	19408.09
785.557	19324.25
785.891	19293.74
786.224	19155.44
786.558	19219.17
786.891	19078.16
787.224	18860.76
787.557	18957.71
787.891	18817.15
788.224	18923.13
788.557	18827.32
788.89	18821.21
789.223	18751.84
789.556	18614.21
789.888	18646.3
790.221	18436.59
790.554	18363.15
790.887	18309.59
791.219	18213.09
791.552	18166.77
791.884	18149.37
792.217	18000.44
792.549	18010.61
792.882	17887.91
793.214	17814.01
793.546	17930.84
793.879	17744.86
794.211	17642.49
794.543	17643.39
794.875	17655.82
795.207	17589.83
795.539	17538.54
795.871	17503.96
796.203	17379.9
796.535	17198.66
796.867	17174.48
797.198	17163.4
797.53	17199.79
797.862	17012.67
798.193	17051.32
798.525	16961.6
798.856	16998.66
799.188	16733.81
799.519	16684.55
799.85	16678.22
800.182	16726.13
800.513	16633.02
800.844	16420.15
801.175	16551.22
801.506	16512.35
801.837	16416.76
802.168	16383.31
802.499	16406.14
802.83	16252.24
803.161	16252.69
803.491	16278.68
803.822	16278
804.153	16092.7
804.483	16011.34
804.814	15931.12
805.145	15856.32
805.475	16015.86
805.805	15788.98
806.136	15855.87
806.466	15817.68
806.796	15846.83
807.126	15647.96
807.457	15687.29
807.787	15673.27
808.117	15437.8
808.447	15541.75
808.777	15568.42
809.107	15479.61
809.436	15430.34
809.766	15411.59
810.096	15356.45
810.426	15213.17
810.755	15231.7
811.085	15198.26
811.414	15114.64
811.744	15041.65
812.073	15011.82
812.403	14984.03
812.732	14853.86
813.061	14948.1
813.39	14788.33
813.719	14867.19
814.049	14875.1
814.378	14758.5
814.707	14697.71
815.036	14782.9
815.365	14610.7
815.693	14528.9
816.022	14525.73
816.351	14589.24
816.68	14467.66
817.008	14500.42
817.337	14310.82
817.665	14359.64
817.994	14274.89
818.322	14368.9
818.651	14318.73
818.979	14192.41
819.307	14290.94
819.636	14236.93
819.964	14125.52
820.292	14234.67
820.62	14212.97
820.948	14098.4
821.276	14193.77
821.604	14042.58
821.932	14107.21
822.259	14208
822.587	14033.54
822.915	13969.59
823.243	14062.02
823.57	14052.3
823.898	14039.64
824.225	13980.66
824.553	13955.35
824.88	14001
825.207	13979.31
825.535	14003.04
825.862	14019.31
826.189	13946.09
826.516	14039.19
826.843	14047.1
827.17	14026.76
827.497	14046.88
827.824	14045.29
828.151	13998.74
828.478	14024.28
828.805	14015.46
829.131	14099.76
829.458	13942.47
829.785	13968.46
830.111	14018.4
830.438	13969.36
830.764	13960.1
831.09	14029.02
831.417	14008.23
831.743	13923.94
832.069	13881.01
832.395	13882.13
832.722	13939.31
833.048	13834.45
833.374	13949.25
833.7	13796.71
834.026	13834.9
834.351	13962.36
834.677	13866.32
835.003	13880.33
835.329	13762.82
835.654	13756.04
835.98	13713.1
836.306	13762.59
836.631	13727.56
836.956	13670.16
837.282	13804.4
837.607	13603.05
837.932	13658.19
838.258	13595.36
838.583	13549.94
838.908	13380
839.233	13557.85
839.558	13505.2
839.883	13433.33
840.208	13345.2
840.533	13359.44
840.858	13429.04
841.182	13406.22
841.507	13408.02
841.832	13281.92
842.156	13340
842.481	13376.61
842.805	13292.32
843.13	13240.8
843.454	13212.55
843.778	13121.93
844.103	13130.52
844.427	13143.85
844.751	13091.87
845.075	13007.81
845.399	13051.2
845.723	12840.13
846.047	12894.82
846.371	12880.13
846.695	12822.73
847.019	12744.54
847.343	12676.97
847.666	12583.86
847.99	12583.86
848.313	12557.42
848.637	12482.62
848.96	12406.24
849.284	12420.7
849.607	12292.8
849.931	12305.23
850.254	12218.22
850.577	12161.05
850.9	12073.82
851.223	12076.53
851.546	12065.23
851.869	11928.51
852.192	11980.49
852.515	11877.22
852.838	11902.53
853.161	11816.2
853.483	11794.73
853.806	11736.88
854.129	11678.13
854.451	11697.11
854.774	11561.07
855.096	11561.97
855.419	11578.24
855.741	11545.47
856.063	11490.33
856.385	11431.8
856.708	11408.08
857.03	11389.32
857.352	11368.75
857.674	11374.86
857.996	11299.15
858.318	11191.81
858.64	11190.68
858.961	11157.46
859.283	11176.9
859.605	11029.33
859.926	11093.73
860.248	11075.66
860.57	11067.07
860.891	10994.75
861.212	11049.89
861.534	10951.59
861.855	10943.91
862.176	10867.52
862.498	10843.57
862.819	10850.58
863.14	10784.14
863.461	10812.39
863.782	10786.17
864.103	10730.35
864.424	10764.7
864.745	10758.38
865.065	10712.73
865.386	10657.14
865.707	10698.26
866.027	10662.56
866.348	10665.04
866.668	10684.48
866.989	10616.23
867.309	10505.95
867.63	10578.95
867.95	10546.18
868.27	10495.56
868.59	10472.28
868.91	10489.46
869.23	10473.64
869.55	10484.26
869.87	10483.13
870.19	10438.38
870.51	10410.14
870.83	10426.18
871.15	10369.01
871.469	10383.7
871.789	10357.03
872.109	10251.04
872.428	10251.5
872.748	10240.65
873.067	10282.68
873.386	10248.11
873.706	10250.37
874.025	10210.59
874.344	10232.97
874.663	10190.25
874.982	10169.24
875.301	10124.04
875.62	10105.06
875.939	10076.81
876.258	10062.35
876.577	10110.71
876.896	10123.14
877.214	10055.79
877.533	10020.54
877.852	10041.33
878.17	9943.93
878.489	9983.71
878.807	9956.81
879.125	9988
879.444	9920.43
879.762	9909.58
880.08	9896.7
880.398	9758.18
880.716	9807.44
881.034	9824.61
881.352	9792.98
881.67	9738.97
881.988	9783.49
882.306	9744.39
882.624	9757.72
882.941	9687.67
883.259	9634.79
883.577	9665.97
883.894	9623.49
884.212	9592.76
884.529	9591.4
884.846	9587.11
885.164	9547.11
885.481	9550.72
885.798	9601.57
886.115	9463.04
886.432	9472.31
886.75	9413.78
887.067	9387.79
887.383	9439.77
887.7	9428.92
888.017	9342.37
888.334	9348.92
888.651	9348.24
888.967	9343.5
889.284	9226.21
889.6	9238.42
889.917	9175.37
890.233	9192.77
890.55	9165.42
890.866	9094.92
891.182	9053.34
891.498	9059.66
891.815	9024.18
892.131	8964.75
892.447	9001.36
892.763	8934.47
893.079	8960.68
893.395	8964.07
893.71	8856.5
894.026	8844.75
894.342	8814.7
894.657	8795.04
894.973	8758.88
895.289	8786.68
895.604	8728.15
895.92	8658.54
896.235	8696.06
896.55	8578.32
896.865	8566.57
897.181	8517.3
897.496	8536.96
897.811	8499.68
898.126	8438.89
898.441	8492.45
898.756	8450.64
899.071	8427.36
899.386	8401.15
899.7	8393.24
900.015	8308.5
900.33	8265.33
900.644	8221.04
900.959	8238.22
901.273	8226.46
901.588	8139.91
901.902	8154.83
902.216	8092.46
902.531	8091.1
902.845	8077.99
903.159	8054.27
903.473	8050.2
903.787	8005.45
904.101	7944.89
904.415	7954.83
904.729	7856.53
905.042	7830.09
905.356	7863.54
905.67	7786.7
905.984	7794.39
906.297	7730.88
906.611	7662.64
906.924	7658.12
907.237	7730.66
907.551	7599.36
907.864	7619.47
908.177	7606.59
908.491	7593.26
908.804	7495.18
909.117	7459.48
909.43	7473.26
909.743	7447.5
910.056	7444.56
910.368	7278.69
910.681	7324.79
910.994	7281.18
911.307	7250.9
911.619	7237.56
911.932	7223.78
912.244	7115.76
912.557	7176.55
912.869	7128.87
913.181	7122.31
913.494	7082.09
913.806	7017
914.118	7021.98
914.43	6933.62
914.742	6923
915.054	6886.39
915.366	6909.44
915.678	6833.73
915.99	6832.15
916.302	6825.82
916.613	6812.72
916.925	6732.94
917.236	6728.65
917.548	6637.81
917.859	6687.52
918.171	6636.45
918.482	6628.09
918.794	6592.38
919.105	6583.34
919.416	6509.67
919.727	6547.64
920.038	6474.19
920.349	6425.16
920.66	6418.15
920.971	6391.26
921.282	6359.39
921.593	6296.8
921.903	6266.97
922.214	6284.82
922.525	6267.65
922.835	6184.26
923.146	6181.09
923.456	6153.3
923.767	6198.5
924.077	6149.91
924.387	6098.84
924.697	6027.2
925.008	6024.26
925.318	6057.93
925.628	6046.63
925.938	5982.91
926.248	5936.58
926.558	5925.28
926.867	5915.11
927.177	5898.16
927.487	5860.43
927.796	5799.86
928.106	5805.29
928.416	5766.87
928.725	5763.93
929.034	5724.61
929.344	5722.12
929.653	5676.7
929.962	5650.26
930.271	5655.01
930.581	5626.31
930.89	5606.19
931.199	5579.3
931.508	5589.47
931.817	5542.47
932.125	5478.06
932.434	5486.88
932.743	5429.7
933.051	5446.42
933.36	5380.89
933.669	5363.49
933.977	5392.87
934.286	5366.43
934.594	5354
934.902	5317.61
935.21	5249.14
935.519	5216.83
935.827	5220.44
936.135	5175.02
936.443	5187.22
936.751	5152.2
937.059	5172.99
937.367	5106.09
937.674	5050.95
937.982	5111.52
938.29	5057.73
938.597	5018.19
938.905	5013.67
939.213	4970.28
939.52	4964.63
939.827	4966.21
940.135	4951.52
940.442	4885.08
940.749	4895.93
941.056	4907.91
941.363	4827.01
941.67	4840.79
941.977	4791.98
942.284	4769.83
942.591	4737.97
942.898	4776.84
943.205	4724.64
943.511	4690.06
943.818	4702.94
944.125	4631.53
944.431	4648.93
944.738	4618.2
945.044	4597.41
945.35	4595.37
945.657	4554.7
945.963	4547.92
946.269	4525.77
946.575	4509.27
946.881	4433.12
947.187	4437.86
947.493	4422.72
947.799	4418.2
948.105	4355.38
948.41	4347.02
948.716	4390.18
949.022	4300.69
949.327	4365.32
949.633	4288.94
949.938	4318.54
950.244	4307.7
950.549	4237.87
950.854	4183.41
951.16	4217.3
951.465	4210.3
951.77	4226.57
952.075	4163.75
952.38	4145.22
952.685	4125.33
952.99	4078.55
953.294	4103.64
953.599	4048.72
953.904	4057.53
954.209	4025.9
954.513	4036.07
954.818	4031.32
955.122	3993.36
955.426	3957.88
955.731	3954.71
956.035	3925.56
956.339	3892.34
956.643	3879.01
956.948	3888.95
957.252	3862.06
957.556	3850.76
957.86	3838.11
958.163	3812.34
958.467	3828.84
958.771	3761.95
959.075	3791.1
959.378	3738.67
959.682	3766.02
959.985	3741.84
960.289	3719.01
960.592	3669.3
960.896	3664.55
961.199	3662.29
961.502	3630.65
961.805	3601.28
962.108	3574.16
962.411	3601.95
962.714	3597.21
963.017	3552.46
963.32	3559.02
963.623	3528.96
963.926	3528.06
964.228	3538.68
964.531	3468.62
964.833	3518.57
965.136	3451
965.438	3470.43
965.741	3409.64
966.043	3393.6
966.345	3373.48
966.648	3401.96
966.95	3416.65
967.252	3359.47
967.554	3357.67
967.856	3307.27
968.158	3298.68
968.46	3306.14
968.761	3296.65
969.063	3256.2
969.365	3269.08
969.666	3245.58
969.968	3199.93
970.269	3218.91
970.571	3184.56
970.872	3160.16
971.174	3182.98
971.475	3153.38
971.776	3132.59
972.077	3124.9
972.378	3127.62
972.679	3097.79
972.98	3126.49
973.281	3089.2
973.582	3071.57
973.883	3064.79
974.183	3039.48
974.484	3038.58
974.785	3028.86
975.085	3012.82
975.386	3023.89
975.686	2950.45
975.986	2952.7
976.287	2947.28
976.587	2901.86
976.887	2920.16
977.187	2925.59
977.487	2925.13
977.787	2855.31
978.087	2845.59
978.387	2859.15
978.687	2837.23
978.987	2827.51
979.286	2808.53
979.586	2832.26
979.885	2829.32
980.185	2785.48
980.484	2781.18
980.784	2737.12
981.083	2770.56
981.382	2725.14
981.682	2740.28
981.981	2714.29
982.28	2709.32
982.579	2679.72
982.878	2693.95
983.177	2657.35
983.475	2646.27
983.774	2629.55
984.073	2610.79
984.372	2588.19
984.67	2619.15
984.969	2623.67
985.267	2582.09
985.566	2573.05
985.864	2560.85
986.162	2566.27
986.461	2535.99
986.759	2540.96
987.057	2482.66
987.355	2484.47
987.653	2493.96
987.951	2497.12
988.249	2475.43
988.547	2467.97
988.844	2445.6
989.142	2458.25
989.44	2424.81
989.737	2423.45
990.035	2422.55
990.332	2413.28
990.63	2365.15
990.927	2370.8
991.224	2380.06
991.521	2326.05
991.819	2349.1
992.116	2324.02
992.413	2301.87
992.71	2279.73
993.006	2271.59
993.303	2295.55
993.6	2283.8
993.897	2262.55
994.193	2269.78
994.49	2243.12
994.787	2196.57
995.083	2218.03
995.379	2206.51
995.676	2207.87
995.972	2171.93
996.268	2199.73
996.565	2139.17
996.861	2160.18
997.157	2171.71
997.453	2159.73
997.749	2129.9
998.044	2102.33
998.34	2128.32
998.636	2090.81
998.932	2092.84
999.227	2039.51
999.523	2071.37
999.818	2050.13
1000.114	2056.01
1000.409	2028.44
1000.704	2003.13
1001	2019.4
1001.295	1983.24
1001.59	2008.77
1001.885	2008.55
1002.18	1961.09
1002.475	1963.35
1002.77	1973.75
1003.065	1914.54
1003.359	1912.73
1003.654	1924.94
1003.949	1907.53
1004.243	1880.19
1004.538	1875.9
1004.832	1850.13
1005.127	1870.93
1005.421	1851.72
1005.715	1860.53
1006.009	1845.84
1006.304	1801.32
1006.598	1815.33
1006.892	1787.09
1007.186	1794.32
1007.48	1759.52
1007.773	1743.7
1008.067	1751.15
1008.361	1768.56
1008.655	1720.19
1008.948	1719.97
1009.242	1709.8
1009.535	1721.1
1009.829	1724.71
1010.122	1694.88
1010.415	1723.58
1010.708	1682.68
1011.001	1659.41
1011.295	1656.92
1011.588	1647.2
1011.881	1633.19
1012.173	1613.53
1012.466	1630.03
1012.759	1620.54
1013.052	1601.33
1013.344	1594.55
1013.637	1581.67
1013.93	1592.06
1014.222	1566.53
1014.514	1548.22
1014.807	1536.24
1015.099	1517.71
1015.391	1534.44
1015.683	1536.7
1015.976	1508.22
1016.268	1505.29
1016.56	1493.76
1016.851	1466.42
1017.143	1464.83
1017.435	1457.83
1017.727	1476.81
1018.018	1469.13
1018.31	1405.63
1018.602	1438.62
1018.893	1419.64
1019.185	1392.97
1019.476	1394.33
1019.767	1395.91
1020.058	1410.6
1020.35	1406.3
1020.641	1358.17
1020.932	1348.68
1021.223	1359.75
1021.514	1360.43
1021.804	1329.92
1022.095	1307.1
1022.386	1303.93
1022.677	1304.16
1022.967	1318.85
1023.258	1285.18
1023.548	1290.6
1023.839	1283.82
1024.129	1264.16
1024.419	1248.12
1024.709	1247.66
1025	1253.54
1025.29	1242.69
1025.58	1228
1025.87	1238.85
1026.16	1220.1
1026.449	1198.17
1026.739	1192.07
1027.029	1205.63
1027.319	1173.32
1027.608	1186.42
1027.898	1179.64
1028.187	1174.45
1028.477	1161.34
1028.766	1161.57
1029.055	1144.39
1029.344	1160.21
1029.634	1132.41
1029.923	1120.44
1030.212	1130.61
1030.501	1107.56
1030.79	1110.95
1031.078	1111.4
1031.367	1071.85
1031.656	1083.38
1031.945	1063.26
1032.233	1059.2
1032.522	1036.37
1032.81	1051.74
1033.099	1048.35
1033.387	1019.2
1033.675	1026.88
1033.963	1027.11
1034.251	1028.91
1034.54	989.59
1034.828	1002.7
1035.116	991.63
1035.403	987.78
1035.691	999.08
1035.979	1000.89
1036.267	1002.93
1036.554	952.53
1036.842	956.37
1037.129	953.21
1037.417	968.35
1037.704	952.76
1037.992	937.84
1038.279	916.83
1038.566	921.57
1038.853	921.57
1039.14	921.57
