Data from tablewood_brown_FLMS001491_071.txt Node
Date: Tue Feb 07 11:10:59 GMT 2017
User: dcchb
Spectrometer: FLMS00149
Trigger mode: 0
Integration Time (sec): 2.000000E-2
Scans to average: 10
Electric dark correction enabled: true
Nonlinearity correction enabled: false
Boxcar width: 0
XAxis mode: Wavelengths
Number of Pixels in Spectrum: 2048
>>>>>Begin Spectral Data<<<<<
341.393	-7.85
341.776	-7.85
342.16	-7.85
342.543	-26.84
342.927	-53.28
343.31	-66.38
343.693	-57.57
344.077	-77.68
344.46	-65.25
344.843	-62.54
345.226	-50.11
345.61	-34.07
345.993	-26.38
346.376	-4.46
346.759	-8.53
347.142	39.83
347.525	38.7
347.908	69.89
348.291	77.34
348.674	112.6
349.057	114.63
349.44	129.32
349.823	160.5
350.206	173.84
350.588	191.69
350.971	197.34
351.354	251.58
351.737	231.91
352.119	250.67
352.502	288.64
352.884	289.77
353.267	288.64
353.65	322.99
354.032	293.61
354.414	315.75
354.797	309.43
355.179	319.6
355.562	317.79
355.944	342.65
356.326	341.74
356.709	344.23
357.091	356.21
357.473	354.62
357.855	334.28
358.238	342.87
358.62	348.3
359.002	374.06
359.384	336.32
359.766	360.5
360.148	327.96
360.53	346.04
360.912	346.49
361.294	344.68
361.676	360.5
362.057	336.09
362.439	347.62
362.821	316.66
363.203	330.22
363.584	340.84
363.966	326.38
364.348	330.9
364.729	324.34
365.111	320.5
365.493	343.32
365.874	351.69
366.256	348.75
366.637	320.95
367.019	342.87
367.4	334.74
367.781	325.47
368.163	320.73
368.544	322.99
368.925	325.02
369.306	347.39
369.688	346.04
370.069	347.39
370.45	321.63
370.831	330.9
371.212	321.63
371.593	327.51
371.974	326.6
372.355	305.13
372.736	325.02
373.117	341.74
373.498	310.78
373.879	325.47
374.26	340.39
374.641	340.84
375.021	338.58
375.402	333.61
375.783	351.46
376.163	350.56
376.544	343.78
376.925	356.43
377.305	331.12
377.686	353.27
378.066	339.26
378.447	348.07
378.827	355.08
379.208	363.44
379.588	353.27
379.968	337.45
380.349	346.26
380.729	355.3
381.109	369.76
381.489	379.26
381.87	362.53
382.25	363.66
382.63	360.95
383.01	361.63
383.39	374.51
383.77	351.91
384.15	367.96
384.53	376.09
384.91	373.83
385.29	388.52
385.67	368.63
386.049	382.19
386.429	378.58
386.809	378.8
387.189	389.88
387.568	392.36
387.948	396.43
388.328	409.76
388.707	388.52
389.087	398.69
389.466	393.27
389.846	402.08
390.225	408.86
390.605	400.5
390.984	420.38
391.363	421.06
391.743	426.49
392.122	406.15
392.501	435.07
392.881	460.16
393.26	441.17
393.639	440.27
394.018	455.19
394.397	441.17
394.776	464
395.155	448.86
395.534	446.82
395.913	469.65
396.292	454.06
396.671	468.52
397.05	466.94
397.429	459.48
397.808	466.48
398.186	461.29
398.565	473.72
398.944	468.07
399.323	485.47
399.701	459.93
400.08	484.11
400.458	494.05
400.837	509.2
401.215	482.76
401.594	514.39
401.972	499.93
402.351	500.61
402.729	504.68
403.107	518.46
403.486	504.68
403.864	509.42
404.242	518.01
404.62	518.46
404.999	504.22
405.377	538.57
405.755	525.47
406.133	541.96
406.511	543.77
406.889	541.06
407.267	563.21
407.645	562.3
408.023	564.56
408.401	571.79
408.779	581.06
409.156	571.11
409.534	563.43
409.912	589.65
410.29	608.4
410.667	593.49
411.045	601.62
411.422	630.32
411.8	604.56
412.178	619.25
412.555	641.62
412.933	650.43
413.31	629.19
413.687	659.02
414.065	653.15
414.442	664.45
414.819	675.29
415.197	680.72
415.574	665.58
415.951	652.47
416.328	676.42
416.705	689.53
417.082	696.08
417.46	703.31
417.837	701.51
418.214	701.73
418.591	688.4
418.967	731.34
419.344	729.08
419.721	752.58
420.098	727.72
420.475	736.99
420.852	726.59
421.228	744.44
421.605	754.61
421.982	769.3
422.358	761.39
422.735	772.69
423.111	782.18
423.488	769.08
423.864	786.48
424.241	803.65
424.617	795.52
424.994	789.87
425.37	825.35
425.746	819.47
426.123	844.78
426.499	813.14
426.875	833.71
427.251	845.01
427.627	852.92
428.003	876.19
428.379	888.85
428.756	875.51
429.132	897.66
429.507	907.38
429.883	904.67
430.259	938.79
430.635	924.78
431.011	949.86
431.387	962.29
431.763	958.9
432.138	974.49
432.514	963.65
432.89	981.73
433.265	996.64
433.641	989.18
434.016	1024.89
434.392	1048.16
434.767	1043.42
435.143	1036.41
435.518	1052.68
435.894	1056.98
436.269	1070.54
436.644	1098.11
437.02	1120.25
437.395	1108.28
437.77	1107.15
438.145	1139.01
438.52	1141.95
438.895	1183.75
439.271	1159.57
439.646	1193.02
440.021	1199.12
440.395	1193.7
440.77	1175.39
441.145	1194.15
441.52	1212.91
441.895	1227.59
442.27	1214.94
442.645	1277.99
443.019	1280.7
443.394	1258.78
443.769	1245.45
444.143	1254.94
444.518	1278.21
444.892	1277.31
445.267	1279.34
445.641	1313.47
446.016	1317.31
446.39	1322.96
446.764	1344.2
447.139	1341.94
447.513	1365.9
447.887	1349.85
448.262	1379.68
448.636	1374.48
449.01	1365.67
449.384	1428.04
449.758	1387.14
450.132	1425.1
450.506	1437.53
450.88	1447.93
451.254	1421.04
451.628	1459.68
452.002	1440.24
452.376	1480.47
452.75	1466.46
453.123	1507.36
453.497	1506.68
453.871	1537.87
454.244	1570.64
454.618	1560.24
454.992	1595.27
455.365	1560.69
455.739	1636.85
456.112	1648.83
456.486	1644.76
456.859	1622.84
457.232	1669.39
457.606	1724.53
457.979	1723.18
458.352	1739.67
458.725	1749.84
459.099	1769.05
459.472	1801.37
459.845	1838.88
460.218	1844.3
460.591	1866.22
460.964	1861.48
461.337	1875.71
461.71	1919.33
462.083	1953.23
462.456	1971.76
462.829	1996.39
463.201	1994.35
463.574	2011.53
463.947	2058.76
464.32	2125.2
464.692	2108.7
465.065	2120.9
465.438	2193.9
465.81	2184.41
466.183	2211.3
466.555	2254.01
466.928	2260.56
467.3	2268.02
467.672	2342.14
468.045	2406.55
468.417	2378.75
468.789	2419.43
469.161	2469.37
469.534	2517.5
469.906	2583.49
470.278	2586.88
470.65	2608.35
471.022	2647.67
471.394	2698.06
471.766	2758.18
472.138	2796.14
472.51	2870.04
472.882	2891.96
473.253	2884.05
473.625	2954.33
473.997	3049.92
474.369	3052.86
474.74	3142.8
475.112	3180.54
475.484	3250.14
475.855	3332.17
476.227	3314.55
476.598	3422.11
476.97	3496.24
477.341	3594.31
477.713	3645.84
478.084	3654.42
478.455	3767.87
478.827	3808.09
479.198	3962.66
479.569	3962.21
479.94	4095.77
480.311	4140.51
480.682	4241.75
481.053	4321.98
481.424	4427.06
481.795	4461.41
482.166	4553.16
482.537	4553.16
482.908	4700.27
483.279	4812.81
483.65	4880.38
484.021	4982.3
484.391	5011.45
484.762	5072.47
485.133	5109.75
485.503	5206.02
485.874	5412.12
486.244	5399.91
486.615	5522.4
486.985	5581.6
487.356	5691.88
487.726	5735.27
488.097	5891.88
488.467	5911.31
488.837	6047.36
489.207	6107.01
489.578	6253.68
489.948	6259.1
490.318	6335.71
490.688	6363.96
491.058	6511.52
491.428	6593.78
491.798	6662.25
492.168	6756.26
492.538	6817.5
492.908	6892.3
493.278	6921.23
493.648	7000.55
494.017	7093.66
494.387	7160.32
494.757	7277.83
495.126	7341.11
495.496	7430.14
495.866	7407.55
496.235	7496.81
496.605	7606.18
496.974	7646.41
497.344	7685.05
497.713	7764.37
498.082	7859.28
498.452	7916.46
498.821	7987.42
499.19	7941.99
499.559	8100.86
499.928	8184.02
500.298	8173.4
500.667	8301.08
501.036	8304.24
501.405	8389.67
501.774	8423.56
502.143	8505.14
502.512	8537.91
502.88	8619.04
503.249	8648.42
503.618	8750.79
503.987	8790.56
504.356	8835.98
504.724	8830.56
505.093	8911.01
505.462	9028.07
505.83	9015.19
506.199	9151.23
506.567	9300.38
506.936	9264.45
507.304	9385.35
507.672	9463.99
508.041	9514.16
508.409	9589.18
508.777	9629.86
509.145	9783.98
509.514	9744.43
509.882	9882.51
510.25	9952.34
510.618	9945.78
510.986	9994.37
511.354	10125.21
511.722	10280.69
512.09	10352.78
512.458	10306
512.826	10453.11
513.193	10508.71
513.561	10594.81
513.929	10711.64
514.297	10851.75
514.664	10863.05
515.032	10887.91
515.4	11039.54
515.767	11007
516.135	11248.12
516.502	11125.41
516.869	11279.08
517.237	11444.5
517.604	11434.78
517.972	11579.64
518.339	11646.76
518.706	11709.58
519.073	11766.53
519.44	11878.16
519.808	12000.87
520.175	12025.28
520.542	12224.14
520.909	12338.72
521.276	12425.72
521.643	12435.66
522.009	12595.66
522.376	12577.58
522.743	12778.48
523.11	12954.97
523.477	13087.17
523.843	13118.81
524.21	13220.73
524.577	13339.14
524.943	13470.21
525.31	13448.29
525.676	13601.05
526.043	13700.26
526.409	13765.12
526.776	13956.98
527.142	13906.13
527.508	14040.59
527.874	14241.49
528.241	14263.64
528.607	14394.71
528.973	14541.14
529.339	14575.72
529.705	14743.4
530.071	14800.57
530.437	14839.21
530.803	14928.93
531.169	15062.49
531.535	15050.51
531.901	15091.41
532.267	15249.6
532.632	15373.66
532.998	15389.03
533.364	15513.77
533.73	15634.45
534.095	15710.15
534.461	15641
534.826	15801.22
535.192	15822.47
535.557	15874.89
535.923	15922.35
536.288	16056.36
536.653	16177.71
537.019	16118.28
537.384	16275.33
537.749	16367.99
538.114	16247.54
538.479	16383.13
538.845	16585.38
539.21	16523.92
539.575	16513.52
539.94	16722.78
540.305	16673.74
540.67	16670.58
541.034	16831.7
541.399	16936.56
541.764	16873.06
542.129	17001.64
542.494	16983.11
542.858	17249.55
543.223	17120.51
543.587	17294.52
543.952	17338.13
544.316	17466.26
544.681	17346.27
545.045	17462.65
545.41	17594.17
545.774	17609.31
546.138	17613.83
546.503	17794.39
546.867	17787.39
547.231	17873.03
547.595	17925.46
547.959	17982.18
548.324	18016.31
548.688	18174.95
549.052	18228.5
549.416	18250.88
549.779	18356.86
550.143	18376.3
550.507	18580.13
550.871	18539
551.235	18618.1
551.599	18724.31
551.962	18874.36
552.326	18830.52
552.689	18997.07
553.053	18973.57
553.417	19155.94
553.78	19344.86
554.143	19408.36
554.507	19431.64
554.87	19633.21
555.234	19872.53
555.597	19706.88
555.96	19949.59
556.323	19987.55
556.686	20103.26
557.05	20232.52
557.413	20387.99
557.776	20384.61
558.139	20638.84
558.502	20668.44
558.865	20808.32
559.228	21023.91
559.59	21101.65
559.953	21219.61
560.316	21527.4
560.679	21478.81
561.041	21673.61
561.404	21805.36
561.767	21991.34
562.129	21980.72
562.492	22241.05
562.854	22329.19
563.217	22309.75
563.579	22624.32
563.941	22857.08
564.304	22966.68
564.666	23203.29
565.028	23228.6
565.39	23347.01
565.753	23570.06
566.115	23697.29
566.477	23951.52
566.839	23922.14
567.201	24183.6
567.563	24191.51
567.925	24631.5
568.287	24637.83
568.648	24829.23
569.01	25027.2
569.372	25332.95
569.734	25216.79
570.095	25489.1
570.457	25651.59
570.819	25829.43
571.18	25907.85
571.542	26124.79
571.903	26327.73
572.265	26530.43
572.626	26596.19
572.987	26697.43
573.349	26923.19
573.71	27086.8
574.071	27211.77
574.432	27163.18
574.794	27554.81
575.155	27669.61
575.516	27673.23
575.877	27903.5
576.238	28073.22
576.599	28196.15
576.96	28200.9
577.32	28379.65
577.681	28565.18
578.042	28762.46
578.403	28821.67
578.763	28953.42
579.124	28966.07
579.485	29262.79
579.845	29356.12
580.206	29333.07
580.566	29448.1
580.927	29670.01
581.287	29695.77
581.648	29662.1
582.008	29843.11
582.368	29875.2
582.728	29884.02
583.089	30042.88
583.449	30142.09
583.809	30245.14
584.169	30267.06
584.529	30236.78
584.889	30552.7
585.249	30521.51
585.609	30416.88
585.969	30669.08
586.329	30587.05
586.688	30765.12
587.048	30722.86
587.408	30668.4
587.768	30780.94
588.127	30733.94
588.487	30710.44
588.846	31112.46
589.206	30777.1
589.565	30955.63
589.925	30974.38
590.284	31113.14
590.643	31073.36
591.003	31125.79
591.362	31270.65
591.721	31186.36
592.08	31109.52
592.44	31329.85
592.799	31322.62
593.158	31130.31
593.517	31262.96
593.876	31433.81
594.235	31330.98
594.593	31385.45
594.952	31495.05
595.311	31462.96
595.67	31481.94
596.029	31698.66
596.387	31687.13
596.746	31567.59
597.104	31505.22
597.463	31648.49
597.822	31870.4
598.18	31571.66
598.538	31656.63
598.897	31792.44
599.255	31573.01
599.613	31939.78
599.972	31760.35
600.33	31900.46
600.688	31883.51
601.046	32018.42
601.404	32007.58
601.762	32140
602.12	32129.16
602.478	32028.37
602.836	32101.81
603.194	31980.91
603.552	31984.75
603.91	32118.99
604.268	32193.33
604.625	32000.57
604.983	32282.37
605.341	32042.15
605.698	32274.69
606.056	32341.13
606.413	32344.74
606.771	32433.55
607.128	32431.52
607.485	32325.99
607.843	32377.28
608.2	32604.4
608.557	32522.59
608.914	32354.69
609.272	32756.94
609.629	32686.2
609.986	32899.3
610.343	32718.52
610.7	32915.8
611.057	32916.03
611.414	32852.07
611.771	32934.11
612.127	32956.25
612.484	32919.64
612.841	33082.12
613.198	33010.26
613.554	33066.76
613.911	33125.29
614.267	33069.02
614.624	33110.15
614.98	33167.32
615.337	33313.08
615.693	33319.41
616.05	33186.08
616.406	33458.39
616.762	33289.35
617.118	33379.97
617.475	33353.53
617.831	33588.55
618.187	33472.4
618.543	33622
618.899	33720.53
619.255	33492.96
619.611	33470.81
619.967	33633.75
620.323	33719.85
620.678	33674.65
621.034	33627.19
621.39	33659.28
621.746	33702.67
622.101	33921.2
622.457	33722.33
622.812	33776.57
623.168	33776.57
623.523	33674.43
623.879	33879.84
624.234	33706.74
624.589	33814.76
624.945	33762.11
625.3	33838.49
625.655	33763.46
626.01	33779.06
626.365	33872.39
626.72	33732.28
627.075	33629.45
627.43	33715.78
627.785	33619.29
628.14	33843.01
628.495	33809.11
628.85	33713.52
629.205	33646.86
629.559	33824.03
629.914	33498.38
630.269	33588.78
630.623	33511.04
630.978	33524.82
631.332	33705.16
631.687	33707.19
632.041	33535.9
632.396	33482.57
632.75	33426.07
633.104	33533.19
633.459	33378.16
633.813	33262.91
634.167	33359.86
634.521	33241.89
634.875	33385.17
635.229	33356.47
635.583	33090.03
635.937	33242.12
636.291	33121.45
636.645	33182.46
636.999	33095.91
637.352	33105.85
637.706	32943.6
638.06	33100.2
638.413	32979.53
638.767	32821.79
639.121	33002.13
639.474	32860.89
639.828	32749.93
640.181	32635.58
640.534	32812.53
640.888	32695.47
641.241	32534.57
641.594	32645.75
641.947	32746.31
642.301	32490.5
642.654	32512.65
643.007	32607.56
643.36	32614.11
643.713	32468.36
644.066	32556.71
644.419	32285.76
644.771	32245.54
645.124	31940.91
645.477	32068.82
645.83	31711.31
646.182	31698.66
646.535	31494.82
646.888	31528.04
647.24	31410.76
647.593	31449.4
647.945	31487.82
648.298	31260.93
648.65	31137.32
649.002	31187.49
649.355	31303.41
649.707	31241.72
650.059	31422.96
650.411	31778.2
650.763	31789.73
651.115	32186.33
651.467	31928.93
651.819	31967.58
652.171	31901.59
652.523	31853
652.875	31870.86
653.227	31780.24
653.578	32083.96
653.93	31771.2
654.282	31797.41
654.633	31660.69
654.985	31824.08
655.337	31747.47
655.688	31826.34
656.039	32008.25
656.391	31611.88
656.742	31710.86
657.094	31903.62
657.445	31911.31
657.796	31828.6
658.147	31790.41
658.498	31846.45
658.849	31818.2
659.2	31750.18
659.551	31679.22
659.902	31779.79
660.253	31647.36
660.604	31667.7
660.955	31565.78
661.306	31695.72
661.656	31532.33
662.007	31609.85
662.358	31797.19
662.708	31566.46
663.059	31574.37
663.409	31532.33
663.76	31789.05
664.11	31816.85
664.461	31810.29
664.811	31740.69
665.161	31657.53
665.511	31573.46
665.862	31696.4
666.212	31569.4
666.562	31702.05
666.912	31547.02
667.262	31510.87
667.612	31422.73
667.962	31639.9
668.312	31588.38
668.662	31720.8
669.011	31565.1
669.361	31631.77
669.711	31594.71
670.06	31568.94
670.41	31485.33
670.76	31269.74
671.109	31497.76
671.459	31356.07
671.808	31264.32
672.157	31419.12
672.507	31189.52
672.856	31134.61
673.205	31312
673.554	31307.93
673.904	31224.32
674.253	31297.76
674.602	31195.62
674.951	30719.25
675.3	30795.4
675.649	31010.31
675.998	31089.41
676.346	31006.25
676.695	31119.69
677.044	30848.28
677.393	30984.78
677.741	31098.9
678.09	30916.98
678.438	30813.48
678.787	30853.48
679.135	30958.11
679.484	30721.28
679.832	30827.49
680.181	30491.91
680.529	30599.25
680.877	30656.65
681.225	30611.91
681.573	30707.5
681.922	30351.8
682.27	30269.09
682.618	30368.52
682.966	30112.71
683.314	30359.26
683.661	30336.21
684.009	30022.32
684.357	29973.73
684.705	29934.18
685.053	30049.44
685.4	29938.03
685.748	29754.53
686.095	29784.81
686.443	29706.62
686.79	29658.26
687.138	29635.66
687.485	29658.94
687.832	29524.25
688.18	29507.3
688.527	29404.71
688.874	29265.73
689.221	29317.7
689.568	29200.64
689.915	29092.62
690.262	29136.69
690.609	28983.48
690.956	28924.04
691.303	28885.62
691.65	28702.35
691.997	28654.44
692.344	28575.58
692.69	28394.56
693.037	28483.6
693.383	28313.44
693.73	28401.57
694.077	28145.08
694.423	28187.56
694.769	28066.44
695.116	27955.03
695.462	27909.38
695.808	27761.81
696.155	27819.44
696.501	27582.38
696.847	27496.28
697.193	27445.21
697.539	27501.93
697.885	27204.31
698.231	27263.07
698.577	27234.37
698.923	27054.71
699.269	26960.48
699.614	26800.26
699.96	26746.25
700.306	26752.57
700.651	26582.18
700.997	26419.93
701.342	26384.45
701.688	26432.13
702.033	26206.83
702.379	26211.8
702.724	26200.95
703.069	26222.64
703.415	25861.75
703.76	25943.56
704.105	25917.57
704.45	25817.68
704.795	25667.4
705.14	25603.23
705.485	25509.22
705.83	25436.9
706.175	25514.19
706.52	25315.32
706.865	25166.4
707.209	25109.45
707.554	25164.14
707.899	25167.53
708.243	24934.99
708.588	24995.78
708.932	24828.78
709.277	24803.7
709.621	24836.01
709.966	24672.18
710.31	24671.95
710.654	24508.56
710.998	24527.77
711.342	24475.35
711.687	24431.73
712.031	24359.64
712.375	24266.31
712.719	24304.5
713.063	24280.1
713.407	24243.71
713.75	24079.2
714.094	24059.31
714.438	23997.17
714.782	24040.55
715.125	23850.73
715.469	23994
715.812	23784.52
716.156	23787.45
716.499	23777.51
716.843	23702.94
717.186	23637.4
717.53	23758.98
717.873	23811.41
718.216	23680.79
718.559	23487.8
718.902	23381.36
719.246	23398.54
719.589	23298.65
719.932	23294.36
720.275	23349.95
720.617	23319.44
720.96	23243.51
721.303	23341.36
721.646	23345.88
721.989	23147.02
722.331	23222.04
722.674	23195.83
723.016	23149.96
723.359	23037.64
723.701	23109.28
724.044	22939.34
724.386	22855.05
724.729	23067.25
725.071	22939.79
725.413	22951.54
725.755	22948.83
726.097	22845.78
726.439	22869.51
726.782	22832.9
727.124	22943.18
727.465	22745.67
727.807	22827.93
728.149	22901.83
728.491	22780.47
728.833	22776.63
729.175	22622.29
729.516	22582.51
729.858	22657.77
730.199	22709.29
730.541	22640.37
730.882	22670.87
731.224	22669.29
731.565	22477.88
731.906	22595.39
732.248	22516.75
732.589	22566.92
732.93	22464.55
733.271	22489.63
733.612	22500.48
733.953	22623.19
734.294	22452.35
734.635	22436.53
734.976	22498.67
735.317	22520.37
735.658	22466.36
735.999	22459.35
736.339	22432.91
736.68	22491.67
737.021	22406.92
737.361	22218.91
737.702	22422.97
738.042	22370.32
738.383	22368.51
738.723	22477.66
739.063	22352.46
739.404	22395.63
739.744	22418
740.084	22272.69
740.424	22360.6
740.764	22402.86
741.104	22368.06
741.444	22307.94
741.784	22128.74
742.124	22252.58
742.464	22304.55
742.804	22232.24
743.143	22266.36
743.483	22260.49
743.823	22159.47
744.162	22310.66
744.502	22255.06
744.841	22019.36
745.181	22256.42
745.52	22219.36
745.86	22215.29
746.199	22101.4
746.538	22125.58
746.877	22222.07
747.216	22155.18
747.556	22050.1
747.895	22139.59
748.234	22026.14
748.573	21962.19
748.911	21969.65
749.25	22054.62
749.589	21884.23
749.928	21987.73
750.267	21984.79
750.605	21905.02
750.944	21855.75
751.283	21847.84
751.621	21855.53
751.96	21729.88
752.298	21818.01
752.636	21893.94
752.975	21793.16
753.313	21720.62
753.651	21771.91
753.989	21678.58
754.327	21701.86
754.666	21595.19
755.004	21652.14
755.342	21632.03
755.679	21604.46
756.017	21494.63
756.355	21597.45
756.693	21433.39
757.031	21528.98
757.368	21402.66
757.706	21382.09
758.044	21295.99
758.381	21324.92
758.719	21273.85
759.056	21227.07
759.394	21210.8
759.731	21117.02
760.068	21106.17
760.405	20976
760.743	20955.44
761.08	20990.47
761.417	20913.4
761.754	20880.41
762.091	20787.53
762.428	20795.44
762.765	20597.93
763.102	20747.08
763.438	20602.9
763.775	20527.88
764.112	20489.01
764.449	20434.1
764.785	20358.17
765.122	20282.46
765.458	20263.93
765.795	20119.98
766.131	20223.71
766.467	20057.83
766.804	19966.09
767.14	19839.31
767.476	19887.9
767.812	19849.03
768.148	19811.96
768.485	19758.41
768.821	19595.02
769.157	19588.47
769.492	19491.3
769.828	19459.66
770.164	19324.97
770.5	19266.89
770.836	19253.56
771.171	19188.03
771.507	19173.56
771.842	18992.55
772.178	19060.35
772.513	18958.43
772.849	18902.16
773.184	18797.08
773.519	18810.18
773.855	18595.5
774.19	18648.15
774.525	18480.93
774.86	18575.16
775.195	18539
775.53	18563.18
775.865	18269.86
776.2	18229.86
776.535	18096.76
776.87	18117.77
777.205	18026.7
777.539	18067.15
777.874	17955.29
778.209	17802.3
778.543	17813.6
778.878	17700.38
779.212	17610.89
779.547	17525.92
779.881	17533.38
780.215	17361.63
780.55	17448.64
780.884	17418.13
781.218	17290.45
781.552	17267.85
781.886	17264.24
782.22	17086.39
782.554	17027.41
782.888	16859.05
783.222	16858.82
783.556	16755.1
783.889	16746.51
784.223	16659.51
784.557	16609.79
784.89	16622.44
785.224	16465.16
785.557	16527.08
785.891	16435.56
786.224	16350.14
786.558	16329.12
786.891	16243.25
787.224	16237.37
787.557	16153.76
787.891	16038.73
788.224	16092.97
788.557	15999.18
788.89	15897.27
789.223	15971.16
789.556	15824.73
789.888	15805.06
790.221	15817.95
790.554	15651.62
790.887	15648.91
791.219	15552.42
791.552	15540.21
791.884	15364.17
792.217	15409.82
792.549	15343.16
792.882	15230.62
793.214	15165.31
793.546	15191.97
793.879	15117.63
794.211	14935.71
794.543	15050.51
794.875	15039.89
795.207	15048.25
795.539	14898.2
795.871	14872.21
796.203	14766.45
796.535	14660.91
796.867	14719.44
797.198	14595.15
797.53	14689.16
797.862	14514.25
798.193	14558.77
798.525	14420.92
798.856	14446.23
799.188	14291.88
799.519	14302.96
799.85	14243.98
800.182	14157.42
800.513	14175.28
800.844	14007.82
801.175	14149.06
801.506	14112.45
801.837	14012.57
802.168	13926.24
802.499	13949.29
802.83	13823.2
803.161	13767.15
803.491	13874.04
803.822	13794.27
804.153	13730.99
804.483	13581.39
804.814	13594.73
805.145	13616.2
805.475	13571.23
805.805	13553.15
806.136	13527.38
806.466	13485.35
806.796	13450.78
807.126	13290.55
807.457	13332.14
807.787	13355.64
808.117	13174.4
808.447	13246.71
808.777	13261.85
809.107	13113.38
809.436	13073.84
809.766	13049.43
810.096	13082.42
810.426	12987.06
810.755	12992.26
811.085	12943.67
811.414	12928.76
811.744	12843.56
812.073	12881.98
812.403	12780.51
812.732	12788.42
813.061	12712.72
813.39	12654.19
813.719	12630.46
814.049	12803.34
814.378	12687.86
814.707	12546.85
815.036	12621.19
815.365	12457.36
815.693	12352.95
816.022	12307.53
816.351	12406.74
816.68	12346.4
817.008	12332.61
817.337	12218.94
817.665	12332.16
817.994	12223.92
818.322	12256.68
818.651	12154.54
818.979	12090.81
819.307	12164.26
819.636	12072.73
819.964	12067.76
820.292	12090.13
820.62	12081.09
820.948	12031.38
821.276	12077.03
821.604	11982.11
821.932	12053.3
822.259	12010.36
822.587	11898.27
822.915	11949.8
823.243	12061.43
823.57	12048.78
823.898	12026.86
824.225	11936.92
824.553	11966.3
824.88	11877.26
825.207	11961.78
825.535	11877.26
825.862	11947.99
826.189	11928.78
826.516	12063.92
826.843	12009.91
827.17	11973.75
827.497	11945.28
827.824	11912.51
828.151	11944.6
828.478	11986.41
828.805	11982.34
829.131	11893.53
829.458	11856.92
829.785	11856.47
830.111	11892.4
830.438	11921.32
830.764	11887.43
831.09	11906.64
831.417	11853.3
831.743	11922.91
832.069	11886.07
832.395	11788
832.722	11891.04
833.048	11826.64
833.374	11841.33
833.7	11742.8
834.026	11853.08
834.351	11753.87
834.677	11840.65
835.003	11834.77
835.329	11778.73
835.654	11773.08
835.98	11761.1
836.306	11727.88
836.631	11638.17
836.956	11699.18
837.282	11738.5
837.607	11591.62
837.932	11604.72
838.258	11635.91
838.583	11561.33
838.908	11526.99
839.233	11486.76
839.558	11542.35
839.883	11449.7
840.208	11430.26
840.533	11394.79
840.858	11427.33
841.182	11406.31
841.507	11441.11
841.832	11327.67
842.156	11331.28
842.481	11319.76
842.805	11261.23
843.13	11240.21
843.454	11235.47
843.778	11215.13
844.103	11181.01
844.427	11145.07
844.751	11109.59
845.075	11072.08
845.399	11031.4
845.723	11069.37
846.047	10994.8
846.371	10967.68
846.695	10919.32
847.019	10811.75
847.343	10843.84
847.666	10792.09
847.99	10675.03
848.313	10685.65
848.637	10605.88
848.96	10616.27
849.284	10582.15
849.607	10524.98
849.931	10494.02
850.254	10441.36
850.577	10388.48
850.9	10334.93
851.223	10289.28
851.546	10165.89
851.869	10141.26
852.192	10250.41
852.515	10156.63
852.838	10117.53
853.161	10079.57
853.483	10086.8
853.806	10023.97
854.129	10021.26
854.451	9953.47
854.774	9948.72
855.096	9863.75
855.419	9847.71
855.741	9840.02
856.063	9835.5
856.385	9774.94
856.708	9681.38
857.03	9721.38
857.352	9737.65
857.674	9628.05
857.996	9593.25
858.318	9583.99
858.64	9579.47
858.961	9560.03
859.283	9542.18
859.605	9467.38
859.926	9497.66
860.248	9451.33
860.57	9421.73
860.891	9344.67
861.212	9410.2
861.534	9331.11
861.855	9325.91
862.176	9348.51
862.498	9328.4
862.819	9296.99
863.14	9275.74
863.461	9278.23
863.782	9234.39
864.103	9214.73
864.424	9149.65
864.745	9172.92
865.065	9150.55
865.386	9144
865.707	9100.38
866.027	9067.84
866.348	9062.87
866.668	9127.73
866.989	9027.84
867.309	8994.85
867.63	9040.5
867.95	8969.76
868.27	8966.83
868.59	8932.25
868.91	8926.38
869.23	8972.93
869.55	8878.24
869.87	8948.3
870.19	8903.1
870.51	8876.43
870.83	8853.61
871.15	8849.32
871.469	8854.96
871.789	8896.77
872.109	8794.18
872.428	8739.71
872.748	8812.93
873.067	8838.92
873.386	8844.57
873.706	8760.5
874.025	8675.53
874.344	8755.08
874.663	8718.25
874.982	8671.47
875.301	8664.91
875.62	8658.81
875.939	8642.77
876.258	8599.6
876.577	8599.15
876.896	8598.7
877.214	8516.89
877.533	8535.65
877.852	8525.93
878.17	8576.78
878.489	8502.43
878.807	8537.23
879.125	8482.77
879.444	8498.14
879.762	8503.34
880.08	8514.86
880.398	8387.41
880.716	8447.07
881.034	8389.44
881.352	8371.14
881.67	8368.65
881.988	8351.25
882.306	8337.46
882.624	8310.35
882.941	8272.83
883.259	8234.42
883.577	8260.86
883.894	8208.65
884.212	8231.48
884.529	8235.77
884.846	8153.74
885.164	8229.44
885.481	8105.61
885.798	8127.53
886.115	8109
886.432	8142.67
886.75	8094.08
887.067	8123.01
887.383	8094.98
887.7	8062.22
888.017	8022.44
888.334	8036.68
888.651	7938.83
888.967	7959.17
889.284	7917.14
889.6	7923.24
889.917	7865.16
890.233	7878.95
890.55	7887.76
890.866	7841.88
891.182	7834.88
891.498	7814.99
891.815	7717.82
892.131	7739.97
892.447	7690.48
892.763	7695.9
893.079	7645.05
893.395	7664.71
893.71	7638.05
894.026	7557.15
894.342	7548.33
894.657	7498.16
894.973	7501.33
895.289	7497.49
895.604	7506.53
895.92	7498.39
896.235	7355.8
896.55	7397.38
896.865	7332.52
897.181	7331.84
897.496	7377.94
897.811	7280.77
898.126	7258.17
898.441	7229.92
898.756	7217.04
899.071	7164.84
899.386	7179.98
899.7	7098.17
900.015	7079.42
900.33	7067.22
900.644	7010.72
900.959	7031.74
901.273	7010.49
901.588	6991.06
901.902	6961.23
902.216	6939.08
902.531	6918.29
902.845	6908.8
903.159	6841.46
903.473	6861.8
903.787	6806.43
904.101	6821.35
904.415	6745.42
904.729	6747.45
905.042	6719.65
905.356	6669.71
905.67	6718.3
905.984	6696.38
906.297	6687.34
906.611	6657.28
906.924	6528.47
907.237	6568.92
907.551	6575.7
907.864	6508.36
908.177	6508.36
908.491	6493.9
908.804	6456.61
909.117	6354.47
909.43	6349.04
909.743	6318.76
910.056	6335.94
910.368	6302.04
910.681	6286.9
910.994	6248.03
911.307	6234.92
911.619	6192.89
911.932	6203.96
912.244	6128.26
912.557	6132.32
912.869	6103.85
913.181	6076.96
913.494	6072.44
913.806	6050.07
914.118	6012.78
914.43	5989.05
914.742	5993.57
915.054	5958.09
915.366	5933.23
915.678	5878.32
915.99	5882.84
916.302	5852.11
916.613	5819.34
916.925	5819.34
917.236	5768.27
917.548	5718.32
917.859	5726.46
918.171	5688.49
918.482	5669.29
918.794	5671.77
919.105	5667.03
919.416	5572.57
919.727	5597.65
920.038	5574.6
920.349	5506.8
920.66	5529.63
920.971	5491.21
921.282	5462.96
921.593	5425.22
921.903	5395.85
922.214	5459.35
922.525	5420.25
922.835	5312.46
923.146	5301.16
923.456	5332.35
923.767	5255.96
924.077	5246.47
924.387	5218.9
924.697	5209.41
925.008	5254.16
925.318	5216.64
925.628	5170.32
925.938	5193.59
926.248	5130.54
926.558	5109.3
926.867	5088.74
927.177	5076.53
927.487	5030.88
927.796	4978.91
928.106	4998.12
928.416	5012.58
928.725	4972.81
929.034	4940.72
929.344	4967.84
929.653	4878.57
929.962	4841.74
930.271	4879.02
930.581	4796.99
930.89	4814.17
931.199	4759.48
931.508	4758.12
931.817	4801.96
932.125	4734.62
932.434	4699.14
932.743	4646.04
933.051	4665.24
933.36	4646.04
933.669	4651.01
933.977	4616.43
934.286	4574.85
934.594	4568.75
934.902	4517.9
935.21	4553.61
935.519	4552.71
935.827	4511.35
936.135	4434.52
936.443	4429.77
936.751	4480.62
937.059	4401.3
937.367	4431.58
937.674	4395.65
937.982	4383.67
938.29	4387.06
938.597	4373.95
938.905	4274.07
939.213	4275.2
939.52	4260.51
939.827	4231.81
940.135	4253.05
940.442	4195.43
940.749	4182.32
941.056	4225.03
941.363	4156.11
941.67	4166.5
941.977	4121.3
942.284	4097.58
942.591	4084.47
942.898	4092.6
943.205	4078.37
943.511	4069.78
943.818	4007.63
944.125	3975.32
944.431	4006.05
944.738	3983.91
945.044	3981.87
945.35	3938.26
945.657	3918.6
945.963	3925.38
946.269	3941.42
946.575	3894.19
946.881	3899.84
947.187	3884.47
947.493	3786.17
947.799	3850.58
948.105	3768.32
948.41	3773.74
948.716	3761.77
949.022	3767.19
949.327	3721.99
949.633	3697.13
949.938	3695.33
950.244	3724.25
950.549	3664.37
950.854	3661.66
951.16	3656.68
951.465	3679.51
951.77	3584.14
952.075	3630.92
952.38	3621.66
952.685	3609.23
952.99	3532.39
953.294	3579.85
953.599	3488.33
953.904	3507.53
954.209	3479.96
954.513	3465.05
954.818	3455.11
955.122	3417.82
955.426	3464.82
955.731	3434.54
956.035	3386.63
956.339	3375.11
956.643	3390.93
956.948	3349.8
957.252	3343.7
957.556	3349.12
957.86	3349.57
958.163	3331.49
958.467	3276.81
958.771	3254.89
959.075	3249.01
959.378	3273.64
959.682	3256.24
959.985	3237.94
960.289	3212.63
960.592	3178.5
960.896	3193.87
961.199	3146.64
961.502	3170.82
961.805	3145.74
962.108	3140.31
962.411	3120.43
962.714	3113.42
963.017	3074.78
963.32	3117.71
963.623	3062.12
963.926	3034.55
964.228	3010.6
964.531	3003.82
964.833	3039.3
965.136	3013.99
965.438	2983.48
965.741	2944.61
966.043	2993.2
966.345	2955.68
966.648	2970.37
966.95	2948
967.252	2940.77
967.554	2860.09
967.856	2897.38
968.158	2868
968.46	2876.37
968.761	2814.67
969.063	2818.06
969.365	2826.2
969.666	2793.43
969.968	2777.61
970.269	2774.67
970.571	2750.49
970.872	2773.99
971.174	2751.4
971.475	2746.65
971.776	2730.83
972.077	2717.95
972.378	2704.17
972.679	2668.23
972.98	2638.18
973.281	2687.22
973.582	2707.1
973.883	2661
974.183	2649.25
974.484	2637.05
974.785	2622.13
975.085	2638.86
975.386	2604.96
975.686	2595.24
975.986	2573.77
976.287	2548.46
976.587	2544.17
976.887	2523.61
977.187	2533.1
977.487	2534
977.787	2506.21
978.087	2503.95
978.387	2510.72
978.687	2467.56
978.987	2464.4
979.286	2456.94
979.586	2425.76
979.885	2435.7
980.185	2424.17
980.484	2412.2
980.784	2374.91
981.083	2404.29
981.382	2383.04
981.682	2347.34
981.981	2341.46
982.28	2354.8
982.579	2374.46
982.878	2366.77
983.177	2332.88
983.475	2308.02
983.774	2305.31
984.073	2288.81
984.372	2270.28
984.67	2280.22
984.969	2248.13
985.267	2276.61
985.566	2224.63
985.864	2245.2
986.162	2243.16
986.461	2231.41
986.759	2218.76
987.057	2210.85
987.355	2213.33
987.653	2214.91
987.951	2174.91
988.249	2175.14
988.547	2175.59
988.844	2131.98
989.142	2154.8
989.44	2134.01
989.737	2108.48
990.035	2110.06
990.332	2073
990.63	2078.19
990.927	2092.66
991.224	2043.39
991.521	2053.56
991.819	2062.6
992.116	2011.98
992.413	2019.44
992.71	2016.05
993.006	2025.09
993.303	1972.89
993.6	2022.6
993.897	2027.8
994.193	1997.29
994.49	1970.63
994.787	1982.38
995.083	1934.69
995.379	1928.82
995.676	1923.4
995.972	1936.05
996.268	1900.8
996.565	1895.83
996.861	1869.61
997.157	1881.81
997.453	1852.66
997.749	1849.5
998.044	1853.12
998.34	1879.78
998.636	1827.81
998.932	1809.27
999.227	1824.42
999.523	1816.73
999.818	1799.56
1000.114	1803.85
1000.409	1771.99
1000.704	1762.04
1001	1780.12
1001.295	1751.42
1001.59	1755.94
1001.885	1719.79
1002.18	1731.08
1002.475	1695.61
1002.77	1708.71
1003.065	1700.58
1003.359	1731.76
1003.654	1702.38
1003.949	1672.78
1004.243	1664.65
1004.538	1695.38
1004.832	1655.38
1005.127	1650.41
1005.421	1609.28
1005.715	1632.1
1006.009	1619.9
1006.304	1608.6
1006.598	1593.23
1006.892	1603.4
1007.186	1589.85
1007.48	1599.11
1007.773	1561.15
1008.067	1538.1
1008.361	1529.06
1008.655	1506.23
1008.948	1537.64
1009.242	1541.71
1009.535	1498.32
1009.829	1474.14
1010.122	1488.15
1010.415	1508.72
1010.708	1470.75
1011.001	1496.51
1011.295	1478.44
1011.588	1457.65
1011.881	1465.33
1012.173	1464.88
1012.466	1438.66
1012.759	1421.94
1013.052	1433.47
1013.344	1424.2
1013.637	1409.28
1013.93	1376.97
1014.222	1403.86
1014.514	1423.75
1014.807	1394.14
1015.099	1352.79
1015.391	1367.03
1015.683	1375.16
1015.976	1363.64
1016.268	1328.84
1016.56	1370.87
1016.851	1326.35
1017.143	1313.02
1017.435	1326.12
1017.727	1305.56
1018.018	1279.8
1018.31	1291.55
1018.602	1285.67
1018.893	1282.96
1019.185	1247.26
1019.476	1233.47
1019.767	1235.5
1020.058	1251.77
1020.35	1233.7
1020.641	1225.11
1020.932	1205.67
1021.223	1246.35
1021.514	1193.02
1021.804	1195.51
1022.095	1183.53
1022.386	1181.27
1022.677	1196.41
1022.967	1167.48
1023.258	1138.56
1023.548	1154.15
1023.839	1138.33
1024.129	1163.19
1024.419	1125
1024.709	1125.9
1025	1131.1
1025.29	1119.35
1025.58	1101.27
1025.87	1091.1
1026.16	1111.21
1026.449	1075.06
1026.739	1081.16
1027.029	1061.95
1027.319	1064.66
1027.608	1056.98
1027.898	1038.45
1028.187	1058.11
1028.477	1042.06
1028.766	1028.96
1029.055	1027.6
1029.344	1031.89
1029.634	969.07
1029.923	991.67
1030.212	994.83
1030.501	989.41
1030.79	987.15
1031.078	974.04
1031.367	973.82
1031.656	988.05
1031.945	969.97
1032.233	952.8
1032.522	949.86
1032.81	944.44
1033.099	958
1033.387	937.21
1033.675	939.01
1033.963	936.08
1034.251	929.07
1034.54	910.77
1034.828	911.44
1035.116	914.61
1035.403	913.03
1035.691	899.47
1035.979	894.5
1036.267	898.11
1036.554	864.89
1036.842	836.87
1037.129	859.92
1037.417	857.21
1037.704	857.89
1037.992	834.61
1038.279	856.76
1038.566	820.37
1038.853	820.37
1039.14	820.37
