Data from tablewood_dark_bookshelf_FLMS001491_00080.txt Node
Date: Wed Feb 08 14:15:37 GMT 2017
User: dcchb
Spectrometer: FLMS00149
Trigger mode: 0
Integration Time (sec): 2.000000E-2
Scans to average: 10
Electric dark correction enabled: true
Nonlinearity correction enabled: false
Boxcar width: 0
XAxis mode: Wavelengths
Number of Pixels in Spectrum: 2048
>>>>>Begin Spectral Data<<<<<
341.393	-20.52
341.776	-20.52
342.16	-20.52
342.543	-68.66
342.927	-73.63
343.31	-64.81
343.693	-51.03
344.077	-61.42
344.46	-70.69
344.843	-48.32
345.226	-45.61
345.61	-43.8
345.993	-25.04
346.376	-4.25
346.759	14.05
347.142	23.09
347.525	48.63
347.908	47.95
348.291	85.46
348.674	89.76
349.057	106.03
349.44	131.79
349.823	151.9
350.206	160.04
350.588	183.31
350.971	183.99
351.354	228.28
351.737	230.09
352.119	260.15
352.502	249.75
352.884	265.57
353.267	248.85
353.65	289.07
354.032	277.55
354.414	319.13
354.797	282.97
355.179	308.51
355.562	289.75
355.944	321.16
356.326	321.62
356.709	307.15
357.091	327.04
357.473	325.46
357.855	347.6
358.238	329.98
358.62	364.33
359.002	337.43
359.384	342.41
359.766	335.63
360.148	334.5
360.53	353.03
360.912	336.3
361.294	339.02
361.676	312.58
362.057	312.58
362.439	306.47
362.821	329.07
363.203	322.29
363.584	316.42
363.966	308.96
364.348	347.6
364.729	323.42
365.111	317.77
365.493	317.1
365.874	329.98
366.256	322.29
366.637	318.68
367.019	326.14
367.4	306.47
367.781	338.56
368.163	329.07
368.544	333.14
368.925	314.61
369.306	316.87
369.688	308.96
370.069	318.23
370.45	315.06
370.831	347.83
371.212	331.79
371.593	299.7
371.974	325.23
372.355	332.24
372.736	313.48
373.117	335.85
373.498	328.17
373.879	311.45
374.26	299.7
374.641	326.14
375.021	324.1
375.402	330.88
375.783	327.49
376.163	342.41
376.544	336.3
376.925	317.1
377.305	340.15
377.686	361.84
378.066	372.46
378.447	354.61
378.827	359.58
379.208	328.4
379.588	356.42
379.968	355.97
380.349	356.42
380.729	335.63
381.109	367.94
381.489	371.11
381.87	353.71
382.25	365.68
382.63	370.88
383.01	364.33
383.39	363.65
383.77	384.44
384.15	372.69
384.53	376.98
384.91	389.41
385.29	377.21
385.67	376.3
386.049	380.15
386.429	391.44
386.809	377.21
387.189	399.81
387.568	403.65
387.948	387.6
388.328	403.87
388.707	377.66
389.087	398
389.466	391.9
389.846	411.33
390.225	423.31
390.605	398.45
390.984	416.75
391.363	416.3
391.743	410.88
392.122	430.09
392.501	419.01
392.881	426.7
393.26	425.12
393.639	433.7
394.018	420.82
394.397	417.21
394.776	451.56
395.155	446.81
395.534	460.14
395.913	428.28
396.292	441.84
396.671	458.56
397.05	464.21
397.429	453.59
397.808	461.5
398.186	468.73
398.565	463.98
398.944	494.49
399.323	471.67
399.701	471.89
400.08	478.67
400.458	455.62
400.837	469.41
401.215	487.94
401.594	465.34
401.972	502.18
402.351	496.07
402.729	493.14
403.107	506.24
403.486	504.44
403.864	534.94
404.242	503.98
404.62	513.25
404.999	496.75
405.377	525.68
405.755	520.03
406.133	543.76
406.511	534.94
406.889	534.94
407.267	561.16
407.645	557.32
408.023	563.19
408.401	572
408.779	573.13
409.156	562.29
409.534	577.65
409.912	574.04
410.29	570.87
410.667	560.71
411.045	589.41
411.422	582.4
411.8	608.84
412.178	575.85
412.555	625.79
412.933	615.62
413.31	649.52
413.687	643.87
414.065	639.35
414.442	649.29
414.819	658.1
415.197	673.7
415.574	638.67
415.951	681.15
416.328	664.43
416.705	675.5
417.082	687.71
417.46	685.45
417.837	679.35
418.214	677.31
418.591	687.26
418.967	717.76
419.344	699.01
419.721	692.45
420.098	729.51
420.475	715.28
420.852	744.2
421.228	729.29
421.605	734.71
421.982	746.01
422.358	764.32
422.735	754.37
423.111	746.69
423.488	770.42
423.864	769.29
424.241	781.72
424.617	809.06
424.994	799.12
425.37	787.37
425.746	808.16
426.123	794.15
426.499	818.78
426.875	824.2
427.251	834.14
427.627	844.09
428.003	868.27
428.379	854.94
428.756	865.78
429.132	889.96
429.507	903.07
429.883	889.74
430.259	924.09
430.635	909.85
431.011	888.61
431.387	948.27
431.763	955.05
432.138	967.47
432.514	961.82
432.89	996.63
433.265	1007.7
433.641	1012.45
434.016	990.98
434.392	1029.39
434.767	1044.08
435.143	1033.24
435.518	1060.35
435.894	1066.46
436.269	1055.83
436.644	1059.68
437.02	1089.51
437.395	1074.14
437.77	1086.12
438.145	1110.3
438.52	1122.72
438.895	1123.85
439.271	1129.05
439.646	1172.89
440.021	1150.07
440.395	1151.2
440.77	1160.92
441.145	1176.28
441.52	1195.72
441.895	1206.11
442.27	1213.57
442.645	1223.29
443.019	1225.55
443.394	1219.45
443.769	1224.42
444.143	1241.59
444.518	1269.84
444.892	1239.78
445.267	1255.38
445.641	1286.79
446.016	1278.2
446.39	1260.35
446.764	1284.53
447.139	1319.78
447.513	1309.39
447.887	1325.43
448.262	1309.61
448.636	1367.46
449.01	1358.65
449.384	1336.73
449.758	1355.03
450.132	1400.91
450.506	1365.43
450.88	1390.51
451.254	1392.32
451.628	1410.85
452.002	1414.24
452.376	1421.02
452.75	1486.1
453.123	1474.58
453.497	1482.49
453.871	1491.08
454.244	1516.61
454.618	1489.95
454.992	1552.77
455.365	1546.89
455.739	1572.88
456.112	1567.91
456.486	1581.92
456.859	1617.17
457.232	1638.87
457.606	1638.64
457.979	1675.93
458.352	1689.49
458.725	1720.68
459.099	1736.04
459.472	1750.28
459.845	1782.14
460.218	1803.38
460.591	1814.68
460.964	1801.58
461.337	1828.24
461.71	1885.87
462.083	1867.34
462.456	1918.86
462.829	1895.59
463.201	1940.33
463.574	1959.99
463.947	1963.38
464.32	2007.22
464.692	2004.06
465.065	2054.9
465.438	2095.58
465.81	2095.35
466.183	2126.77
466.555	2172.41
466.928	2166.77
467.3	2159.76
467.672	2192.98
468.045	2268.68
468.417	2272.3
468.789	2278.85
469.161	2273.2
469.534	2372.64
469.906	2394.1
470.278	2389.58
470.65	2466.87
471.022	2475.91
471.394	2535.57
471.766	2546.64
472.138	2603.59
472.51	2578.28
472.882	2641.33
473.253	2678.39
473.625	2727.2
473.997	2789.8
474.369	2795.22
474.74	2837.26
475.112	2892.4
475.484	2944.82
475.855	2956.8
476.227	2980.3
476.598	3073.18
476.97	3065.05
477.341	3143.24
477.713	3168.09
478.084	3221.43
478.455	3308.43
478.827	3312.95
479.198	3401.31
479.569	3431.14
479.94	3514.53
480.311	3541.19
480.682	3604.47
481.053	3640.62
481.424	3683.11
481.795	3746.84
482.166	3794.74
482.537	3850.34
482.908	3921.3
483.279	3982.54
483.65	4072.03
484.021	4145.02
484.391	4168.07
484.762	4254.62
485.133	4271.12
485.503	4284.68
485.874	4397.44
486.244	4460.72
486.615	4507.95
486.985	4571.67
487.356	4634.72
487.726	4663.42
488.097	4765.79
488.467	4783.19
488.837	4917.43
489.207	4903.64
489.578	4963.75
489.948	5065.45
490.318	5087.59
490.688	5124.65
491.058	5186.57
491.428	5274.03
491.798	5300.69
492.168	5392.67
492.538	5410.52
492.908	5496.17
493.278	5526.9
493.648	5596.51
494.017	5629.05
494.387	5692.1
494.757	5761.92
495.126	5793.79
495.496	5803.05
495.866	5862.26
496.235	5951.98
496.605	6015.25
496.974	6043.05
497.344	6107.68
497.713	6112.88
498.082	6200.11
498.452	6234.68
498.821	6249.14
499.19	6243.27
499.559	6281.46
499.928	6321.23
500.298	6386.09
500.667	6466.54
501.036	6519.64
501.405	6561
501.774	6561.68
502.143	6585.86
502.512	6675.57
502.88	6691.17
503.249	6729.81
503.618	6767.77
503.987	6844.83
504.356	6859.3
504.724	6981.1
505.093	6975
505.462	6939.07
505.83	7011.16
506.199	7141.55
506.567	7193.3
506.936	7212.51
507.304	7309.68
507.672	7326.4
508.041	7330.47
508.409	7432.39
508.777	7504.48
509.145	7535.89
509.514	7588.77
509.882	7639.16
510.25	7621.54
510.618	7746.28
510.986	7720.52
511.354	7809.1
511.722	7887.97
512.09	7953.05
512.458	7979.95
512.826	8025.82
513.193	8085.03
513.561	8119.15
513.929	8226.72
514.297	8270.11
514.664	8347.85
515.032	8380.84
515.4	8422.19
515.767	8498.8
516.135	8592.58
516.502	8530.89
516.869	8681.17
517.237	8751.9
517.604	8691.11
517.972	8786.48
518.339	8879.36
518.706	8923.65
519.073	9002.52
519.44	9059.92
519.808	9076.41
520.175	9132.46
520.542	9320.25
520.909	9301.27
521.276	9275.05
521.643	9387.14
522.009	9505.33
522.376	9603.86
522.743	9616.74
523.11	9747.36
523.477	9779.22
523.843	9880.69
524.21	10006.56
524.577	10002.49
524.943	10144.86
525.31	10149.83
525.676	10249.26
526.043	10305.99
526.409	10386.44
526.776	10472.99
527.142	10523.38
527.508	10587.33
527.874	10718.63
528.241	10745.07
528.607	10769.25
528.973	10876.14
529.339	10917.72
529.705	11000.66
530.071	11086.3
530.437	11148.22
530.803	11259.18
531.169	11264.38
531.535	11326.98
531.901	11352.74
532.267	11415.34
532.632	11537.59
532.998	11506.63
533.364	11611.71
533.73	11723.8
534.095	11763.35
534.461	11783.24
534.826	11928.99
535.192	11930.8
535.557	11936.45
535.923	12017.35
536.288	12063.45
536.653	12093.74
537.019	12138.48
537.384	12187.07
537.749	12325.82
538.114	12291.92
538.479	12370.11
538.845	12452.82
539.21	12420.28
539.575	12523.1
539.94	12555.42
540.305	12706.37
540.67	12614.17
541.034	12646.04
541.399	12641.97
541.764	12744.79
542.129	12822.08
542.494	12863.43
542.858	12943.2
543.223	12923.54
543.587	13047.61
543.952	13022.98
544.316	13091.68
544.681	13065.24
545.045	13161.96
545.41	13295.96
545.774	13256.19
546.138	13332.12
546.503	13382.52
546.867	13406.47
547.231	13540.7
547.595	13460.93
547.959	13612.57
548.324	13623.41
548.688	13683.75
549.052	13704.09
549.416	13744.31
549.779	13744.99
550.143	13742.96
550.507	13921.26
550.871	13933.91
551.235	13879.9
551.599	14077.41
551.962	14120.8
552.326	14119.22
552.689	14237.18
553.053	14169.61
553.417	14265.66
553.78	14423.62
554.143	14453.9
554.507	14535.25
554.87	14580.45
555.234	14708.81
555.597	14618.87
555.96	14693.22
556.323	14784.51
556.686	14820.22
557.05	14923.49
557.413	15013.43
557.776	15031.51
558.139	15168.68
558.502	15202.35
558.865	15270.38
559.228	15348.57
559.59	15438.28
559.953	15486.19
560.316	15522.35
560.679	15589.24
561.041	15749.91
561.404	15767.54
561.767	15900.19
562.129	15896.8
562.492	16013.18
562.854	15994.88
563.217	16072.61
563.579	16217.24
563.941	16321.87
564.304	16388.76
564.666	16528.42
565.028	16542.43
565.39	16615.65
565.753	16672.6
566.115	16729.55
566.477	16838.24
566.839	16969.54
567.201	17094.96
567.563	17121.63
567.925	17277.78
568.287	17238.46
568.648	17285.69
569.01	17445.46
569.372	17529.98
569.734	17484.55
570.095	17615.17
570.457	17803.42
570.819	17808.39
571.18	17890.87
571.542	17883.87
571.903	18039.79
572.265	18046.57
572.626	18139.23
572.987	18151.66
573.349	18183.75
573.71	18232.11
574.071	18421.03
574.432	18479.56
574.794	18609.5
575.155	18620.12
575.516	18563.4
575.877	18706.22
576.238	18856.95
576.599	18938.98
576.96	18825.08
577.32	18935.82
577.681	19081.35
578.042	19091.52
578.403	19082.25
578.763	19199.09
579.124	19288.8
579.485	19305.98
579.845	19409.48
580.206	19463.03
580.566	19366.09
580.927	19441.79
581.287	19634.78
581.648	19623.48
582.008	19721.33
582.368	19694.89
582.728	19747.55
583.089	19689.02
583.449	19708
583.809	19795.91
584.169	19893.98
584.529	19834.78
584.889	20045.39
585.249	19910.93
585.609	19913.42
585.969	20026.63
586.329	20019.18
586.688	20070.93
587.048	20056.46
587.408	20140.3
587.768	20125.61
588.127	20119.29
588.487	20114.09
588.846	20258.04
589.206	20222.11
589.565	20244.93
589.925	20251.26
590.284	20315.21
590.643	20406.29
591.003	20432.5
591.362	20516.79
591.721	20519.05
592.08	20419.39
592.44	20544.59
592.799	20583.68
593.158	20608.77
593.517	20698.93
593.876	20638.6
594.235	20635.43
594.593	20710.01
594.952	20772.6
595.311	20679.5
595.67	20781.19
596.029	20872.94
596.387	20922.2
596.746	21002.65
597.104	20933.28
597.463	20836.56
597.822	21093.5
598.18	20882.88
598.538	20956.55
598.897	21055.99
599.255	21016.21
599.613	21271.8
599.972	21225.92
600.33	21257.79
600.688	21234.06
601.046	21324
601.404	21404.23
601.762	21398.8
602.12	21476.77
602.478	21371.68
602.836	21378.01
603.194	21432.25
603.552	21442.64
603.91	21450.1
604.268	21453.72
604.625	21485.35
604.983	21585.46
605.341	21584.11
605.698	21578.46
606.056	21629.3
606.413	21599.02
606.771	21752.92
607.128	21883.08
607.485	21796.98
607.843	21799.47
608.2	21903.65
608.557	21917.66
608.914	21824.33
609.272	22074.26
609.629	21953.82
609.986	22151.55
610.343	22049.86
610.7	22156.52
611.057	22132.79
611.414	22153.36
611.771	22170.76
612.127	22309.96
612.484	22296.41
612.841	22347.03
613.198	22213.7
613.554	22278.1
613.911	22489.62
614.267	22352.67
614.624	22357.19
614.98	22408.49
615.337	22519.9
615.693	22595.83
616.05	22527.36
616.406	22669.95
616.762	22621.59
617.118	22527.81
617.475	22633.35
617.831	22674.93
618.187	22717.41
618.543	22712.21
618.899	22773.23
619.255	22830.85
619.611	22826.56
619.967	22915.82
620.323	22940
620.678	22862.49
621.034	22736.85
621.39	22772.32
621.746	22745.66
622.101	22955.82
622.457	22950.63
622.812	22887.12
623.168	23006.22
623.523	22961.92
623.879	23012.09
624.234	22804.64
624.589	22960.57
624.945	22801.93
625.3	22950.17
625.655	22964.18
626.01	22992.88
626.365	22869.5
626.72	22958.99
627.075	22987.69
627.43	22978.2
627.785	22919.21
628.14	22939.1
628.495	23008.25
628.85	22933.9
629.205	22956.5
629.559	23068.36
629.914	22883.51
630.269	22966.22
630.623	22829.05
630.978	22799.44
631.332	22922.15
631.687	22883.96
632.041	22867.01
632.396	22824.53
632.75	22805.54
633.104	22846.22
633.459	22761.7
633.813	22754.7
634.167	22813.45
634.521	22659.79
634.875	22784.08
635.229	22570.3
635.583	22497.3
635.937	22585.21
636.291	22537.3
636.645	22576.17
636.999	22535.95
637.352	22673.12
637.706	22465.44
638.06	22614.14
638.413	22540.92
638.767	22485.55
639.121	22479
639.474	22201.49
639.828	22320.81
640.181	22386.12
640.534	22374.14
640.888	22267.25
641.241	22207.14
641.594	22234.49
641.947	22300.47
642.301	22229.06
642.654	22185
643.007	22213.02
643.36	22194.71
643.713	22144.32
644.066	22274.48
644.419	22009.86
644.771	22053.93
645.124	21772.13
645.477	21607.84
645.83	21532.36
646.182	21437.67
646.535	21357.67
646.888	21437.44
647.24	21368.75
647.593	21415.98
647.945	21420.5
648.298	21259.37
648.65	21244.68
649.002	21267.05
649.355	21352.02
649.707	21227.51
650.059	21429.99
650.411	21693.03
650.763	21653.71
651.115	21848.28
651.467	21850.54
651.819	21768.28
652.171	21880.37
652.523	21774.16
652.875	21754.95
653.227	21636.54
653.578	21823.88
653.93	21692.35
654.282	21635.63
654.633	21554.5
654.985	21547.95
655.337	21693.71
655.688	21646.48
656.039	21681.96
656.391	21521.96
656.742	21546.59
657.094	21548.63
657.445	21679.25
657.796	21585.01
658.147	21618.01
658.498	21573.49
658.849	21569.64
659.2	21487.39
659.551	21402.42
659.902	21582.53
660.253	21536.88
660.604	21538.01
660.955	21432.25
661.306	21520.61
661.656	21524.45
662.007	21460.95
662.358	21499.36
662.708	21462.98
663.059	21420.5
663.409	21316.09
663.76	21504.56
664.11	21442.42
664.461	21506.14
664.811	21549.08
665.161	21568.06
665.511	21418.46
665.862	21418.69
666.212	21501.17
666.562	21489.42
666.912	21442.87
667.262	21457.56
667.612	21502.3
667.962	21446.26
668.312	21512.92
668.662	21519.93
669.011	21473.6
669.361	21416.65
669.711	21335.98
670.06	21429.76
670.41	21355.19
670.76	21299.82
671.109	21374.85
671.459	21330.33
671.808	21339.14
672.157	21438.12
672.507	21240.61
672.856	21241.74
673.205	21286.49
673.554	21343.21
673.904	21149.99
674.253	21345.24
674.602	21291.23
674.951	20898.02
675.3	20909.78
675.649	21320.16
675.998	21188.64
676.346	21147.28
676.695	21281.29
677.044	21157.68
677.393	21155.42
677.741	21215.08
678.09	21131.92
678.438	21052.37
678.787	21097.34
679.135	21158.58
679.484	20983.67
679.832	21023.44
680.181	20925.14
680.529	21002.43
680.877	21045.36
681.225	20939.38
681.573	21008.98
681.922	20830
682.27	20875.65
682.618	20898.02
682.966	20867.74
683.314	20764.47
683.661	20797.91
684.009	20721.31
684.357	20569.22
684.705	20682.89
685.053	20591.37
685.4	20616.9
685.748	20505.49
686.095	20581.87
686.443	20538.26
686.79	20466.17
687.138	20456.68
687.485	20489
687.832	20311.37
688.18	20410.81
688.527	20243.58
688.874	20267.08
689.221	20254.43
689.568	20134.65
689.915	20028.67
690.262	20029.8
690.609	20013.08
690.956	19964.49
691.303	20005.39
691.65	19805.85
691.997	19819.41
692.344	19712.52
692.69	19681.33
693.037	19743.7
693.383	19523.6
693.73	19678.4
694.077	19567.66
694.423	19564.95
694.769	19392.3
695.116	19488.57
695.462	19422.81
695.808	19387.56
696.155	19344.84
696.501	19087.68
696.847	19272.08
697.193	19084.51
697.539	19212.19
697.885	18999.54
698.231	18991.41
698.577	19032.08
698.923	19006.77
699.269	18816.27
699.614	18698.99
699.96	18724.3
700.306	18816.72
700.651	18696.05
700.997	18635.71
701.342	18621.47
701.688	18555.49
702.033	18597.52
702.379	18532.66
702.724	18420.57
703.069	18494.92
703.415	18215.61
703.76	18230.3
704.105	18192.11
704.45	18145.55
704.795	18120.92
705.14	18026.69
705.485	18059
705.83	17938.78
706.175	17909.63
706.52	17826.24
706.865	17770.87
707.209	17858.78
707.554	17774.26
707.899	17728.16
708.243	17748.28
708.588	17718.67
708.932	17603.87
709.277	17736.3
709.621	17579.24
709.966	17503.31
710.31	17525.01
710.654	17345.8
710.998	17373.14
711.342	17408.62
711.687	17411.34
712.031	17356.2
712.375	17216.54
712.719	17281.62
713.063	17241.62
713.407	17373.82
713.75	17252.7
714.094	17198.01
714.438	17119.59
714.782	17148.52
715.125	16964.79
715.469	16979.03
715.812	16930.22
716.156	16851.35
716.499	16870.79
716.843	16960.95
717.186	16787.85
717.53	16861.97
717.873	16896.77
718.216	16851.12
718.559	16743.33
718.902	16620.17
719.246	16725.25
719.589	16696.55
719.932	16579.72
720.275	16592.37
720.617	16623.79
720.96	16542.21
721.303	16577.91
721.646	16559.15
721.989	16540.17
722.331	16518.93
722.674	16430.12
723.016	16465.37
723.359	16441.42
723.701	16340.18
724.044	16349.89
724.386	16273.74
724.729	16395.09
725.071	16377.92
725.413	16313.06
725.755	16242.55
726.097	16236
726.439	16133.18
726.782	16175.44
727.124	16191.71
727.465	16095.44
727.807	16171.14
728.149	16088.43
728.491	16016.12
728.833	16068.09
729.175	16017.93
729.516	16062.44
729.858	15950.81
730.199	16016.34
730.541	15875.33
730.882	15957.14
731.224	16040.52
731.565	15860.87
731.906	15876.46
732.248	15954.88
732.589	15941.09
732.93	15753.98
733.271	15855.44
733.612	15875.56
733.953	15940.19
734.294	15806.63
734.635	15663.59
734.976	15765.05
735.317	15758.72
735.658	15698.16
735.999	15728.89
736.339	15629.69
736.68	15768.89
737.021	15616.81
737.361	15598.28
737.702	15692.74
738.042	15653.64
738.383	15617.48
738.723	15668.78
739.063	15550.59
739.404	15540.42
739.744	15567.99
740.084	15526.41
740.424	15564.15
740.764	15439.86
741.104	15585.85
741.444	15478.73
741.784	15377.49
742.124	15536.13
742.464	15465.4
742.804	15406.87
743.143	15442.8
743.483	15319.19
743.823	15310.83
744.162	15371.39
744.502	15344.05
744.841	15234.44
745.181	15325.29
745.52	15255.69
745.86	15314.44
746.199	15266.76
746.538	15221.56
746.877	15268.79
747.216	15311.5
747.556	15211.85
747.895	15270.15
748.234	15129.59
748.573	15161.23
748.911	15250.49
749.25	15184.5
749.589	15147.44
749.928	15089.82
750.267	15055.24
750.605	15156.25
750.944	15026.09
751.283	14899.54
751.621	14928.24
751.96	14911.06
752.298	14930.5
752.636	14988.8
752.975	14855.7
753.313	14811.63
753.651	14856.6
753.989	14740.45
754.327	14699.99
754.666	14742.48
755.004	14763.04
755.342	14745.19
755.679	14573.22
756.017	14575.7
756.355	14641.92
756.693	14594.46
757.031	14645.98
757.368	14537.06
757.706	14503.84
758.044	14423.62
758.381	14453.22
758.719	14381.13
759.056	14380.23
759.394	14342.26
759.731	14299.33
760.068	14282.38
760.405	14185.43
760.743	14150.86
761.08	14164.19
761.417	14042.39
761.754	14088.03
762.091	14037.19
762.428	13951.54
762.765	13909.06
763.102	13950.41
763.438	13836.97
763.775	13857.31
764.112	13827.25
764.449	13832
764.785	13738.21
765.122	13743.41
765.458	13638.33
765.795	13595.62
766.131	13523.75
766.467	13646.01
766.804	13475.39
767.14	13440.82
767.476	13293.25
767.812	13373.02
768.148	13372.8
768.485	13216.42
768.821	13200.15
769.157	13115.4
769.492	13106.82
769.828	13105.46
770.164	12888.52
770.5	12960.38
770.836	12916.76
771.171	12877.44
771.507	12804.68
771.842	12798.12
772.178	12761.74
772.513	12732.81
772.849	12674.06
773.184	12559.26
773.519	12596.55
773.855	12562.2
774.19	12471.35
774.525	12394.74
774.86	12449.43
775.195	12422.31
775.53	12395.65
775.865	12366.04
776.2	12181.87
776.535	12065.26
776.87	12081.53
777.205	12054.87
777.539	11998.14
777.874	12065.49
778.209	11903.91
778.543	11874.08
778.878	11871.37
779.212	11903.01
779.547	11771.26
779.881	11758.15
780.215	11605.16
780.55	11698.04
780.884	11534.65
781.218	11587.08
781.552	11590.25
781.886	11503.02
782.22	11426.18
782.554	11424.37
782.888	11321.55
783.222	11223.7
783.556	11177.38
783.889	11262.35
784.223	11086.76
784.557	11096.47
784.89	11067.32
785.224	11029.81
785.557	10939.19
785.891	10920.43
786.224	10865.75
786.558	10833.88
786.891	10771.28
787.224	10732.42
787.557	10724.96
787.891	10727.22
788.224	10702.59
788.557	10710.95
788.89	10707.56
789.223	10575.36
789.556	10535.58
789.888	10479.54
790.221	10536.71
790.554	10408.13
790.887	10437.73
791.219	10363.39
791.552	10398.19
791.884	10282.94
792.217	10228.93
792.549	10159.1
792.882	10141.47
793.214	10058.76
793.546	10088.59
793.879	9953.9
794.211	9993.68
794.543	10059.21
794.875	9971.53
795.207	9997.52
795.539	9930.85
795.871	9863.06
796.203	9839.33
796.535	9743.51
796.867	9742.39
797.198	9710.97
797.53	9753.91
797.862	9689.05
798.193	9642.73
798.525	9631.88
798.856	9614.93
799.188	9499
799.519	9489.51
799.85	9411.09
800.182	9403.86
800.513	9441.15
800.844	9348.72
801.175	9350.08
801.506	9388.5
801.837	9257.43
802.168	9267.82
802.499	9288.84
802.83	9269.18
803.161	9202.74
803.491	9133.59
803.822	9152.8
804.153	9134.49
804.483	9027.38
804.814	9020.6
805.145	9005.68
805.475	8939.24
805.805	8969.52
806.136	8963.65
806.466	8939.24
806.796	8946.02
807.126	8838.91
807.457	8852.69
807.787	8876.42
808.117	8781.05
808.447	8672.58
808.777	8786.25
809.107	8739.02
809.436	8707.84
809.766	8703.99
810.096	8684.79
810.426	8652.7
810.755	8603.66
811.085	8556.65
811.414	8555.98
811.744	8485.47
812.073	8539.03
812.403	8490.89
812.732	8432.14
813.061	8468.75
813.39	8377.45
813.719	8342.2
814.049	8354.85
814.378	8369.77
814.707	8312.59
815.036	8339.94
815.365	8292.03
815.693	8194.18
816.022	8199.15
816.351	8200.28
816.68	8126.61
817.008	8157.34
817.337	8126.16
817.665	8120.73
817.994	8111.69
818.322	8103.33
818.651	8056.1
818.979	8000.74
819.307	8090.45
819.636	8020.85
819.964	8026.72
820.292	8010.23
820.62	7986.95
820.948	7883
821.276	8036.22
821.604	7963
821.932	7891.81
822.259	7944.47
822.587	7918.25
822.915	7911.02
823.243	7908.53
823.57	7934.97
823.898	7894.07
824.225	7947.86
824.553	7853.17
824.88	7899.72
825.207	7923.68
825.535	7873.73
825.862	7919.16
826.189	7834.41
826.516	7933.85
826.843	7881.64
827.17	7925.26
827.497	7875.54
827.824	7883.45
828.151	7932.72
828.478	7932.49
828.805	7906.95
829.131	7898.59
829.458	7849.1
829.785	7826.5
830.111	7888.2
830.438	7826.73
830.764	7862.21
831.09	7884.13
831.417	7813.4
831.743	7901.53
832.069	7828.99
832.395	7793.74
832.722	7836.67
833.048	7781.31
833.374	7816.33
833.7	7818.82
834.026	7781.31
834.351	7806.62
834.677	7777.24
835.003	7790.35
835.329	7766.62
835.654	7746.96
835.98	7718.03
836.306	7729.1
836.631	7675.32
836.956	7702.21
837.282	7664.7
837.607	7659.5
837.932	7663.34
838.258	7647.07
838.583	7709.22
838.908	7578.37
839.233	7624.02
839.558	7636.45
839.883	7541.54
840.208	7547.87
840.533	7558.49
840.858	7579.96
841.182	7539.51
841.507	7545.15
841.832	7525.04
842.156	7499.28
842.481	7498.6
842.805	7508.32
843.13	7396.23
843.454	7400.3
843.778	7414.54
844.103	7316.69
844.427	7409.57
844.751	7356.01
845.075	7362.79
845.399	7313.52
845.723	7260.64
846.047	7266.97
846.371	7224.03
846.695	7266.97
847.019	7165.96
847.343	7120.31
847.666	7083.7
847.99	7105.62
848.313	7052.06
848.637	7019.07
848.96	7008.67
849.284	6974.1
849.607	6939.75
849.931	6960.99
850.254	6860.2
850.577	6897.04
850.9	6821.56
851.223	6798.28
851.546	6762.35
851.869	6748.79
852.192	6812.74
852.515	6682.8
852.838	6664.95
853.161	6767.1
853.483	6661.79
853.806	6602.58
854.129	6565.75
854.451	6574.78
854.774	6551.73
855.096	6541.79
855.419	6556.03
855.741	6493.2
856.063	6414.34
856.385	6480.32
856.708	6394
857.03	6462.25
857.352	6435.35
857.674	6391.74
857.996	6368.69
858.318	6366.2
858.64	6299.31
858.961	6335.47
859.283	6297.5
859.605	6290.72
859.926	6271.06
860.248	6266.32
860.57	6174.8
860.891	6252.31
861.212	6199.2
861.534	6199.2
861.855	6130.95
862.176	6151.97
862.498	6172.99
862.819	6168.02
863.14	6158.75
863.461	6083.5
863.782	6116.04
864.103	6067.45
864.424	6130.95
864.745	6117.17
865.065	6038.53
865.386	6071.52
865.707	6000.34
866.027	6055.93
866.348	6035.82
866.668	6024.52
866.989	5982.71
867.309	5940
867.63	6007.57
867.95	5968.25
868.27	5965.54
868.59	5957.17
868.91	5919.43
869.23	5887.8
869.55	5879.89
869.87	5922.37
870.19	5909.72
870.51	5910.62
870.83	5863.62
871.15	5844.63
871.469	5859.1
871.789	5862.94
872.109	5836.5
872.428	5837.18
872.748	5874.24
873.067	5808.25
873.386	5844.18
873.706	5829.49
874.025	5814.8
874.344	5772.77
874.663	5765.31
874.982	5756.5
875.301	5800.57
875.62	5747.24
875.939	5736.61
876.258	5694.13
876.577	5704.53
876.896	5759.89
877.214	5666.33
877.533	5698.65
877.852	5694.13
878.17	5674.24
878.489	5692.32
878.807	5725.99
879.125	5665.66
879.444	5661.36
879.762	5648.03
880.08	5637.41
880.398	5599.44
880.716	5627.69
881.034	5597.18
881.352	5606.45
881.67	5610.06
881.988	5620.01
882.306	5587.69
882.624	5525.09
882.941	5558.99
883.259	5471.99
883.577	5530.29
883.894	5526.68
884.212	5476.51
884.529	5471.76
884.846	5490.97
885.164	5457.98
885.481	5421.14
885.798	5450.75
886.115	5417.53
886.432	5442.61
886.75	5423.18
887.067	5397.41
887.383	5320.35
887.7	5405.32
888.017	5310.86
888.334	5349.05
888.651	5336.63
888.967	5322.84
889.284	5292.56
889.6	5247.14
889.917	5294.14
890.233	5249.85
890.55	5235.16
890.866	5292.11
891.182	5237.19
891.498	5183.18
891.815	5183.86
892.131	5171.21
892.447	5169.4
892.763	5155.84
893.079	5156.06
893.395	5100.93
893.71	5057.31
894.026	5078.78
894.342	5093.69
894.657	5074.26
894.973	5063.41
895.289	5023.19
895.604	5043.75
895.92	4988.84
896.235	5002.17
896.55	5010.31
896.865	4948.61
897.181	4935.96
897.496	4917.43
897.811	4937.77
898.126	4918.56
898.441	4860.71
898.756	4879.01
899.071	4823.64
899.386	4843.3
899.7	4861.16
900.015	4807.15
900.33	4747.04
900.644	4800.14
900.959	4805.11
901.273	4762.63
901.588	4761.5
901.902	4672.69
902.216	4704.78
902.531	4706.36
902.845	4660.94
903.159	4652.12
903.473	4661.39
903.787	4594.5
904.101	4635.4
904.415	4590.66
904.729	4592.69
905.042	4572.13
905.356	4519.7
905.67	4484.67
905.984	4522.18
906.297	4506.59
906.611	4438.8
906.924	4502.52
907.237	4462.07
907.551	4450.32
907.864	4439.25
908.177	4451
908.491	4410.77
908.804	4439.47
909.117	4365.35
909.43	4322.87
909.743	4335.97
910.056	4343.88
910.368	4315.41
910.681	4300.27
910.994	4267.73
911.307	4284.22
911.619	4247.39
911.932	4246.03
912.244	4213.49
912.557	4187.28
912.869	4212.81
913.181	4168.29
913.494	4183.44
913.806	4127.84
914.118	4150.44
914.43	4106.6
914.742	4077
915.054	4061.86
915.366	4075.42
915.678	4054.17
915.99	4013.04
916.302	4026.6
916.613	3973.5
916.925	3971.01
917.236	3969.66
917.548	3979.82
917.859	3943.89
918.171	3931.46
918.482	3944.57
918.794	3898.92
919.105	3889.21
919.416	3881.3
919.727	3828.64
920.038	3859.6
920.349	3819.6
920.66	3809.89
920.971	3813.28
921.282	3771.02
921.593	3789.32
921.903	3751.13
922.214	3734.41
922.525	3715.65
922.835	3705.48
923.146	3706.39
923.456	3694.86
923.767	3680.62
924.077	3677.46
924.387	3635.43
924.697	3648.99
925.008	3658.7
925.318	3573.51
925.628	3568.76
925.938	3588.2
926.248	3537.8
926.558	3528.99
926.867	3521.31
927.177	3517.69
927.487	3500.52
927.796	3486.96
928.106	3465.71
928.416	3460.74
928.725	3460.74
929.034	3395.89
929.344	3396.34
929.653	3414.87
929.962	3416.68
930.271	3367.86
930.581	3366.96
930.89	3371.93
931.199	3327.41
931.508	3326.73
931.817	3345.94
932.125	3331.25
932.434	3284.93
932.743	3271.59
933.051	3260.75
933.36	3221.43
933.669	3268.43
933.977	3243.35
934.286	3230.47
934.594	3212.84
934.902	3201.54
935.21	3179.39
935.519	3192.95
935.827	3177.81
936.135	3155.67
936.443	3149.79
936.751	3127.42
937.059	3121.09
937.367	3069.57
937.674	3071.83
937.982	3078.83
938.29	3061.43
938.597	3072.05
938.905	3045.39
939.213	3025.05
939.52	2986.63
939.827	3001.77
940.135	3019.62
940.442	2971.49
940.749	2971.72
941.056	3009.91
941.363	2979.63
941.67	2977.59
941.977	2904.6
942.284	2901.44
942.591	2883.58
942.898	2867.31
943.205	2915.67
943.511	2871.38
943.818	2877.71
944.125	2875.45
944.431	2858.5
944.738	2867.76
945.044	2802.45
945.35	2805.84
945.657	2797.48
945.963	2759.29
946.269	2772.62
946.575	2783.7
946.881	2792.06
947.187	2770.59
947.493	2719.07
947.799	2715.45
948.105	2704.83
948.41	2693.08
948.716	2720.65
949.022	2705.28
949.327	2647.88
949.633	2638.17
949.938	2663.48
950.244	2625.74
950.549	2605.4
950.854	2629.8
951.16	2631.39
951.465	2598.17
951.77	2569.01
952.075	2603.36
952.38	2566.75
952.685	2585.74
952.99	2547.32
953.294	2518.85
953.599	2563.59
953.904	2480.43
954.209	2519.07
954.513	2507.55
954.818	2449.24
955.122	2486.3
955.426	2483.59
955.731	2449.92
956.035	2467.1
956.339	2439.3
956.643	2454.22
956.948	2444.5
957.252	2405.4
957.556	2446.08
957.86	2426.19
958.163	2372.18
958.467	2409.92
958.771	2375.8
959.075	2355.69
959.378	2337.38
959.682	2349.59
959.985	2355.01
960.289	2348.68
960.592	2343.26
960.896	2318.63
961.199	2346.42
961.502	2273.2
961.805	2311.85
962.108	2266.88
962.411	2276.14
962.714	2227.78
963.017	2248.8
963.32	2228.68
963.623	2223.03
963.926	2238.85
964.228	2206.76
964.531	2214.67
964.833	2204.73
965.136	2151.17
965.438	2183.04
965.741	2169.48
966.043	2173.09
966.345	2178.74
966.648	2160.44
966.95	2142.13
967.252	2133.55
967.554	2101.68
967.856	2105.07
968.158	2089.7
968.46	2121.34
968.761	2080.21
969.063	2077.28
969.365	2057.62
969.666	2054.9
969.968	2035.47
970.269	2061.46
970.571	1996.6
970.872	2053.77
971.174	2007.67
971.475	1996.83
971.776	2023.27
972.077	2043.15
972.378	1988.46
972.679	1957.96
972.98	1967
973.281	1969.03
973.582	1949.82
973.883	1939.65
974.183	1965.87
974.484	1949.14
974.785	1950.05
975.085	1909.14
975.386	1946.43
975.686	1927.68
975.986	1903.5
976.287	1893.55
976.587	1881.57
976.887	1871.18
977.187	1879.09
977.487	1876.15
977.787	1861.46
978.087	1846.32
978.387	1831.86
978.687	1868.47
978.987	1828.24
979.286	1768.13
979.586	1818.3
979.885	1793.22
980.185	1784.18
980.484	1801.58
980.784	1790.05
981.083	1806.55
981.382	1766.55
981.682	1789.83
981.981	1790.5
982.28	1731.97
982.579	1714.8
982.878	1737.17
983.177	1726.78
983.475	1726.1
983.774	1723.61
984.073	1671.64
984.372	1690.39
984.67	1698.98
984.969	1676.16
985.267	1676.38
985.566	1684.74
985.864	1675.7
986.162	1682.03
986.461	1666.89
986.759	1634.8
987.057	1659.89
987.355	1620.11
987.653	1634.8
987.951	1632.99
988.249	1584.63
988.547	1597.29
988.844	1590.06
989.142	1617.85
989.44	1619.66
989.737	1590.06
990.035	1574.46
990.332	1592.09
990.63	1547.35
990.927	1592.09
991.224	1553.45
991.521	1522.04
991.819	1527.91
992.116	1514.58
992.413	1498.53
992.71	1518.65
993.006	1527.69
993.303	1543.05
993.6	1508.93
993.897	1510.96
994.193	1502.6
994.49	1501.02
994.787	1477.97
995.083	1442.94
995.379	1508.03
995.676	1470.29
995.972	1473.45
996.268	1456.95
996.565	1439.78
996.861	1438.42
997.157	1452.21
997.453	1430.29
997.749	1422.38
998.044	1406.79
998.34	1433.45
998.636	1391.42
998.932	1400.01
999.227	1376.28
999.523	1404.98
999.818	1386.67
1000.114	1370.4
1000.409	1339.89
1000.704	1352.78
1001	1360.01
1001.295	1322.27
1001.59	1346.22
1001.885	1336.05
1002.18	1328.6
1002.475	1322.95
1002.77	1308.71
1003.065	1317.52
1003.359	1293.12
1003.654	1280.46
1003.949	1293.79
1004.243	1289.05
1004.538	1288.14
1004.832	1274.36
1005.127	1271.42
1005.421	1251.31
1005.715	1237.52
1006.009	1232.78
1006.304	1229.84
1006.598	1237.75
1006.892	1235.94
1007.186	1204.3
1007.48	1237.3
1007.773	1201.14
1008.067	1222.61
1008.361	1180.35
1008.655	1178.09
1008.948	1186
1009.242	1173.8
1009.535	1178.32
1009.829	1166.79
1010.122	1184.19
1010.415	1178.77
1010.708	1150.52
1011.001	1155.49
1011.295	1147.81
1011.588	1159.56
1011.881	1122.72
1012.173	1108.71
1012.466	1111.88
1012.759	1105.55
1013.052	1103.29
1013.344	1104.42
1013.637	1113.69
1013.93	1102.61
1014.222	1093.57
1014.514	1087.02
1014.807	1084.99
1015.099	1056.96
1015.391	1060.13
1015.683	1054.93
1015.976	1068.49
1016.268	1036.4
1016.56	1048.83
1016.851	1034.82
1017.143	1009.51
1017.435	1018.32
1017.727	1007.47
1018.018	1010.86
1018.31	1014.25
1018.602	1002.95
1018.893	1005.67
1019.185	995.5
1019.476	992.33
1019.767	976.74
1020.058	964.76
1020.35	983.52
1020.641	997.3
1020.932	968.38
1021.223	938.55
1021.514	966.12
1021.804	949.62
1022.095	955.05
1022.386	953.69
1022.677	942.39
1022.967	953.24
1023.258	913.46
1023.548	918.44
1023.839	906.69
1024.129	899
1024.419	904.2
1024.709	879.34
1025	888.83
1025.29	893.58
1025.58	883.63
1025.87	856.07
1026.16	861.26
1026.449	859.91
1026.739	861.94
1027.029	847.93
1027.319	846.35
1027.608	852
1027.898	860.81
1028.187	823.07
1028.477	808.16
1028.766	815.84
1029.055	828.27
1029.344	820.59
1029.634	801.15
1029.923	828.27
1030.212	810.64
1030.501	786.69
1030.79	768.38
1031.078	799.12
1031.367	783.3
1031.656	765.67
1031.945	800.47
1032.233	770.64
1032.522	753.02
1032.81	793.69
1033.099	752.34
1033.387	767.03
1033.675	764.09
1033.963	742.4
1034.251	757.54
1034.54	743.07
1034.828	747.37
1035.116	739.91
1035.403	737.65
1035.691	718.22
1035.979	726.35
1036.267	736.52
1036.554	703.53
1036.842	727.03
1037.129	703.75
1037.417	703.3
1037.704	703.75
1037.992	703.53
1038.279	694.49
1038.566	681.38
1038.853	681.38
1039.14	681.38
