Data from tablewood_brown_FLMS001491_098.txt Node
Date: Tue Feb 07 11:11:18 GMT 2017
User: dcchb
Spectrometer: FLMS00149
Trigger mode: 0
Integration Time (sec): 2.000000E-2
Scans to average: 10
Electric dark correction enabled: true
Nonlinearity correction enabled: false
Boxcar width: 0
XAxis mode: Wavelengths
Number of Pixels in Spectrum: 2048
>>>>>Begin Spectral Data<<<<<
341.393	-19.36
341.776	-19.36
342.16	-19.36
342.543	-55.3
342.927	-54.84
343.31	-70.21
343.693	-76.09
344.077	-53.94
344.46	-74.73
344.843	-59.59
345.226	-47.61
345.61	-18.91
345.993	-20.04
346.376	-4.9
346.759	18.6
347.142	28.32
347.525	30.58
347.908	60.86
348.291	67.19
348.674	101.99
349.057	118.49
349.44	112.38
349.823	136.56
350.206	172.72
350.588	200.29
350.971	193.06
351.354	239.16
351.737	242.55
352.119	256.56
352.502	278.26
352.884	271.48
353.267	293.85
353.65	301.31
354.032	312.83
354.414	319.61
354.797	324.13
355.179	329.33
355.562	315.32
355.944	326.84
356.326	321.87
356.709	331.59
357.091	330.68
357.473	357.12
357.855	343.34
358.238	334.98
358.62	330.68
359.002	341.76
359.384	351.47
359.766	350.57
360.148	353.06
360.53	348.08
360.912	325.49
361.294	340.17
361.676	342.66
362.057	329.33
362.439	336.33
362.821	337.91
363.203	339.04
363.584	345.37
363.966	343.56
364.348	352.38
364.729	354.41
365.111	359.16
365.493	330.91
365.874	343.34
366.256	332.49
366.637	325.03
367.019	327.29
367.4	345.82
367.781	312.83
368.163	325.26
368.544	318.03
368.925	352.15
369.306	346.28
369.688	314.19
370.069	327.52
370.45	321.42
370.831	342.21
371.212	315.09
371.593	358.03
371.974	342.43
372.355	319.61
372.736	337.69
373.117	317.58
373.498	339.95
373.879	339.5
374.26	334.53
374.641	316.22
375.021	333.4
375.402	337.24
375.783	337.24
376.163	337.46
376.544	366.61
376.925	345.37
377.305	361.87
377.686	352.6
378.066	358.03
378.447	349.89
378.827	340.17
379.208	377.24
379.588	349.89
379.968	364.58
380.349	367.07
380.729	353.73
381.109	376.78
381.489	376.78
381.87	368.2
382.25	393.96
382.63	370.68
383.01	370.68
383.39	371.13
383.77	370.91
384.15	382.89
384.53	373.17
384.91	392.6
385.29	397.12
385.67	383.11
386.049	386.73
386.429	391.7
386.809	394.64
387.189	398.25
387.568	391.47
387.948	398.48
388.328	424.69
388.707	377.91
389.087	420.4
389.466	418.82
389.846	433.51
390.225	428.76
390.605	419.72
390.984	415.43
391.363	432.6
391.743	442.09
392.122	443.45
392.501	430.12
392.881	438.03
393.26	437.8
393.639	450.23
394.018	468.08
394.397	435.54
394.776	450
395.155	448.87
395.534	473.73
395.913	466.5
396.292	491.36
396.671	466.05
397.05	472.6
397.429	474.18
397.808	478.02
398.186	472.6
398.565	484.13
398.944	480.74
399.323	489.78
399.701	508.08
400.08	490.91
400.458	497.91
400.837	515.31
401.215	490.68
401.594	525.25
401.972	509.44
402.351	524.8
402.729	529.1
403.107	517.12
403.486	547.4
403.864	533.39
404.242	541.98
404.62	549.43
404.999	554.86
405.377	533.39
405.755	561.19
406.133	562.32
406.511	546.27
406.889	574.29
407.267	580.62
407.645	573.39
408.023	589.66
408.401	605.7
408.779	604.57
409.156	599.15
409.534	607.96
409.912	619.26
410.29	628.53
410.667	626.95
411.045	616.1
411.422	635.76
411.8	647.06
412.178	648.19
412.555	642.09
412.933	667.17
413.31	658.58
413.687	669.21
414.065	674.63
414.442	692.48
414.819	680.28
415.197	716.21
415.574	712.82
415.951	713.05
416.328	708.98
416.705	720.05
417.082	724.35
417.46	736.55
417.837	737.9
418.214	739.94
418.591	727.06
418.967	751.46
419.344	773.16
419.721	753.27
420.098	765.25
420.475	759.6
420.852	793.04
421.228	805.02
421.605	789.43
421.982	792.59
422.358	787.39
422.735	810.67
423.111	811.8
423.488	832.82
423.864	808.86
424.241	856.55
424.617	839.6
424.994	831.91
425.37	854.51
425.746	857.22
426.123	874.17
426.499	869.2
426.875	884.34
427.251	915.07
427.627	897.22
428.003	907.39
428.379	939.71
428.756	937.22
429.132	964.79
429.507	975.64
429.883	958.92
430.259	967.5
430.635	951.23
431.011	986.03
431.387	1013.83
431.763	1018.35
432.138	1011.34
432.514	1030.33
432.89	1031.68
433.265	1066.03
433.641	1088.86
434.016	1059.7
434.392	1070.32
434.767	1082.53
435.143	1093.15
435.518	1128.18
435.894	1151.45
436.269	1132.47
436.644	1174.73
437.02	1163.43
437.395	1158.23
437.77	1179.7
438.145	1218.8
438.52	1228.29
438.895	1222.41
439.271	1207.04
439.646	1267.38
440.021	1281.39
440.395	1276.65
440.77	1248.4
441.145	1289.98
441.52	1301.51
441.895	1308.96
442.27	1330.43
442.645	1311.67
443.019	1337.21
443.394	1347.61
443.769	1349.41
444.143	1365.46
444.518	1352.13
444.892	1359.81
445.267	1373.59
445.641	1386.93
446.016	1414.5
446.39	1415.63
446.764	1432.58
447.139	1415.17
447.513	1415.85
447.887	1447.26
448.262	1444.1
448.636	1458.34
449.01	1481.39
449.384	1486.36
449.758	1482.74
450.132	1495.4
450.506	1484.33
450.88	1529.07
451.254	1542.63
451.628	1551.44
452.002	1550.76
452.376	1575.62
452.75	1598.9
453.123	1612.91
453.497	1611.55
453.871	1641.38
454.244	1641.84
454.618	1654.04
454.992	1698.33
455.365	1680.93
455.739	1710.31
456.112	1757.31
456.486	1753.02
456.859	1767.03
457.232	1817.42
457.606	1773.58
457.979	1812.68
458.352	1868.72
458.725	1861.72
459.099	1934.48
459.472	1934.03
459.845	1922.73
460.218	1939.23
460.591	2008.83
460.964	1999.34
461.337	2041.15
461.71	2063.75
462.083	2095.61
462.456	2089.28
462.829	2075.27
463.201	2152.1
463.574	2149.17
463.947	2191.65
464.32	2257.19
464.692	2248.6
465.065	2265.77
465.438	2303.51
465.81	2304.64
466.183	2373.12
466.555	2416.73
466.928	2416.96
467.3	2442.49
467.672	2442.94
468.045	2549.83
468.417	2552.77
468.789	2583.51
469.161	2663.5
469.534	2690.17
469.906	2690.17
470.278	2716.16
470.65	2809.94
471.022	2788.7
471.394	2884.74
471.766	2915.25
472.138	2918.86
472.51	3024.17
472.882	3087.22
473.253	3113.44
473.625	3129.48
473.997	3267.1
474.369	3267.33
474.74	3326.08
475.112	3398.85
475.484	3434.1
475.855	3482.24
476.227	3524.72
476.598	3654.44
476.97	3715.91
477.341	3798.84
477.713	3865.05
478.084	3865.51
478.455	4003.58
478.827	4080.64
479.198	4174.65
479.569	4196.34
479.94	4315.66
480.311	4374.42
480.682	4441.08
481.053	4620.06
481.424	4653.96
481.795	4764.47
482.166	4763.56
482.537	4840.17
482.908	4992.71
483.279	5029.54
483.65	5099.37
484.021	5245.13
484.391	5292.13
484.762	5351.34
485.133	5453.71
485.503	5514.05
485.874	5660.26
486.244	5719.02
486.615	5772.35
486.985	5921.5
487.356	6034.94
487.726	6021.16
488.097	6222.51
488.467	6269.06
488.837	6384.54
489.207	6383.18
489.578	6482.16
489.948	6612.78
490.318	6723.96
490.688	6772.1
491.058	6822.26
491.428	6926.44
491.798	7001.92
492.168	7156.94
492.538	7222.25
492.908	7264.51
493.278	7376.6
493.648	7404.85
494.017	7512.19
494.387	7517.39
494.757	7652.75
495.126	7739.75
495.496	7858.62
495.866	7832.18
496.235	7994.66
496.605	7956.7
496.974	8037.6
497.344	8118.28
497.713	8253.41
498.082	8291.6
498.452	8364.37
498.821	8412.05
499.19	8458.15
499.559	8505.38
499.928	8571.14
500.298	8643.91
500.667	8727.52
501.036	8743.57
501.405	8873.28
501.774	8898.14
502.143	8975.43
502.512	8966.61
502.88	9111.7
503.249	9127.51
503.618	9261.52
503.987	9221.3
504.356	9367.73
504.724	9449.54
505.093	9420.39
505.462	9532.02
505.83	9574.51
506.199	9591
506.567	9769.76
506.936	9778.57
507.304	9968.17
507.672	9974.27
508.041	10003.2
508.409	10137.43
508.777	10135.4
509.145	10284.09
509.514	10335.17
509.882	10440.47
510.25	10445.22
510.618	10616.74
510.986	10605.44
511.354	10737.87
511.722	10771.76
512.09	10894.7
512.458	10908.71
512.826	10978.99
513.193	11081.36
513.561	11181.7
513.929	11309.6
514.297	11455.59
514.664	11522.71
515.032	11544.63
515.4	11675.24
515.767	11699.65
516.135	11759.99
516.502	11840.66
516.869	12030.49
517.237	12082.46
517.604	12040.43
517.972	12212.86
518.339	12327.88
518.706	12409.46
519.073	12460.53
519.44	12658.27
519.808	12702.34
520.175	12687.42
520.542	12905.27
520.909	13018.03
521.276	13126.73
521.643	13176
522.009	13318.59
522.376	13351.81
522.743	13497.57
523.11	13566.04
523.477	13730.11
523.843	13806.71
524.21	14062.98
524.577	14117.89
524.943	14145.91
525.31	14266.81
525.676	14467.26
526.043	14518.56
526.409	14565.79
526.776	14820.47
527.142	14755.16
527.508	14888.49
527.874	15120.35
528.241	15170.52
528.607	15232.66
528.973	15345.66
529.339	15389.72
529.705	15599.89
530.071	15708.81
530.437	15757.62
530.803	15877.62
531.169	16025.41
531.535	16057.73
531.901	15975.02
532.267	16114.45
532.632	16296.37
532.998	16341.34
533.364	16372.75
533.73	16607.77
534.095	16685.73
534.461	16661.78
534.826	16805.5
535.192	16909.46
535.557	17036.23
535.923	17054.09
536.288	17091.37
536.653	17195.1
537.019	17121.88
537.384	17297.92
537.749	17312.16
538.114	17351.48
538.479	17383.79
538.845	17671.02
539.21	17613.62
539.575	17631.02
539.94	17649.32
540.305	17854.29
540.67	17846.61
541.034	17962.08
541.399	18014.51
541.764	18031.01
542.129	18125.47
542.494	18168.63
542.858	18339.48
543.223	18317.56
543.587	18384.67
543.952	18487.49
544.316	18427.61
544.681	18440.72
545.045	18657.43
545.41	18797.54
545.774	18792.12
546.138	18875.28
546.503	18820.14
546.867	18904.21
547.231	19136.97
547.595	19160.02
547.959	19195.72
548.324	19218.1
548.688	19271.65
549.052	19455.15
549.416	19527.69
549.779	19568.14
550.143	19647.01
550.507	19851.53
550.871	19787.12
551.235	19815.37
551.599	20117.73
551.962	20181.69
552.326	20191.63
552.689	20263.27
553.053	20290.38
553.417	20475.46
553.78	20685.18
554.143	20674.1
554.507	20908.22
554.87	20820.09
555.234	21221.43
555.597	21153.19
555.96	21228.21
556.323	21424.14
556.686	21523.35
557.05	21670.24
557.413	21783.23
557.776	21894.86
558.139	22069.55
558.502	22102.54
558.865	22241.29
559.228	22472.7
559.59	22572.36
559.953	22642.41
560.316	22946.81
560.679	23014.83
561.041	23267.26
561.404	23304.09
561.767	23529.85
562.129	23629.96
562.492	23938.88
562.854	23935.26
563.217	23982.04
563.579	24292.54
563.941	24274.01
564.304	24452.31
564.666	24717.84
565.028	24777.95
565.39	24963.93
565.753	25175.23
566.115	25287.99
566.477	25441.66
566.839	25685.72
567.201	25939.5
567.563	26002.1
567.925	26216.78
568.287	26230.12
568.648	26527.96
569.01	26788.97
569.372	27037.55
569.734	26966.59
570.095	27152.8
570.457	27374.27
570.819	27618.55
571.18	27679.57
571.542	27868.72
571.903	28068.94
572.265	28195.49
572.626	28425.76
572.987	28512.54
573.349	28784.62
573.71	28935.13
574.071	29017.61
574.432	29219.42
574.794	29564.04
575.155	29511.61
575.516	29655.56
575.877	29792.06
576.238	29806.07
576.599	30154.76
576.96	30338.48
577.32	30394.75
577.681	30538.02
578.042	30765.14
578.403	30825.7
578.763	30944.79
579.124	31154.96
579.485	31236.99
579.845	31464.55
580.206	31463.2
580.566	31475.85
580.927	31592.01
581.287	31799.91
581.648	31803.75
582.008	31953.13
582.368	31820.93
582.728	32055.72
583.089	32081.26
583.449	32173.46
583.809	32365.32
584.169	32347.24
584.529	32417.3
584.889	32646.67
585.249	32445.77
585.609	32521.93
585.969	32691.87
586.329	32631.98
586.688	32891.18
587.048	32656.84
587.408	32848.25
587.768	32868.58
588.127	32828.81
588.487	32843.95
588.846	33159.65
589.206	32977.51
589.565	33166.2
589.925	33160.1
590.284	33271.96
590.643	33343.83
591.003	33378.63
591.362	33329.14
591.721	33434.45
592.08	33565.74
592.44	33595.12
592.799	33676.47
593.158	33408.68
593.517	33567.55
593.876	33576.81
594.235	33661.78
594.593	33579.98
594.952	33692.29
595.311	33560.77
595.67	33698.39
596.029	33939.07
596.387	33941.33
596.746	34053.19
597.104	33823.14
597.463	33838.05
597.822	34067.2
598.18	33793.98
598.538	33789.69
598.897	34100.87
599.255	33825.17
599.613	34328.66
599.972	34004.37
600.33	34166.4
600.688	33995.56
601.046	34226.52
601.404	34378.15
601.762	34214.76
602.12	34505.6
602.478	34532.5
602.836	34298.83
603.194	34240.07
603.552	34356.46
603.91	34209.11
604.268	34374.53
604.625	34319.85
604.983	34503.57
605.341	34319.17
605.698	34568.88
606.056	34598.03
606.413	34496.56
606.771	34720.06
607.128	34719.84
607.485	34564.13
607.843	34745.82
608.2	34876.22
608.557	34939.04
608.914	34869.66
609.272	35045.93
609.629	35113.05
609.986	34966.38
610.343	34967.74
610.7	35207.96
611.057	35140.39
611.414	35150.33
611.771	35094.74
612.127	35216.77
612.484	35292.02
612.841	35350.55
613.198	35370.44
613.554	35334.51
613.911	35395.98
614.267	35606.37
614.624	35361.85
614.98	35449.53
615.337	35693.14
615.693	35683.43
616.05	35811.33
616.406	35847.72
616.762	35800.94
617.118	35826.02
617.475	35678
617.831	35847.94
618.187	35874.61
618.543	35858.34
618.899	36086.13
619.255	35883.19
619.611	35890.65
619.967	36174.26
620.323	36145.56
620.678	36050.42
621.034	35882.29
621.39	35963.19
621.746	35883.87
622.101	36336.52
622.457	35920.93
622.812	36095.84
623.168	36102.85
623.523	36056.52
623.879	36366.12
624.234	36000.71
624.589	36185.11
624.945	36164.09
625.3	36339.45
625.655	36229.4
626.01	36207.93
626.365	36262.39
626.72	36215.84
627.075	36143.08
627.43	36194.37
627.785	36150.31
628.14	36309.17
628.495	36185.33
628.85	36119.57
629.205	35968.84
629.559	36183.53
629.914	36002.51
630.269	36019.46
630.623	35947.37
630.978	35875.51
631.332	36013.36
631.687	36108.73
632.041	35934.72
632.396	36070.08
632.75	35830.77
633.104	35973.36
633.459	35735.4
633.813	35696.53
634.167	35732.92
634.521	35655.4
634.875	35816.08
635.229	35635.29
635.583	35505.8
635.937	35553.94
636.291	35474.17
636.645	35495.86
636.999	35336.32
637.352	35515.75
637.706	35299.71
638.06	35489.98
638.413	35366.82
638.767	35246.83
639.121	35248.86
639.474	35131.12
639.828	35244.57
640.181	35232.59
640.534	35364.79
640.888	35028.75
641.241	34845.26
641.594	35058.36
641.947	35287.05
642.301	34950.34
642.654	34979.49
643.007	34900.17
643.36	35017.68
643.713	34875.76
644.066	34941.98
644.419	34646.62
644.771	34561.42
645.124	34163.01
645.477	34330.24
645.83	33971.83
646.182	33763.7
646.535	33648.23
646.888	33714.44
647.24	33636.25
647.593	33769.8
647.945	33763.93
648.298	33542.01
648.65	33366.88
649.002	33320.1
649.355	33533.43
649.707	33574.33
650.059	33705.4
650.411	34143.35
650.763	34204.14
651.115	34541.31
651.467	34445.72
651.819	34358.04
652.171	34224.48
652.523	34153.75
652.875	34118.5
653.227	34065.39
653.578	34278.04
653.93	34159.62
654.282	34158.95
654.633	33848.22
654.985	34190.58
655.337	34093.86
655.688	34010.48
656.039	34104.48
656.391	33848.22
656.742	34011.15
657.094	33944.26
657.445	34072.62
657.796	33930.93
658.147	33840.54
658.498	33804.83
658.849	33884.83
659.2	33915.79
659.551	33869.91
659.902	34014.77
660.253	33918.05
660.604	34050.02
660.955	33807.77
661.306	33975.45
661.656	33765.28
662.007	33939.29
662.358	33963.25
662.708	33883.02
663.059	33745.85
663.409	33652.29
663.76	33917.37
664.11	33862.68
664.461	33993.75
664.811	33802.57
665.161	33727.09
665.511	33872.63
665.862	33772.29
666.212	33812.97
666.562	33864.72
666.912	33859.97
667.262	33742.69
667.612	33760.09
667.962	33983.58
668.312	33732.07
668.662	33898.16
669.011	33746.3
669.361	33752.63
669.711	33774.78
670.06	33590.37
670.41	33573.43
670.76	33681.67
671.109	33778.84
671.459	33537.04
671.808	33511.96
672.157	33756.02
672.507	33325.52
672.856	33405.07
673.205	33477.38
673.554	33477.38
673.904	33412.3
674.253	33352.87
674.602	33586.76
674.951	33031.97
675.3	32766.21
675.649	33336.14
675.998	33265.64
676.346	33316.26
676.695	33264.51
677.044	33009.82
677.393	33217.5
677.741	33203.49
678.09	33047.79
678.438	33053.44
678.787	33196.26
679.135	33078.97
679.484	32866.1
679.832	33075.81
680.181	32888.02
680.529	32900.45
680.877	32784.75
681.225	32758.31
681.573	33013.67
681.922	32609.83
682.27	32714.46
682.618	32685.31
682.966	32490.29
683.314	32535.71
683.661	32384.98
684.009	32382.72
684.357	32333.23
684.705	32253.46
685.053	32183.63
685.4	32115.16
685.748	31914.49
686.095	31924.43
686.443	31810.53
686.79	31760.37
687.138	31871.32
687.485	31758.33
687.832	31595.62
688.18	31671.78
688.527	31451.67
688.874	31560.14
689.221	31275.63
689.568	31177.78
689.915	31089.2
690.262	31157.22
690.609	31132.81
690.956	31021.18
691.303	30996.77
691.65	30714.07
691.997	30699.6
692.344	30714.52
692.69	30515.88
693.037	30533.96
693.383	30283.34
693.73	30364.47
694.077	30154.98
694.423	30089
694.769	30058.94
695.116	30025.04
695.462	29949.11
695.808	29847.87
696.155	29863.69
696.501	29629.57
696.847	29679.29
697.193	29326.98
697.539	29429.58
697.885	29218.51
698.231	29136.48
698.577	29093.09
698.923	29084.73
699.269	28938.52
699.614	28814.23
699.96	28699.88
700.306	28671.86
700.651	28567.46
700.997	28449.27
701.342	28396.39
701.688	28486.1
702.033	28276.16
702.379	28171.76
702.724	28080.69
703.069	28195.94
703.415	27920.92
703.76	27855.38
704.105	27816.51
704.45	27755.05
704.795	27606.58
705.14	27465.11
705.485	27526.58
705.83	27204.33
706.175	27329.07
706.52	27159.81
706.865	26925.69
707.209	27028.74
707.554	26955.75
707.899	27045.91
708.243	26838.01
708.588	26852.7
708.932	26614.96
709.277	26635.53
709.621	26529.32
709.966	26481.86
710.31	26562.76
710.654	26328.42
710.998	26280.28
711.342	26332.49
711.687	26234.86
712.031	26070.12
712.375	25996.68
712.719	26068.99
713.063	25959.61
713.407	25980.63
713.75	25883.46
714.094	25940.18
714.438	25890.46
714.782	25871.03
715.125	25756.68
715.469	25725.72
715.812	25585.61
716.156	25544.03
716.499	25485.05
716.843	25473.98
717.186	25283.47
717.53	25531.6
717.873	25426.97
718.216	25404.6
718.559	25267.88
718.902	25068.79
719.246	25379.52
719.589	25170.26
719.932	25039.64
720.275	25122.8
720.617	25032.18
720.96	24924.61
721.303	24941.79
721.646	24877.83
721.989	24917.83
722.331	24986.08
722.674	24888.23
723.016	24832.86
723.359	24920.09
723.701	24888
724.044	24737.95
724.386	24545.19
724.729	24731.17
725.071	24702.02
725.413	24640.1
725.755	24658.18
726.097	24615.92
726.439	24406.66
726.782	24382.71
727.124	24471.07
727.465	24410.28
727.807	24466.09
728.149	24447.79
728.491	24346.1
728.833	24389.03
729.175	24303.61
729.516	24303.84
729.858	24230.62
730.199	24324.63
730.541	24269.94
730.882	24241.47
731.224	24344.29
731.565	24068.36
731.906	24238.98
732.248	24254.12
732.589	24067.69
732.93	24123.5
733.271	24126.89
733.612	24223.16
733.953	24108.82
734.294	24075.37
734.635	24013.45
734.976	24165.08
735.317	23996.73
735.658	24090.28
735.999	24081.02
736.339	24048.7
736.68	24061.13
737.021	24118.31
737.361	24019.33
737.702	24057.29
738.042	23945.43
738.383	23995.6
738.723	23977.29
739.063	24009.16
739.404	23947.92
739.744	23940.68
740.084	23758.99
740.424	23857.52
740.764	23809.61
741.104	23977.07
741.444	23937.52
741.784	23813
742.124	23765.55
742.464	23903.17
742.804	23821.59
743.143	23820.24
743.483	23817.52
743.823	23722.16
744.162	23681.71
744.502	23779.78
744.841	23762.38
745.181	23759.9
745.52	23669.96
745.86	23763.06
746.199	23856.39
746.538	23698.66
746.877	23751.31
747.216	23817.98
747.556	23791.99
747.895	23736.17
748.234	23610.98
748.573	23567.36
748.911	23638.09
749.25	23526.23
749.589	23580.69
749.928	23613.69
750.267	23587.92
750.605	23591.54
750.944	23435.84
751.283	23451.43
751.621	23547.02
751.96	23410.08
752.298	23395.84
752.636	23460.47
752.975	23441.04
753.313	23206.69
753.651	23435.39
753.989	23260.02
754.327	23202.4
754.666	23187.03
755.004	23160.14
755.342	23156.98
755.679	23172.12
756.017	23007.6
756.355	23102.06
756.693	23153.81
757.031	23020.48
757.368	22910.43
757.706	22991.56
758.044	22975.06
758.381	22893.03
758.719	22777.55
759.056	22747.04
759.394	22680.83
759.731	22585.01
760.068	22575.75
760.405	22562.19
760.743	22463.21
761.08	22437.9
761.417	22380.5
761.754	22339.82
762.091	22306.38
762.428	22194.52
762.765	22076.33
763.102	22158.81
763.438	22041.07
763.775	21960.62
764.112	21973.28
764.449	21999.04
764.785	21893.51
765.122	21735.77
765.458	21670.46
765.795	21681.31
766.131	21576.9
766.467	21552.95
766.804	21466.62
767.14	21263.92
767.476	21324.48
767.812	21312.96
768.148	21273.18
768.485	21117.03
768.821	21004.04
769.157	21062.34
769.492	20943.47
769.828	20955
770.164	20787.55
770.5	20738.96
770.836	20705.06
771.171	20532.19
771.507	20523.82
771.842	20330.61
772.178	20393.66
772.513	20310.05
772.849	20285.86
773.184	20098.07
773.519	20149.6
773.855	20052.2
774.19	19971.75
774.525	19902.37
774.86	19835.48
775.195	19810.85
775.53	19708.03
775.865	19618.31
776.2	19578.76
776.535	19386.23
776.87	19451.08
777.205	19409.73
777.539	19224.65
777.874	19273.24
778.209	19084.09
778.543	19056.52
778.878	18976.52
779.212	18955.5
779.547	18776.98
779.881	18816.53
780.215	18675.51
780.55	18694.04
780.884	18625.8
781.218	18624.89
781.552	18514.84
781.886	18414.73
782.22	18341.74
782.554	18247.95
782.888	18225.35
783.222	18083.66
783.556	18041.63
783.889	17935.19
784.223	17908.53
784.557	17782.88
784.89	17813.84
785.224	17736.55
785.557	17671.02
785.891	17666.72
786.224	17595.09
786.558	17487.07
786.891	17374.98
787.224	17474.19
787.557	17307.64
787.891	17241.65
788.224	17222.89
788.557	17193.06
788.89	17063.12
789.223	17093.63
789.556	17028.78
789.888	16916.69
790.221	16869.46
790.554	16847.31
790.887	16817.71
791.219	16709.46
791.552	16682.57
791.884	16566.41
792.217	16508.11
792.549	16462.01
792.882	16382.92
793.214	16281.68
793.546	16229.93
793.879	16184.28
794.211	16142.92
794.543	16188.12
794.875	16084.39
795.207	16181.57
795.539	15936.15
795.871	15978.86
796.203	15845.3
796.535	15776.15
796.867	15825.64
797.198	15767.57
797.53	15707
797.862	15682.37
798.193	15676.72
798.525	15538.87
798.856	15496.16
799.188	15361.7
799.519	15353.79
799.85	15211.65
800.182	15282.15
800.513	15263.17
800.844	15177.98
801.175	15162.61
801.506	15182.72
801.837	15095.72
802.168	14981.6
802.499	14966.46
802.83	14879.68
803.161	14873.35
803.491	14788.16
803.822	14832
804.153	14754.71
804.483	14693.7
804.814	14620.03
805.145	14648.5
805.475	14605.56
805.805	14548.16
806.136	14635.39
806.466	14517.43
806.796	14481.05
807.126	14387.04
807.457	14287.83
807.787	14281.73
808.117	14310.65
808.447	14165.12
808.777	14268.4
809.107	14114.73
809.436	14084.67
809.766	14034.96
810.096	14049.64
810.426	13932.36
810.755	13906.6
811.085	13978.91
811.414	13911.12
811.744	13759.93
812.073	13774.4
812.403	13754.06
812.732	13706.6
813.061	13728.75
813.39	13599.49
813.719	13612.14
814.049	13593.39
814.378	13552.71
814.707	13466.16
815.036	13524.01
815.365	13459.83
815.693	13323.56
816.022	13343.45
816.351	13196.56
816.68	13253.73
817.008	13157.24
817.337	13162.44
817.665	13094.64
817.994	13158.82
818.322	13131.93
818.651	13033.63
818.979	13033.85
819.307	13055.55
819.636	13022.1
819.964	12968.54
820.292	12916.57
820.62	12990.69
820.948	12873.63
821.276	12987.3
821.604	12909.11
821.932	12948.66
822.259	12920.86
822.587	12893.29
822.915	12836.8
823.243	12929.9
823.57	12860.75
823.898	12885.16
824.225	12881.31
824.553	12870.69
824.88	12891.26
825.207	12912.27
825.535	12791.6
825.862	12856
826.189	12810.13
826.516	12837.47
826.843	12905.49
827.17	12880.64
827.497	12882.44
827.824	12846.29
828.151	12817.13
828.478	12833.63
828.805	12894.19
829.131	12784.59
829.458	12817.59
829.785	12763.8
830.111	12774.42
830.438	12815.33
830.764	12804.93
831.09	12809.45
831.417	12735.1
831.743	12794.08
832.069	12800.19
832.395	12713.86
832.722	12794.99
833.048	12746.63
833.374	12809
833.7	12673.18
834.026	12822.33
834.351	12747.08
834.677	12610.81
835.003	12670.25
835.329	12654.2
835.654	12643.13
835.98	12536.46
836.306	12634.09
836.631	12540.76
836.956	12539.85
837.282	12553.86
837.607	12551.38
837.932	12456.01
838.258	12435.9
838.583	12479.74
838.908	12400.42
839.233	12416.47
839.558	12352.97
839.883	12316.81
840.208	12280.88
840.533	12315.68
840.858	12237.04
841.182	12206.3
841.507	12275.23
841.832	12217.38
842.156	12143.93
842.481	12287.66
842.805	12054.89
843.13	12093.09
843.454	12096.02
843.778	11986.2
844.103	11997.04
844.427	11990.26
844.751	11985.29
845.075	11975.8
845.399	11871.17
845.723	11904.39
846.047	11851.28
846.371	11759.54
846.695	11764.73
847.019	11646.09
847.343	11686.32
847.666	11555.92
847.99	11501.69
848.313	11466.66
848.637	11467.34
848.96	11409.04
849.284	11339.66
849.607	11254.46
849.931	11295.14
850.254	11117.97
850.577	11217.18
850.9	11104.19
851.223	11004.98
851.546	10972.21
851.869	10856.06
852.192	11007.92
852.515	10743.29
852.838	10860.12
853.161	10920.01
853.483	10876.85
853.806	10812.67
854.129	10764.76
854.451	10689.28
854.774	10644.08
855.096	10572.45
855.419	10624.65
855.741	10529.74
856.063	10468.72
856.385	10528.38
856.708	10430.3
857.03	10410.42
857.352	10421.94
857.674	10412
857.996	10301.27
858.318	10188.05
858.64	10227.82
858.961	10248.16
859.283	10245.68
859.605	10204.1
859.926	10269.86
860.248	10090.65
860.57	10066.7
860.891	10157.77
861.212	10097.88
861.534	10002.29
861.855	10035.74
862.176	10030.99
862.498	10038
862.819	9957.55
863.14	9895.4
863.461	9902.41
863.782	9893.37
864.103	9896.08
864.424	9834.39
864.745	9889.98
865.065	9856.08
865.386	9751.68
865.707	9811.79
866.027	9761.62
866.348	9721.85
866.668	9799.13
866.989	9713.49
867.309	9638.91
867.63	9704.9
867.95	9638.91
868.27	9605.02
868.59	9682.08
868.91	9611.8
869.23	9633.94
869.55	9581.97
869.87	9669.65
870.19	9554.4
870.51	9562.08
870.83	9559.82
871.15	9479.6
871.469	9480.95
871.789	9470.56
872.109	9480.5
872.428	9421.97
872.748	9403.89
873.067	9409.31
873.386	9393.95
873.706	9451.35
874.025	9339.49
874.344	9390.11
874.663	9347.17
874.982	9285.02
875.301	9349.66
875.62	9274.4
875.939	9315.31
876.258	9226.27
876.577	9218.36
876.896	9218.59
877.214	9194.63
877.533	9207.29
877.852	9197.34
878.17	9107.18
878.489	9094.07
878.807	9148.76
879.125	9137.23
879.444	9122.99
879.762	9100.85
880.08	9095.88
880.398	9064.92
880.716	9031.92
881.034	9080.06
881.352	8992.38
881.67	8959.38
881.988	9009.1
882.306	8958.48
882.624	8928.88
882.941	8892.72
883.259	8866.96
883.577	8897.24
883.894	8828.99
884.212	8816.79
884.529	8804.81
884.846	8848.43
885.164	8809.78
885.481	8760.97
885.798	8799.39
886.115	8774.53
886.432	8629.67
886.75	8654.08
887.067	8587.42
887.383	8635.78
887.7	8678.71
888.017	8585.38
888.334	8593.74
888.651	8579.28
888.967	8507.19
889.284	8499.06
889.6	8481.2
889.917	8433.3
890.233	8435.56
890.55	8377.48
890.866	8369.34
891.182	8418.61
891.498	8339.74
891.815	8333.64
892.131	8286.86
892.447	8299.74
892.763	8238.95
893.079	8168.67
893.395	8130.48
893.71	8178.84
894.026	8172.74
894.342	8161.66
894.657	8043.25
894.973	8109.24
895.289	8035.34
895.604	8080.54
895.92	7962.57
896.235	7924.38
896.55	8010.93
896.865	7900.88
897.181	7931.61
897.496	7852.97
897.811	7900.43
898.126	7854.33
898.441	7785.63
898.756	7793.54
899.071	7752.18
899.386	7744.05
899.7	7730.04
900.015	7574.11
900.33	7582.24
900.644	7584.28
900.959	7592.87
901.273	7554.45
901.588	7514.68
901.902	7539.31
902.216	7446.65
902.531	7410.5
902.845	7370.27
903.159	7384.28
903.473	7340.67
903.787	7325.08
904.101	7265.64
904.415	7289.37
904.729	7258.41
905.042	7279.2
905.356	7195.14
905.67	7191.75
905.984	7209.15
906.297	7131.86
906.611	7061.58
906.924	7088.02
907.237	7071.75
907.551	7005.99
907.864	6995.59
908.177	6976.16
908.491	6998.08
908.804	6851.87
909.117	6816.16
909.43	6786.33
909.743	6726.9
910.056	6754.92
910.368	6770.51
910.681	6755.37
910.994	6695.94
911.307	6679.22
911.619	6616.85
911.932	6635.15
912.244	6620.01
912.557	6580.24
912.869	6541.59
913.181	6554.25
913.494	6478.77
913.806	6488.26
914.118	6471.09
914.43	6410.98
914.742	6436.96
915.054	6374.14
915.366	6336.63
915.678	6336.85
915.99	6340.47
916.302	6203.3
916.613	6210.53
916.925	6168.95
917.236	6163.3
917.548	6174.15
917.859	6172.56
918.171	6085.56
918.482	6053.7
918.794	6010.31
919.105	6058.44
919.416	6005.56
919.727	5996.98
920.038	6003.98
920.349	5953.36
920.66	5861.84
920.971	5843.76
921.282	5848.28
921.593	5825
921.903	5816.87
922.214	5816.87
922.525	5823.19
922.835	5777.09
923.146	5686.93
923.456	5693.48
923.767	5709.3
924.077	5681.28
924.387	5641.5
924.697	5619.13
925.008	5613.26
925.318	5555.63
925.628	5503.43
925.938	5525.58
926.248	5484.67
926.558	5435.41
926.867	5448.97
927.177	5421.4
927.487	5375.97
927.796	5316.09
928.106	5332.36
928.416	5317.44
928.725	5317.44
929.034	5258.69
929.344	5251.68
929.653	5272.47
929.962	5188.63
930.271	5168.07
930.581	5175.3
930.89	5171.46
931.199	5141.86
931.508	5083.78
931.817	5095.53
932.125	5105.25
932.434	5062.31
932.743	5029.77
933.051	5005.36
933.36	4977.11
933.669	4957.23
933.977	4902.77
934.286	4947.29
934.594	4919.49
934.902	4851.69
935.21	4881.3
935.519	4839.04
935.827	4856.21
936.135	4790.91
936.443	4758.82
936.751	4787.06
937.059	4695.31
937.367	4719.72
937.674	4700.29
937.982	4703.45
938.29	4648.54
938.597	4686.73
938.905	4593.62
939.213	4594.3
939.52	4587.52
939.827	4612.15
940.135	4579.84
940.442	4512.04
940.749	4482.89
941.056	4532.61
941.363	4466.39
941.67	4425.94
941.977	4450.8
942.284	4392.5
942.591	4357.24
942.898	4337.81
943.205	4346.62
943.511	4313.4
943.818	4305.49
944.125	4264.37
944.431	4299.39
944.738	4230.69
945.044	4250.81
945.35	4204.93
945.657	4196.34
945.963	4197.7
946.269	4147.31
946.575	4185.5
946.881	4141.2
947.187	4158.83
947.493	4085.16
947.799	4080.42
948.105	4071.15
948.41	4026.86
948.716	4052.17
949.022	3983.69
949.327	4005.62
949.633	3957.71
949.938	3947.54
950.244	3949.12
950.549	3926.75
950.854	3921.1
951.16	3901.21
951.465	3891.49
951.77	3833.42
952.075	3837.48
952.38	3810.37
952.685	3839.97
952.99	3836.35
953.294	3799.52
953.599	3776.47
953.904	3743.25
954.209	3737.15
954.513	3721.55
954.818	3749.8
955.122	3663.48
955.426	3707.54
955.731	3682.69
956.035	3627.32
956.339	3638.62
956.643	3597.49
956.948	3593.87
957.252	3576.93
957.556	3579.64
957.86	3521.11
958.163	3507.1
958.467	3475.01
958.771	3494.89
959.075	3482.01
959.378	3477.04
959.682	3483.37
959.985	3435.23
960.289	3373.99
960.592	3366.99
960.896	3386.42
961.199	3387.55
961.502	3350.94
961.805	3352.52
962.108	3329.93
962.411	3323.37
962.714	3278.4
963.017	3282.24
963.32	3277.27
963.623	3239.53
963.926	3253.77
964.228	3255.13
964.531	3201.12
964.833	3242.47
965.136	3160.67
965.438	3195.69
965.741	3145.3
966.043	3143.04
966.345	3176.03
966.648	3089.25
966.95	3136.94
967.252	3069.37
967.554	3103.04
967.856	3079.54
968.158	3039.09
968.46	3037.96
968.761	3038.18
969.063	3038.86
969.365	3009.48
969.666	2995.25
969.968	2983.72
970.269	2950.73
970.571	2977.39
970.872	2989.6
971.174	2919.54
971.475	2905.08
971.776	2882.48
972.077	2898.3
972.378	2893.33
972.679	2868.92
972.98	2843.39
973.281	2885.19
973.582	2844.74
973.883	2844.06
974.183	2807.68
974.484	2810.17
974.785	2812.43
975.085	2776.27
975.386	2775.59
975.686	2752.99
975.986	2741.02
976.287	2697.63
976.587	2717.51
976.887	2725.65
977.187	2715.93
977.487	2698.53
977.787	2683.62
978.087	2664.63
978.387	2623.96
978.687	2669.6
978.987	2601.36
979.286	2578.31
979.586	2613.79
979.885	2600
980.185	2574.92
980.484	2569.04
980.784	2548.25
981.083	2541.47
981.382	2548.93
981.682	2541.47
981.981	2549.61
982.28	2504.41
982.579	2486.56
982.878	2511.19
983.177	2504.86
983.475	2437.75
983.774	2486.33
984.073	2448.59
984.372	2406.11
984.67	2437.97
984.969	2420.57
985.267	2393.91
985.566	2377.18
985.864	2397.97
986.162	2395.94
986.461	2341.93
986.759	2348.48
987.057	2345.55
987.355	2327.69
987.653	2327.47
987.951	2327.24
988.249	2300.35
988.547	2282.27
988.844	2281.14
989.142	2252.21
989.44	2256.51
989.737	2216.74
990.035	2236.62
990.332	2240.69
990.63	2195.72
990.927	2221.26
991.224	2197.3
991.521	2199.11
991.819	2168.83
992.116	2167.7
992.413	2150.3
992.71	2149.17
993.006	2128.6
993.303	2096.74
993.6	2163.18
993.897	2131.09
994.193	2117.98
994.49	2094.93
994.787	2096.74
995.083	2069.39
995.379	2054.03
995.676	2045.67
995.972	2034.14
996.268	2026.68
996.565	2040.24
996.861	1971.77
997.157	2009.96
997.453	2003.41
997.749	2008.38
998.044	1999.57
998.34	1976.74
998.636	1960.25
998.932	1909.85
999.227	1948.49
999.523	1909.62
999.818	1895.61
1000.114	1875.05
1000.409	1880.7
1000.704	1837.99
1001	1873.69
1001.295	1854.71
1001.59	1839.12
1001.885	1839.12
1002.18	1825.79
1002.475	1818.1
1002.77	1829.63
1003.065	1804.09
1003.359	1808.61
1003.654	1819.01
1003.949	1795.28
1004.243	1773.81
1004.538	1770.65
1004.832	1742.62
1005.127	1728.39
1005.421	1726.13
1005.715	1749.63
1006.009	1737.65
1006.304	1683.19
1006.598	1714.83
1006.892	1673.47
1007.186	1694.49
1007.48	1677.54
1007.773	1643.87
1008.067	1650.2
1008.361	1630.76
1008.655	1631.44
1008.948	1596.86
1009.242	1620.59
1009.535	1587.15
1009.829	1578.56
1010.122	1619.01
1010.415	1571.1
1010.708	1560.48
1011.001	1558.22
1011.295	1578.33
1011.588	1585.11
1011.881	1530.43
1012.173	1542.63
1012.466	1493.36
1012.759	1527.49
1013.052	1507.6
1013.344	1488.17
1013.637	1494.95
1013.93	1465.34
1014.222	1471.67
1014.514	1415.4
1014.807	1430.09
1015.099	1445.46
1015.391	1461.05
1015.683	1415.63
1015.976	1440.71
1016.268	1437.32
1016.56	1409.75
1016.851	1379.92
1017.143	1390.09
1017.435	1369.98
1017.727	1368.4
1018.018	1356.42
1018.31	1368.17
1018.602	1359.81
1018.893	1313.71
1019.185	1342.86
1019.476	1295.4
1019.767	1347.83
1020.058	1321.84
1020.35	1309.87
1020.641	1283.2
1020.932	1296.99
1021.223	1288.85
1021.514	1277.1
1021.804	1254.05
1022.095	1254.05
1022.386	1194.62
1022.677	1249.3
1022.967	1212.92
1023.258	1227.61
1023.548	1206.37
1023.839	1206.14
1024.129	1219.47
1024.419	1160.72
1024.709	1201.17
1025	1182.64
1025.29	1183.77
1025.58	1173.6
1025.87	1153.94
1026.16	1158.46
1026.449	1139.02
1026.739	1132.02
1027.029	1125.69
1027.319	1128.4
1027.608	1088.86
1027.898	1104.22
1028.187	1088.63
1028.477	1104.9
1028.766	1098.8
1029.055	1077.56
1029.344	1066.03
1029.634	1045.24
1029.923	1055.18
1030.212	1057.9
1030.501	1038.01
1030.79	1063.32
1031.078	1028.97
1031.367	1022.87
1031.656	999.14
1031.945	1023.55
1032.233	1023.77
1032.522	1026.71
1032.81	993.04
1033.099	987.62
1033.387	994.85
1033.675	969.08
1033.963	967.73
1034.251	936.09
1034.54	954.4
1034.828	939.25
1035.116	956.66
1035.403	954.17
1035.691	925.02
1035.979	924.79
1036.267	933.38
1036.554	919.14
1036.842	933.15
1037.129	912.36
1037.417	892.93
1037.704	885.47
1037.992	905.58
1038.279	898.8
1038.566	889.31
1038.853	889.31
1039.14	889.31
