Data from tablewood_brown_FLMS001491_077.txt Node
Date: Tue Feb 07 11:11:00 GMT 2017
User: dcchb
Spectrometer: FLMS00149
Trigger mode: 0
Integration Time (sec): 2.000000E-2
Scans to average: 10
Electric dark correction enabled: true
Nonlinearity correction enabled: false
Boxcar width: 0
XAxis mode: Wavelengths
Number of Pixels in Spectrum: 2048
>>>>>Begin Spectral Data<<<<<
341.393	6.62
341.776	6.62
342.16	6.62
342.543	-68.18
342.927	-63.66
343.31	-60.27
343.693	-61.4
344.077	-63.66
344.46	-74.96
344.843	-67.5
345.226	-53.71
345.61	-43.54
345.993	-1.51
346.376	-0.61
346.759	-1.74
347.142	19.51
347.525	38.49
347.908	79.16
348.291	70.8
348.674	93.85
349.057	127.07
349.44	123.23
349.823	130.24
350.206	157.81
350.588	186.05
350.971	208.43
351.354	234.64
351.737	250.91
352.119	252.95
352.502	243
352.884	264.92
353.267	283
353.65	293.17
354.032	276.67
354.414	300.85
354.797	321.42
355.179	320.06
355.562	332.27
355.944	312.83
356.326	335.66
356.709	320.51
357.091	333.17
357.473	315.77
357.855	341.53
358.238	345.37
358.62	348.76
359.002	345.15
359.384	346.5
359.766	341.08
360.148	328.2
360.53	325.49
360.912	349.44
361.294	351.47
361.676	344.47
362.057	341.53
362.439	341.53
362.821	333.17
363.203	346.73
363.584	337.46
363.966	307.86
364.348	326.62
364.729	330.91
365.111	321.19
365.493	340.63
365.874	318.48
366.256	315.54
366.637	328.42
367.019	339.27
367.4	321.64
367.781	301.53
368.163	338.82
368.544	332.27
368.925	327.29
369.306	309.67
369.688	326.39
370.069	329.78
370.45	324.58
370.831	324.81
371.212	327.07
371.593	335.43
371.974	318.48
372.355	329.78
372.736	318.25
373.117	329.1
373.498	320.97
373.879	311.7
374.26	330.01
374.641	316.9
375.021	311.7
375.402	336.56
375.783	350.34
376.163	341.76
376.544	346.95
376.925	330.46
377.305	328.88
377.686	322.32
378.066	348.76
378.447	339.95
378.827	357.35
379.208	334.53
379.588	350.12
379.968	355.54
380.349	335.66
380.729	369.1
381.109	384.47
381.489	359.38
381.87	338.14
382.25	365.26
382.63	366.39
383.01	353.73
383.39	351.02
383.77	376.11
384.15	383.56
384.53	372.49
384.91	360.51
385.29	394.41
385.67	366.61
386.049	372.04
386.429	377.91
386.809	387.86
387.189	375.2
387.568	378.82
387.948	360.74
388.328	375.43
388.707	401.42
389.087	384.02
389.466	403
389.846	400.51
390.225	398.7
390.605	414.52
390.984	420.4
391.363	405.94
391.743	427.63
392.122	451.13
392.501	418.36
392.881	415.88
393.26	450.68
393.639	426.95
394.018	438.7
394.397	455.65
394.776	434.41
395.155	429.21
395.534	453.62
395.913	442.77
396.292	459.49
396.671	460.17
397.05	454.97
397.429	471.92
397.808	464.92
398.186	465.82
398.565	470.11
398.944	441.64
399.323	459.04
399.701	490.68
400.08	490.68
400.458	492.04
400.837	490.45
401.215	498.36
401.594	486.16
401.972	499.72
402.351	508.53
402.729	506.95
403.107	509.89
403.486	501.07
403.864	505.82
404.242	493.62
404.62	520.96
404.999	527.97
405.377	528.19
405.755	519.38
406.133	546.04
406.511	544.92
406.889	560.73
407.267	550.56
407.645	548.53
408.023	574.07
408.401	563.67
408.779	575.2
409.156	590.34
409.534	582.88
409.912	591.92
410.29	579.04
410.667	599.38
411.045	606.38
411.422	616.1
411.8	624.69
412.178	634.18
412.555	614.07
412.933	624.46
413.31	633.95
413.687	648.64
414.065	627.4
414.442	649.32
414.819	640.73
415.197	662.2
415.574	639.83
415.951	682.76
416.328	674.86
416.705	664.23
417.082	655.65
417.46	675.53
417.837	676.66
418.214	707.62
418.591	690
418.967	717.79
419.344	694.06
419.721	716.21
420.098	729.32
420.475	716.44
420.852	744.91
421.228	741.75
421.605	746.27
421.982	749.43
422.358	772.93
422.735	764.12
423.111	754.85
423.488	797.56
423.864	780.84
424.241	780.39
424.617	778.13
424.994	797.56
425.37	802.08
425.746	818.13
426.123	809.99
426.499	844.12
426.875	840.95
427.251	836.88
427.627	859.03
428.003	849.09
428.379	866.94
428.756	890.89
429.132	875.08
429.507	894.51
429.883	903.78
430.259	923.21
430.635	926.83
431.011	933.38
431.387	944
431.763	958.69
432.138	943.55
432.514	977.22
432.89	962.98
433.265	987.39
433.641	1007.28
434.016	1037.33
434.392	1017.44
434.767	1037.11
435.143	1035.98
435.518	1042.76
435.894	1065.58
436.269	1069.65
436.644	1087.5
437.02	1114.17
437.395	1121.4
437.77	1132.02
438.145	1114.62
438.52	1125.46
438.895	1169.31
439.271	1153.49
439.646	1169.08
440.021	1176.99
440.395	1185.58
440.77	1195.52
441.145	1196.42
441.52	1236.87
441.895	1220.83
442.27	1251.56
442.645	1262.41
443.019	1235.07
443.394	1258.57
443.769	1262.18
444.143	1267.16
444.518	1288.62
444.892	1279.36
445.267	1285.01
445.641	1306.7
446.016	1286.36
446.39	1324.1
446.764	1312.8
447.139	1341.05
447.513	1327.72
447.887	1346.48
448.262	1334.05
448.636	1340.37
449.01	1386.7
449.384	1374.72
449.758	1375.4
450.132	1428.51
450.506	1401.39
450.88	1437.32
451.254	1440.03
451.628	1451.78
452.002	1467.6
452.376	1472.8
452.75	1474.83
453.123	1493.59
453.497	1524.1
453.871	1523.87
454.244	1529.52
454.618	1564.78
454.992	1600.03
455.365	1607.03
455.739	1634.15
456.112	1623.08
456.486	1636.19
456.859	1685.68
457.232	1673.02
457.606	1693.81
457.979	1707.6
458.352	1756.41
458.725	1739.01
459.099	1766.13
459.472	1794.83
459.845	1841.83
460.218	1842.96
460.591	1835.95
460.964	1861.04
461.337	1909.17
461.71	1930.42
462.083	1928.16
462.456	1938.55
462.829	1975.84
463.201	2032.56
463.574	2027.59
463.947	2043.41
464.32	2102.84
464.692	2113.91
465.065	2119.11
465.438	2164.08
465.81	2205.66
466.183	2238.2
466.555	2275.72
466.928	2294.47
467.3	2262.16
467.672	2334.25
468.045	2361.14
468.417	2384.87
468.789	2403.4
469.161	2433.45
469.534	2505.32
469.906	2525.88
470.278	2564.52
470.65	2625.31
471.022	2677.97
471.394	2697.63
471.766	2729.72
472.138	2775.59
472.51	2862.82
472.882	2866.66
473.253	2900.79
473.625	2963.61
473.997	3047.45
474.369	3040.44
474.74	3111.18
475.112	3220.78
475.484	3244.51
475.855	3316.14
476.227	3364.5
476.598	3464.84
476.97	3480.43
477.341	3572.63
477.713	3656.92
478.084	3668.45
478.455	3776.92
478.827	3768.56
479.198	3949.35
479.569	3947.99
479.94	4068.89
480.311	4111.83
480.682	4217.36
481.053	4342.78
481.424	4395.21
481.795	4461.2
482.166	4559.72
482.537	4606.73
482.908	4693.73
483.279	4766.05
483.65	4902.54
484.021	4965.82
484.391	5055.08
484.762	5080.61
485.133	5174.62
485.503	5216.2
485.874	5348.4
486.244	5422.07
486.615	5539.59
486.985	5607.83
487.356	5704.33
487.726	5751.33
488.097	5860.71
488.467	5921.72
488.837	6083.75
489.207	6101.38
489.578	6224.31
489.948	6285.1
490.318	6311.09
490.688	6415.04
491.058	6422.5
491.428	6571.65
491.798	6642.61
492.168	6758.09
492.538	6820.68
492.908	6918.53
493.278	6993.56
493.648	6963.05
494.017	7068.36
494.387	7130.28
494.757	7242.82
495.126	7332.99
495.496	7379.76
495.866	7389.25
496.235	7466.09
496.605	7593.77
496.974	7649.14
497.344	7758.51
497.713	7773.43
498.082	7839.86
498.452	7972.06
498.821	7975.68
499.19	7956.25
499.559	8111.04
499.928	8139.97
500.298	8182.91
500.667	8336.8
501.036	8276.46
501.405	8363.47
501.774	8376.12
502.143	8539.06
502.512	8484.82
502.88	8631.03
503.249	8638.49
503.618	8692.05
503.987	8768.43
504.356	8816.11
504.724	8859.5
505.093	8854.3
505.462	9030.57
505.83	9016.33
506.199	9159.38
506.567	9324.12
506.936	9291.13
507.304	9406.38
507.672	9499.48
508.041	9568.18
508.409	9592.59
508.777	9649.99
509.145	9723.88
509.514	9746.26
509.882	9852.24
510.25	9956.19
510.618	10005.68
510.986	10030.32
511.354	10161.84
511.722	10297.2
512.09	10321.38
512.458	10402.28
512.826	10422.4
513.193	10558.21
513.561	10651.09
513.929	10720.92
514.297	10750.75
514.664	10887.47
515.032	10898.99
515.4	11051.98
515.767	11002.04
516.135	11212.21
516.502	11134.92
516.869	11256.5
517.237	11381.01
517.604	11413.78
517.972	11544.17
518.339	11634.34
518.706	11769.03
519.073	11754.11
519.44	11872.07
519.808	11965.18
520.175	11979.64
520.542	12235.46
520.909	12318.16
521.276	12346.64
521.643	12458.5
522.009	12526.29
522.376	12709.57
522.743	12736.68
523.11	12884.03
523.477	13086.73
523.843	13031.59
524.21	13288.99
524.577	13331.25
524.943	13374.41
525.31	13464.58
525.676	13708.41
526.043	13789.99
526.409	13809.43
526.776	13955.18
527.142	14086.48
527.508	14206.02
527.874	14255.29
528.241	14332.58
528.607	14429.75
528.973	14476.3
529.339	14573.92
529.705	14796.97
530.071	14746.35
530.437	14882.62
530.803	14963.74
531.169	15064.99
531.535	15017.53
531.901	15143.63
532.267	15187.24
532.632	15377.07
532.998	15476.73
533.364	15508.82
533.73	15633.11
534.095	15690.51
534.461	15770.28
534.826	15779.77
535.192	15922.59
535.557	16072.42
535.923	15996.26
536.288	16074.68
536.653	16248
537.019	16056.37
537.384	16314.44
537.749	16284.84
538.114	16343.6
538.479	16473.54
538.845	16450.49
539.21	16433.31
539.575	16623.81
539.94	16593.76
540.305	16720.99
540.67	16857.93
541.034	16959.85
541.399	16975.9
541.764	16913.07
542.129	16979.74
542.494	17028.32
542.858	17079.4
543.223	17237.13
543.587	17412.04
543.952	17334.98
544.316	17338.82
544.681	17413.85
545.045	17494.53
545.41	17574.3
545.774	17631.7
546.138	17682.32
546.503	17780.17
546.867	17791.69
547.231	17958.02
547.595	17942.2
547.959	18064.91
548.324	18013.16
548.688	18082.08
549.052	18278.69
549.416	18238.46
549.779	18232.59
550.143	18492.01
550.507	18559.81
550.871	18582.86
551.235	18688.39
551.599	18808.39
551.962	18865.11
552.326	18902.4
552.689	19037.08
553.053	19031.66
553.417	19063.3
553.78	19450.63
554.143	19384.87
554.507	19553.91
554.87	19615.15
555.234	19791.87
555.597	19793.45
555.96	19818.31
556.323	19979.88
556.686	20108.47
557.05	20127.68
557.413	20370.16
557.776	20435.01
558.139	20635.23
558.502	20634.33
558.865	20781.22
559.228	20949.12
559.59	21127.42
559.953	21144.83
560.316	21431.37
560.679	21487.64
561.041	21680.4
561.404	21765.15
561.767	21982.54
562.129	22032.49
562.492	22245.36
562.854	22236.1
563.217	22453.72
563.579	22517.67
563.941	22911.56
564.304	22927.6
564.666	23249.85
565.028	23259.57
565.39	23422.73
565.753	23690.3
566.115	23697.3
566.477	23753.12
566.839	23989.27
567.201	24122.83
567.563	24229.26
567.925	24480.78
568.287	24607.56
568.648	24837.61
569.01	25015.23
569.372	25286.19
569.734	25234.89
570.095	25472.17
570.457	25638.27
570.819	25779.51
571.18	25894.31
571.542	26146.28
571.903	26232.6
572.265	26535.42
572.626	26544.68
572.987	26725.92
573.349	26872.58
573.71	27069.19
574.071	27165.91
574.432	27286.81
574.794	27450.2
575.155	27648.61
575.516	27623.3
575.877	27928.38
576.238	27991.65
576.599	28169.5
576.96	28252.44
577.32	28379.44
577.681	28597.51
578.042	28748.92
578.403	28756.6
578.763	28868.69
579.124	29045.41
579.485	29152.07
579.845	29418.96
580.206	29423.48
580.566	29393.2
580.927	29582.12
581.287	29830.47
581.648	29651.27
582.008	30001.54
582.368	29909.79
582.728	30041.54
583.089	30006.29
583.449	30067.53
583.809	30169.45
584.169	30167.19
584.529	30321.53
584.889	30643.56
585.249	30431.13
585.609	30477.69
585.969	30667.29
586.329	30596.78
586.688	30652.6
587.048	30601.53
587.408	30593.84
587.768	30608.98
588.127	30868.41
588.487	30761.75
588.846	31101.85
589.206	30802.88
589.565	31006.04
589.925	30988.86
590.284	30984.11
590.643	31135.07
591.003	31134.62
591.362	31279.02
591.721	31195.86
592.08	31291.68
592.44	31239.7
592.799	31263.2
593.158	31308.85
593.517	31277.44
593.876	31413.03
594.235	31237.22
594.593	31418.23
594.952	31481.73
595.311	31259.36
595.67	31503.42
596.029	31623.19
596.387	31646.7
596.746	31771.89
597.104	31546.59
597.463	31653.93
597.822	31735.51
598.18	31692.57
598.538	31669.75
598.897	31874.49
599.255	31506.59
599.613	31963.07
599.972	31770.99
600.33	32000.36
600.688	31857.09
601.046	31930.3
601.404	32080.58
601.762	31968.04
602.12	32158.77
602.478	32087.36
602.836	32223.63
603.194	31965.56
603.552	32020.02
603.91	32049.62
604.268	32290.52
604.625	31977.76
604.983	32282.61
605.341	32060.92
605.698	32290.75
606.056	32332.55
606.413	32269.73
606.771	32513.57
607.128	32476.96
607.485	32300.01
607.843	32312.67
608.2	32503.62
608.557	32609.38
608.914	32509.5
609.272	32711.53
609.629	32710.62
609.986	32862.48
610.343	32750.17
610.7	32983.16
611.057	32815.93
611.414	32764.63
611.771	32787.23
612.127	32987.45
612.484	32857.51
612.841	33025.19
613.198	33009.15
613.554	32960.56
613.911	33150.39
614.267	33092.31
614.624	33219.31
614.98	33402.13
615.337	33402.81
615.693	33265.64
616.05	33245.52
616.406	33470.38
616.762	33353.32
617.118	33297.05
617.475	33355.8
617.831	33353.09
618.187	33612.29
618.543	33526.65
618.899	33575.91
619.255	33526.65
619.611	33592.41
619.967	33611.84
620.323	33698.17
620.678	33588.34
621.034	33406.42
621.39	33492.75
621.746	33594.89
622.101	33966.41
622.457	33680.54
622.812	33706.98
623.168	33763.02
623.523	33744.72
623.879	33764.15
624.234	33704.95
624.589	33843.02
624.945	33880.08
625.3	33832.4
625.655	33898.39
626.01	33780.88
626.365	33724.16
626.72	33847.99
627.075	33852.29
627.43	33951.27
627.785	33653.42
628.14	33761.89
628.495	33796.02
628.85	33716.7
629.205	33621.33
629.559	33837.82
629.914	33562.8
630.269	33544.5
630.623	33554.67
630.978	33481
631.332	33645.51
631.687	33704.95
632.041	33465.86
632.396	33459.98
632.75	33365.52
633.104	33540.21
633.459	33396.71
633.813	33358.29
634.167	33370.49
634.521	33219.08
634.875	33235.58
635.229	33263.38
635.583	33229.03
635.937	33180.44
636.291	33171.63
636.645	33302.92
636.999	32961.24
637.352	33142.25
637.706	32973.67
638.06	33036.72
638.413	32923.5
638.767	32915.59
639.121	33091.18
639.474	32742.26
639.828	32782.03
640.181	32865.2
640.534	32767.8
640.888	32831.75
641.241	32476.73
641.594	32546.33
641.947	32639.21
642.301	32641.7
642.654	32633.34
643.007	32667.46
643.36	32698.19
643.713	32410.74
644.066	32629.95
644.419	32396.51
644.771	32209.17
645.124	32031.09
645.477	32029.96
645.83	31749.52
646.182	31690.31
646.535	31526.02
646.888	31539.13
647.24	31285.8
647.593	31546.81
647.945	31362.18
648.298	31120.16
648.65	31173.26
649.002	31106.6
649.355	31315.63
649.707	31146.14
650.059	31523.54
650.411	31799.91
650.763	31816.18
651.115	32054.14
651.467	31921.49
651.819	32040.13
652.171	31922.85
652.523	31766.24
652.875	32003.52
653.227	31655.96
653.578	32010.3
653.93	31911.77
654.282	31693.02
654.633	31695.51
654.985	31862.96
655.337	31767.6
655.688	31918.33
656.039	31788.16
656.391	31645.34
656.742	31778.67
657.094	31809.4
657.445	31877.88
657.796	31954.94
658.147	31765.11
658.498	31701.38
658.849	31779.35
659.2	31756.3
659.551	31590.65
659.902	31737.99
660.253	31649.86
660.604	31760.82
660.955	31494.84
661.306	31691.21
661.656	31610.76
662.007	31660.93
662.358	31723.08
662.708	31611.22
663.059	31543.42
663.409	31602.63
663.76	31834.71
664.11	31690.08
664.461	31729.63
664.811	31642.4
665.161	31645.79
665.511	31447.61
665.862	31566.47
666.212	31680.59
666.562	31623.65
666.912	31524.67
667.262	31579.58
667.612	31582.97
667.962	31634.49
668.312	31565.79
668.662	31788.39
669.011	31614.61
669.361	31658.67
669.711	31555.4
670.06	31539.13
670.41	31530.32
670.76	31345.01
671.109	31461.39
671.459	31471.33
671.808	31330.32
672.157	31338.68
672.507	31055.07
672.856	31189.08
673.205	31167.39
673.554	31232.92
673.904	31125.81
674.253	31363.77
674.602	31057.79
674.951	30805.59
675.3	30678.81
675.649	31234.73
675.998	30994.51
676.346	31069.99
676.695	31053.94
677.044	30876.09
677.393	31018.46
677.741	31008.29
678.09	30847.4
678.438	30754.52
678.787	30810.79
679.135	30856.66
679.484	30814.18
679.832	30859.82
680.181	30678.36
680.529	30672.26
680.877	30697.34
681.225	30437.69
681.573	30699.6
681.922	30446.28
682.27	30293.06
682.618	30363.57
682.966	30219.39
683.314	30445.82
683.661	30256.22
684.009	30084.25
684.357	29957.48
684.705	29899.62
685.053	29975.55
685.4	30015.78
685.748	29776.46
686.095	29775.78
686.443	29776.24
686.79	29586.19
687.138	29703.02
687.485	29719.97
687.832	29550.48
688.18	29550.71
688.527	29376.02
688.874	29368.79
689.221	29279.75
689.568	29132.86
689.915	29184.16
690.262	29023.94
690.609	29094.22
690.956	28875.47
691.303	28747.34
691.65	28743.04
691.997	28651.97
692.344	28466.89
692.69	28505.99
693.037	28447.01
693.383	28313.9
693.73	28293.79
694.077	28102.16
694.423	28150.52
694.769	27904.65
695.116	28004.31
695.462	27927.7
695.808	27805.22
696.155	27833.24
696.501	27588.72
696.847	27532.91
697.193	27377.2
697.539	27550.98
697.885	27190.99
698.231	27177.21
698.577	27040.49
698.923	27160.71
699.269	26993.94
699.614	26797.11
699.96	26756.43
700.306	26757.79
700.651	26633.95
700.997	26569.77
701.342	26474.4
701.688	26413.61
702.033	26256.1
702.379	26313.73
702.724	26253.84
703.069	26250
703.415	25832.39
703.76	25973.62
704.105	25910.12
704.45	25813.63
704.795	25769.11
705.14	25635.1
705.485	25572.73
705.83	25384.71
706.175	25467.88
706.52	25308.56
706.865	25059.3
707.209	25154.21
707.554	25061.11
707.899	25175.91
708.243	24931.62
708.588	24902.69
708.932	24836.71
709.277	24810.72
709.621	24822.69
709.966	24763.26
710.31	24661.57
710.654	24536.83
710.998	24583.15
711.342	24555.13
711.687	24471.97
712.031	24274.23
712.375	24259.77
712.719	24251.64
713.063	24309.71
713.407	24271.52
713.75	24109.04
714.094	24050.51
714.438	24025.88
714.782	23968.03
715.125	23977.75
715.469	23945.43
715.812	23858.43
716.156	23791.54
716.499	23756.73
716.843	23696.17
717.186	23540.92
717.53	23847.13
717.873	23665.66
718.216	23655.95
718.559	23601.71
718.902	23357.2
719.246	23362.62
719.589	23430.87
719.932	23361.72
720.275	23324.2
720.617	23332.79
720.96	23204.21
721.303	23298.44
721.646	23282.17
721.989	23118.11
722.331	23240.82
722.674	23221.83
723.016	23169.86
723.359	23061.16
723.701	23167.15
724.044	22990.2
724.386	22824.1
724.729	23058.9
725.071	22825.91
725.413	22906.59
725.755	22908.39
726.097	22779.36
726.439	22743.43
726.782	22794.73
727.124	22918.11
727.465	22768.51
727.807	22839.02
728.149	22711.11
728.491	22639.02
728.833	22862.52
729.175	22640.61
729.516	22620.94
729.858	22599.7
730.199	22761.05
730.541	22581.62
730.882	22712.24
731.224	22717.89
731.565	22599.25
731.906	22654.39
732.248	22644.45
732.589	22540.04
732.93	22531
733.271	22508.18
733.612	22489.65
733.953	22585.01
734.294	22506.6
734.635	22622.98
734.976	22522.42
735.317	22422.31
735.658	22353.61
735.999	22463.66
736.339	22467.5
736.68	22567.39
737.021	22476.54
737.361	22384.11
737.702	22474.51
738.042	22455.3
738.383	22373.49
738.723	22424.34
739.063	22227.51
739.404	22331.91
739.744	22374.62
740.084	22297.56
740.424	22409.65
740.764	22325.81
741.104	22311.35
741.444	22260.28
741.784	22233.61
742.124	22326.49
742.464	22344.34
742.804	22321.29
743.143	22228.86
743.483	22270.45
743.823	22263.67
744.162	22149.77
744.502	22173.5
744.841	22135.08
745.181	22171.24
745.52	22088.3
745.86	22167.17
746.199	22128.98
746.538	22128.53
746.877	22131.24
747.216	22214.4
747.556	22051.24
747.895	22166.04
748.234	22080.62
748.573	22058.7
748.911	22038.36
749.25	22092.82
749.589	21962.88
749.928	22048.08
750.267	21986.61
750.605	21937.8
750.944	21986.84
751.283	21843.11
751.621	21982.54
751.96	21771.7
752.298	21856.22
752.636	21888.76
752.975	21779.38
753.313	21716.79
753.651	21934.41
753.989	21650.35
754.327	21701.65
754.666	21521.54
755.004	21675.21
755.342	21760.63
755.679	21630.01
756.017	21416.91
756.355	21637.92
756.693	21382.79
757.031	21504.82
757.368	21374.42
757.706	21390.92
758.044	21222.56
758.381	21374.42
758.719	21248.78
759.056	21253.52
759.394	21269.34
759.731	21102.11
760.068	21110.48
760.405	21014.43
760.743	20900.76
761.08	20968.78
761.417	20847.43
761.754	20870.93
762.091	20858.73
762.428	20793.42
762.765	20593.88
763.102	20667.32
763.438	20581.68
763.775	20503.94
764.112	20563.37
764.449	20495.35
764.785	20372.64
765.122	20323.38
765.458	20255.36
765.795	20100.56
766.131	20131.52
766.467	20050.62
766.804	19985.99
767.14	19771.3
767.476	19871.64
767.812	19802.71
768.148	19838.19
768.485	19758.2
768.821	19529.95
769.157	19528.37
769.492	19553.45
769.828	19527.69
770.164	19376.96
770.5	19262.84
770.836	19281.82
771.171	19117.08
771.507	19159.11
771.842	18954.37
772.178	18982.17
772.513	18900.14
772.849	18929.06
773.184	18800.71
773.519	18787.37
773.855	18633.48
774.19	18642.74
774.525	18620.37
774.86	18591.45
775.195	18491.79
775.53	18482.97
775.865	18359.59
776.2	18220.61
776.535	18110.33
776.87	18081.18
777.205	17963.21
777.539	17962.31
777.874	17859.26
778.209	17810.45
778.543	17756.67
778.878	17648.42
779.212	17682.32
779.547	17525.94
779.881	17520.74
780.215	17397.81
780.55	17429.22
780.884	17358.71
781.218	17191.71
781.552	17313.97
781.886	17272.38
782.22	17054.31
782.554	17129.34
782.888	16900.64
783.222	16871.72
783.556	16854.09
783.889	16807.31
784.223	16638.96
784.557	16619.75
784.89	16723.25
785.224	16553.08
785.557	16520.09
785.891	16398.96
786.224	16365.74
786.558	16344.05
786.891	16186.76
787.224	16247.78
787.557	16174.56
787.891	16145.41
788.224	16042.59
788.557	15984.96
788.89	15979.54
789.223	15841.24
789.556	15761.24
789.888	15755.14
790.221	15674.23
790.554	15577.74
790.887	15604.86
791.219	15556.72
791.552	15493.22
791.884	15385.43
792.217	15399.21
792.549	15387.91
792.882	15252.1
793.214	15102.5
793.546	15149.5
793.879	15031.54
794.211	14933.01
794.543	15000.13
794.875	14957.64
795.207	15042.84
795.539	14863.18
795.871	14911.77
796.203	14781.83
796.535	14726.46
796.867	14673.36
797.198	14665.45
797.53	14640.59
797.862	14575.73
798.193	14545.22
798.525	14492.57
798.856	14466.36
799.188	14272.69
799.519	14310.2
799.85	14224.56
800.182	14244.44
800.513	14225.23
800.844	14073.37
801.175	14191.11
801.506	14154.05
801.837	14066.14
802.168	13966.26
802.499	13971.45
802.83	13909.08
803.161	13884
803.491	13832.02
803.822	13782.76
804.153	13713.16
804.483	13600.62
804.814	13558.36
805.145	13529.88
805.475	13583.67
805.805	13523.33
806.136	13457.12
806.466	13498.25
806.796	13403.56
807.126	13317.91
807.457	13325.37
807.787	13229.78
808.117	13197.92
808.447	13216.67
808.777	13291.47
809.107	13152.95
809.436	13158.14
809.766	13139.39
810.096	13023.46
810.426	12939.17
810.755	13018.03
811.085	12982.33
811.414	12978.94
811.744	12843.35
812.073	12816.46
812.403	12844.03
812.732	12750.02
813.061	12715.22
813.39	12662.56
813.719	12667.99
814.049	12602.45
814.378	12650.36
814.707	12562
815.036	12569.68
815.365	12510.02
815.693	12363.14
816.022	12403.81
816.351	12326.53
816.68	12308.9
817.008	12355.9
817.337	12250.6
817.665	12222.12
817.994	12241.56
818.322	12203.82
818.651	12192.97
818.979	12140.77
819.307	12201.56
819.636	12071.62
819.964	11981.68
820.292	12095.35
820.62	12011.96
820.948	12022.35
821.276	12021
821.604	11976.93
821.932	12021.45
822.259	12011.96
822.587	12015.57
822.915	11973.77
823.243	12032.52
823.57	11984.16
823.898	12053.31
824.225	11991.85
824.553	11868.01
824.88	11971.51
825.207	11994.11
825.535	11954.56
825.862	11997.5
826.189	11942.13
826.516	11995.01
826.843	11992.98
827.17	11943.49
827.497	11952.98
827.824	11944.84
828.151	11970.15
828.478	12036.82
828.805	12052.64
829.131	11886.99
829.458	11897.84
829.785	11813.55
830.111	11894.45
830.438	11897.61
830.764	11893.54
831.09	11950.26
831.417	11908.68
831.743	11917.27
832.069	11967.89
832.395	11868.91
832.722	11875.92
833.048	11858.74
833.374	11790.27
833.7	11731.74
834.026	11821.45
834.351	11764.96
834.677	11801.57
835.003	11829.82
835.329	11780.78
835.654	11757.95
835.98	11744.39
836.306	11703.49
836.631	11656.71
836.956	11659.65
837.282	11688.8
837.607	11629.6
837.932	11660.1
838.258	11652.65
838.583	11593.44
838.908	11515.25
839.233	11546.66
839.558	11510.5
839.883	11489.94
840.208	11492.2
840.533	11445.42
840.858	11470.28
841.182	11429.37
841.507	11395.25
841.832	11360.68
842.156	11299.66
842.481	11355.03
842.805	11268.93
843.13	11264.63
843.454	11237.97
843.778	11167.01
844.103	11197.06
844.427	11199.78
844.751	11144.41
845.075	11115.94
845.399	11124.98
845.723	10981.7
846.047	11036.16
846.371	10920.46
846.695	10911.42
847.019	10836.17
847.343	10807.02
847.666	10865.1
847.99	10714.37
848.313	10735.83
848.637	10640.02
848.96	10665.1
849.284	10624.2
849.607	10522.96
849.931	10451.55
850.254	10485.67
850.577	10451.1
850.9	10337.88
851.223	10289.52
851.546	10234.38
851.869	10182.63
852.192	10254.72
852.515	10108.73
852.838	10169.07
853.161	10126.81
853.483	10042.74
853.806	9967.27
854.129	10020.15
854.451	9968.85
854.774	9951
855.096	9825.35
855.419	9861.96
855.741	9769.53
856.063	9828.29
856.385	9704.45
856.708	9694.5
857.03	9738.57
857.352	9697.44
857.674	9668.74
857.996	9619.7
858.318	9547.16
858.64	9618.35
858.961	9528.41
859.283	9503.78
859.605	9468.97
859.926	9484.34
860.248	9538.12
860.57	9405.7
860.891	9435.75
861.212	9337.9
861.534	9324.57
861.855	9293.16
862.176	9324.35
862.498	9321.86
862.819	9302.42
863.14	9222.88
863.461	9259.49
863.782	9214.52
864.103	9214.74
864.424	9121.64
864.745	9182.43
865.065	9125.48
865.386	9117.57
865.707	9096.33
866.027	9128.64
866.348	9068.53
866.668	9082.77
866.989	9139.27
867.309	8993.51
867.63	8984.02
867.95	9036.67
868.27	8955.09
868.59	8962.55
868.91	8962.55
869.23	8953.73
869.55	8862.89
869.87	8949.89
870.19	8890.23
870.51	8852.95
870.83	8916.9
871.15	8820.86
871.469	8854.75
871.789	8884.58
872.109	8853.17
872.428	8756.22
872.748	8757.35
873.067	8758.94
873.386	8782.21
873.706	8732.72
874.025	8735.21
874.344	8724.14
874.663	8759.16
874.982	8698.37
875.301	8701.08
875.62	8659.28
875.939	8625.15
876.258	8616.57
876.577	8565.27
876.896	8539.28
877.214	8492.95
877.533	8522.11
877.852	8546.96
878.17	8542.67
878.489	8592.16
878.807	8501.99
879.125	8506.51
879.444	8494.08
879.762	8445.5
880.08	8443.69
880.398	8360.08
880.716	8424.26
881.034	8375.44
881.352	8385.39
881.67	8323.47
881.988	8348.78
882.306	8329.12
882.624	8333.18
882.941	8292.51
883.259	8293.41
883.577	8287.08
883.894	8259.51
884.212	8227.2
884.529	8190.59
884.846	8167.31
885.164	8216.13
885.481	8156.47
885.798	8128.67
886.115	8119.86
886.432	8088.22
886.75	8033.08
887.067	8076.02
887.383	8076.24
887.7	8066.98
888.017	8033.98
888.334	7986.53
888.651	7996.02
888.967	8006.41
889.284	7933.42
889.6	7918.96
889.917	7785.63
890.233	7851.39
890.55	7841.9
890.866	7902.01
891.182	7806.87
891.498	7767.1
891.815	7755.12
892.131	7708.79
892.447	7691.17
892.763	7723.71
893.079	7633.54
893.395	7621.34
893.71	7595.35
894.026	7607.33
894.342	7585.86
894.657	7553.54
894.973	7515.13
895.289	7567.33
895.604	7462.7
895.92	7378.18
896.235	7394.68
896.55	7426.77
896.865	7347.22
897.181	7327.34
897.496	7322.36
897.811	7339.09
898.126	7242.37
898.441	7197.62
898.756	7215.47
899.071	7200.56
899.386	7163.95
899.7	7146.1
900.015	7080.56
900.33	7064.29
900.644	7008.02
900.959	7061.35
901.273	7018.19
901.588	6971.64
901.902	6937.06
902.216	6894.58
902.531	6938.87
902.845	6871.53
903.159	6805.99
903.473	6806.22
903.787	6817.97
904.101	6760.8
904.415	6720.12
904.729	6698.88
905.042	6673.57
905.356	6671.76
905.67	6693.23
905.984	6638.99
906.297	6657.07
906.611	6668.82
906.924	6568.03
907.237	6533.68
907.551	6497.07
907.864	6566.68
908.177	6470.18
908.491	6433.35
908.804	6447.58
909.117	6410.3
909.43	6319.45
909.743	6370.3
910.056	6327.81
910.368	6293.24
910.681	6253.47
910.994	6233.35
911.307	6244.43
911.619	6167.59
911.932	6232.9
912.244	6138.89
912.557	6175.73
912.869	6083.53
913.181	6039.69
913.494	6057.54
913.806	6036.3
914.118	5980.25
914.43	5991.1
914.742	5976.18
915.054	5919.46
915.366	5959.46
915.678	5881.95
915.99	5890.54
916.302	5748.39
916.613	5842.4
916.925	5808.73
917.236	5780.94
917.548	5712.91
917.859	5767.38
918.171	5708.17
918.482	5730.77
918.794	5647.15
919.105	5617.55
919.416	5587.49
919.727	5593.14
920.038	5566.03
920.349	5509.53
920.66	5528.96
920.971	5535.29
921.282	5453.71
921.593	5436.09
921.903	5399.25
922.214	5359.7
922.525	5307.05
922.835	5410.78
923.146	5273.38
923.456	5298.91
923.767	5296.88
924.077	5273.83
924.387	5316.99
924.697	5211.23
925.008	5215.53
925.318	5193.61
925.628	5126.94
925.938	5138.47
926.248	5140.05
926.558	5057.11
926.867	5024.35
927.177	5078.36
927.487	5012.14
927.796	4963.33
928.106	4981.18
928.416	4954.06
928.725	4961.52
929.034	4901.41
929.344	4950.9
929.653	4870.9
929.962	4859.38
930.271	4839.04
930.581	4825.93
930.89	4773.5
931.199	4806.05
931.508	4750.68
931.817	4736.44
932.125	4732.38
932.434	4718.59
932.743	4595.2
933.051	4695.54
933.36	4586.62
933.669	4652.6
933.977	4569.89
934.286	4603.34
934.594	4555.66
934.902	4517.69
935.21	4484.47
935.519	4524.92
935.827	4515.66
936.135	4481.53
936.443	4497.13
936.751	4438.6
937.059	4488.54
937.367	4403.57
937.674	4369.45
937.982	4394.76
938.29	4314.08
938.597	4343.69
938.905	4349.11
939.213	4327.41
939.52	4301.43
939.827	4261.65
940.135	4223.46
940.442	4209.9
940.749	4184.59
941.056	4159.74
941.363	4123.8
941.67	4166.29
941.977	4155.67
942.284	4085.16
942.591	4062.79
942.898	4085.84
943.205	4071.83
943.511	4026.63
943.818	4037.93
944.125	3972.62
944.431	3982.56
944.738	4009
945.044	3954.99
945.35	3956.35
945.657	3958.61
945.963	3921.32
946.269	3860.31
946.575	3902.34
946.881	3883.13
947.187	3862.57
947.493	3808.78
947.799	3785.06
948.105	3803.36
948.41	3741.89
948.716	3743.02
949.022	3757.71
949.327	3700.54
949.633	3727.43
949.938	3702.57
950.244	3686.98
950.549	3685.62
950.854	3632.97
951.16	3666.87
951.465	3617.38
951.77	3577.6
952.075	3625.51
952.38	3610.37
952.685	3585.97
952.99	3538.51
953.294	3489.24
953.599	3524.95
953.904	3515.23
954.209	3489.02
954.513	3451.05
954.818	3476.82
955.122	3441.56
955.426	3430.71
955.731	3402.24
956.035	3388.46
956.339	3404.27
956.643	3398.17
956.948	3338.51
957.252	3338.29
957.556	3329.93
957.86	3343.71
958.163	3305.07
958.467	3314.79
958.771	3254.67
959.075	3270.49
959.378	3258.74
959.682	3251.51
959.985	3199.31
960.289	3248.57
960.592	3201.34
960.896	3162.47
961.199	3171.51
961.502	3142.36
961.805	3147.33
962.108	3109.82
962.411	3159.99
962.714	3097.39
963.017	3109.14
963.32	3082.25
963.623	3042.25
963.926	3063.27
964.228	3022.59
964.531	3037.28
964.833	2998.41
965.136	2992.08
965.438	2997.28
965.741	2964.06
966.043	2915.93
966.345	2935.36
966.648	2934.23
966.95	2928.36
967.252	2906.43
967.554	2887.23
967.856	2894.01
968.158	2871.41
968.46	2852.88
968.761	2803.16
969.063	2860.33
969.365	2830.73
969.666	2834.8
969.968	2772.2
970.269	2777.62
970.571	2801.8
970.872	2755.48
971.174	2710.73
971.475	2763.39
971.776	2711.41
972.077	2706.44
972.378	2717.51
972.679	2659.89
972.98	2682.26
973.281	2686.78
973.582	2707.8
973.883	2661.02
974.183	2619.44
974.484	2608.59
974.785	2611.98
975.085	2577.86
975.386	2604.07
975.686	2595.26
975.986	2548.93
976.287	2557.52
976.587	2538.08
976.887	2521.59
977.187	2535.82
977.487	2519.1
977.787	2513.22
978.087	2523.17
978.387	2483.62
978.687	2485.43
978.987	2451.98
979.286	2426.9
979.586	2471.42
979.885	2432.78
980.185	2435.94
980.484	2382.61
980.784	2417.86
981.083	2381.02
981.382	2414.02
981.682	2366.34
981.981	2388.93
982.28	2339.67
982.579	2351.42
982.878	2349.16
983.177	2334.02
983.475	2316.39
983.774	2303.96
984.073	2280.91
984.372	2291.54
984.67	2244.31
984.969	2259.9
985.267	2267.58
985.566	2267.58
985.864	2216.51
986.162	2216.28
986.461	2243.18
986.759	2196.85
987.057	2203.85
987.355	2165.21
987.653	2170.41
987.951	2170.41
988.249	2156.17
988.547	2183.06
988.844	2144.65
989.142	2130.86
989.44	2107.81
989.737	2117.98
990.035	2115.72
990.332	2100.58
990.63	2061.49
990.927	2061.26
991.224	2093.35
991.521	2043.41
991.819	2018.32
992.116	2059.68
992.413	2041.37
992.71	2009.96
993.006	2026.01
993.303	2005.44
993.6	1964.31
993.897	1946.69
994.193	2004.54
994.49	1982.17
994.787	1945.56
995.083	1957.76
995.379	1921.15
995.676	1931.09
995.972	1933.13
996.268	1893.58
996.565	1857.2
996.861	1885.9
997.157	1871.89
997.453	1873.02
997.749	1853.81
998.044	1826.24
998.34	1864.2
998.636	1818.33
998.932	1811.55
999.227	1816.97
999.523	1773.58
999.818	1785.79
1000.114	1794.6
1000.409	1794.83
1000.704	1769.74
1001	1766.35
1001.295	1738.78
1001.59	1765
1001.885	1760.7
1002.18	1743.08
1002.475	1717.54
1002.77	1725
1003.065	1659.69
1003.359	1697.2
1003.654	1680.7
1003.949	1711.89
1004.243	1671.67
1004.538	1594.83
1004.832	1617.66
1005.127	1633.02
1005.421	1647.03
1005.715	1616.75
1006.009	1605.68
1006.304	1608.39
1006.598	1587.37
1006.892	1598.45
1007.186	1579.24
1007.48	1592.35
1007.773	1548.73
1008.067	1571.55
1008.361	1550.31
1008.655	1522.29
1008.948	1515.29
1009.242	1511.67
1009.535	1488.85
1009.829	1512.12
1010.122	1505.34
1010.415	1519.58
1010.708	1459.02
1011.001	1469.18
1011.295	1450.43
1011.588	1441.39
1011.881	1448.17
1012.173	1447.49
1012.466	1432.8
1012.759	1443.65
1013.052	1405.46
1013.344	1409.98
1013.637	1395.29
1013.93	1389.19
1014.222	1397.32
1014.514	1374.27
1014.807	1374.27
1015.099	1339.24
1015.391	1336.98
1015.683	1309.41
1015.976	1346.25
1016.268	1333.59
1016.56	1324.56
1016.851	1313.71
1017.143	1314.39
1017.435	1304.22
1017.727	1304.22
1018.018	1271.22
1018.31	1300.38
1018.602	1290.43
1018.893	1248.17
1019.185	1257.21
1019.476	1254.05
1019.767	1238.46
1020.058	1255.4
1020.35	1217.44
1020.641	1230.55
1020.932	1204.56
1021.223	1189.42
1021.514	1193.26
1021.804	1195.52
1022.095	1204.11
1022.386	1175.18
1022.677	1158.46
1022.967	1176.99
1023.258	1154.16
1023.548	1148.51
1023.839	1142.87
1024.129	1136.54
1024.419	1153.94
1024.709	1147.61
1025	1126.82
1025.29	1100.83
1025.58	1091.12
1025.87	1108.74
1026.16	1095.64
1026.449	1082.75
1026.739	1059.7
1027.029	1084.79
1027.319	1064.45
1027.608	1065.58
1027.898	1047.27
1028.187	1047.95
1028.477	1043.21
1028.766	1044.34
1029.055	1019.48
1029.344	1024
1029.634	998.91
1029.923	1012.25
1030.212	984.9
1030.501	992.81
1030.79	961.18
1031.078	993.04
1031.367	969.08
1031.656	959.14
1031.945	954.4
1032.233	953.94
1032.522	981.74
1032.81	969.99
1033.099	939.71
1033.387	969.31
1033.675	939.25
1033.963	929.54
1034.251	925.47
1034.54	898.58
1034.828	905.36
1035.116	902.19
1035.403	880.73
1035.691	923.44
1035.979	883.66
1036.267	889.31
1036.554	884.12
1036.842	863.78
1037.129	868.07
1037.417	884.79
1037.704	865.58
1037.992	851.57
1038.279	852.03
1038.566	854.29
1038.853	854.29
1039.14	854.29
