Data from tablewood_brown_FLMS001491_052.txt Node
Date: Tue Feb 07 11:10:41 GMT 2017
User: dcchb
Spectrometer: FLMS00149
Trigger mode: 0
Integration Time (sec): 2.000000E-2
Scans to average: 10
Electric dark correction enabled: true
Nonlinearity correction enabled: false
Boxcar width: 0
XAxis mode: Wavelengths
Number of Pixels in Spectrum: 2048
>>>>>Begin Spectral Data<<<<<
341.393	-24.15
341.776	-24.15
342.16	-24.15
342.543	-69.35
342.927	-60.99
343.31	-92.4
343.693	-70.93
344.077	-83.36
344.46	-59.41
344.843	-40.87
345.226	-23.25
345.61	-35.68
345.993	-13.53
346.376	12.01
346.759	13.59
347.142	9.75
347.525	46.13
347.908	68.95
348.291	76.41
348.674	94.49
349.057	98.1
349.44	113.02
349.823	135.62
350.206	158.67
350.588	189.63
350.971	223.3
351.354	225.56
351.737	250.42
352.119	264.65
352.502	270.98
352.884	292.45
353.267	297.65
353.65	302.39
354.032	300.36
354.414	320.25
354.797	325.9
355.179	320.47
355.562	333.35
355.944	344.2
356.326	329.74
356.709	333.35
357.091	357.98
357.473	364.99
357.855	345.33
358.238	350.75
358.62	339
359.002	339.68
359.384	350.75
359.766	329.51
360.148	354.6
360.53	369.51
360.912	338.32
361.294	329.06
361.676	341.71
362.057	336.06
362.439	354.6
362.821	349.85
363.203	337.19
363.584	350.08
363.966	315.95
364.348	338.32
364.729	332
365.111	335.84
365.493	348.27
365.874	341.26
366.256	332.9
366.637	328.16
367.019	331.54
367.4	340.13
367.781	345.78
368.163	314.14
368.544	324.09
368.925	350.08
369.306	351.43
369.688	333.35
370.069	335.61
370.45	329.96
370.831	331.54
371.212	324.54
371.593	332.45
371.974	336.29
372.355	360.24
372.736	327.93
373.117	346.69
373.498	343.07
373.879	333.13
374.26	348.72
374.641	340.13
375.021	342.39
375.402	346.91
375.783	364.76
376.163	344.43
376.544	342.84
376.925	348.72
377.305	334.71
377.686	353.24
378.066	353.24
378.447	358.89
378.827	377.19
379.208	369.28
379.588	362.73
379.968	366.35
380.349	351.88
380.729	364.76
381.109	373.8
381.489	395.5
381.87	366.57
382.25	374.93
382.63	385.33
383.01	383.52
383.39	374.48
383.77	395.95
384.15	380.81
384.53	397.53
384.91	421.26
385.29	392.56
385.67	395.27
386.049	405.89
386.429	395.95
386.809	391.2
387.189	399.57
387.568	428.72
387.948	414.25
388.328	406.8
388.707	423.75
389.087	423.29
389.466	432.79
389.846	419.68
390.225	448.83
390.605	445.89
390.984	449.06
391.363	444.08
391.743	454.25
392.122	455.84
392.501	458.77
392.881	455.16
393.26	451.99
393.639	449.73
394.018	447.93
394.397	464.2
394.776	495.16
395.155	482.73
395.534	474.14
395.913	446.34
396.292	498.55
396.671	481.82
397.05	494.03
397.429	491.77
397.808	498.32
398.186	483.63
398.565	482.5
398.944	508.04
399.323	533.35
399.701	505.55
400.08	522.73
400.458	531.09
400.837	529.05
401.215	554.59
401.594	547.13
401.972	540.13
402.351	549.62
402.729	547.36
403.107	555.72
403.486	553.23
403.864	554.14
404.242	551.88
404.62	583.97
404.999	583.97
405.377	569.73
405.755	594.81
406.133	599.11
406.511	609.73
406.889	592.33
407.267	603.63
407.645	637.75
408.023	645.89
408.401	626.68
408.779	620.12
409.156	638.66
409.534	642.05
409.912	627.58
410.29	671.42
410.667	663.06
411.045	666.9
411.422	667.81
411.8	668.03
412.178	691.54
412.555	690.41
412.933	709.16
413.31	724.53
413.687	721.59
414.065	704.64
414.442	724.75
414.819	732.44
415.197	756.39
415.574	757.07
415.951	755.71
416.328	757.75
416.705	755.26
417.082	773.34
417.46	775.6
417.837	802.27
418.214	808.37
418.591	796.62
418.967	830.97
419.344	805.88
419.721	809.5
420.098	824.87
420.475	858.08
420.852	837.97
421.228	858.31
421.605	843.4
421.982	847.92
422.358	874.58
422.735	876.62
423.111	902.6
423.488	873.9
423.864	892.43
424.241	903.28
424.617	915.71
424.994	903.51
425.37	910.74
425.746	948.03
426.123	939.21
426.499	958.42
426.875	937.18
427.251	955.71
427.627	992.77
428.003	1029.83
428.379	1018.53
428.756	1015.37
429.132	1003.84
429.507	1062.6
429.883	1045.2
430.259	1036.84
430.635	1074.35
431.011	1084.07
431.387	1124.97
431.763	1121.58
432.138	1133.11
432.514	1148.7
432.89	1162.71
433.265	1161.81
433.641	1178.08
434.016	1188.47
434.392	1218.53
434.767	1232.31
435.143	1216.27
435.518	1231.41
435.894	1244.29
436.269	1258.75
436.644	1291.75
437.02	1289.03
437.395	1303.27
437.77	1296.94
438.145	1307.56
438.52	1347.34
438.895	1366.32
439.271	1349.15
439.646	1380.78
440.021	1390.5
440.395	1419.43
440.77	1399.54
441.145	1425.53
441.52	1433.44
441.895	1430.05
442.27	1408.8
442.645	1438.86
443.019	1469.37
443.394	1469.14
443.769	1508.01
444.143	1498.52
444.518	1527.22
444.892	1514.34
445.267	1490.61
445.641	1533.32
446.016	1556.37
446.39	1550.72
446.764	1576.71
447.139	1558.63
447.513	1595.01
447.887	1594.11
448.262	1588.01
448.636	1613.32
449.01	1635.01
449.384	1660.32
449.758	1636.14
450.132	1676.59
450.506	1689.48
450.88	1731.06
451.254	1718.85
451.628	1703.26
452.002	1741.45
452.376	1766.99
452.75	1738.97
453.123	1801.56
453.497	1796.82
453.871	1821.68
454.244	1879.75
454.618	1865.74
454.992	1852.63
455.365	1897.38
455.739	1946.19
456.112	1974.89
456.486	1970.15
456.859	1959.52
457.232	2005.17
457.606	2027.09
457.979	2041.33
458.352	2079.07
458.725	2100.99
459.099	2108.45
459.472	2170.14
459.845	2203.13
460.218	2202
460.591	2224.38
460.964	2238.61
461.337	2286.52
461.71	2300.53
462.083	2310.48
462.456	2349.8
462.829	2384.82
463.201	2423.24
463.574	2437.48
463.947	2433.41
464.32	2547.98
464.692	2554.54
465.065	2533.52
465.438	2585.27
465.81	2616.46
466.183	2681.54
466.555	2713.4
466.928	2733.74
467.3	2723.8
467.672	2816.9
468.045	2882.66
468.417	2878.14
468.789	2874.98
469.161	2931.25
469.534	2999.72
469.906	3081.3
470.278	3062.55
470.65	3127.18
471.022	3226.84
471.394	3246.27
471.766	3330.56
472.138	3341.64
472.51	3417.34
472.882	3489.65
473.253	3550.9
473.625	3609.2
473.997	3655.07
474.369	3693.72
474.74	3747.95
475.112	3825.69
475.484	3895.75
475.855	3991.79
476.227	3986.59
476.598	4172.8
476.97	4227.94
477.341	4287.15
477.713	4376.86
478.084	4377.99
478.455	4545.22
478.827	4624.54
479.198	4721.71
479.569	4767.59
479.94	4936.85
480.311	4958.09
480.682	5057.3
481.053	5242.83
481.424	5264.97
481.795	5368.25
482.166	5422.26
482.537	5552.88
482.908	5654.57
483.279	5763.27
483.65	5898.63
484.021	5965.75
484.391	6023.37
484.762	6112.41
485.133	6170.04
485.503	6299.07
485.874	6468.78
486.244	6489.8
486.615	6626.29
486.985	6699.51
487.356	6843.92
487.726	6927.3
488.097	7069.67
488.467	7032.16
488.837	7254.53
489.207	7310.12
489.578	7482.77
489.948	7491.81
490.318	7660.39
490.688	7705.14
491.058	7792.59
491.428	7987.39
491.798	7966.37
492.168	8173.6
492.538	8204.33
492.908	8269.64
493.278	8423.31
493.648	8394.84
494.017	8529.75
494.387	8605.68
494.757	8750.53
495.126	8822.17
495.496	8853.81
495.866	8956.18
496.235	9073.69
496.605	9160.69
496.974	9197.98
497.344	9304.64
497.713	9296.06
498.082	9399.56
498.452	9510.74
498.821	9561.36
499.19	9543.51
499.559	9778.08
499.928	9848.36
500.298	9887.68
500.667	9996.15
501.036	9951.41
501.405	10159.99
501.774	10169.48
502.143	10260.32
502.512	10290.61
502.88	10399.3
503.249	10397.04
503.618	10484.27
503.987	10543.48
504.356	10648.11
504.724	10731.05
505.093	10769.46
505.462	10853.08
505.83	10929.68
506.199	10993.64
506.567	11109.34
506.936	11174.42
507.304	11351.37
507.672	11372.16
508.041	11498.93
508.409	11595.43
508.777	11644.24
509.145	11752.49
509.514	11755.43
509.882	11884.24
510.25	11931.24
510.618	12025.02
510.986	12074.51
511.354	12198.8
511.722	12377.33
512.09	12412.81
512.458	12431.11
512.826	12575.52
513.193	12698
513.561	12781.84
513.929	12987.94
514.297	13093.92
514.664	13148.61
515.032	13169.63
515.4	13277.65
515.767	13414.59
516.135	13534.59
516.502	13578.43
516.869	13678.76
517.237	13770.51
517.604	13825.65
517.972	13873.56
518.339	14062.26
518.706	14142.71
519.073	14243.27
519.44	14397.84
519.808	14545.41
520.175	14546.76
520.542	14779.75
520.909	14815.23
521.276	14966.41
521.643	15040.99
522.009	15185.84
522.376	15375.44
522.743	15353.97
523.11	15676.45
523.477	15794.64
523.843	15902.66
524.21	16036.44
524.577	16124.58
524.943	16293.16
525.31	16353.5
525.676	16455.64
526.043	16732.24
526.409	16693.6
526.776	16900.15
527.142	16941.5
527.508	17101.73
527.874	17249.74
528.241	17381.94
528.607	17445.45
528.973	17643.41
529.339	17677.08
529.705	17866.68
530.071	18003.17
530.437	18030.29
530.803	18157.52
531.169	18316.16
531.535	18329.72
531.901	18420.79
532.267	18420.56
532.632	18564.51
532.998	18669.82
533.364	18784.85
533.73	18829.59
534.095	18978.29
534.461	19123.37
534.826	19188.9
535.192	19199.98
535.557	19360.42
535.923	19406.75
536.288	19405.85
536.653	19580.76
537.019	19612.17
537.384	19751.83
537.749	19822.78
538.114	19901.43
538.479	19857.81
538.845	20071.14
539.21	20039.5
539.575	20155.66
539.94	20181.87
540.305	20374.18
540.67	20446.72
541.034	20445.14
541.399	20540.96
541.764	20596.32
542.129	20732.36
542.494	20716.32
542.858	20974.39
543.223	20966.93
543.587	21027.95
543.952	21010.1
544.316	21209.64
544.681	21169.42
545.045	21202.41
545.41	21449.63
545.774	21479.46
546.138	21429.07
546.503	21498.9
546.867	21660.25
547.231	21702.73
547.595	21801.49
547.959	21904.09
548.324	21891.66
548.688	21936.63
549.052	22133.01
549.416	22186.11
549.779	22323.51
550.143	22368.93
550.507	22630.85
550.871	22662.71
551.235	22584.29
551.599	22838.52
551.962	22850.05
552.326	23045.75
552.689	23207.1
553.053	23134.11
553.417	23320.55
553.78	23658.62
554.143	23492.07
554.507	23744.04
554.87	23860.64
555.234	24135.21
555.597	23974.77
555.96	24222.89
556.323	24345.15
556.686	24427.86
557.05	24571.36
557.413	24601.19
557.776	24769.55
558.139	25017.22
558.502	25179.93
558.865	25221.74
559.228	25671.44
559.59	25531.79
559.953	25715.74
560.316	26052.22
560.679	26043.41
561.041	26279.79
561.404	26420.58
561.767	26665.09
562.129	26678.65
562.492	26939.43
562.854	27073.67
563.217	27170.84
563.579	27415.58
563.941	27661.45
564.304	27800.65
564.666	27918.16
565.028	28029.57
565.39	28253.97
565.753	28465.72
566.115	28631.37
566.477	28792.72
566.839	28958.59
567.201	29191.8
567.563	29296.66
567.925	29592.47
568.287	29696.2
568.648	29845.57
569.01	30131.21
569.372	30292.57
569.734	30242.62
570.095	30559.9
570.457	30851.65
570.819	31020.68
571.18	31196.04
571.542	31481.46
571.903	31547
572.265	31688.01
572.626	31964.84
572.987	32045.06
573.349	32239.18
573.71	32436.01
574.071	32588.32
574.432	32771.6
574.794	32996.9
575.155	33223.11
575.516	33212.26
575.877	33317.34
576.238	33674.17
576.599	33838.46
576.96	33859.02
577.32	33852.02
577.681	34263.76
578.042	34267.83
578.403	34325.91
578.763	34535.39
579.124	34707.14
579.485	34892.44
579.845	35004.98
580.206	35132.89
580.566	35082.72
580.927	35252.89
581.287	35413.56
581.648	35393.22
582.008	35490.17
582.368	35740.11
582.728	35776.71
583.089	35668.92
583.449	35826.43
583.809	35857.16
584.169	36074.11
584.529	36066.65
584.889	36329.69
585.249	36154.78
585.609	36118.85
585.969	36369.47
586.329	36368.11
586.688	36566.3
587.048	36597.48
587.408	36409.24
587.768	36358.85
588.127	36537.37
588.487	36564.04
588.846	36788.89
589.206	36612.4
589.565	36777.82
589.925	36936.01
590.284	36749.57
590.643	36846.74
591.003	37062.78
591.362	37141.65
591.721	37054.42
592.08	37104.82
592.44	37061.88
592.799	37165.38
593.158	37201.99
593.517	37217.35
593.876	37223.91
594.235	37278.6
594.593	37267.75
594.952	37360.63
595.311	37168.32
595.67	37399.72
596.029	37635.2
596.387	37515.2
596.746	37653.5
597.104	37553.84
597.463	37520.85
597.822	37727.17
598.18	37564.01
598.538	37567.18
598.897	37737.12
599.255	37593.84
599.613	38047.16
599.972	37801.97
600.33	37973.49
600.688	37652.15
601.046	37901.4
601.404	38063.21
601.762	37952.25
602.12	38143.43
602.478	38259.59
602.836	38265.46
603.194	38028.86
603.552	38184.79
603.91	38092.36
604.268	38182.3
604.625	38061.17
604.983	38182.98
605.341	38159.25
605.698	38379.58
606.056	38312.02
606.413	38368.06
606.771	38637.2
607.128	38574.83
607.485	38493.03
607.843	38471.11
608.2	38688.28
608.557	38661.16
608.914	38711.33
609.272	38930.3
609.629	38754.72
609.986	38957.42
610.343	38787.93
610.7	39072.9
611.057	38986.35
611.414	38838.56
611.771	39017.76
612.127	39138.66
612.484	39082.62
612.841	39325.32
613.198	39054.37
613.554	39247.13
613.911	39427.01
614.267	39322.84
614.624	39313.34
614.98	39397.18
615.337	39526.9
615.693	39564.41
616.05	39481.93
616.406	39674.01
616.762	39385.89
617.118	39551.76
617.475	39606.67
617.831	39760.56
618.187	39645.99
618.543	39857.51
618.899	39881.01
619.255	39866.55
619.611	39859.32
619.967	40060.9
620.323	40116.04
620.678	39936.83
621.034	39884.86
621.39	39797.85
621.746	39720.57
622.101	40388.57
622.457	39997.85
622.812	40037.39
623.168	40070.16
623.523	40155.58
623.879	40318.29
624.234	40081.46
624.589	40161.23
624.945	40156.94
625.3	40159.42
625.655	40165.3
626.01	40147.45
626.365	40089.82
626.72	40104.06
627.075	40119.2
627.43	40064.06
627.785	39928.02
628.14	39982.71
628.495	40045.3
628.85	40179.54
629.205	40035.59
629.559	40029.48
629.914	39829.26
630.269	39927.79
630.623	39786.1
630.978	39754.69
631.332	40014.34
631.687	39888.92
632.041	39760.79
632.396	39907.45
632.75	39635.14
633.104	39630.85
633.459	39462.04
633.813	39520.8
634.167	39700.68
634.521	39647.57
634.875	39634.92
635.229	39496.39
635.583	39387.24
635.937	39360.8
636.291	39355.6
636.645	39354.25
636.999	39277.19
637.352	39205.33
637.706	39056.18
638.06	39159.9
638.413	39100.7
638.767	39162.84
639.121	39176.63
639.474	38867.93
639.828	38889.18
640.181	38870.19
640.534	38917.2
640.888	38780.25
641.241	38599.92
641.594	38672.91
641.947	38743.64
642.301	38631.1
642.654	38777.99
643.007	38665.23
643.36	38566.7
643.713	38486.93
644.066	38689.41
644.419	38460.94
644.771	38319.47
645.124	38137.1
645.477	37973.95
645.83	37723.56
646.182	37502.09
646.535	37339.61
646.888	37373.96
647.24	37245.15
647.593	37364.24
647.945	37355.43
648.298	37111.82
648.65	37060.3
649.002	37092.84
649.355	37212.38
649.707	37171.03
650.059	37392.49
650.411	37787.28
650.763	37902.99
651.115	38180.04
651.467	38069.08
651.819	37999.71
652.171	37960.16
652.523	37860.5
652.875	37939.37
653.227	37682.43
653.578	37956.32
653.93	37933.49
654.282	37793.61
654.633	37616.44
654.985	37712.71
655.337	37698.7
655.688	37716.55
656.039	37913.16
656.391	37625.48
656.742	37678.13
657.094	37616.44
657.445	37663.67
657.796	37544.8
658.147	37646.95
658.498	37592.94
658.849	37606.95
659.2	37600.62
659.551	37631.13
659.902	37527.86
660.253	37592.49
660.604	37582.99
660.955	37391.81
661.306	37636.1
661.656	37486.95
662.007	37441.76
662.358	37496.9
662.708	37582.99
663.059	37375.32
663.409	37224.13
663.76	37493.05
664.11	37458.03
664.461	37578.25
664.811	37479.04
665.161	37399.95
665.511	37450.79
665.862	37488.08
666.212	37622.77
666.562	37493.05
666.912	37453.73
667.262	37366.5
667.612	37417.8
667.962	37397.46
668.312	37427.97
668.662	37537.57
669.011	37418.93
669.361	37262.55
669.711	37317.24
670.06	37251.03
670.41	37102.56
670.76	37125.38
671.109	37366.05
671.459	37040.86
671.808	37012.84
672.157	37175.32
672.507	36974.88
672.856	36877.93
673.205	36936.01
673.554	37081.99
673.904	36995.21
674.253	37121.09
674.602	36931.03
674.951	36361.56
675.3	36346.42
675.649	36891.94
675.998	36847.87
676.346	36884.48
676.695	36874.76
677.044	36602
677.393	36748.67
677.741	36746.41
678.09	36649.46
678.438	36528.11
678.787	36620.31
679.135	36514.1
679.484	36344.84
679.832	36541.44
680.181	36283.82
680.529	36432.74
680.877	36334.21
681.225	36292.41
681.573	36440.43
681.922	36119.08
682.27	35967.44
682.618	36026.65
682.966	35830.5
683.314	36034.56
683.661	35938.97
684.009	35713.67
684.357	35868.01
684.705	35712.54
685.053	35687
685.4	35785.75
685.748	35478.42
686.095	35426.44
686.443	35336.95
686.79	35186.22
687.138	35175.37
687.485	35128.82
687.832	35099.44
688.18	34986.9
688.527	34716.63
688.874	34866
689.221	34741.26
689.568	34668.5
689.915	34537.43
690.262	34581.49
690.609	34468.05
690.956	34263.76
691.303	34233.25
691.65	34217.21
691.997	34165.68
692.344	33966.59
692.69	33940.38
693.037	33834.62
693.383	33644.79
693.73	33774.73
694.077	33470.33
694.423	33508.53
694.769	33275.31
695.116	33268.53
695.462	33296.33
695.808	33147.18
696.155	33177.01
696.501	32955.32
696.847	32784.48
697.193	32567.99
697.539	32807.75
697.885	32431.04
698.231	32321.66
698.577	32217.26
698.923	32233.08
699.269	32127.09
699.614	31895.23
699.96	31895.69
700.306	31853.43
700.651	31584.06
700.997	31622.25
701.342	31481.01
701.688	31376.38
702.033	31388.36
702.379	31259.77
702.724	31209.83
703.069	31329.15
703.415	30911.98
703.76	30919.67
704.105	30811.65
704.45	30799.9
704.795	30640.35
705.14	30525.55
705.485	30495.5
705.83	30327.37
706.175	30303.19
706.52	30227.93
706.865	30069.97
707.209	30096.64
707.554	29947.49
707.899	29986.81
708.243	29840.37
708.588	29893.93
708.932	29592.47
709.277	29594.5
709.621	29722.86
709.966	29474.73
710.31	29479.25
710.654	29223.67
710.998	29274.06
711.342	29335.75
711.687	29090.79
712.031	28989.1
712.375	28998.59
712.719	28937.57
713.063	28931.47
713.407	28980.28
713.75	28789.33
714.094	28730.12
714.438	28717.69
714.782	28710.69
715.125	28550.01
715.469	28699.39
715.812	28455.78
716.156	28365.16
716.499	28299.62
716.843	28364.03
717.186	28227.31
717.53	28347.53
717.873	28227.99
718.216	28320.87
718.559	28103.24
718.902	27942.12
719.246	28033.64
719.589	27943.93
719.932	27891.27
720.275	27919.29
720.617	27901.89
720.96	27896.02
721.303	27744.38
721.646	27754.55
721.989	27659.41
722.331	27732.18
722.674	27651.5
723.016	27806.98
723.359	27610.15
723.701	27677.49
724.044	27432.3
724.386	27408.12
724.729	27450.15
725.071	27430.72
725.413	27369.25
725.755	27502.58
726.097	27264.62
726.439	27171.52
726.782	27279.54
727.124	27274.57
727.465	27102.82
727.807	27062.82
728.149	27162.25
728.491	27002.93
728.833	27089.94
729.175	26981.47
729.516	26952.77
729.858	26968.81
730.199	27042.48
730.541	26979.88
730.882	26917.29
731.224	26906.67
731.565	26845.88
731.906	26923.16
732.248	26844.52
732.589	26851.53
732.93	26855.82
733.271	26772.21
733.612	26816.27
733.953	26890.85
734.294	26671.19
734.635	26633.9
734.976	26769.49
735.317	26642.72
735.658	26665.77
735.999	26656.95
736.339	26633
736.68	26622.15
737.021	26523.17
737.361	26534.02
737.702	26628.48
738.042	26587.8
738.383	26603.17
738.723	26593.91
739.063	26586.67
739.404	26558.43
739.744	26472.78
740.084	26489.5
740.424	26495.6
740.764	26424.64
741.104	26488.82
741.444	26460.12
741.784	26374.25
742.124	26479.11
742.464	26430.29
742.804	26372.67
743.143	26259.45
743.483	26280.02
743.823	26198.44
744.162	26323.63
744.502	26297.19
744.841	26191.88
745.181	26236.17
745.52	26247.93
745.86	26222.62
746.199	26191.2
746.538	26125.67
746.877	26210.86
747.216	26192.33
747.556	26119.57
747.895	26234.37
748.234	26135.16
748.573	25990.08
748.911	25946.24
749.25	26058.78
749.589	25957.09
749.928	26055.84
750.267	25966.58
750.605	25814.94
750.944	25959.8
751.283	25840.48
751.621	25897.2
751.96	25726.36
752.298	25865.79
752.636	25793.02
752.975	25708.28
753.313	25562.29
753.651	25631.67
753.989	25484.33
754.327	25463.31
754.666	25447.72
755.004	25532.69
755.342	25408.63
755.679	25487.49
756.017	25190.55
756.355	25425.57
756.693	25291.11
757.031	25334.96
757.368	25105.58
757.706	25147.39
758.044	25122.76
758.381	25098.35
758.719	25010.44
759.056	25062.87
759.394	24850.22
759.731	24725.25
760.068	24682.54
760.405	24652.04
760.743	24537.01
761.08	24533.62
761.417	24425.37
761.754	24384.47
762.091	24345.15
762.428	24290.01
762.765	24214.08
763.102	24220.86
763.438	24142.22
763.775	24043.01
764.112	24032.62
764.449	24089.11
764.785	23886.41
765.122	23853.41
765.458	23671.5
765.795	23714.21
766.131	23601.22
766.467	23405.29
766.804	23404.16
767.14	23357.61
767.476	23361.45
767.812	23186.09
768.148	23242.13
768.485	23068.57
768.821	23031.51
769.157	23005.3
769.492	22891.18
769.828	22760.79
770.164	22649.83
770.5	22696.38
770.836	22667.91
771.171	22456.61
771.507	22503.17
771.842	22302.04
772.178	22345.43
772.513	22293
772.849	22223.17
773.184	22113.35
773.519	22049.17
773.855	21967.36
774.19	21950.64
774.525	21740.47
774.86	21768.5
775.195	21725.78
775.53	21606.47
775.865	21523.08
776.2	21341.39
776.535	21257.32
776.87	21235.4
777.205	21084.67
777.539	21057.78
777.874	21130.32
778.209	20831.34
778.543	20895.98
778.878	20665.02
779.212	20692.59
779.547	20707.28
779.881	20658.47
780.215	20433.16
780.55	20453.5
780.884	20333.28
781.218	20240.4
781.552	20225.03
781.886	20180.74
782.22	20014.87
782.554	19901.2
782.888	19732.62
783.222	19678.61
783.556	19752.5
783.889	19724.48
784.223	19500.31
784.557	19532.62
784.89	19448.78
785.224	19383.7
785.557	19282.01
785.891	19352.29
786.224	19170.37
786.558	19132.63
786.891	19070.04
787.224	18958.4
787.557	18968.12
787.891	18823.71
788.224	18816.03
788.557	18796.14
788.89	18731.51
789.223	18710.27
789.556	18513.89
789.888	18534.91
790.221	18479.32
790.554	18337.17
790.887	18395.93
791.219	18204.3
791.552	18202.71
791.884	18045.88
792.217	18073.68
792.549	17964.3
792.882	17882.27
793.214	17794.14
793.546	17897.41
793.879	17649.06
794.211	17645.89
794.543	17700.81
794.875	17513.69
795.207	17650.64
795.539	17459.91
795.871	17529.28
796.203	17251.1
796.535	17276.41
796.867	17238.22
797.198	17169.75
797.53	17134.04
797.862	17029.64
798.193	17075.06
798.525	17016.3
798.856	17018.56
799.188	16738.8
799.519	16739.02
799.85	16677.33
800.182	16657.22
800.513	16592.81
800.844	16444.79
801.175	16543.32
801.506	16596.65
801.837	16382.87
802.168	16352.37
802.499	16328.41
802.83	16244.57
803.161	16280.96
803.491	16166.38
803.822	16185.37
804.153	16129.77
804.483	16015.88
804.814	15899.27
805.145	15915.32
805.475	15983.11
805.805	15783.79
806.136	15855.2
806.466	15847.3
806.796	15796.45
807.126	15649.79
807.457	15674.87
807.787	15640.52
808.117	15576.34
808.447	15474.88
808.777	15518.49
809.107	15428.78
809.436	15540.18
809.766	15427.65
810.096	15280.08
810.426	15197.37
810.755	15269.46
811.085	15168.89
811.414	15087.77
811.744	15031.5
812.073	15014.32
812.403	15011.84
812.732	14976.13
813.061	14920.09
813.39	14904.5
813.719	14749.7
814.049	14890.03
814.378	14840.99
814.707	14714.9
815.036	14716.93
815.365	14661.11
815.693	14568.01
816.022	14483.26
816.351	14564.84
816.68	14378.18
817.008	14453.43
817.337	14346.32
817.665	14288.24
817.994	14366.2
818.322	14272.65
818.651	14213.67
818.979	14092.09
819.307	14321.01
819.636	14157.85
819.964	14080.79
820.292	14191.97
820.62	14105.19
820.948	14041.24
821.276	14153.55
821.604	14098.41
821.932	14171.86
822.259	14049.38
822.587	14070.17
822.915	14036.27
823.243	14118.53
823.57	14041.69
823.898	14027.68
824.225	14016.83
824.553	13923.5
824.88	13992.43
825.207	14084.63
825.535	13926.89
825.862	14047.57
826.189	13922.15
826.516	13962.6
826.843	13985.42
827.17	13995.14
827.497	14092.09
827.824	13994.46
828.151	13990.39
828.478	14000.11
828.805	13996.04
829.131	13964.41
829.458	13966.89
829.785	13891.41
830.111	13934.13
830.438	14020
830.764	13951.75
831.09	14027.68
831.417	13855.48
831.743	13945.65
832.069	13974.35
832.395	13876.27
832.722	13900.91
833.048	13867.69
833.374	13933.45
833.7	13904.3
834.026	13818.65
834.351	13842.15
834.677	13826.33
835.003	13842.83
835.329	13829.5
835.654	13710.63
835.98	13807.35
836.306	13791.98
836.631	13631.08
836.956	13733.23
837.282	13779.55
837.607	13798.31
837.932	13574.59
838.258	13595.6
838.583	13573.91
838.908	13575.94
839.233	13548.6
839.558	13493.46
839.883	13475.83
840.208	13485.32
840.533	13451.2
840.858	13431.31
841.182	13352.67
841.507	13426.12
841.832	13360.35
842.156	13344.54
842.481	13289.62
842.805	13334.37
843.13	13288.49
843.454	13243.07
843.778	13170.76
844.103	13104.77
844.427	13096.86
844.751	13132.34
845.075	13059.12
845.399	12984.55
845.723	12915.17
846.047	12900.03
846.371	12770.31
846.695	12851.22
847.019	12744.78
847.343	12684.44
847.666	12620.49
847.99	12574.84
848.313	12519.7
848.637	12419.36
848.96	12492.81
849.284	12469.3
849.607	12315.64
849.931	12229.09
850.254	12288.07
850.577	12161.52
850.9	12066.6
851.223	12114.74
851.546	12069.99
851.869	11970.79
852.192	12044.46
852.515	11877
852.838	11780.28
853.161	11777.8
853.483	11790.45
853.806	11694.41
854.129	11648.76
854.451	11713.17
854.774	11639.72
855.096	11601.53
855.419	11563.34
855.741	11543.68
856.063	11523.12
856.385	11410.58
856.708	11408.77
857.03	11359.05
857.352	11342.1
857.674	11326.28
857.996	11250.13
858.318	11175.1
858.64	11179.62
858.961	11208.32
859.283	11079.28
859.605	11105.27
859.926	11104.6
860.248	11078.16
860.57	10996.12
860.891	11086.29
861.212	10966.75
861.534	10971.94
861.855	10894.21
862.176	10949.12
862.498	10909.8
862.819	10848.78
863.14	10795.45
863.461	10802
863.782	10786.41
864.103	10787.09
864.424	10715.45
864.745	10751.61
865.065	10719.75
865.386	10669.35
865.707	10619.18
866.027	10681.56
866.348	10649.69
866.668	10691.5
866.989	10674.32
867.309	10534.67
867.63	10493.09
867.95	10489.92
868.27	10499.41
868.59	10483.59
868.91	10556.13
869.23	10441.79
869.55	10439.75
869.87	10496.25
870.19	10442.69
870.51	10397.72
870.83	10405.18
871.15	10345.29
871.469	10367.44
871.789	10317.95
872.109	10294.9
872.428	10305.29
872.748	10283.6
873.067	10304.62
873.386	10279.76
873.706	10280.44
874.025	10236.14
874.344	10182.13
874.663	10196.82
874.982	10163.38
875.301	10113.21
875.62	10125.41
875.939	10030.27
876.258	10102.14
876.577	10091.51
876.896	9994.57
877.214	9943.72
877.533	9994.34
877.852	10020.33
878.17	9967
878.489	10022.36
878.807	9969.03
879.125	9930.84
879.444	9867.57
879.762	9893.1
880.08	9891.52
880.398	9844.52
880.716	9830.28
881.034	9783.5
881.352	9786.89
881.67	9808.13
881.988	9751.64
882.306	9722.03
882.624	9691.07
882.941	9623.5
883.259	9662.37
883.577	9655.82
883.894	9635.48
884.212	9642.03
884.529	9508.48
884.846	9597.52
885.164	9538.53
885.481	9511.64
885.798	9524.98
886.115	9461.47
886.432	9446.33
886.75	9457.86
887.067	9451.53
887.383	9489.5
887.7	9406.33
888.017	9352.1
888.334	9324.3
888.651	9376.05
888.967	9291.31
889.284	9244.76
889.6	9227.81
889.917	9156.17
890.233	9212.44
890.55	9074.59
890.866	9186.45
891.182	9135.16
891.498	9090.41
891.815	9018.55
892.131	9003.18
892.447	9032.11
892.763	8927.93
893.079	9021.03
893.395	8854.71
893.71	8885.44
894.026	8852.22
894.342	8811.32
894.657	8781.72
894.973	8767.26
895.289	8697.88
895.604	8690.42
895.92	8674.83
896.235	8605
896.55	8617.2
896.865	8555.28
897.181	8521.61
897.496	8609.97
897.811	8510.54
898.126	8477.55
898.441	8430.54
898.756	8418.11
899.071	8378.11
899.386	8380.37
899.7	8315.97
900.015	8311
900.33	8259.92
900.644	8203.2
900.959	8222.41
901.273	8159.36
901.588	8198
901.902	8085.69
902.216	8118.68
902.531	8116.88
902.845	8033.94
903.159	7973.83
903.473	8013.38
903.787	7929.09
904.101	7932.7
904.415	7917.11
904.729	7818.13
905.042	7844.12
905.356	7853.38
905.67	7787.17
905.984	7744.46
906.297	7758.47
906.611	7715.98
906.924	7686.83
907.237	7668.3
907.551	7588.3
907.864	7648.64
908.177	7576.1
908.491	7524.12
908.804	7541.75
909.117	7475.54
909.43	7429.21
909.743	7456.33
910.056	7379.95
910.368	7394.64
910.681	7385.6
910.994	7253.17
911.307	7263.57
911.619	7216.79
911.932	7258.59
912.244	7133.85
912.557	7158.03
912.869	7092.95
913.181	7141.99
913.494	7081.65
913.806	7031.48
914.118	6992.61
914.43	6922.11
914.742	6962.78
915.054	6936.34
915.366	6895.21
915.678	6854.31
915.99	6790.13
916.302	6797.14
916.613	6761.88
916.925	6720.98
917.236	6690.7
917.548	6648.22
917.859	6735.44
918.171	6690.02
918.482	6569.12
918.794	6583.81
919.105	6582.45
919.416	6504.26
919.727	6453.87
920.038	6490.71
920.349	6449.12
920.66	6379.52
920.971	6402.35
921.282	6365.51
921.593	6316.7
921.903	6272.18
922.214	6273.99
922.525	6250.26
922.835	6204.38
923.146	6182.92
923.456	6222.46
923.767	6191.05
924.077	6168.68
924.387	6123.03
924.697	6091.62
925.008	6067.44
925.318	6044.62
925.628	5970.72
925.938	6020.21
926.248	5983.37
926.558	5909.25
926.867	5877.84
927.177	5897.73
927.487	5855.47
927.796	5802.59
928.106	5805.53
928.416	5715.13
928.725	5754.91
929.034	5740.67
929.344	5732.31
929.653	5705.64
929.962	5650.28
930.271	5671.97
930.581	5605.53
930.89	5581.12
931.199	5561.01
931.508	5578.64
931.817	5524.85
932.125	5528.24
932.434	5515.14
932.743	5474.01
933.051	5417.96
933.36	5453.44
933.669	5384.75
933.977	5363.73
934.286	5317.4
934.594	5368.25
934.902	5323.73
935.21	5254.81
935.519	5247.57
935.827	5204.64
936.135	5191.76
936.443	5147.46
936.751	5118.09
937.059	5128.25
937.367	5086.22
937.674	5105.43
937.982	5075.83
938.29	5054.13
938.597	5054.58
938.905	4990.86
939.213	4975.04
939.52	4943.4
939.827	4942.27
940.135	4921.71
940.442	4876.96
940.749	4887.58
941.056	4835.16
941.363	4803.29
941.67	4832.22
941.977	4802.39
942.284	4773.24
942.591	4772.56
942.898	4741.82
943.205	4744.54
943.511	4679.45
943.818	4654.6
944.125	4637.42
944.431	4590.64
944.738	4599.68
945.044	4559
945.35	4558.33
945.657	4539.57
945.963	4516.52
946.269	4496.18
946.575	4500.47
946.881	4486.24
947.187	4468.16
947.493	4411.66
947.799	4441.27
948.105	4399.01
948.41	4397.43
948.716	4356.3
949.022	4366.69
949.327	4352.91
949.633	4312.23
949.938	4288.5
950.244	4276.07
950.549	4225.45
950.854	4236.75
951.16	4165.57
951.465	4220.26
951.77	4171.9
952.075	4119.92
952.38	4092.12
952.685	4145.46
952.99	4113.59
953.294	4090.54
953.599	4074.5
953.904	4027.49
954.209	4024.56
954.513	4014.16
954.818	3963.31
955.122	3970.32
955.426	3980.94
955.731	3945.46
956.035	3901.17
956.339	3937.78
956.643	3893.26
956.948	3894.62
957.252	3825.01
957.556	3844.67
957.86	3842.87
958.163	3814.84
958.467	3819.81
958.771	3838.57
959.075	3796.76
959.378	3766.93
959.682	3754.05
959.985	3695.98
960.289	3719.7
960.592	3672.02
960.896	3669.99
961.199	3645.81
961.502	3648.75
961.805	3613.04
962.108	3566.71
962.411	3574.4
962.714	3543.44
963.017	3525.59
963.32	3553.16
963.623	3564.45
963.926	3521.07
964.228	3493.04
964.531	3483.1
964.833	3489.43
965.136	3407.4
965.438	3454.17
965.741	3412.82
966.043	3424.57
966.345	3398.81
966.648	3368.98
966.95	3394.97
967.252	3310.45
967.554	3383.22
967.856	3300.05
968.158	3258.93
968.46	3273.61
968.761	3297.12
969.063	3264.8
969.365	3262.32
969.666	3244.24
969.968	3201.3
970.269	3186.61
970.571	3222.99
970.872	3184.13
971.174	3146.16
971.475	3130.79
971.776	3176.67
972.077	3109.1
972.378	3114.75
972.679	3134.86
972.98	3089.44
973.281	3088.31
973.582	3034.3
973.883	3088.99
974.183	3028.88
974.484	2998.82
974.785	2985.26
975.085	2985.94
975.386	2952.49
975.686	2987.07
975.986	2978.48
976.287	2944.13
976.587	2933.06
976.887	2919.95
977.187	2911.59
977.487	2914.75
977.787	2898.26
978.087	2859.16
978.387	2842.67
978.687	2838.37
978.987	2805.6
979.286	2833.63
979.586	2808.77
979.885	2816.9
980.185	2752.72
980.484	2778.26
980.784	2760.41
981.083	2763.12
981.382	2709.34
981.682	2760.18
981.981	2736.91
982.28	2703.69
982.579	2686.74
982.878	2669.56
983.177	2633.41
983.475	2638.38
983.774	2633.18
984.073	2623.91
984.372	2613.74
984.67	2604.25
984.969	2590.92
985.267	2588.66
985.566	2561.09
985.864	2554.09
986.162	2557.02
986.461	2505.27
986.759	2485.84
987.057	2513.63
987.355	2482.67
987.653	2507.53
987.951	2466.18
988.249	2469.79
988.547	2452.39
988.844	2439.06
989.142	2435.44
989.44	2462.79
989.737	2425.5
990.035	2384.6
990.332	2379.85
990.63	2387.31
990.927	2373.07
991.224	2375.56
991.521	2372.85
991.819	2359.06
992.116	2311.15
992.413	2321.1
992.71	2341.21
993.006	2281.78
993.303	2292.85
993.6	2252.62
993.897	2261.21
994.193	2268.44
994.49	2235.9
994.787	2204.04
995.083	2218.28
995.379	2183.93
995.676	2197.94
995.972	2167.65
996.268	2160.42
996.565	2153.42
996.861	2149.8
997.157	2124.04
997.453	2143.02
997.749	2076.58
998.044	2118.84
998.34	2072.74
998.636	2078.84
998.932	2091.95
999.227	2046.3
999.523	2040.65
999.818	2061.67
1000.114	2054.21
1000.409	2027.77
1000.704	2007.21
1001	1988.22
1001.295	2006.98
1001.59	1978.28
1001.885	1987.77
1002.18	1965.4
1002.475	1943.48
1002.77	1952.52
1003.065	1956.36
1003.359	1932.86
1003.654	1903.03
1003.949	1905.51
1004.243	1897.38
1004.538	1874.56
1004.832	1872.3
1005.127	1842.24
1005.421	1851.5
1005.715	1864.16
1006.009	1829.36
1006.304	1823.26
1006.598	1816.25
1006.892	1800.88
1007.186	1814.9
1007.48	1780.32
1007.773	1749.13
1008.067	1755.46
1008.361	1728.8
1008.655	1740.1
1008.948	1716.59
1009.242	1753.65
1009.535	1693.09
1009.829	1689.7
1010.122	1672.53
1010.415	1677.95
1010.708	1675.69
1011.001	1675.01
1011.295	1649.02
1011.588	1618.06
1011.881	1633.88
1012.173	1615.8
1012.466	1618.29
1012.759	1618.29
1013.052	1597.73
1013.344	1603.6
1013.637	1583.94
1013.93	1585.3
1014.222	1541
1014.514	1570.38
1014.807	1558.86
1015.099	1539.87
1015.391	1505.07
1015.683	1528.12
1015.976	1511.4
1016.268	1499.88
1016.56	1498.07
1016.851	1473.66
1017.143	1468.46
1017.435	1432.53
1017.727	1448.58
1018.018	1489.48
1018.31	1435.02
1018.602	1438.41
1018.893	1410.39
1019.185	1407.67
1019.476	1402.03
1019.767	1399.54
1020.058	1415.13
1020.35	1387.34
1020.641	1367.45
1020.932	1332.42
1021.223	1340.78
1021.514	1337.62
1021.804	1322.71
1022.095	1308.92
1022.386	1322.03
1022.677	1329.94
1022.967	1319.54
1023.258	1275.7
1023.548	1266.66
1023.839	1294.01
1024.129	1270.73
1024.419	1254.46
1024.709	1249.94
1025	1239.54
1025.29	1236.15
1025.58	1219.21
1025.87	1202.48
1026.16	1224.4
1026.449	1218.3
1026.739	1190.28
1027.029	1173.78
1027.319	1177.4
1027.608	1181.01
1027.898	1169.72
1028.187	1147.34
1028.477	1154.57
1028.766	1150.96
1029.055	1149.83
1029.344	1127.91
1029.634	1148.7
1029.923	1114.58
1030.212	1117.51
1030.501	1095.14
1030.79	1095.14
1031.078	1088.59
1031.367	1080.23
1031.656	1059.66
1031.945	1044.07
1032.233	1053.11
1032.522	1038.65
1032.81	1056.72
1033.099	1015.59
1033.387	1031.87
1033.675	1038.87
1033.963	1016.72
1034.251	1012.43
1034.54	1005.43
1034.828	1003.62
1035.116	991.87
1035.403	988.7
1035.691	1001.58
1035.979	973.11
1036.267	983.96
1036.554	949.16
1036.842	979.66
1037.129	959.1
1037.417	954.58
1037.704	952.77
1037.992	909.16
1038.279	935.37
1038.566	888.59
1038.853	888.59
1039.14	888.59
