Data from tablewood_brown_FLMS001491_063.txt Node
Date: Tue Feb 07 11:10:49 GMT 2017
User: dcchb
Spectrometer: FLMS00149
Trigger mode: 0
Integration Time (sec): 2.000000E-2
Scans to average: 10
Electric dark correction enabled: true
Nonlinearity correction enabled: false
Boxcar width: 0
XAxis mode: Wavelengths
Number of Pixels in Spectrum: 2048
>>>>>Begin Spectral Data<<<<<
341.393	15.23
341.776	15.23
342.16	15.23
342.543	-69.07
342.927	-59.12
343.31	-54.15
343.693	-54.83
344.077	-62.06
344.46	-61.16
344.843	-53.47
345.226	-40.59
345.61	-36.75
345.993	-32.23
346.376	-13.47
346.759	7.99
347.142	38.95
347.525	29.46
347.908	47.09
348.291	94.55
348.674	85.05
349.057	105.62
349.44	119.63
349.823	157.59
350.206	143.36
350.588	196.01
350.971	219.51
351.354	215.9
351.737	221.77
352.119	262.9
352.502	263.35
352.884	283.69
353.267	280.3
353.65	302.68
354.032	297.03
354.414	308.33
354.797	316.01
355.179	317.36
355.562	327.53
355.944	338.15
356.326	327.08
356.709	347.65
357.091	339.96
357.473	351.49
357.855	341.54
358.238	356.01
358.62	342
359.002	349.91
359.384	363.01
359.766	334.77
360.148	326.86
360.53	349.91
360.912	358.95
361.294	340.87
361.676	341.54
362.057	346.29
362.439	315.78
362.821	329.12
363.203	347.87
363.584	331.83
363.966	333.41
364.348	349.45
364.729	310.36
365.111	309.46
365.493	315.1
365.874	350.36
366.256	332.51
366.637	331.15
367.019	330.92
367.4	334.77
367.781	344.71
368.163	311.49
368.544	326.86
368.925	311.94
369.306	347.42
369.688	305.61
370.069	317.14
370.45	324.6
370.831	326.18
371.212	319.4
371.593	315.33
371.974	327.53
372.355	326.63
372.736	356.46
373.117	335.67
373.498	321.88
373.879	349
374.26	326.18
374.641	338.61
375.021	316.69
375.402	338.15
375.783	354.88
376.163	356.23
376.544	327.76
376.925	351.49
377.305	344.26
377.686	352.84
378.066	334.99
378.447	347.87
378.827	340.64
379.208	356.01
379.588	369.34
379.968	354.65
380.349	336.35
380.729	366.63
381.109	367.98
381.489	377.93
381.87	362.34
382.25	354.2
382.63	373.86
383.01	342.67
383.39	368.21
383.77	377.25
384.15	393.75
384.53	369.57
384.91	374.76
385.29	374.09
385.67	381.32
386.049	391.71
386.429	399.85
386.809	383.8
387.189	418.6
387.568	394.88
387.948	389.91
388.328	409.11
388.707	404.37
389.087	427.19
389.466	417.47
389.846	431.71
390.225	405.72
390.605	417.47
390.984	413.18
391.363	411.6
391.743	425.38
392.122	412.5
392.501	411.83
392.881	418.15
393.26	410.7
393.639	426.06
394.018	429
394.397	443.69
394.776	429
395.155	435.1
395.534	443.24
395.913	467.42
396.292	440.07
396.671	453.41
397.05	452.05
397.429	458.6
397.808	462.22
398.186	464.48
398.565	464.03
398.944	473.74
399.323	495.44
399.701	480.52
400.08	481.2
400.458	481.65
400.837	489.79
401.215	482.78
401.594	503.57
401.972	503.8
402.351	520.75
402.729	519.39
403.107	520.07
403.486	529.11
403.864	516.23
404.242	509.45
404.62	513.07
404.999	518.26
405.377	557.36
405.755	532.5
406.133	544.93
406.511	572.5
406.889	547.41
407.267	590.13
407.645	560.3
408.023	563.01
408.401	584.7
408.779	568.88
409.156	583.35
409.534	585.15
409.912	573.85
410.29	576.79
410.667	607.07
411.045	622.44
411.422	601.65
411.8	621.76
412.178	635.1
412.555	643.46
412.933	647.53
413.31	639.39
413.687	651.82
414.065	667.19
414.442	670.35
414.819	657.02
415.197	684.81
415.574	659.5
415.951	673.51
416.328	685.49
416.705	665.83
417.082	711.93
417.46	707.41
417.837	692.95
418.214	694.76
418.591	712.16
418.967	718.03
419.344	727.07
419.721	735.43
420.098	727.52
420.475	729.11
420.852	720.74
421.228	742.21
421.605	745.6
421.982	744.25
422.358	770.91
422.735	789.44
423.111	763.23
423.488	784.24
423.864	798.26
424.241	815.2
424.617	810.23
424.994	791.93
425.37	796
425.746	807.97
426.123	819.5
426.499	823.11
426.875	859.05
427.251	824.24
427.627	847.29
428.003	867.18
428.379	883.68
428.756	861.76
429.132	878.48
429.507	885.71
429.883	884.81
430.259	915.77
430.635	920.51
431.011	934.75
431.387	944.69
431.763	945.82
432.138	946.27
432.514	982.21
432.89	981.98
433.265	1006.16
433.641	1011.81
434.016	1009.78
434.392	1061.75
434.767	1065.82
435.143	1062.2
435.518	1046.61
435.894	1088.19
436.269	1077.57
436.644	1077.34
437.02	1106.04
437.395	1093.39
437.77	1140.17
438.145	1140.39
438.52	1129.77
438.895	1153.95
439.271	1158.25
439.646	1139.49
440.021	1177.91
440.395	1205.25
440.77	1146.27
441.145	1180.62
441.52	1226.95
441.895	1238.7
442.27	1215.19
442.645	1220.39
443.019	1258.13
443.394	1244.35
443.769	1271.69
444.143	1238.24
444.518	1272.82
444.892	1279.6
445.267	1323.21
445.641	1296.32
446.016	1311.24
446.39	1328.86
446.764	1295.64
447.139	1309.2
447.513	1343.1
447.887	1347.62
448.262	1375.42
448.636	1322.99
449.01	1355.98
449.384	1398.47
449.758	1384.46
450.132	1405.47
450.506	1391.01
450.88	1403.66
451.254	1412.93
451.628	1419.93
452.002	1494.06
452.376	1466.71
452.75	1478.01
453.123	1483.21
453.497	1492.47
453.871	1521.85
454.244	1532.25
454.618	1540.61
454.992	1576.31
455.365	1556.88
455.739	1609.31
456.112	1618.57
456.486	1607.5
456.859	1616.99
457.232	1668.97
457.606	1714.84
457.979	1692.24
458.352	1744.45
458.725	1717.33
459.099	1752.13
459.472	1788.74
459.845	1810.21
460.218	1802.52
460.591	1825.12
460.964	1837.55
461.337	1905.57
461.71	1918.68
462.083	1915.97
462.456	1954.16
462.829	1950.99
463.201	1989.41
463.574	1993.48
463.947	2037.09
464.32	2062.18
464.692	2083.19
465.065	2129.75
465.438	2113.25
465.81	2156.64
466.183	2211.78
466.555	2203.87
466.928	2229.4
467.3	2268.73
467.672	2247.26
468.045	2340.14
468.417	2346.92
468.789	2401.15
469.161	2421.49
469.534	2488.15
469.906	2508.95
470.278	2533.13
470.65	2551.66
471.022	2622.61
471.394	2656.96
471.766	2702.84
472.138	2740.13
472.51	2809.5
472.882	2849.5
473.253	2900.8
473.625	2937.41
473.997	2963.4
474.369	3054.24
474.74	3088.59
475.112	3141.25
475.484	3242.49
475.855	3274.12
476.227	3329.26
476.598	3400.22
476.97	3432.08
477.341	3573.32
477.713	3652.19
478.084	3633.66
478.455	3721.12
478.827	3796.37
479.198	3875.46
479.569	3906.42
479.94	4025.52
480.311	4132.86
480.682	4201.78
481.053	4331.95
481.424	4374.43
481.795	4444.26
482.166	4494.88
482.537	4508.67
482.908	4647.42
483.279	4729.68
483.65	4784.82
484.021	4939.39
484.391	4986.62
484.762	5060.74
485.133	5154.53
485.503	5174.64
485.874	5350.23
486.244	5354.07
486.615	5456.21
486.985	5541.18
487.356	5637.9
487.726	5701.63
488.097	5805.58
488.467	5884.9
488.837	5966.71
489.207	6055.52
489.578	6166.48
489.948	6183.65
490.318	6267.72
490.688	6327.6
491.058	6429.07
491.428	6496.86
491.798	6572.57
492.168	6754.26
492.538	6791.54
492.908	6808.72
493.278	6928.26
493.648	6957.19
494.017	7036.96
494.387	7181.59
494.757	7165.55
495.126	7287.8
495.496	7316.5
495.866	7344.07
496.235	7459.32
496.605	7555.37
496.974	7558.08
497.344	7628.36
497.713	7647.34
498.082	7724.63
498.452	7833.33
498.821	7887.11
499.19	7897.28
499.559	7988.58
499.928	8103.83
500.298	8095.01
500.667	8225.41
501.036	8260.43
501.405	8303.14
501.774	8410.03
502.143	8486.19
502.512	8509.92
502.88	8534.1
503.249	8628.11
503.618	8721.44
503.987	8784.94
504.356	8788.33
504.724	8763.47
505.093	8925.73
505.462	8992.39
505.83	9029.68
506.199	9147.19
506.567	9217.7
506.936	9226.73
507.304	9390.57
507.672	9356.45
508.041	9443.23
508.409	9511.93
508.777	9619.72
509.145	9714.86
509.514	9739.72
509.882	9745.14
510.25	9873.05
510.618	9938.58
510.986	10018.13
511.354	10144.45
511.722	10200.04
512.09	10308.97
512.458	10318.68
512.826	10433.71
513.193	10460.6
513.561	10531.11
513.929	10663.76
514.297	10786.24
514.664	10773.81
515.032	10904.2
515.4	10993.47
515.767	11078.66
516.135	11191.2
516.502	11021.94
516.869	11323.85
517.237	11358.43
517.604	11342.61
517.972	11552.1
518.339	11634.58
518.706	11692.43
519.073	11771.07
519.44	11882.94
519.808	11956.61
520.175	12100.78
520.542	12216.94
520.909	12270.95
521.276	12367.9
521.643	12400.66
522.009	12601.79
522.376	12647.66
522.743	12709.81
523.11	12828.67
523.477	13053.53
523.843	13168.78
524.21	13314.54
524.577	13413.07
524.943	13438.15
525.31	13550.01
525.676	13709.78
526.043	13751.14
526.409	13845.6
526.776	13957.68
527.142	14135.08
527.508	14026.16
527.874	14311.8
528.241	14374.17
528.607	14425.47
528.973	14618.23
529.339	14645.58
529.705	14733.93
530.071	14856.64
530.437	14959.69
530.803	15038.79
531.169	15183.41
531.535	15191.1
531.901	15195.39
532.267	15337.99
532.632	15454.82
532.998	15550.86
533.364	15587.02
533.73	15573.23
534.095	15713.8
534.461	15740.69
534.826	15894.13
535.192	15894.13
535.557	16064.07
535.923	16078.08
536.288	16222.03
536.653	16275.14
537.019	16196.27
537.384	16369.15
537.749	16344.29
538.114	16464.06
538.479	16579.99
538.845	16632.19
539.21	16617.5
539.575	16638.29
539.94	16753.32
540.305	16848.91
540.67	16848.68
541.034	16935.01
541.399	17017.94
541.764	17190.14
542.129	17131.61
542.494	17300.42
542.858	17290.48
543.223	17288.22
543.587	17463.81
543.952	17452.73
544.316	17542.9
544.681	17446.86
545.045	17529.79
545.41	17692.5
545.774	17831.03
546.138	17734.53
546.503	17861.99
546.867	17937.69
547.231	18010.68
547.595	18049.33
547.959	18127.97
548.324	18145.6
548.688	18246.16
549.052	18295.2
549.416	18414.97
549.779	18513.27
550.143	18526.6
550.507	18729.08
550.871	18691.57
551.235	18734.73
551.599	19033.48
551.962	19075.74
552.326	19114.38
552.689	19233.7
553.053	19253.59
553.417	19359.12
553.78	19674.6
554.143	19622.17
554.507	19656.97
554.87	19838.66
555.234	20105.32
555.597	19938.77
555.96	20177.18
556.323	20210.4
556.686	20373.56
557.05	20592.54
557.413	20601.58
557.776	20653.55
558.139	20870.04
558.502	21013.77
558.865	21055.58
559.228	21310.03
559.59	21494.43
559.953	21432.29
560.316	21918.15
560.679	21787.08
561.041	22046.74
561.404	22177.35
561.767	22384.35
562.129	22345.49
562.492	22742.09
562.854	22639.49
563.217	22785.02
563.579	22960.16
563.941	23130.32
564.304	23286.48
564.666	23547.94
565.028	23620.71
565.39	23758.78
565.753	24006.46
566.115	24041.49
566.477	24329.39
566.839	24382.49
567.201	24634.69
567.563	24719.21
567.925	24969.6
568.287	25098.86
568.648	25160.33
569.01	25524.16
569.372	25759.18
569.734	25728.45
570.095	26059.06
570.457	26243.69
570.819	26312.84
571.18	26407.75
571.542	26644.58
571.903	26680.06
572.265	26996.21
572.626	27082.54
572.987	27300.16
573.349	27369.31
573.71	27624.9
574.071	27726.81
574.432	28009.52
574.794	28172
575.155	28234.14
575.516	28294.71
575.877	28514.14
576.238	28609.05
576.599	28835.48
576.96	28785.77
577.32	29063.28
577.681	29268.47
578.042	29528.57
578.403	29527.44
578.763	29587.56
579.124	29731.51
579.485	29997.94
579.845	30056.47
580.206	30058.5
580.566	30189.57
580.927	30307.08
581.287	30383.24
581.648	30435.44
582.008	30627.53
582.368	30564.93
582.728	30724.47
583.089	30900.74
583.449	30833.17
583.809	30931.25
584.169	31136.22
584.529	31052.15
584.889	31365.59
585.249	31196.1
585.609	31225.03
585.969	31371.69
586.329	31302.76
586.688	31468.18
587.048	31425.7
587.408	31366.49
587.768	31577.33
588.127	31486.49
588.487	31550.44
588.846	31865.69
589.206	31577.33
589.565	31687.84
589.925	31918.34
590.284	31916.99
590.643	32012.58
591.003	32001.28
591.362	32067.72
591.721	32041.5
592.08	32003.31
592.44	32120.14
592.799	32207.6
593.158	32228.16
593.517	32223.19
593.876	32267.94
594.235	32204.89
594.593	32180.03
594.952	32332.57
595.311	32324.21
595.67	32430.64
596.029	32501.15
596.387	32634.25
596.746	32665.44
597.104	32435.84
597.463	32519
597.822	32613.69
598.18	32497.08
598.538	32450.98
598.897	32751.09
599.255	32489.85
599.613	32979.56
599.972	32619.11
600.33	32726
600.688	32640.36
601.046	32769.62
601.404	33012.1
601.762	32830.63
602.12	33045.32
602.478	33151.98
602.836	33096.16
603.194	32894.14
603.552	33003.28
603.91	32870.63
604.268	33072.66
604.625	32896.17
604.983	33075.15
605.341	32989.05
605.698	33149.27
606.056	33326.89
606.413	33246.89
606.771	33374.12
607.128	33283.28
607.485	33307.01
607.843	33271.98
608.2	33372.54
608.557	33567.79
608.914	33369.15
609.272	33620.44
609.629	33671.06
609.986	33698.18
610.343	33585.42
610.7	33827.22
611.057	33780.67
611.414	33699.99
611.771	33725.75
612.127	33817.5
612.484	33906.99
612.841	34076.7
613.198	33789.48
613.554	33937.72
613.911	34077.83
614.267	34032.86
614.624	34007.55
614.98	34220.88
615.337	34357.15
615.693	34231.5
616.05	34288.22
616.406	34531.61
616.762	34332.29
617.118	34358.73
617.475	34282.8
617.831	34415
618.187	34436.02
618.543	34494.32
618.899	34565.28
619.255	34586.97
619.611	34419.29
619.967	34665.61
620.323	34659.96
620.678	34469.46
621.034	34481.89
621.39	34500.87
621.746	34380.42
622.101	34973.4
622.457	34688.21
622.812	34800.75
623.168	34920.07
623.523	34869.45
623.879	35019.28
624.234	34641.43
624.589	34915.78
624.945	34827.19
625.3	34940.41
625.655	34879.17
626.01	34938.38
626.365	34878.72
626.72	34784.93
627.075	34766.63
627.43	34848.89
627.785	34696.12
628.14	34869.45
628.495	34787.42
628.85	34780.41
629.205	34660.87
629.559	34901.77
629.914	34713.97
630.269	34657.48
630.623	34605.28
630.978	34540.19
631.332	34736.35
631.687	34752.84
632.041	34627.65
632.396	34694.99
632.75	34527.09
633.104	34477.14
633.459	34322.8
633.813	34367.09
634.167	34382.23
634.521	34289.58
634.875	34427.65
635.229	34293.42
635.583	34241.67
635.937	34146.76
636.291	34246.87
636.645	34284.16
636.999	34074.44
637.352	34302.01
637.706	34058.85
638.06	34081.67
638.413	34062.92
638.767	33866.99
639.121	33910.83
639.474	33842.13
639.828	33977.27
640.181	33805.98
640.534	33995.8
640.888	33736.6
641.241	33781.57
641.594	33612.76
641.947	33643.04
642.301	33625.64
642.654	33648.01
643.007	33711.97
643.36	33677.39
643.713	33557.39
644.066	33437.4
644.419	33417.51
644.771	33268.81
645.124	33058.65
645.477	33038.54
645.83	32773.91
646.182	32643.75
646.535	32563.52
646.888	32683.07
647.24	32483.52
647.593	32600.81
647.945	32567.82
648.298	32391.55
648.65	32305
649.002	32318.33
649.355	32381.83
649.707	32389.29
650.059	32485.11
650.411	32745.44
650.763	32843.74
651.115	33113.56
651.467	33021.36
651.819	33098.65
652.171	33079.44
652.523	33051.19
652.875	32942.5
653.227	32902.04
653.578	33076.73
653.93	32932.1
654.282	32994.47
654.633	32777.08
654.985	32996.05
655.337	32883.06
655.688	32969.16
656.039	33019.1
656.391	32691.88
656.742	32837.19
657.094	32780.47
657.445	32989.27
657.796	32889.62
658.147	32789.51
658.498	32766
658.849	32932.33
659.2	32860.46
659.551	32700.24
659.902	32849.62
660.253	32740.47
660.604	32908.82
660.955	32624.09
661.306	32859.11
661.656	32603.97
662.007	32657.53
662.358	32740.92
662.708	32796.28
663.059	32741.6
663.409	32603.52
663.76	32721.48
664.11	32650.07
664.461	32709.73
664.811	32785.66
665.161	32758.09
665.511	32654.14
665.862	32518.1
666.212	32772.1
666.562	32780.92
666.912	32652.79
667.262	32652.56
667.612	32696.63
667.962	32736.63
668.312	32647.59
668.662	32776.62
669.011	32595.16
669.361	32690.52
669.711	32496.86
670.06	32455.05
670.41	32544.99
670.76	32515.39
671.109	32520.36
671.459	32495.73
671.808	32417.09
672.157	32458.89
672.507	32293.92
672.856	32368.5
673.205	32398.33
673.554	32365.79
673.904	32221.16
674.253	32348.39
674.602	32279.01
674.951	31854.39
675.3	31728.29
675.649	32233.59
675.998	32142.97
676.346	32227.94
676.695	32258.67
677.044	32019.13
677.393	32190.42
677.741	32265.45
678.09	32138.45
678.438	32054.84
678.787	32061.84
679.135	32046.7
679.484	31819.59
679.832	31955.85
680.181	31738.69
680.529	31870.21
680.877	31720.83
681.225	31713.15
681.573	31891.68
681.922	31548.41
682.27	31510.22
682.618	31542.53
682.966	31574.85
683.314	31461.18
683.661	31359.03
684.009	31228.87
684.357	31300.73
684.705	31198.81
685.053	31112.49
685.4	30997.24
685.748	30910.46
686.095	30983.22
686.443	30864.13
686.79	30824.13
687.138	30766.06
687.485	30682.89
687.832	30627.3
688.18	30718.83
688.527	30530.81
688.874	30399.96
689.221	30331.72
689.568	30204.26
689.915	30256.46
690.262	30225.05
690.609	30105.73
690.956	30035.68
691.303	29989.8
691.65	29761.79
691.997	29776.02
692.344	29609.02
692.69	29478.86
693.037	29610.83
693.383	29290.61
693.73	29481.8
694.077	29233.89
694.423	29185.31
694.769	29110.05
695.116	29097.62
695.462	28996.61
695.808	29018.3
696.155	28846.11
696.501	28769.95
696.847	28638.2
697.193	28563.18
697.539	28564.53
697.885	28378.1
698.231	28269.62
698.577	28289.28
698.923	28191.66
699.269	28060.82
699.614	27962.06
699.96	27865.79
700.306	27770.65
700.651	27626.25
700.997	27636.19
701.342	27453.15
701.688	27466.93
702.033	27355.3
702.379	27367.27
702.724	27197.79
703.069	27317.11
703.415	26972.93
703.76	27056.32
704.105	27036.89
704.45	26977.91
704.795	26728.87
705.14	26700.63
705.485	26697.91
705.83	26489.56
706.175	26553.51
706.52	26342.67
706.865	26214.99
707.209	26186.97
707.554	26134.54
707.899	26178.83
708.243	25934.77
708.588	25968.22
708.932	25916.01
709.277	25755.11
709.621	25901.55
709.966	25651.39
710.31	25733.42
710.654	25450.04
710.998	25557.6
711.342	25499.98
711.687	25474.67
712.031	25356.25
712.375	25272.87
712.719	25198.97
713.063	25239.42
713.407	25238.07
713.75	25195.58
714.094	25194.45
714.438	24970.05
714.782	24942.71
715.125	24830.84
715.469	24991.07
715.812	24820.68
716.156	24662.49
716.499	24601.25
716.843	24655.48
717.186	24514.47
717.53	24705.2
717.873	24678.31
718.216	24544.07
718.559	24594.47
718.902	24361.7
719.246	24521.25
719.589	24387.01
719.932	24321.48
720.275	24327.58
720.617	24300.69
720.96	24253.01
721.303	24232.44
721.646	24246.45
721.989	24085.78
722.331	24279.45
722.674	24061.6
723.016	24145.21
723.359	24147.25
723.701	24169.62
724.044	24039
724.386	23813.02
724.729	24036.74
725.071	23973.24
725.413	23853.24
725.755	23957.19
726.097	23841.27
726.439	23822.96
726.782	23842.4
727.124	23991.32
727.465	23798.33
727.807	23855.05
728.149	23776.18
728.491	23708.16
728.833	23731.66
729.175	23585.45
729.516	23570.54
729.858	23601.72
730.199	23693.93
730.541	23579.8
730.882	23569.86
731.224	23703.42
731.565	23530.77
731.906	23570.31
732.248	23635.17
732.589	23529.18
732.93	23589.52
733.271	23490.99
733.612	23551.56
733.953	23464.78
734.294	23453.48
734.635	23393.82
734.976	23476.3
735.317	23436.76
735.658	23473.37
735.999	23408.06
736.339	23426.36
736.68	23446.7
737.021	23422.52
737.361	23289.19
737.702	23418.23
738.042	23359.24
738.383	23224.56
738.723	23405.57
739.063	23378.68
739.404	23321.05
739.744	23283.99
740.084	23300.04
740.424	23241.73
740.764	23278.57
741.104	23300.49
741.444	23307.04
741.784	23250.09
742.124	23237.44
742.464	23151.79
742.804	23174.16
743.143	23186.37
743.483	23248.74
743.823	23097.33
744.162	23162.41
744.502	23181.4
744.841	23190.21
745.181	23166.03
745.52	23175.97
745.86	23084.22
746.199	23112.25
746.538	23120.38
746.877	23159.48
747.216	23132.58
747.556	22947.28
747.895	23089.87
748.234	22980.27
748.573	23067.5
748.911	23020.27
749.25	22964.9
749.589	22884.23
749.928	22942.53
750.267	23065.24
750.605	22908.86
750.944	22853.5
751.283	22888.07
751.621	22973.49
751.96	22830.22
752.298	22769.88
752.636	22883.1
752.975	22693.27
753.313	22557.46
753.651	22776.89
753.989	22612.82
754.327	22614.86
754.666	22526.5
755.004	22620.96
755.342	22645.82
755.679	22587.51
756.017	22405.37
756.355	22539.61
756.693	22432.04
757.031	22534.41
757.368	22288.31
757.706	22318.14
758.044	22184.13
758.381	22246.28
758.719	22219.61
759.056	22144.14
759.394	22068.88
759.731	21937.36
760.068	21994.99
760.405	21994.08
760.743	21792.05
761.08	21846.29
761.417	21717.03
761.754	21724.71
762.091	21713.41
762.428	21615.79
762.765	21560.87
763.102	21611.72
763.438	21508.67
763.775	21344.61
764.112	21368.11
764.449	21354.33
764.785	21268.68
765.122	21188.68
765.458	21094.22
765.795	21002.92
766.131	21005.63
766.467	21003.6
766.804	20818.75
767.14	20628.47
767.476	20875.47
767.812	20604.51
768.148	20596.83
768.485	20472.77
768.821	20377.4
769.157	20255.82
769.492	20350.28
769.828	20348.02
770.164	20136.28
770.5	20008.15
770.836	20090.4
771.171	19997.53
771.507	19947.13
771.842	19838.43
772.178	19854.93
772.513	19706.69
772.849	19717.76
773.184	19742.84
773.519	19665.56
773.855	19537.88
774.19	19553.24
774.525	19444.32
774.86	19415.39
775.195	19386.24
775.53	19222.18
775.865	19166.59
776.2	19048.85
776.535	18926.82
776.87	18885.01
777.205	18878.68
777.539	18800.72
777.874	18715.07
778.209	18674.4
778.543	18561.4
778.878	18498.58
779.212	18426.94
779.547	18331.13
779.881	18405.93
780.215	18302.43
780.55	18351.24
780.884	18137.01
781.218	18084.58
781.552	18131.36
781.886	18045.49
782.22	17971.14
782.554	17836.23
782.888	17764.36
783.222	17560.08
783.556	17629.23
783.889	17501.32
784.223	17434.2
784.557	17419.97
784.89	17416.58
785.224	17255.22
785.557	17219.52
785.891	17205.28
786.224	17127.32
786.558	17099.07
786.891	16946.76
787.224	16978.17
787.557	16834.22
787.891	16783.6
788.224	16807.33
788.557	16697.95
788.89	16664.73
789.223	16695.92
789.556	16588.12
789.888	16494.57
790.221	16418.64
790.554	16325.31
790.887	16350.84
791.219	16266.78
791.552	16190.62
791.884	16158.3
792.217	16090.74
792.549	16033.56
792.882	15904.98
793.214	15930.29
793.546	15938.65
793.879	15881.93
794.211	15739.78
794.543	15736.17
794.875	15721.71
795.207	15768.26
795.539	15598.77
795.871	15617.53
796.203	15496.63
796.535	15471.54
796.867	15426.12
797.198	15348.61
797.53	15385.22
797.862	15227.48
798.193	15258.89
798.525	15163.98
798.856	15142.29
799.188	15069.97
799.519	14940.48
799.85	14857.32
800.182	14870.43
800.513	14889.18
800.844	14654.61
801.175	14783.42
801.506	14759.24
801.837	14713.82
802.168	14675.18
802.499	14559.7
802.83	14611.23
803.161	14533.71
803.491	14469.76
803.822	14465.02
804.153	14368.29
804.483	14260.27
804.814	14178.24
805.145	14176.66
805.475	14139.6
805.805	14106.15
806.136	14213.72
806.466	14156.55
806.796	14033.84
807.126	13978.7
807.457	13848.53
807.787	13843.11
808.117	13938.02
808.447	13867.52
808.777	13909.55
809.107	13806.73
809.436	13818.7
809.766	13734.19
810.096	13714.98
810.426	13608.77
810.755	13621.87
811.085	13596.79
811.414	13662.1
811.744	13473.85
812.073	13403.8
812.403	13456.91
812.732	13311.83
813.061	13352.73
813.39	13258.49
813.719	13286.74
814.049	13366.06
814.378	13287.42
814.707	13193.64
815.036	13250.81
815.365	13075.45
815.693	12989.57
816.022	13009.91
816.351	12998.39
816.68	12911.38
817.008	12978.73
817.337	12878.39
817.665	12896.69
817.994	12847.88
818.322	12765.17
818.651	12716.59
818.979	12699.19
819.307	12790.26
819.636	12722.01
819.964	12670.26
820.292	12727.43
820.62	12583.71
820.948	12696.02
821.276	12658.51
821.604	12590.49
821.932	12616.7
822.259	12564.73
822.587	12574.67
822.915	12555.46
823.243	12643.82
823.57	12575.8
823.898	12580.54
824.225	12472.53
824.553	12477.72
824.88	12556.36
825.207	12580.32
825.535	12522.02
825.862	12574.44
826.189	12521.79
826.516	12517.95
826.843	12507.33
827.17	12594.56
827.497	12595.91
827.824	12624.84
828.151	12595.01
828.478	12569.02
828.805	12570.15
829.131	12520.66
829.458	12520.21
829.785	12448.12
830.111	12475.46
830.438	12532.64
830.764	12553.65
831.09	12518.4
831.417	12440.44
831.743	12556.14
832.069	12474.56
832.395	12439.76
832.722	12512.75
833.048	12468.46
833.374	12386.43
833.7	12348.23
834.026	12404.96
834.351	12446.31
834.677	12406.76
835.003	12371.28
835.329	12384.84
835.654	12383.71
835.98	12357.73
836.306	12258.97
836.631	12313.43
836.956	12349.59
837.282	12268.69
837.607	12215.13
837.932	12217.84
838.258	12271.4
838.583	12154.34
838.908	12122.93
839.233	12089.26
839.558	12113.89
839.883	11982.59
840.208	12010.39
840.533	12039.99
840.858	12040.45
841.182	12035.25
841.507	11949.83
841.832	11925.42
842.156	11926.78
842.481	11873.22
842.805	11927
843.13	11838.87
843.454	11821.02
843.778	11791.19
844.103	11714.58
844.427	11688.14
844.751	11748.25
845.075	11746.44
845.399	11681.13
845.723	11596.84
846.047	11595.71
846.371	11573.57
846.695	11530.86
847.019	11480.69
847.343	11366.79
847.666	11334.7
847.99	11290.64
848.313	11244.08
848.637	11135.39
848.96	11155.27
849.284	11122.05
849.607	11029.17
849.931	11040.92
850.254	10946.46
850.577	10908.95
850.9	10793.7
851.223	10818.33
851.546	10801.16
851.869	10769.52
852.192	10795.51
852.515	10688.39
852.838	10689.97
853.161	10622.4
853.483	10539.02
853.806	10567.94
854.129	10502.63
854.451	10431.67
854.774	10434.16
855.096	10345.8
855.419	10360.72
855.741	10343.32
856.063	10244.56
856.385	10275.07
856.708	10264.67
857.03	10240.72
857.352	10174.51
857.674	10115.98
857.996	10092.93
858.318	10082.31
858.64	10048.41
858.961	10053.83
859.283	9978.81
859.605	9940.84
859.926	9946.04
860.248	9951.91
860.57	9886.15
860.891	9893.16
861.212	9825.36
861.534	9763.67
861.855	9781.07
862.176	9771.13
862.498	9754.4
862.819	9808.64
863.14	9781.52
863.461	9743.33
863.782	9683.9
864.103	9680.51
864.424	9680.06
864.745	9651.36
865.065	9661.75
865.386	9607.97
865.707	9577.01
866.027	9613.17
866.348	9565.03
866.668	9557.8
866.989	9557.12
867.309	9409.33
867.63	9472.38
867.95	9411.36
868.27	9401.42
868.59	9428.99
868.91	9449.33
869.23	9422.21
869.55	9326.17
869.87	9398.26
870.19	9423.57
870.51	9352.38
870.83	9363.45
871.15	9290.46
871.469	9251.37
871.789	9288.43
872.109	9292.72
872.428	9248.43
872.748	9240.29
873.067	9191.93
873.386	9254.53
873.706	9181.99
874.025	9194.87
874.344	9165.27
874.663	9158.26
874.982	9216.34
875.301	9096.57
875.62	9147.87
875.939	9040.75
876.258	9156.91
876.577	8994.88
876.896	9083.24
877.214	9070.13
877.533	8984.71
877.852	8986.97
878.17	8997.14
878.489	8997.14
878.807	9004.14
879.125	8947.19
879.444	8929.79
879.762	8911.26
880.08	8873.07
880.398	8897.7
880.716	8869.46
881.034	8842.11
881.352	8846.18
881.67	8810.93
881.988	8810.93
882.306	8815.22
882.624	8755.11
882.941	8760.31
883.259	8703.81
883.577	8726.86
883.894	8682.34
884.212	8637.6
884.529	8640.54
884.846	8586.53
885.164	8559.18
885.481	8673.08
885.798	8577.03
886.115	8516.25
886.432	8518.73
886.75	8556.02
887.067	8481.22
887.383	8460.88
887.7	8415.91
888.017	8402.8
888.334	8477.6
888.651	8390.15
888.967	8346.98
889.284	8369.36
889.6	8345.4
889.917	8309.92
890.233	8289.36
890.55	8219.76
890.866	8269.02
891.182	8253.65
891.498	8130.49
891.815	8177.95
892.131	8131.17
892.447	8121.91
892.763	8085.75
893.079	8050.04
893.395	8026.31
893.71	8056.6
894.026	8070.16
894.342	7948.8
894.657	7905.87
894.973	7880.78
895.289	7866.54
895.604	7853.89
895.92	7748.81
896.235	7747.45
896.55	7743.61
896.865	7672.65
897.181	7745.42
897.496	7721.92
897.811	7696.83
898.126	7694.35
898.441	7601.92
898.756	7617.29
899.071	7543.39
899.386	7568.7
899.7	7497.74
900.015	7500.23
900.33	7424.75
900.644	7432.88
900.959	7436.95
901.273	7356.05
901.588	7361.93
901.902	7338.65
902.216	7342.26
902.531	7289.38
902.845	7232.44
903.159	7226.79
903.473	7237.41
903.787	7233.11
904.101	7094.81
904.415	7154.7
904.729	7109.73
905.042	7036.28
905.356	7082.16
905.67	7006.91
905.984	7042.16
906.297	6992.67
906.611	6982.27
906.924	6903.18
907.237	6959.22
907.551	6854.37
907.864	6836.06
908.177	6874.03
908.491	6799.45
908.804	6829.06
909.117	6735.95
909.43	6703.41
909.743	6700.02
910.056	6727.37
910.368	6629.97
910.681	6571.89
910.994	6580.7
911.307	6573.02
911.619	6509.29
911.932	6516.75
912.244	6514.04
912.557	6489.63
912.869	6410.76
913.181	6399.92
913.494	6402.4
913.806	6395.17
914.118	6317.21
914.43	6292.8
914.742	6292.12
915.054	6291.67
915.366	6279.47
915.678	6188.62
915.99	6151.56
916.302	6156.99
916.613	6116.31
916.925	6091.68
917.236	6116.76
917.548	6045.8
917.859	6030.89
918.171	5970.55
918.482	5965.35
918.794	5924.67
919.105	5975.75
919.416	5934.62
919.727	5885.81
920.038	5841.97
920.349	5815.98
920.66	5805.36
920.971	5788.41
921.282	5802.64
921.593	5770.78
921.903	5695.53
922.214	5687.39
922.525	5625.7
922.835	5618.47
923.146	5619.82
923.456	5616.21
923.767	5550.45
924.077	5548.87
924.387	5507.28
924.697	5502.54
925.008	5460.96
925.318	5496.89
925.628	5445.82
925.938	5412.15
926.248	5378.47
926.558	5372.15
926.867	5284.92
927.177	5310.91
927.487	5288.53
927.796	5199.72
928.106	5251.7
928.416	5239.04
928.725	5238.14
929.034	5197.24
929.344	5142.55
929.653	5150.01
929.962	5169.44
930.271	5094.19
930.581	5098.48
930.89	5044.02
931.199	5020.07
931.508	5016.45
931.817	5004.92
932.125	5006.96
932.434	4975.1
932.743	4903.46
933.051	4923.8
933.36	4899.39
933.669	4869.79
933.977	4881.09
934.286	4859.17
934.594	4785.72
934.902	4768.32
935.21	4797.02
935.519	4784.14
935.827	4763.12
936.135	4690.81
936.443	4715.89
936.751	4668.66
937.059	4653.97
937.367	4618.72
937.674	4617.14
937.982	4626.86
938.29	4557.03
938.597	4553.41
938.905	4484.03
939.213	4496.01
939.52	4492.4
939.827	4484.49
940.135	4498.72
940.442	4433.19
940.749	4426.86
941.056	4446.07
941.363	4380.99
941.67	4379.86
941.977	4378.5
942.284	4311.16
942.591	4300.76
942.898	4293.31
943.205	4248.11
943.511	4257.15
943.818	4272.74
944.125	4237.26
944.431	4236.36
944.738	4187.55
945.044	4159.75
945.35	4192.06
945.657	4158.17
945.963	4135.57
946.269	4097.6
946.575	4093.99
946.881	4082.69
947.187	4061.45
947.493	4056.25
947.799	4060.32
948.105	3975.8
948.41	3979.19
948.716	3977.16
949.022	3936.03
949.327	3949.36
949.633	3888.12
949.938	3922.02
950.244	3925.63
950.549	3874.11
950.854	3859.87
951.16	3825.97
951.465	3846.54
951.77	3818.97
952.075	3764.05
952.38	3770.38
952.685	3799.53
952.99	3743.72
953.294	3728.8
953.599	3689.48
953.904	3654.23
954.209	3678.41
954.513	3644.06
954.818	3651.74
955.122	3578.52
955.426	3599.09
955.731	3580.1
956.035	3552.08
956.339	3567.45
956.643	3567
956.948	3484.06
957.252	3502.82
957.556	3449.26
957.86	3452.42
958.163	3456.27
958.467	3481.35
958.771	3455.36
959.075	3452.88
959.378	3417.85
959.682	3412.88
959.985	3368.13
960.289	3379.66
960.592	3371.3
960.896	3328.13
961.199	3323.61
961.502	3312.31
961.805	3308.02
962.108	3216.5
962.411	3282.94
962.714	3266.67
963.017	3241.13
963.32	3243.39
963.623	3212.88
963.926	3229.38
964.228	3202.49
964.531	3194.13
964.833	3185.09
965.136	3151.19
965.438	3146.89
965.741	3141.02
966.043	3097.63
966.345	3105.09
966.648	3077.74
966.95	3071.87
967.252	3061.7
967.554	3023.96
967.856	3011.98
968.158	3007.24
968.46	3016.28
968.761	2980.8
969.063	3008.37
969.365	2945.32
969.666	2966.56
969.968	2942.15
970.269	2926.11
970.571	2941.48
970.872	2906.45
971.174	2876.17
971.475	2851.99
971.776	2901.48
972.077	2874.36
972.378	2830.52
972.679	2863.96
972.98	2847.24
973.281	2798.2
973.582	2829.84
973.883	2774.7
974.183	2792.33
974.484	2766.34
974.785	2746.91
975.085	2743.06
975.386	2741.26
975.686	2709.39
975.986	2714.59
976.287	2707.13
976.587	2675.95
976.887	2658.77
977.187	2663.29
977.487	2648.6
977.787	2629.39
978.087	2633.24
978.387	2593.01
978.687	2603.41
978.987	2568.38
979.286	2593.01
979.586	2562.28
979.885	2560.7
980.185	2501.94
980.484	2527.25
980.784	2517.98
981.083	2532.22
981.382	2503.3
981.682	2475.95
981.981	2475.73
982.28	2499.91
982.579	2457.42
982.878	2455.39
983.177	2477.76
983.475	2431.89
983.774	2451.09
984.073	2396.18
984.372	2372.9
984.67	2417.87
984.969	2385.11
985.267	2342.85
985.566	2345.56
985.864	2351.21
986.162	2353.47
986.461	2323.64
986.759	2334.71
987.057	2282.74
987.355	2289.52
987.653	2296.52
987.951	2293.36
988.249	2232.34
988.547	2235.05
988.844	2242.51
989.142	2233.7
989.44	2200.25
989.737	2225.56
990.035	2203.19
990.332	2199.12
990.63	2169.75
990.927	2178.33
991.224	2187.37
991.521	2157.54
991.819	2138.11
992.116	2149.18
992.413	2113.48
992.71	2102.85
993.006	2093.82
993.303	2079.35
993.6	2102.85
993.897	2091.1
994.193	2041.39
994.49	2059.47
994.787	2054.04
995.083	2029.86
995.379	1986.7
995.676	2027.6
995.972	2015.85
996.268	2020.6
996.565	1969.07
996.861	1954.16
997.157	1962.29
997.453	1914.61
997.749	1956.64
998.044	1927.27
998.34	1942.63
998.636	1891.79
998.932	1874.16
999.227	1902.41
999.523	1888.62
999.818	1886.36
1000.114	1902.41
1000.409	1891.56
1000.704	1854.5
1001	1859.47
1001.295	1831
1001.59	1815.4
1001.885	1839.58
1002.18	1806.36
1002.475	1790.32
1002.77	1800.26
1003.065	1786.93
1003.359	1766.59
1003.654	1746.48
1003.949	1762.07
1004.243	1757.1
1004.538	1734.05
1004.832	1754.61
1005.127	1762.07
1005.421	1718.23
1005.715	1685.46
1006.009	1699.93
1006.304	1669.65
1006.598	1666.03
1006.892	1669.87
1007.186	1640.49
1007.48	1632.13
1007.773	1660.15
1008.067	1616.99
1008.361	1639.36
1008.655	1638.23
1008.948	1614.73
1009.242	1599.14
1009.535	1591
1009.829	1578.12
1010.122	1567.95
1010.415	1547.61
1010.708	1562.08
1011.001	1533.38
1011.295	1530.21
1011.588	1504.68
1011.881	1508.75
1012.173	1499.71
1012.466	1524.34
1012.759	1487.73
1013.052	1504.23
1013.344	1472.81
1013.637	1476.43
1013.93	1464.9
1014.222	1452.02
1014.514	1435.98
1014.807	1443.66
1015.099	1420.39
1015.391	1391.69
1015.683	1408.41
1015.976	1390.1
1016.268	1400.27
1016.56	1375.87
1016.851	1397.11
1017.143	1358.92
1017.435	1386.04
1017.727	1340.39
1018.018	1344.68
1018.31	1312.82
1018.602	1303.78
1018.893	1312.37
1019.185	1307.85
1019.476	1294.06
1019.767	1307.17
1020.058	1288.64
1020.35	1294.97
1020.641	1263.33
1020.932	1257.68
1021.223	1254.29
1021.514	1253.84
1021.804	1239.83
1022.095	1242.99
1022.386	1238.47
1022.677	1201.41
1022.967	1216.78
1023.258	1195.76
1023.548	1214.29
1023.839	1202.99
1024.129	1188.53
1024.419	1165.93
1024.709	1174.29
1025	1165.7
1025.29	1145.59
1025.58	1155.31
1025.87	1118.93
1026.16	1138.36
1026.449	1132.03
1026.739	1118.25
1027.029	1130.9
1027.319	1096.78
1027.608	1084.35
1027.898	1108.76
1028.187	1094.97
1028.477	1059.94
1028.766	1067.63
1029.055	1051.36
1029.344	1037.35
1029.634	1035.31
1029.923	1037.12
1030.212	1033.5
1030.501	1018.36
1030.79	1012.94
1031.078	1043.9
1031.367	1013.17
1031.656	1030.57
1031.945	986.73
1032.233	1000.51
1032.522	989.89
1032.81	979.72
1033.099	987.86
1033.387	963.45
1033.675	976.78
1033.963	971.36
1034.251	972.26
1034.54	932.49
1034.828	936.56
1035.116	921.64
1035.403	919.61
1035.691	919.83
1035.979	921.42
1036.267	917.8
1036.554	926.84
1036.842	898.37
1037.129	893.39
1037.417	894.98
1037.704	868.99
1037.992	878.71
1038.279	878.03
1038.566	866.5
1038.853	866.5
1039.14	866.5
