Data from tablewood_dark_bookshelf_FLMS001491_00068.txt Node
Date: Wed Feb 08 14:15:24 GMT 2017
User: dcchb
Spectrometer: FLMS00149
Trigger mode: 0
Integration Time (sec): 2.000000E-2
Scans to average: 10
Electric dark correction enabled: true
Nonlinearity correction enabled: false
Boxcar width: 0
XAxis mode: Wavelengths
Number of Pixels in Spectrum: 2048
>>>>>Begin Spectral Data<<<<<
341.393	4.8
341.776	4.8
342.16	4.8
342.543	-57.12
342.927	-46.72
343.31	-67.74
343.693	-56.89
344.077	-67.06
344.46	-66.83
344.843	-73.39
345.226	-39.04
345.61	-25.93
345.993	-27.74
346.376	-2.43
346.759	1.19
347.142	28.3
347.525	37.12
347.908	52.48
348.291	88.64
348.674	98.13
349.057	121.18
349.44	117.79
349.823	113.5
350.206	172.03
350.588	177.9
350.971	199.37
351.354	213.84
351.737	229.88
352.119	254.29
352.502	247.28
352.884	255.87
353.267	275.98
353.65	287.05
354.032	269.2
354.414	298.81
354.797	302.42
355.179	309.2
355.562	302.87
355.944	317.11
356.326	329.31
356.709	329.31
357.091	322.31
357.473	331.8
357.855	317.56
358.238	335.41
358.62	327.51
359.002	334.51
359.384	329.54
359.766	331.12
360.148	311.91
360.53	319.82
360.912	317.34
361.294	321.63
361.676	327.28
362.057	332.25
362.439	327.05
362.821	338.8
363.203	303.33
363.584	324.34
363.966	316.43
364.348	312.14
364.729	322.08
365.111	319.82
365.493	311.23
365.874	291.35
366.256	315.08
366.637	300.61
367.019	310.78
367.4	320.73
367.781	325.47
368.163	314.62
368.544	301.97
368.925	320.27
369.306	318.01
369.688	312.59
370.069	309.43
370.45	307.85
370.831	296.09
371.212	310.33
371.593	323.21
371.974	328.64
372.355	289.99
372.736	316.66
373.117	318.24
373.498	327.51
373.879	317.34
374.26	322.31
374.641	303.1
375.021	333.38
375.402	315.08
375.783	302.2
376.163	323.66
376.544	325.25
376.925	304.91
377.305	318.47
377.686	346.04
378.066	320.27
378.447	344
378.827	332.93
379.208	355.08
379.588	334.96
379.968	339.93
380.349	322.31
380.729	336.77
381.109	325.25
381.489	351.23
381.87	359.82
382.25	342.42
382.63	351.23
383.01	344
383.39	350.1
383.77	350.33
384.15	353.95
384.53	364.11
384.91	364.57
385.29	360.72
385.67	353.27
386.049	357.11
386.429	358.92
386.809	356.43
387.189	338.13
387.568	342.19
387.948	377
388.328	371.35
388.707	373.61
389.087	375.19
389.466	379.93
389.846	386.04
390.225	393.72
390.605	383.78
390.984	379.26
391.363	401.4
391.743	389.2
392.122	367.5
392.501	400.5
392.881	406.83
393.26	400.27
393.639	395.53
394.018	411.35
394.397	398.46
394.776	394.62
395.155	422.19
395.534	415.86
395.913	414.51
396.292	449.54
396.671	427.39
397.05	411.12
397.429	404.57
397.808	405.02
398.186	416.54
398.565	433.49
398.944	426.94
399.323	450.21
399.701	443.89
400.08	417.67
400.458	425.36
400.837	446.6
401.215	433.94
401.594	440.95
401.972	445.24
402.351	438.92
402.729	451.12
403.107	449.31
403.486	457.45
403.864	465.35
404.242	480.95
404.62	443.21
404.999	464.9
405.377	445.92
405.755	453.6
406.133	490.21
406.511	474.17
406.889	477.33
407.267	493.38
407.645	498.8
408.023	491.79
408.401	498.8
408.779	479.59
409.156	510.78
409.534	532.02
409.912	499.7
410.29	492.25
410.667	517.56
411.045	524.56
411.422	505.81
411.8	550.1
412.178	525.47
412.555	554.62
412.933	538.12
413.31	554.62
413.687	563.43
414.065	562.75
414.442	562.75
414.819	565.24
415.197	583.77
415.574	567.27
415.951	568.4
416.328	588.97
416.705	579.02
417.082	585.13
417.46	581.28
417.837	595.07
418.214	587.84
418.591	591.68
418.967	604.33
419.344	606.59
419.721	622.86
420.098	640.94
420.475	616.54
420.852	631
421.228	644.33
421.605	639.81
421.982	670.55
422.358	645.24
422.735	652.24
423.111	656.31
423.488	652.92
423.864	659.93
424.241	659.93
424.617	676.87
424.994	677.55
425.37	678.46
425.746	695.63
426.123	690.43
426.499	686.59
426.875	713.26
427.251	694.95
427.627	739.7
428.003	743.54
428.379	726.82
428.756	762.07
429.132	747.16
429.507	762.3
429.883	795.74
430.259	801.62
430.635	799.58
431.011	800.71
431.387	799.81
431.763	812.69
432.138	812.69
432.514	797.32
432.89	809.98
433.265	833.93
433.641	863.76
434.016	846.81
434.392	840.03
434.767	866.47
435.143	847.04
435.518	862.86
435.894	891.11
436.269	885
436.644	888.85
437.02	908.28
437.395	923.87
437.77	925
438.145	947.15
438.52	959.81
438.895	951.67
439.271	957.77
439.646	941.95
440.021	956.42
440.395	978.34
440.77	977.43
441.145	988.51
441.52	1022.4
441.895	988.51
442.27	1006.81
442.645	1011.33
443.019	1034.61
443.394	1023.08
443.769	1018.11
444.143	1027.6
444.518	1048.62
444.892	1052.01
445.267	1049.52
445.641	1057.2
446.016	1058.56
446.39	1067.6
446.764	1079.58
447.139	1050.88
447.513	1105.34
447.887	1102.63
448.262	1066.02
448.636	1100.82
449.01	1117.54
449.384	1141.27
449.758	1137.88
450.132	1156.86
450.506	1159.12
450.88	1164.55
451.254	1153.92
451.628	1182.4
452.002	1209.52
452.376	1209.74
452.75	1212.45
453.123	1198.22
453.497	1236.86
453.871	1228.5
454.244	1237.76
454.618	1233.02
454.992	1275.73
455.365	1311.21
455.739	1328.16
456.112	1349.17
456.486	1341.72
456.859	1344.2
457.232	1379.91
457.606	1354.82
457.979	1378.55
458.352	1392.11
458.725	1429.85
459.099	1440.92
459.472	1466.01
459.845	1444.76
460.218	1477.76
460.591	1475.95
460.964	1514.82
461.337	1503.29
461.71	1536.74
462.083	1557.76
462.456	1556.4
462.829	1579.9
463.201	1613.8
463.574	1611.54
463.947	1665.78
464.32	1706
464.692	1691.09
465.065	1672.55
465.438	1705.77
465.81	1745.1
466.183	1753.23
466.555	1795.72
466.928	1783.51
467.3	1805.66
467.672	1818.99
468.045	1863.06
468.417	1861.02
468.789	1856.28
469.161	1921.36
469.534	1927.01
469.906	1997.07
470.278	1958.88
470.65	1999.33
471.022	2024.64
471.394	2058.31
471.766	2071.41
472.138	2119.32
472.51	2120.68
472.882	2145.99
473.253	2193.45
473.625	2247.91
473.997	2284.52
474.369	2319.77
474.74	2321.35
475.112	2348.47
475.484	2398.19
475.855	2450.39
476.227	2447
476.598	2495.58
476.97	2509.14
477.341	2562.7
477.713	2609.71
478.084	2639.76
478.455	2713.21
478.827	2726.76
479.198	2820.77
479.569	2818.97
479.94	2880.21
480.311	2857.61
480.682	2936.48
481.053	3007.89
481.424	3051.73
481.795	3092.18
482.166	3122.01
482.537	3206.53
482.908	3208.79
483.279	3272.06
483.65	3301.44
484.021	3387.76
484.391	3411.04
484.762	3445.62
485.133	3488.78
485.503	3543.47
485.874	3624.14
486.244	3618.49
486.615	3664.14
486.985	3745.49
487.356	3781.43
487.726	3834.53
488.097	3905.72
488.467	3907.52
488.837	3966.96
489.207	4039.95
489.578	4104.58
489.948	4128.99
490.318	4166.5
490.688	4206.73
491.058	4324.46
491.428	4324.91
491.798	4340.73
492.168	4398.58
492.538	4465.7
492.908	4498.47
493.278	4583.66
493.648	4540.5
494.017	4639.93
494.387	4674.74
494.757	4710.44
495.126	4782.08
495.496	4808.74
495.866	4809.42
496.235	4841.29
496.605	4895.3
496.974	4897.1
497.344	4978.46
497.713	4980.26
498.082	5053.26
498.452	5037.21
498.821	5109.07
499.19	5109.75
499.559	5282.86
499.928	5210.99
500.298	5258.68
500.667	5354.72
501.036	5299.35
501.405	5385.9
501.774	5376.41
502.143	5413.25
502.512	5440.59
502.88	5519.91
503.249	5561.27
503.618	5549.97
503.987	5651.89
504.356	5638.33
504.724	5678.33
505.093	5704.31
505.462	5733.01
505.83	5792.45
506.199	5861.82
506.567	5836.29
506.936	5934.82
507.304	5954.25
507.672	6026.79
508.041	5982.95
508.409	6114.02
508.777	6135.94
509.145	6191.31
509.514	6180.91
509.882	6214.13
510.25	6210.06
510.618	6330.29
510.986	6340.45
511.354	6453.45
511.722	6441.02
512.09	6537.74
512.458	6506.78
512.826	6547.68
513.193	6610.05
513.561	6695.25
513.929	6713.78
514.297	6754.91
514.664	6787.45
515.032	6884.4
515.4	6923.04
515.767	6904.06
516.135	7004.84
516.502	6952.42
516.869	7093.88
517.237	7104.05
517.604	7138.4
517.972	7212.52
518.339	7261.56
518.706	7344.27
519.073	7328.45
519.44	7430.14
519.808	7484.15
520.175	7481.22
520.542	7591.27
520.909	7665.84
521.276	7646.86
521.643	7734.99
522.009	7817.48
522.376	7903.8
522.743	7899.96
523.11	7987.87
523.477	8049.56
523.843	8121.88
524.21	8160.52
524.577	8196
524.943	8240.74
525.31	8368.88
525.676	8420.85
526.043	8506.73
526.409	8550.57
526.776	8589.44
527.142	8644.12
527.508	8680.05
527.874	8742.65
528.241	8858.13
528.607	8830.33
528.973	8940.84
529.339	8997.11
529.705	9050.67
530.071	9135.41
530.437	9162.08
530.803	9195.75
531.169	9271.23
531.535	9335.63
531.901	9320.49
532.267	9341.73
532.632	9462.41
532.998	9466.02
533.364	9538.34
533.73	9595.96
534.095	9655.62
534.461	9644.1
534.826	9679.8
535.192	9743.98
535.557	9839.12
535.923	9835.73
536.288	9895.16
536.653	9881.15
537.019	9995.05
537.384	9987.82
537.749	9983.75
538.114	10078.21
538.479	10103.75
538.845	10167.92
539.21	10193.91
539.575	10168.83
539.94	10250.63
540.305	10355.49
540.67	10315.04
541.034	10352.33
541.399	10394.36
541.764	10487.24
542.129	10446.56
542.494	10479.33
542.858	10541.47
543.223	10619.66
543.587	10687.01
543.952	10641.58
544.316	10710.51
544.681	10795.25
545.045	10707.35
545.41	10856.27
545.774	10820.56
546.138	10909.6
546.503	10929.71
546.867	10978.98
547.231	11055.59
547.595	10960.22
547.959	11149.59
548.324	11128.13
548.688	11058.97
549.052	11197.95
549.416	11204.28
549.779	11255.81
550.143	11325.63
550.507	11371.06
550.871	11385.97
551.235	11405.86
551.599	11435.91
551.962	11579.64
552.326	11536.02
552.689	11620.77
553.053	11572.86
553.417	11731.95
553.78	11815.34
554.143	11740.09
554.507	11828.22
554.87	11883.81
555.234	12004.71
555.597	11936.24
555.96	11974.66
556.323	12063.69
556.686	12153.18
557.05	12240.19
557.413	12224.14
557.776	12321.77
558.139	12398.6
558.502	12381.2
558.865	12500.52
559.228	12514.3
559.59	12606.96
559.953	12609.67
560.316	12800.62
560.679	12727.41
561.041	12860.28
561.404	12961.75
561.767	12990.68
562.129	12917.68
562.492	13079.03
562.854	13081.07
563.217	13123.1
563.579	13222.31
563.941	13366.03
564.304	13269.54
564.666	13476.76
565.028	13491.45
565.39	13516.99
565.753	13555.86
566.115	13709.3
566.477	13702.97
566.839	13726.93
567.201	13888.5
567.563	13868.84
567.925	14025.22
568.287	14039.24
568.648	14031.1
569.01	14148.16
569.372	14325.78
569.734	14238.55
570.095	14385.21
570.457	14407.59
570.819	14494.14
571.18	14465.89
571.542	14662.27
571.903	14648.94
572.265	14659.56
572.626	14804.19
572.987	14784.53
573.349	14855.94
573.71	14958.76
574.071	15059.55
574.432	15005.99
574.794	15180.9
575.155	15180.9
575.516	15130.96
575.877	15274.68
576.238	15278.98
576.599	15336.6
576.96	15483.04
577.32	15382.25
577.681	15501.57
578.042	15625.18
578.403	15506.54
578.763	15535.69
579.124	15648.23
579.485	15764.39
579.845	15718.74
580.206	15740.43
580.566	15830.6
580.927	15897.04
581.287	15977.72
581.648	15922.8
582.008	15995.34
582.368	16043.02
582.728	16100.2
583.089	16134.55
583.449	16089.8
583.809	16066.75
584.169	16265.84
584.529	16172.29
584.889	16321.89
585.249	16248.44
585.609	16232.4
585.969	16353.3
586.329	16326.41
586.688	16426.97
587.048	16400.98
587.408	16346.97
587.768	16388.33
588.127	16403.69
588.487	16386.29
588.846	16584.71
589.206	16381.09
589.565	16478.27
589.925	16581.54
590.284	16559.85
590.643	16567.53
591.003	16593.07
591.362	16578.83
591.721	16678.04
592.08	16671.03
592.44	16795.77
592.799	16818.82
593.158	16809.33
593.517	16785.6
593.876	16794.87
594.235	16861.31
594.593	16867.64
594.952	16992.38
595.311	16867.18
595.67	16958.03
596.029	17054.52
596.387	17071.25
596.746	17086.84
597.104	17090.23
597.463	17060.62
597.822	17158.02
598.18	17075.54
598.538	17083.22
598.897	17168.64
599.255	17144.01
599.613	17314.18
599.972	17266.27
600.33	17413.38
600.688	17407.28
601.046	17397.11
601.404	17469.65
601.762	17379.49
602.12	17524.12
602.478	17507.62
602.836	17581.06
603.194	17492.48
603.552	17525.47
603.91	17448.41
604.268	17513.04
604.625	17553.95
604.983	17619.03
605.341	17616.09
605.698	17752.13
606.056	17706.03
606.413	17713.04
606.771	17861.51
607.128	17836.65
607.485	17728.4
607.843	17821.06
608.2	17918.68
608.557	17981.05
608.914	17798.23
609.272	17967.27
609.629	18076.19
609.986	18015.4
610.343	18033.48
610.7	18156.42
611.057	18057.43
611.414	18055.4
611.771	18140.37
612.127	18194.15
612.484	18242.74
612.841	18246.13
613.198	18209.3
613.554	18239.8
613.911	18330.65
614.267	18384.43
614.624	18369.29
614.98	18405
615.337	18530.64
615.693	18542.17
616.05	18411.55
616.406	18653.13
616.762	18497.42
617.118	18506.01
617.475	18408.84
617.831	18501.49
618.187	18618.55
618.543	18520.02
618.899	18663.52
619.255	18642.05
619.611	18672.79
619.967	18731.54
620.323	18785.33
620.678	18687.93
621.034	18679.11
621.39	18759.56
621.746	18726.34
622.101	18808.38
622.457	18737.87
622.812	18695.84
623.168	18814.25
623.523	18758.66
623.879	18954.81
624.234	18747.59
624.589	18875.04
624.945	18733.58
625.3	18840.47
625.655	18861.93
626.01	18941.03
626.365	18884.08
626.72	18838.66
627.075	18866
627.43	18842.5
627.785	18845.89
628.14	18905.77
628.495	18867.58
628.85	18830.3
629.205	18736.74
629.559	18795.49
629.914	18829.84
630.269	18685.21
630.623	18723.41
630.978	18793.69
631.332	18793.23
631.687	18863.29
632.041	18741.48
632.396	18792.1
632.75	18643.86
633.104	18797.98
633.459	18625.56
633.813	18536.07
634.167	18553.01
634.521	18648.83
634.875	18592.56
635.229	18607.93
635.583	18589.4
635.937	18654.03
636.291	18487.03
636.645	18578.33
636.999	18511.21
637.352	18572.45
637.706	18346.69
638.06	18515.73
638.413	18381.27
638.767	18377.88
639.121	18472.79
639.474	18201.39
639.828	18357.31
640.181	18382.62
640.534	18348.73
640.888	18259.01
641.241	18236.64
641.594	18262.85
641.947	18359.8
642.301	18269.18
642.654	18252.68
643.007	18166.58
643.36	18161.61
643.713	18117.09
644.066	18211.33
644.419	18058.56
644.771	18093.14
645.124	17910.09
645.477	17886.82
645.83	17732.47
646.182	17730.66
646.535	17605.92
646.888	17621.74
647.24	17541.29
647.593	17586.71
647.945	17551.01
648.298	17501.52
648.65	17502.65
649.002	17433.72
649.355	17497.45
649.707	17444.57
650.059	17583.32
650.411	17809.53
650.763	17731.34
651.115	18077.77
651.467	17901.96
651.819	17886.14
652.171	17857.67
652.523	17839.14
652.875	17831.23
653.227	17794.84
653.578	17826.48
653.93	17889.3
654.282	17815.86
654.633	17718.46
654.985	17757.33
655.337	17823.99
655.688	17844.79
656.039	17835.97
656.391	17629.42
656.742	17633.27
657.094	17794.84
657.445	17764.79
657.796	17752.81
658.147	17788.74
658.498	17737.22
658.849	17789.42
659.2	17689.76
659.551	17621.51
659.902	17807.5
660.253	17760.04
660.604	17701.06
660.955	17700.83
661.306	17775.41
661.656	17721.4
662.007	17696.54
662.358	17685.02
662.708	17666.94
663.059	17680.95
663.409	17518.01
663.76	17741.51
664.11	17661.29
664.461	17714.39
664.811	17671.46
665.161	17709.2
665.511	17698.8
665.862	17588.97
666.212	17749.65
666.562	17642.53
666.912	17719.82
667.262	17723.43
667.612	17718.01
667.962	17655.41
668.312	17632.59
668.662	17781.28
669.011	17724.79
669.361	17682.3
669.711	17684.79
670.06	17595.53
670.41	17629.65
670.76	17537.9
671.109	17631.01
671.459	17631.68
671.808	17568.63
672.157	17622.42
672.507	17404.8
672.856	17498.35
673.205	17459.26
673.554	17550.1
673.904	17601.18
674.253	17646.82
674.602	17574.96
674.951	17454.06
675.3	17233.05
675.649	17534.74
675.998	17527.73
676.346	17496.09
676.695	17440.28
677.044	17412.03
677.393	17475.08
677.741	17586.03
678.09	17392.37
678.438	17501.07
678.787	17427.17
679.135	17475.98
679.484	17377.68
679.832	17395.31
680.181	17311.69
680.529	17351.24
680.877	17359.15
681.225	17329.09
681.573	17466.94
681.922	17331.13
682.27	17153.05
682.618	17244.57
682.966	17096.33
683.314	17193.28
683.661	17081.64
684.009	17109.66
684.357	17014.75
684.705	16997.12
685.053	16956.67
685.4	16989.67
685.748	16910.57
686.095	16934.07
686.443	16913.74
686.79	16810.91
687.138	16863.79
687.485	16850.91
687.832	16798.48
688.18	16820.18
688.527	16732.72
688.874	16655.66
689.221	16704.7
689.568	16696.11
689.915	16577.93
690.262	16616.57
690.609	16630.35
690.956	16433.52
691.303	16544.03
691.65	16473.07
691.997	16409.12
692.344	16285.28
692.69	16329.8
693.037	16320.31
693.383	16215.9
693.73	16240.99
694.077	16156.92
694.423	16168.9
694.769	16091.61
695.116	16034.44
695.462	15990.37
695.808	15976.81
696.155	16083.02
696.501	15882.12
696.847	15866.08
697.193	15770.04
697.539	15798.06
697.885	15795.8
698.231	15657.27
698.577	15668.12
698.923	15654.11
699.269	15576.6
699.614	15475.81
699.96	15523.04
700.306	15465.86
700.651	15412.76
700.997	15320.11
701.342	15301.12
701.688	15324.63
702.033	15241.24
702.379	15310.61
702.724	15216.38
703.069	15226.32
703.415	15041.92
703.76	15136.61
704.105	15201.69
704.45	15119.66
704.795	14917.86
705.14	14920.79
705.485	14970.28
705.83	14883.51
706.175	14883.05
706.52	14804.86
706.865	14813.9
707.209	14747.92
707.554	14686.22
707.899	14730.06
708.243	14610.97
708.588	14584.98
708.932	14505.66
709.277	14512.67
709.621	14499.34
709.966	14472.44
710.31	14457.76
710.654	14420.92
710.998	14397.64
711.342	14373.69
711.687	14392.67
712.031	14271.77
712.375	14278.1
712.719	14248.04
713.063	14287.82
713.407	14291.66
713.75	14182.51
714.094	14194.94
714.438	14131.66
714.782	14133.92
715.125	14090.76
715.469	14140.02
715.812	13977.09
716.156	13935.96
716.499	13950.2
716.843	13982.29
717.186	13848.05
717.53	13914.04
717.873	13972.8
718.216	13946.58
718.559	13843.53
718.902	13837.43
719.246	13878.79
719.589	13820.03
719.932	13755.4
720.275	13780.49
720.617	13712.92
720.96	13690.54
721.303	13814.38
721.646	13782.97
721.989	13677.44
722.331	13759.47
722.674	13739.58
723.016	13692.13
723.359	13676.08
723.701	13754.95
724.044	13615.52
724.386	13562.41
724.729	13608.96
725.071	13515.63
725.413	13477.67
725.755	13481.28
726.097	13488.52
726.439	13456.2
726.782	13407.16
727.124	13511.11
727.465	13405.13
727.807	13374.39
728.149	13338.91
728.491	13402.87
728.833	13366.48
729.175	13326.26
729.516	13312.7
729.858	13372.13
730.199	13366.94
730.541	13336.88
730.882	13280.84
731.224	13231.35
731.565	13166.49
731.906	13266.37
732.248	13202.87
732.589	13185.25
732.93	13114.97
733.271	13138.92
733.612	13244.45
733.953	13282.65
734.294	13116.55
734.635	13111.12
734.976	13112.93
735.317	13086.04
735.658	13086.72
735.999	13219.14
736.339	13155.64
736.68	13177.11
737.021	13189.54
737.361	13087.85
737.702	13180.73
738.042	13058.92
738.383	13045.59
738.723	13014.86
739.063	13053.27
739.404	13030.22
739.744	13034.29
740.084	12982.09
740.424	12990
740.764	12954.52
741.104	13019.83
741.444	12952.48
741.784	12861.87
742.124	12946.61
742.464	13015.99
742.804	12941.86
743.143	12859.83
743.483	12877.01
743.823	12811.47
744.162	12843.56
744.502	12884.01
744.841	12850.79
745.181	12825.03
745.52	12787.97
745.86	12789.1
746.199	12778.03
746.538	12820.28
746.877	12739.61
747.216	12829.1
747.556	12729.44
747.895	12737.8
748.234	12689.67
748.573	12644.47
748.911	12698.48
749.25	12711.13
749.589	12622.55
749.928	12714.98
750.267	12748.65
750.605	12569.22
750.944	12663.9
751.283	12559.5
751.621	12525.38
751.96	12567.18
752.298	12600.4
752.636	12529.9
752.975	12455.55
753.313	12427.07
753.651	12481.99
753.989	12502.55
754.327	12491.71
754.666	12431.37
755.004	12420.07
755.342	12459.39
755.679	12366.06
756.017	12281.32
756.355	12351.82
756.693	12317.25
757.031	12275.21
757.368	12165.39
757.706	12195.89
758.044	12143.47
758.381	12182.79
758.719	12173.07
759.056	12210.81
759.394	12121.77
759.731	11980.53
760.068	11914.32
760.405	11986.18
760.743	11960.65
761.08	11957.71
761.417	11932.85
761.754	11823.02
762.091	11824.38
762.428	11742.8
762.765	11755
763.102	11707.09
763.438	11739.86
763.775	11615.12
764.112	11574.89
764.449	11605.4
764.785	11518.17
765.122	11496.48
765.458	11459.42
765.795	11397.04
766.131	11383.94
766.467	11365.63
766.804	11373.32
767.14	11260.78
767.476	11292.87
767.812	11256.71
768.148	11234.11
768.485	11216.03
768.821	11084.06
769.157	11080.22
769.492	11098.07
769.828	11024.17
770.164	10970.84
770.5	10964.06
770.836	10961.8
771.171	10825.31
771.507	10768.36
771.842	10674.8
772.178	10729.94
772.513	10748.02
772.849	10742.37
773.184	10651.08
773.519	10654.69
773.855	10533.34
774.19	10525.2
774.525	10478.2
774.86	10501.93
775.195	10377.18
775.53	10428.26
775.865	10343.74
776.2	10257.41
776.535	10183.97
776.87	10218.09
777.205	10144.65
777.539	10189.62
777.874	10161.82
778.209	10089.73
778.543	10068.04
778.878	10001.15
779.212	9993.01
779.547	9931.09
779.881	10043.63
780.215	9879.34
780.55	9849.97
780.884	9847.26
781.218	9833.7
781.552	9761.83
781.886	9738.33
782.22	9677.77
782.554	9653.36
782.888	9593.7
783.222	9545.57
783.556	9464.21
783.889	9459.47
784.223	9385.12
784.557	9413.37
784.89	9375.4
785.224	9279.59
785.557	9324.33
785.891	9299.7
786.224	9273.71
786.558	9220.15
786.891	9189.42
787.224	9133.83
787.557	9107.39
787.891	9139.93
788.224	9093.83
788.557	9051.57
788.89	8994.62
789.223	8996.88
789.556	8967.5
789.888	8900.61
790.221	8886.6
790.554	8847.06
790.887	8872.37
791.219	8817
791.552	8722.99
791.884	8687.51
792.217	8718.47
792.549	8700.17
792.882	8633.5
793.214	8555.99
793.546	8569.32
793.879	8527.52
794.211	8441.87
794.543	8535.65
794.875	8500.4
795.207	8466.05
795.539	8412.72
795.871	8444.81
796.203	8322.32
796.535	8300.63
796.867	8307.18
797.198	8280.06
797.53	8227.18
797.862	8262.66
798.193	8206.17
798.525	8139.96
798.856	8081.43
799.188	8091.14
799.519	8023.35
799.85	8012.28
800.182	8010.92
800.513	8059.73
800.844	7974.76
801.175	7934.99
801.506	7983.8
801.837	7927.76
802.168	7890.92
802.499	7919.62
802.83	7789.68
803.161	7762.11
803.491	7802.34
803.822	7819.06
804.153	7778.16
804.483	7694.09
804.814	7652.51
805.145	7614.09
805.475	7587.88
805.805	7585.39
806.136	7585.39
806.466	7622.68
806.796	7574.55
807.126	7485.51
807.457	7420.65
807.787	7489.8
808.117	7475.57
808.447	7393.31
808.777	7430.82
809.107	7381.11
809.436	7399.86
809.766	7325.51
810.096	7354.21
810.426	7339.98
810.755	7216.36
811.085	7253.65
811.414	7230.83
811.744	7284.61
812.073	7181.56
812.403	7256.81
812.732	7132.52
813.061	7138.63
813.39	7104.73
813.719	7079.64
814.049	7146.08
814.378	7116.71
814.707	7132.07
815.036	7073.54
815.365	7073.32
815.693	7015.69
816.022	7006.2
816.351	6960.33
816.68	6951.51
817.008	6925.98
817.337	6821.35
817.665	6826.77
817.994	6826.77
818.322	6826.32
818.651	6810.05
818.979	6817.5
819.307	6847.56
819.636	6839.88
819.964	6725.98
820.292	6751.97
820.62	6763.04
820.948	6776.83
821.276	6807.34
821.604	6775.25
821.932	6779.54
822.259	6766.21
822.587	6742.03
822.915	6700.22
823.243	6727.56
823.57	6718.52
823.898	6701.8
824.225	6703.84
824.553	6684.4
824.88	6695.02
825.207	6768.47
825.535	6739.77
825.862	6737.51
826.189	6676.72
826.516	6723.04
826.843	6703.16
827.17	6721.46
827.497	6709.26
827.824	6676.94
828.151	6740.44
828.478	6683.04
828.805	6713.1
829.131	6738.86
829.458	6733.89
829.785	6641.46
830.111	6672.65
830.438	6746.77
830.764	6674.23
831.09	6700.22
831.417	6653.67
831.743	6721.91
832.069	6619.09
832.395	6597.85
832.722	6665.42
833.048	6681.46
833.374	6657.06
833.7	6617.74
834.026	6614.57
834.351	6605.98
834.677	6630.62
835.003	6644.4
835.329	6610.5
835.654	6591.07
835.98	6552.2
836.306	6643.27
836.631	6523.5
836.956	6583.61
837.282	6627
837.607	6532.54
837.932	6551.07
838.258	6527.79
838.583	6507.46
838.908	6444.41
839.233	6497.74
839.558	6466.55
839.883	6407.57
840.208	6426.55
840.533	6428.36
840.858	6476.95
841.182	6435.59
841.507	6395.37
841.832	6364.41
842.156	6377.74
842.481	6388.59
842.805	6321.47
843.13	6263.39
843.454	6284.86
843.778	6294.81
844.103	6268.14
844.427	6266.11
844.751	6271.53
845.075	6266.11
845.399	6275.82
845.723	6189.05
846.047	6222.27
846.371	6154.7
846.695	6152.89
847.019	6083.74
847.343	6061.59
847.666	6093.23
847.99	6037.19
848.313	6041.03
848.637	5983.18
848.96	5968.26
849.284	5965.55
849.607	5890.52
849.931	5899.11
850.254	5849.39
850.577	5841.94
850.9	5795.61
851.223	5832.9
851.546	5756.97
851.869	5744.31
852.192	5818.89
852.515	5721.26
852.838	5747.93
853.161	5711.54
853.483	5649.17
853.806	5645.11
854.129	5663.41
854.451	5646.46
854.774	5569.63
855.096	5546.13
855.419	5573.02
855.741	5569.85
856.063	5492.57
856.385	5518.1
856.708	5532.57
857.03	5513.58
857.352	5477.88
857.674	5455.51
857.996	5422.74
858.318	5401.72
858.64	5437.2
858.961	5359.69
859.283	5401.5
859.605	5303.42
859.926	5339.13
860.248	5323.53
860.57	5281.05
860.891	5319.92
861.212	5291.44
861.534	5271.33
861.855	5241.05
862.176	5271.56
862.498	5257.55
862.819	5268.84
863.14	5251.67
863.461	5225.46
863.782	5248.05
864.103	5232.24
864.424	5190.88
864.745	5234.5
865.065	5199.02
865.386	5172.12
865.707	5191.56
866.027	5185.23
866.348	5170.77
866.668	5205.8
866.989	5164.44
867.309	5071.79
867.63	5133.71
867.95	5135.06
868.27	5101.39
868.59	5046.93
868.91	5102.07
869.23	5127.15
869.55	5033.37
869.87	5071.79
870.19	5096.42
870.51	5066.14
870.83	5040.38
871.15	5035.86
871.469	5027.04
871.789	5026.37
872.109	5027.49
872.428	4995.86
872.748	4994.28
873.067	5043.31
873.386	5004.22
873.706	5036.53
874.025	5018.23
874.344	4943.2
874.663	4966.93
874.982	4945.01
875.301	4943.88
875.62	4991.56
875.939	4918.35
876.258	4915.63
876.577	4935.52
876.896	4952.69
877.214	4919.25
877.533	4866.6
877.852	4909.53
878.17	4898.46
878.489	4914.96
878.807	4842.87
879.125	4898.23
879.444	4851
879.762	4875.41
880.08	4875.41
880.398	4787.95
880.716	4858.46
881.034	4787.5
881.352	4842.42
881.67	4798.57
881.988	4798.57
882.306	4808.29
882.624	4778.91
882.941	4747.95
883.259	4749.08
883.577	4712.7
883.894	4706.37
884.212	4726.71
884.529	4734.62
884.846	4661.4
885.164	4697.79
885.481	4638.13
885.798	4670.44
886.115	4652.36
886.432	4651.01
886.75	4634.06
887.067	4639.71
887.383	4599.94
887.7	4626.6
888.017	4590.44
888.334	4652.36
888.651	4603.55
888.967	4580.95
889.284	4598.13
889.6	4566.94
889.917	4521.52
890.233	4552.25
890.55	4515.42
890.866	4490.33
891.182	4497.79
891.498	4502.76
891.815	4455.31
892.131	4465.48
892.447	4455.31
892.763	4431.58
893.079	4439.94
893.395	4384.8
893.71	4398.81
894.026	4404.46
894.342	4372.37
894.657	4378.47
894.973	4348.42
895.289	4369.66
895.604	4378.25
895.92	4340.28
896.235	4301.86
896.55	4307.74
896.865	4265.48
897.181	4286.27
897.496	4308.64
897.811	4278.36
898.126	4262.77
898.441	4224.13
898.756	4233.39
899.071	4177.8
899.386	4229.1
899.7	4193.62
900.015	4158.82
900.33	4098.03
900.644	4161.53
900.959	4072.04
901.273	4130.34
901.588	4112.94
901.902	4096.22
902.216	4057.35
902.531	4035.43
902.845	4047.41
903.159	4005.83
903.473	4019.84
903.787	3997.47
904.101	3975.77
904.415	4005.37
904.729	3943.23
905.042	3962.44
905.356	3943.46
905.67	3937.35
905.984	3966.51
906.297	3896.9
906.611	3894.19
906.924	3884.25
907.237	3890.58
907.551	3876.11
907.864	3840.86
908.177	3832.95
908.491	3864.59
908.804	3801.31
909.117	3761.09
909.43	3738.94
909.743	3745.49
910.056	3791.14
910.368	3762.44
910.681	3719.96
910.994	3729
911.307	3708.43
911.619	3651.03
911.932	3693.29
912.244	3668.66
912.557	3678.6
912.869	3624.82
913.181	3620.3
913.494	3602.9
913.806	3600.41
914.118	3579.62
914.43	3582.34
914.742	3554.77
915.054	3530.59
915.366	3528.78
915.678	3495.33
915.99	3514.99
916.302	3464.37
916.613	3483.13
916.925	3491.72
917.236	3473.86
917.548	3446.97
917.859	3451.04
918.171	3418.05
918.482	3388.22
918.794	3402.9
919.105	3390.7
919.416	3364.49
919.727	3355.22
920.038	3385.73
920.349	3315
920.66	3326.07
920.971	3322.91
921.282	3351.61
921.593	3278.61
921.903	3266.64
922.214	3227.32
922.525	3262.12
922.835	3229.58
923.146	3220.54
923.456	3203.14
923.767	3214.66
924.077	3208.11
924.387	3204.04
924.697	3135.34
925.008	3165.4
925.318	3132.18
925.628	3140.99
925.938	3133.31
926.248	3118.39
926.558	3070.48
926.867	3105.51
927.177	3084.95
927.487	3045.63
927.796	3063.48
928.106	3042.24
928.416	3061.22
928.725	3017.15
929.034	2997.49
929.344	3001.79
929.653	2983.93
929.962	2966.76
930.271	2962.92
930.581	2969.02
930.89	2917.72
931.199	2941.45
931.508	2939.41
931.817	2910.04
932.125	2906.19
932.434	2862.13
932.743	2840.66
933.051	2853.54
933.36	2842.02
933.669	2836.37
933.977	2829.36
934.286	2869.13
934.594	2796.37
934.902	2773.54
935.21	2789.36
935.519	2781.68
935.827	2782.36
936.135	2806.99
936.443	2740.55
936.751	2711.85
937.059	2733.54
937.367	2727.67
937.674	2744.17
937.982	2719.76
938.29	2709.82
938.597	2697.39
938.905	2675.69
939.213	2679.31
939.52	2642.47
939.827	2631.17
940.135	2640.21
940.442	2609.48
940.749	2618.97
941.056	2606.54
941.363	2573.32
941.67	2613.1
941.977	2579.2
942.284	2571.06
942.591	2559.76
942.898	2541.46
943.205	2536.49
943.511	2529.71
943.818	2507.34
944.125	2510.05
944.431	2489.26
944.738	2503.27
945.044	2494.68
945.35	2483.38
945.657	2456.72
945.963	2471.63
946.269	2437.28
946.575	2435.47
946.881	2419.65
947.187	2395.47
947.493	2394.57
947.799	2398.86
948.105	2386.43
948.41	2399.54
948.716	2396.6
949.022	2366.55
949.327	2392.31
949.633	2345.98
949.938	2368.58
950.244	2338.3
950.549	2303.95
950.854	2302.59
951.16	2293.1
951.465	2261.69
951.77	2274.8
952.075	2280.22
952.38	2274.35
952.685	2244.97
952.99	2259.43
953.294	2236.83
953.599	2251.3
953.904	2207.23
954.209	2224.4
954.513	2230.96
954.818	2195.25
955.122	2218.76
955.426	2197.51
955.731	2182.15
956.035	2187.12
956.339	2182.15
956.643	2157.51
956.948	2135.37
957.252	2133.79
957.556	2137.85
957.86	2107.12
958.163	2109.15
958.467	2113.67
958.771	2089.72
959.075	2128.81
959.378	2106.67
959.682	2065.54
959.985	2063.73
960.289	2069.61
960.592	2088.82
960.896	2012.43
961.199	2053.79
961.502	2027.8
961.805	2042.26
962.108	2031.19
962.411	2014.01
962.714	1990.51
963.017	2017.18
963.32	1988.03
963.623	1960.46
963.926	1950.29
964.228	1974.47
964.531	1983.06
964.833	1980.8
965.136	1961.81
965.438	1959.1
965.741	1927.92
966.043	1913
966.345	1913
966.648	1905.54
966.95	1913.23
967.252	1893.11
967.554	1854.7
967.856	1907.35
968.158	1895.6
968.46	1877.07
968.761	1873.91
969.063	1849.27
969.365	1857.86
969.666	1843.62
969.968	1844.75
970.269	1823.51
970.571	1839.1
970.872	1843.17
971.174	1838.2
971.475	1815.83
971.776	1784.87
972.077	1784.87
972.378	1788.48
972.679	1770.86
972.98	1799.78
973.281	1771.08
973.582	1746.23
973.883	1733.34
974.183	1744.87
974.484	1769.95
974.785	1728.15
975.085	1737.19
975.386	1704.42
975.686	1710.97
975.986	1730.41
976.287	1687.7
976.587	1647.02
976.887	1681.82
977.187	1680.01
977.487	1692.89
977.787	1688.83
978.087	1654.93
978.387	1656.06
978.687	1625.78
978.987	1678.88
979.286	1630.75
979.586	1649.73
979.885	1650.41
980.185	1606.12
980.484	1601.82
980.784	1613.12
981.083	1580.35
981.382	1585.78
981.682	1587.81
981.981	1614.03
982.28	1587.36
982.579	1584.65
982.878	1555.27
983.177	1548.72
983.475	1546.91
983.774	1563.41
984.073	1553.69
984.372	1550.98
984.67	1509.4
984.969	1527.47
985.267	1520.24
985.566	1533.12
985.864	1479.79
986.162	1510.98
986.461	1491.09
986.759	1506.23
987.057	1488.83
987.355	1501.26
987.653	1475.72
987.951	1475.05
988.249	1456.74
988.547	1445.22
988.844	1469.62
989.142	1467.59
989.44	1444.54
989.737	1432.56
990.035	1447.48
990.332	1453.58
990.63	1429.62
990.927	1418.78
991.224	1447.48
991.521	1366.35
991.819	1397.99
992.116	1398.21
992.413	1398.21
992.71	1375.61
993.006	1392.11
993.303	1386.46
993.6	1365.44
993.897	1363.41
994.193	1348.5
994.49	1349.4
994.787	1334.94
995.083	1353.92
995.379	1314.37
995.676	1328.84
995.972	1300.59
996.268	1304.43
996.565	1321.38
996.861	1313.47
997.157	1304.65
997.453	1274.83
997.749	1292.9
998.044	1308.04
998.34	1278.21
998.636	1281.83
998.932	1288.38
999.227	1248.16
999.523	1268.05
999.818	1250.65
1000.114	1259.91
1000.409	1229.63
1000.704	1234.83
1001	1222.4
1001.295	1250.19
1001.59	1222.17
1001.885	1202.96
1002.18	1207.03
1002.475	1182.4
1002.77	1186.47
1003.065	1205.22
1003.359	1211.1
1003.654	1173.58
1003.949	1153.02
1004.243	1182.17
1004.538	1149.63
1004.832	1172.23
1005.127	1168.61
1005.421	1185.79
1005.715	1142.4
1006.009	1124.32
1006.304	1136.07
1006.598	1149.4
1006.892	1123.19
1007.186	1135.85
1007.48	1113.7
1007.773	1111.67
1008.067	1113.7
1008.361	1088.84
1008.655	1132
1008.948	1095.62
1009.242	1083.19
1009.535	1081.16
1009.829	1075.06
1010.122	1047.03
1010.415	1063.76
1010.708	1043.64
1011.001	1062.18
1011.295	1056.53
1011.588	1050.88
1011.881	1045
1012.173	1042.74
1012.466	1044.1
1012.759	988.05
1013.052	1011.33
1013.344	1019.01
1013.637	1016.75
1013.93	1002.97
1014.222	1013.59
1014.514	1005.68
1014.807	979.47
1015.099	981.73
1015.391	977.21
1015.683	965.68
1015.976	979.69
1016.268	969.3
1016.56	955.06
1016.851	937.66
1017.143	971.1
1017.435	936.3
1017.727	927.04
1018.018	913.03
1018.31	944.66
1018.602	917.77
1018.893	918.45
1019.185	920.71
1019.476	917.77
1019.767	900.15
1020.058	911.44
1020.35	894.72
1020.641	901.28
1020.932	877.1
1021.223	891.33
1021.514	894.72
1021.804	877.32
1022.095	869.86
1022.386	884.33
1022.677	863.54
1022.967	844.1
1023.258	852.46
1023.548	858.79
1023.839	854.95
1024.129	840.94
1024.419	845.91
1024.709	826.48
1025	798.91
1025.29	833.03
1025.58	818.57
1025.87	807.72
1026.16	812.01
1026.449	801.17
1026.739	783.76
1027.029	781.28
1027.319	801.39
1027.608	804.33
1027.898	771.34
1028.187	774.05
1028.477	766.82
1028.766	790.54
1029.055	771.79
1029.344	786.02
1029.634	761.84
1029.923	758.23
1030.212	760.71
1030.501	736.99
1030.79	740.6
1031.078	728.62
1031.367	733.6
1031.656	747.83
1031.945	750.09
1032.233	728.4
1032.522	712.13
1032.81	718.46
1033.099	721.85
1033.387	705.57
1033.675	709.42
1033.963	712.13
1034.251	706.48
1034.54	714.39
1034.828	712.81
1035.116	686.37
1035.403	697.89
1035.691	683.65
1035.979	670.55
1036.267	676.65
1036.554	656.76
1036.842	654.05
1037.129	673.49
1037.417	662.19
1037.704	643.43
1037.992	649.53
1038.279	676.42
1038.566	648.4
1038.853	648.4
1039.14	648.4
