Data from tablewood_brown_FLMS001491_061.txt Node
Date: Tue Feb 07 11:10:49 GMT 2017
User: dcchb
Spectrometer: FLMS00149
Trigger mode: 0
Integration Time (sec): 2.000000E-2
Scans to average: 10
Electric dark correction enabled: true
Nonlinearity correction enabled: false
Boxcar width: 0
XAxis mode: Wavelengths
Number of Pixels in Spectrum: 2048
>>>>>Begin Spectral Data<<<<<
341.393	-1.61
341.776	-1.61
342.16	-1.61
342.543	-54.49
342.927	-69.4
343.31	-65.34
343.693	-67.37
344.077	-73.92
344.46	-79.12
344.843	-55.62
345.226	-54.49
345.61	-22.63
345.993	-0.93
346.376	-9.97
346.759	7.43
347.142	25.73
347.525	52.17
347.908	62.79
348.291	85.39
348.674	96.01
349.057	99.86
349.44	112.06
349.823	153.19
350.206	153.19
350.588	180.08
350.971	218.95
351.354	219.85
351.737	241.77
352.119	253.07
352.502	275.9
352.884	275.67
353.267	295.78
353.65	303.47
354.032	306.63
354.414	299.4
354.797	295.11
355.179	320.42
355.562	331.04
355.944	347.08
356.326	337.14
356.709	320.19
357.091	343.69
357.473	368.1
357.855	324.26
358.238	327.65
358.62	331.94
359.002	330.81
359.384	343.01
359.766	331.26
360.148	334.88
360.53	333.52
360.912	329.68
361.294	323.35
361.676	348.89
362.057	324.26
362.439	346.18
362.821	341.88
363.203	331.26
363.584	338.49
363.966	317.03
364.348	317.48
364.729	336.01
365.111	321.09
365.493	334.88
365.874	334.43
366.256	333.75
366.637	329.91
367.019	310.25
367.4	309.12
367.781	304.82
368.163	342.11
368.544	330.13
368.925	324.71
369.306	348.44
369.688	324.48
370.069	301.66
370.45	335.1
370.831	308.66
371.212	333.52
371.593	329
371.974	322
372.355	323.81
372.736	329.91
373.117	325.39
373.498	341.88
373.879	347.53
374.26	321.32
374.641	319.74
375.021	322
375.402	338.04
375.783	327.19
376.163	350.25
376.544	330.81
376.925	319.51
377.305	354.09
377.686	349.12
378.066	347.08
378.447	353.18
378.827	338.95
379.208	347.76
379.588	359.74
379.968	330.81
380.349	350.25
380.729	347.53
381.109	353.63
381.489	338.95
381.87	346.4
382.25	359.96
382.63	364.03
383.01	358.61
383.39	362.9
383.77	392.05
384.15	362.45
384.53	365.16
384.91	361.32
385.29	363.58
385.67	374.2
386.049	382.79
386.429	383.46
386.809	401.09
387.189	390.02
387.568	377.36
387.948	381.43
388.328	372.17
388.707	406.29
389.087	398.38
389.466	386.85
389.846	401.09
390.225	403.58
390.605	397.93
390.984	416.68
391.363	399.74
391.743	418.49
392.122	416.46
392.501	441.99
392.881	418.72
393.26	410.58
393.639	413.07
394.018	441.77
394.397	408.1
394.776	439.06
395.155	435.21
395.534	429.11
395.913	459.17
396.292	442.45
396.671	436.12
397.05	446.29
397.429	455.1
397.808	461.88
398.186	441.99
398.565	471.82
398.944	470.47
399.323	479.51
399.701	491.26
400.08	469.56
400.458	485.38
400.837	479.51
401.215	474.99
401.594	496.46
401.972	489.22
402.351	510.92
402.729	521.09
403.107	506.63
403.486	500.3
403.864	520.64
404.242	515.21
404.62	527.19
404.999	546.85
405.377	551.82
405.755	554.31
406.133	545.27
406.511	530.13
406.889	562.44
407.267	550.24
407.645	580.07
408.023	585.49
408.401	577.81
408.779	574.65
409.156	574.65
409.534	574.65
409.912	576.23
410.29	592.5
410.667	615.55
411.045	614.64
411.422	627.75
411.8	629.56
412.178	621.2
412.555	625.27
412.933	644.93
413.31	622.55
413.687	640.18
414.065	643.8
414.442	660.75
414.819	654.64
415.197	646.96
415.574	680.86
415.951	674.76
416.328	679.05
416.705	712.95
417.082	679.95
417.46	681.76
417.837	682.67
418.214	700.52
418.591	696
418.967	706.85
419.344	709.78
419.721	724.25
420.098	728.31
420.475	716.79
420.852	759.27
421.228	730.57
421.605	723.79
421.982	752.27
422.358	768.77
422.735	771.02
423.111	781.65
423.488	781.19
423.864	785.94
424.241	807.18
424.617	786.62
424.994	811.48
425.37	794.53
425.746	812.38
426.123	841.31
426.499	840.63
426.875	829.78
427.251	849.21
427.627	835.66
428.003	862.32
428.379	874.53
428.756	895.32
429.132	870.91
429.507	894.64
429.883	917.91
430.259	909.33
430.635	946.84
431.011	921.53
431.387	924.47
431.763	957.69
432.138	969.66
432.514	975.77
432.89	972.38
433.265	995.65
433.641	993.17
434.016	1038.36
434.392	1040.62
434.767	1051.47
435.143	1039.04
435.518	1049.89
435.894	1080.4
436.269	1066.84
436.644	1107.51
437.02	1100.28
437.395	1109.77
437.77	1130.34
438.145	1127.4
438.52	1135.08
438.895	1132.15
439.271	1140.51
439.646	1163.78
440.021	1165.36
440.395	1188.64
440.77	1172.37
441.145	1160.62
441.52	1213.05
441.895	1233.84
442.27	1233.16
442.645	1220.73
443.019	1244.01
443.394	1247.85
443.769	1288.07
444.143	1234.52
444.518	1246.04
444.892	1291.24
445.267	1282.88
445.641	1276.1
446.016	1304.8
446.39	1289.66
446.764	1328.52
447.139	1342.99
447.513	1306.83
447.887	1342.31
448.262	1358.13
448.636	1354.96
449.01	1363.78
449.384	1375.3
449.758	1389.09
450.132	1408.52
450.506	1389.77
450.88	1407.17
451.254	1433.15
451.628	1424.12
452.002	1449.2
452.376	1462.76
452.75	1474.96
453.123	1479.48
453.497	1526.49
453.871	1498.24
454.244	1540.5
454.618	1553.6
454.992	1540.5
455.365	1582.3
455.739	1618.23
456.112	1597.67
456.486	1633.83
456.859	1645.58
457.232	1665.01
457.606	1659.36
457.979	1676.76
458.352	1695.97
458.725	1738.91
459.099	1741.62
459.472	1803.77
459.845	1782.75
460.218	1813.94
460.591	1839.92
460.964	1847.61
461.337	1879.92
461.71	1877.66
462.083	1962.86
462.456	1928.28
462.829	1965.8
463.201	2002.18
463.574	2005.34
463.947	2013.7
464.32	2065.91
464.692	2084.21
465.065	2107.03
465.438	2100.48
465.81	2167.6
466.183	2179.58
466.555	2211.44
466.928	2256.41
467.3	2238.56
467.672	2300.02
468.045	2379.34
468.417	2370.76
468.789	2386.58
469.161	2390.87
469.534	2454.82
469.906	2488.49
470.278	2510.87
470.65	2557.87
471.022	2598.1
471.394	2690.75
471.766	2699.56
472.138	2744.53
472.51	2814.59
472.882	2869.5
473.253	2898.88
473.625	2954.92
473.997	3005.99
474.369	3055.26
474.74	3103.17
475.112	3128.48
475.484	3200.34
475.855	3245.76
476.227	3347.45
476.598	3413.22
476.97	3465.64
477.341	3566.43
477.713	3589.71
478.084	3624.74
478.455	3758.07
478.827	3771.85
479.198	3890.49
479.569	3901.56
479.94	4052.29
480.311	4069.7
480.682	4181.33
481.053	4296.13
481.424	4367.77
481.795	4433.75
482.166	4493.19
482.537	4507.2
482.908	4666.74
483.279	4749.9
483.65	4780.19
484.021	4905.61
484.391	4989.22
484.762	5070.35
485.133	5123
485.503	5205.26
485.874	5276.67
486.244	5344.24
486.615	5455.87
486.985	5547.17
487.356	5632.14
487.726	5670.78
488.097	5785.58
488.467	5859.25
488.837	5950.32
489.207	6059.02
489.578	6155.74
489.948	6232.58
490.318	6268.06
490.688	6320.26
491.058	6403.42
491.428	6505.34
491.798	6560.93
492.168	6684.09
492.538	6702.17
492.908	6889.51
493.278	6924.76
493.648	6894.93
494.017	6990.97
494.387	7164.53
494.757	7172.66
495.126	7310.06
495.496	7308.03
495.866	7356.16
496.235	7425.77
496.605	7517.06
496.974	7598.42
497.344	7616.27
497.713	7684.97
498.082	7760.22
498.452	7851.52
498.821	7906.43
499.19	7939.42
499.559	8058.29
499.928	8068.01
500.298	8110.27
500.667	8207.67
501.036	8249.47
501.405	8373.08
501.774	8407.43
502.143	8411.95
502.512	8509.58
502.88	8593.64
503.249	8598.84
503.618	8599.52
503.987	8749.35
504.356	8770.14
504.724	8838.16
505.093	8907.53
505.462	8922.22
505.83	8978.27
506.199	9153.4
506.567	9215.1
506.936	9180.97
507.304	9353.4
507.672	9375.09
508.041	9402.21
508.409	9511.81
508.777	9566.27
509.145	9727.63
509.514	9751.13
509.882	9802.88
510.25	9861.41
510.618	9976.88
510.986	9939.82
511.354	10058.92
511.722	10179.82
512.09	10293.03
512.458	10279.25
512.826	10397.21
513.193	10512.92
513.561	10583.2
513.929	10681.95
514.297	10825.22
514.664	10828.39
515.032	10937.54
515.4	10957.88
515.767	11051.21
516.135	11116.06
516.502	11111.09
516.869	11272.22
517.237	11299.79
517.604	11288.26
517.972	11595.15
518.339	11707.91
518.706	11653
519.073	11715.14
519.44	11909.94
519.808	12048.69
520.175	12057.96
520.542	12238.29
520.909	12278.29
521.276	12307.9
521.643	12488.23
522.009	12525.97
522.376	12652.07
522.743	12742.69
523.11	12912.17
523.477	13022.45
523.843	13119.85
524.21	13287.98
524.577	13385.61
524.943	13460.18
525.31	13520.52
525.676	13612.04
526.043	13717.58
526.409	13738.59
526.776	13971.81
527.142	14081.41
527.508	14167.06
527.874	14244.57
528.241	14344.91
528.607	14519.82
528.973	14595.97
529.339	14644.78
529.705	14718
530.071	14861.28
530.437	14918
530.803	15103.53
531.169	15149.86
531.535	15196.41
531.901	15259.23
532.267	15276.86
532.632	15421.94
532.998	15447.93
533.364	15527.25
533.73	15682.95
534.095	15786.22
534.461	15798.43
534.826	15887.24
535.192	15965.43
535.557	16016.05
535.923	16055.14
536.288	16075.71
536.653	16255.36
537.019	16214.23
537.384	16367.9
537.749	16391.86
538.114	16373.1
538.479	16544.17
538.845	16586.88
539.21	16627.78
539.575	16652.42
539.94	16697.84
540.305	16959.3
540.67	16867.1
541.034	16935.57
541.399	17014.44
541.764	17106.41
542.129	17132.18
542.494	17299.18
542.858	17389.57
543.223	17339.18
543.587	17366.29
543.952	17312.06
544.316	17467.76
544.681	17501.88
545.045	17584.37
545.41	17757.24
545.774	17746.62
546.138	17674.54
546.503	17905.72
546.867	17801.99
547.231	18048.31
547.595	18005.37
547.959	18128.31
548.324	18288.76
548.688	18194.97
549.052	18388.41
549.416	18413.27
549.779	18507.06
550.143	18600.84
550.507	18714.28
550.871	18766.48
551.235	18789.76
551.599	19043.09
551.962	19029.53
552.326	19146.13
552.689	19252.12
553.053	19321.5
553.417	19348.16
553.78	19607.59
554.143	19647.82
554.507	19793.35
554.87	19825.89
555.234	20032.67
555.597	19992.67
555.96	20161.48
556.323	20248.25
556.686	20355.59
557.05	20462.26
557.413	20614.57
557.776	20695.47
558.139	20901.34
558.502	20937.95
558.865	21199.64
559.228	21310.82
559.59	21451.61
559.953	21488.45
560.316	21829.45
560.679	21866.06
561.041	22132.05
561.404	22145.6
561.767	22376.33
562.129	22458.36
562.492	22650
562.854	22673.05
563.217	22768.64
563.579	22927.96
563.941	23143.32
564.304	23328.85
564.666	23489.75
565.028	23622.85
565.39	23773.36
565.753	23980.58
566.115	24051.77
566.477	24321.59
566.839	24499.21
567.201	24698.76
567.563	24818.75
567.925	25015.59
568.287	25135.58
568.648	25264.17
569.01	25384.84
569.372	25769.69
569.734	25741.89
570.095	26057.82
570.457	26216.01
570.819	26346.85
571.18	26519.95
571.542	26707.29
571.903	26813.73
572.265	26865.25
572.626	27131.24
572.987	27160.61
573.349	27335.3
573.71	27642.86
574.071	27807.38
574.432	28035.62
574.794	28215.28
575.155	28238.78
575.516	28281.04
575.877	28499.11
576.238	28662.72
576.599	28771.64
576.96	28857.29
577.32	29042.6
577.681	29287.56
578.042	29414.57
578.403	29476.26
578.763	29662.02
579.124	29741.11
579.485	29962.8
579.845	30116.92
580.206	30121.89
580.566	30020.2
580.927	30324.15
581.287	30375.44
581.648	30549
582.008	30622.67
582.368	30782.89
582.728	30765.26
583.089	30822.21
583.449	30879.84
583.809	30873.96
584.169	30974.75
584.529	30950.57
584.889	31350.56
585.249	31232.6
585.609	31099.72
585.969	31382.88
586.329	31349.66
586.688	31374.06
587.048	31363.21
587.408	31422.42
587.768	31522.76
588.127	31472.59
588.487	31556.88
588.846	31726.14
589.206	31634.17
589.565	31709.19
589.925	31857.21
590.284	31765.92
590.643	32023.99
591.003	31940.37
591.362	32051.56
591.721	31964.78
592.08	32045.23
592.44	32172.69
592.799	32175.4
593.158	32223.31
593.517	32252.01
593.876	32297.43
594.235	32171.56
594.593	32261.95
594.952	32326.35
595.311	32271.44
595.67	32412.9
596.029	32598.21
596.387	32560.02
596.746	32651.99
597.104	32478.67
597.463	32476.63
597.822	32683.18
598.18	32447.03
598.538	32571.77
598.897	32790.3
599.255	32383.98
599.613	32907.81
599.972	32634.37
600.33	32839.11
600.688	32717.98
601.046	32721.6
601.404	32974.92
601.762	32901.93
602.12	33084.75
602.478	33098.99
602.836	33044.75
603.194	32852.22
603.552	32929.5
603.91	32903.97
604.268	33059.44
604.625	32833.68
604.983	33200.91
605.341	33065.77
605.698	33125.2
606.056	33162.26
606.413	33230.28
606.771	33343.95
607.128	33390.28
607.485	33130.85
607.843	33191.19
608.2	33409.94
608.557	33544.63
608.914	33456.49
609.272	33571.52
609.629	33532.42
609.986	33773.55
610.343	33684.51
610.7	33796.37
611.057	33800.21
611.414	33665.75
611.771	33670.5
612.127	33887.44
612.484	33838.4
612.841	33973.09
613.198	33837.05
613.554	33846.54
613.911	34010.83
614.267	34166.98
614.624	34059.42
614.98	34168.56
615.337	34379.41
615.693	34319.75
616.05	34272.06
616.406	34546.86
616.762	34394.77
617.118	34317.26
617.475	34312.52
617.831	34437.94
618.187	34350.93
618.543	34600.42
618.899	34562
619.255	34506.18
619.611	34396.36
619.967	34593.64
620.323	34724.26
620.678	34667.99
621.034	34633.64
621.39	34549.8
621.746	34657.59
622.101	34954.31
622.457	34552.51
622.812	34806.06
623.168	34915.89
623.523	34716.12
623.879	34901.88
624.234	34667.08
624.589	34827.3
624.945	34867.08
625.3	34950.92
625.655	34851.03
626.01	34816.23
626.365	34844.93
626.72	34808.55
627.075	34884.93
627.43	34794.99
627.785	34776.68
628.14	34780.98
628.495	34882.44
628.85	34807.64
629.205	34779.4
629.559	34811.03
629.914	34727.19
630.269	34697.14
630.623	34587.99
630.978	34606.29
631.332	34631.6
631.687	34774.42
632.041	34651.26
632.396	34595.9
632.75	34523.58
633.104	34454.43
633.459	34402.68
633.813	34384.15
634.167	34312.29
634.521	34234.78
634.875	34343.7
635.229	34249.47
635.583	34178.06
635.937	34131.28
636.291	34231.84
636.645	34269.35
636.999	34095.8
637.352	34256.02
637.706	33983.48
638.06	34044.05
638.413	34057.83
638.767	33877.5
639.121	34007.44
639.474	33661.46
639.828	33808.35
640.181	33809.03
640.534	33804.05
640.888	33697.16
641.241	33570.16
641.594	33699.88
641.947	33703.49
642.301	33678.18
642.654	33699.88
643.007	33635.92
643.36	33737.39
643.713	33468.7
644.066	33730.84
644.419	33503.95
644.771	33261.47
645.124	33001.14
645.477	32951.87
645.83	32691.54
646.182	32635.05
646.535	32518.89
646.888	32600.47
647.24	32427.37
647.593	32672.78
647.945	32568.38
648.298	32225.11
648.65	32330.65
649.002	32270.76
649.355	32425.79
649.707	32284.55
650.059	32437.76
650.411	32725.66
650.763	32797.75
651.115	33261.24
651.467	33051.76
651.819	33096.28
652.171	32965.43
652.523	32960.01
652.875	33009.27
653.227	32859.22
653.578	33007.24
653.93	33007.69
654.282	32997.75
654.633	32742.16
654.985	32739
655.337	32961.36
655.688	32933.57
656.039	33136.73
656.391	32627.59
656.742	32829.39
657.094	32868.03
657.445	33005.88
657.796	32789.62
658.147	32728.6
658.498	32817.19
658.849	32798.88
659.2	32731.31
659.551	32772.44
659.902	32773.8
660.253	32814.7
660.604	32815.83
660.955	32633.01
661.306	32702.84
661.656	32678.43
662.007	32753.91
662.358	32796.85
662.708	32687.93
663.059	32701.94
663.409	32497.2
663.76	32815.61
664.11	32738.09
664.461	32669.85
664.811	32738.09
665.161	32693.12
665.511	32599.11
665.862	32682.95
666.212	32812.67
666.562	32808.15
666.912	32713.91
667.262	32679.11
667.612	32748.94
667.962	32744.87
668.312	32606.35
668.662	32809.96
669.011	32702.84
669.361	32590.98
669.711	32614.26
670.06	32487.93
670.41	32476.18
670.76	32520.47
671.109	32628.04
671.459	32436.63
671.808	32440.02
672.157	32436.41
672.507	32323.64
672.856	32280.7
673.205	32317.77
673.554	32419.68
673.904	32256.3
674.253	32398.22
674.602	32304.21
674.951	31855.41
675.3	31692.47
675.649	32156.87
675.998	32111.44
676.346	32176.53
676.695	32191.89
677.044	31957.32
677.393	32119.13
677.741	32241.38
678.09	32043.65
678.438	31958
678.787	32044.55
679.135	32121.61
679.484	31800.49
679.832	31925.23
680.181	31696.54
680.529	31887.95
680.877	31734.28
681.225	31690.89
681.573	31847.5
681.922	31569.54
682.27	31430.56
682.618	31426.26
682.966	31285.48
683.314	31433.5
683.661	31417.45
684.009	31157.8
684.357	31179.72
684.705	31184.46
685.053	31172.26
685.4	31043.68
685.748	30961.19
686.095	30998.93
686.443	30805.94
686.79	30851.14
687.138	30894.07
687.485	30764.13
687.832	30687.07
688.18	30688.88
688.527	30527.53
688.874	30446.18
689.221	30386.97
689.568	30101.33
689.915	30088.45
690.262	30023.82
690.609	30161.89
690.956	30035.34
691.303	30062.91
691.65	29933.2
691.997	29717.61
692.344	29649.36
692.69	29601.23
693.037	29616.59
693.383	29326.88
693.73	29417.05
694.077	29260.45
694.423	29268.35
694.769	29121.24
695.116	29095.7
695.462	28880.79
695.808	28900.68
696.155	28944.75
696.501	28836.05
696.847	28710.4
697.193	28619.11
697.539	28569.62
697.885	28326.01
698.231	28233.13
698.577	28260.02
698.923	28208.04
699.269	28053.7
699.614	27873.36
699.96	27746.81
700.306	27801.27
700.651	27583.88
700.997	27489.87
701.342	27549.08
701.688	27572.35
702.033	27436.09
702.379	27387.27
702.724	27295.53
703.069	27339.82
703.415	26972.14
703.76	26918.81
704.105	26975.31
704.45	26903.45
704.795	26713.39
705.14	26621.19
705.485	26522.66
705.83	26441.99
706.175	26425.27
706.52	26341.65
706.865	26355.21
707.209	26215.33
707.554	26131.26
707.899	26242.9
708.243	26107.76
708.588	26018.27
708.932	25873.42
709.277	25815.79
709.621	25830.93
709.966	25619.41
710.31	25768.33
710.654	25404.28
710.998	25473.2
711.342	25579.41
711.687	25427.55
712.031	25286.76
712.375	25258.97
712.719	25225.07
713.063	25237.27
713.407	25318.63
713.75	25060.56
714.094	25052.87
714.438	25086.09
714.782	24966.09
715.125	24874.35
715.469	24963.84
715.812	24761.13
716.156	24624.64
716.499	24710.73
716.843	24748.93
717.186	24548.93
717.53	24721.81
717.873	24648.59
718.216	24641.81
718.559	24531.3
718.902	24425.77
719.246	24436.39
719.589	24401.59
719.932	24214.25
720.275	24393.23
720.617	24352.78
720.96	24258.09
721.303	24307.36
721.646	24330.86
721.989	24091.54
722.331	24229.17
722.674	24211.99
723.016	24153.01
723.359	24154.36
723.701	24186.45
724.044	23961.6
724.386	23797.09
724.729	23993.01
725.071	23977.65
725.413	23918.66
725.755	23997.08
726.097	23853.36
726.439	23733.36
726.782	23748.5
727.124	23995.05
727.465	23744.66
727.807	23850.64
728.149	23696.75
728.491	23692.23
728.833	23766.35
729.175	23716.41
729.516	23664.89
729.858	23648.84
730.199	23703.98
730.541	23584.66
730.882	23691.55
731.224	23618.79
731.565	23518
731.906	23522.97
732.248	23613.14
732.589	23552.35
732.93	23465.34
733.271	23482.52
733.612	23525.45
733.953	23670.54
734.294	23463.54
734.635	23446.13
734.976	23553.48
735.317	23470.32
735.658	23333.82
735.999	23418.79
736.339	23454.27
736.68	23501.27
737.021	23475.51
737.361	23346.48
737.702	23391.9
738.042	23382.86
738.383	23323.2
738.723	23423.99
739.063	23298.34
739.404	23316.19
739.744	23305.12
740.084	23228.06
740.424	23330.43
740.764	23291.79
741.104	23375.63
741.444	23197.78
741.784	23148.06
742.124	23201.62
742.464	23288.17
742.804	23104.22
743.143	23136.54
743.483	23152.13
743.823	23130.66
744.162	23059.25
744.502	23132.92
744.841	23055.64
745.181	23160.27
745.52	23123.66
745.86	23171.34
746.199	23169.31
746.538	23023.32
746.877	23212.92
747.216	23102.42
747.556	23134.73
747.895	23110.32
748.234	23160.04
748.573	22977.45
748.911	22981.51
749.25	23076.2
749.589	22964.11
749.928	23022.42
750.267	22975.86
750.605	22990.33
750.944	22924.79
751.283	22938.58
751.621	22933.83
751.96	22783.1
752.298	22814.97
752.636	22942.65
752.975	22831.91
753.313	22659.49
753.651	22778.81
753.989	22630.11
754.327	22612.48
754.666	22521.19
755.004	22589.66
755.342	22497.69
755.679	22552.15
756.017	22472.38
756.355	22392.38
756.693	22381.76
757.031	22465.82
757.368	22297.24
757.706	22316
758.044	22217.47
758.381	22267.18
758.719	22145.83
759.056	22148.32
759.394	22156.68
759.731	21928.89
760.068	21998.04
760.405	21879.4
760.743	21743.81
761.08	21895.89
761.417	21757.14
761.754	21821.09
762.091	21672.85
762.428	21630.59
762.765	21528.22
763.102	21659.06
763.438	21459.75
763.775	21388.11
764.112	21424.72
764.449	21456.58
764.785	21344.5
765.122	21156.48
765.458	21087.33
765.795	21034.9
766.131	21008.68
766.467	20918.52
766.804	20762.82
767.14	20777.5
767.476	20761.01
767.812	20670.61
768.148	20575.7
768.485	20468.81
768.821	20418.42
769.157	20354.92
769.492	20312.66
769.828	20321.02
770.164	20152.89
770.5	20116.96
770.836	20042.61
771.171	19850.07
771.507	19970.52
771.842	19807.59
772.178	19773.46
772.513	19794.25
772.849	19738.89
773.184	19671.09
773.519	19633.58
773.855	19489.18
774.19	19470.42
774.525	19356.3
774.86	19367.6
775.195	19282.85
775.53	19264.1
775.865	19085.57
776.2	19023.88
776.535	18953.6
776.87	18896.2
777.205	18773.26
777.539	18740.5
777.874	18717.45
778.209	18550.22
778.543	18626.6
778.878	18497.34
779.212	18456.21
779.547	18354.74
779.881	18427.28
780.215	18220.74
780.55	18315.87
780.884	18143.68
781.218	18116.56
781.552	18122.66
781.886	18080.4
782.22	17879.05
782.554	17867.3
782.888	17705.49
783.222	17592.5
783.556	17591.6
783.889	17594.31
784.223	17449.23
784.557	17390.7
784.89	17422.34
785.224	17171.5
785.557	17213.53
785.891	17145.96
786.224	17089.01
786.558	16998.62
786.891	16941.9
787.224	16919.07
787.557	16825.52
787.891	16811.51
788.224	16788.68
788.557	16711.4
788.89	16720.44
789.223	16722.47
789.556	16533.77
789.888	16410.61
790.221	16410.39
790.554	16412.87
790.887	16296.72
791.219	16185.53
791.552	16205.42
791.884	16126.55
792.217	16081.36
792.549	16083.16
792.882	15947.35
793.214	15826
793.546	15945.77
793.879	15865.77
794.211	15715.26
794.543	15774.7
794.875	15680.24
795.207	15712.55
795.539	15656.96
795.871	15654.25
796.203	15515.95
796.535	15402.96
796.867	15359.79
797.198	15313.47
797.53	15273.24
797.862	15203.64
798.193	15234.15
798.525	15134.49
798.856	15103.98
799.188	14932.46
799.519	14923.87
799.85	14914.38
800.182	14934.27
800.513	14789.87
800.844	14708.06
801.175	14801.84
801.506	14709.87
801.837	14699.7
802.168	14633.26
802.499	14569.76
802.83	14476.88
803.161	14499.93
803.491	14541.28
803.822	14411.57
804.153	14397.79
804.483	14236.66
804.814	14187.85
805.145	14208.86
805.475	14195.3
805.805	14162.54
806.136	14107.17
806.466	14063.78
806.796	14122.76
807.126	13944.46
807.457	13986.72
807.787	13872.15
808.117	13931.81
808.447	13819.95
808.777	13808.2
809.107	13781.3
809.436	13740.4
809.766	13767.52
810.096	13725.49
810.426	13618.82
810.755	13644.58
811.085	13647.97
811.414	13531.14
811.744	13501.76
812.073	13443.91
812.403	13421.31
812.732	13365.5
813.061	13331.37
813.39	13204.82
813.719	13225.61
814.049	13335.89
814.378	13243.69
814.707	13204.14
815.036	13113.3
815.365	13062.45
815.693	13022.68
816.022	12960.08
816.351	12905.62
816.68	12952.63
817.008	12903.81
817.337	12856.58
817.665	12817.04
817.994	12833.76
818.322	12793.31
818.651	12749.24
818.979	12638.96
819.307	12669.02
819.636	12785.85
819.964	12644.16
820.292	12695.46
820.62	12672.41
820.948	12579.53
821.276	12643.03
821.604	12601.45
821.932	12615.69
822.259	12572.75
822.587	12591.96
822.915	12604.84
823.243	12561.68
823.57	12600.09
823.898	12553.54
824.225	12563.26
824.553	12556.48
824.88	12553.99
825.207	12569.36
825.535	12525.07
825.862	12621.79
826.189	12459.98
826.516	12565.74
826.843	12639.41
827.17	12608.91
827.497	12571.39
827.824	12559.42
828.151	12551.73
828.478	12599.19
828.805	12604.16
829.131	12554.44
829.458	12465.63
829.785	12438.29
830.111	12473.99
830.438	12515.8
830.764	12544.95
831.09	12502.69
831.417	12466.54
831.743	12434.9
832.069	12508.8
832.395	12454.79
832.722	12486.42
833.048	12497.95
833.374	12417.05
833.7	12376.37
834.026	12474.45
834.351	12452.98
834.677	12404.62
835.003	12379.08
835.329	12362.58
835.654	12424.5
835.98	12342.02
836.306	12226.32
836.631	12269.93
836.956	12301.34
837.282	12295.92
837.607	12263.38
837.932	12159.88
838.258	12165.98
838.583	12224.51
838.908	12108.58
839.233	12136.6
839.558	12085.3
839.883	12057.28
840.208	11988.58
840.533	12026.32
840.858	11970.28
841.182	12025.64
841.507	12009.15
841.832	12004.18
842.156	11890.51
842.481	11945.65
842.805	11864.29
843.13	11823.16
843.454	11836.04
843.778	11722.83
844.103	11854.35
844.427	11738.65
844.751	11675.14
845.075	11733.67
845.399	11647.58
845.723	11602.15
846.047	11666.11
846.371	11563.74
846.695	11471.53
847.019	11453.68
847.343	11371.42
847.666	11314.48
847.99	11269.73
848.313	11247.36
848.637	11227.93
848.96	11158.32
849.284	11215.72
849.607	11090.3
849.931	11026.12
850.254	10945.45
850.577	10904.54
850.9	10867.71
851.223	10815.73
851.546	10793.81
851.869	10710.65
852.192	10760.59
852.515	10650.09
852.838	10614.83
853.161	10608.51
853.483	10578.68
853.806	10567.6
854.129	10477.66
854.451	10457.1
854.774	10417.78
855.096	10426.14
855.419	10320.6
855.741	10401.96
856.063	10286.71
856.385	10296.88
856.708	10228.4
857.03	10185.47
857.352	10159.93
857.674	10181.62
857.996	10081.97
858.318	10095.3
858.64	10154.51
858.961	10025.47
859.283	9954.29
859.605	9971.01
859.926	10018.92
860.248	9971.23
860.57	9905.93
860.891	9874.51
861.212	9807.17
861.534	9889.66
861.855	9764.69
862.176	9840.39
862.498	9768.98
862.819	9792.93
863.14	9740.73
863.461	9707.29
863.782	9676.33
864.103	9704.35
864.424	9661.41
864.745	9697.8
865.065	9608.53
865.386	9573.28
865.707	9519.5
866.027	9562.43
866.348	9583.67
866.668	9537.57
866.989	9491.7
867.309	9445.15
867.63	9448.99
867.95	9452.83
868.27	9434.53
868.59	9412.83
868.91	9471.59
869.23	9447.86
869.55	9388.88
869.87	9384.13
870.19	9355.66
870.51	9398.14
870.83	9378.48
871.15	9279.73
871.469	9346.17
871.789	9333.51
872.109	9257.36
872.428	9260.07
872.748	9279.73
873.067	9268.2
873.386	9228.43
873.706	9200.41
874.025	9142.78
874.344	9136.45
874.663	9125.83
874.982	9117.7
875.301	9137.81
875.62	9115.89
875.939	9076.34
876.258	9075.44
876.577	8998.83
876.896	9047.42
877.214	9052.16
877.533	9017.14
877.852	8931.71
878.17	8958.61
878.489	8959.06
878.807	9010.36
879.125	8931.26
879.444	8910.02
879.762	8878.16
880.08	8922
880.398	8873.64
880.716	8835.9
881.034	8859.4
881.352	8840.42
881.67	8799.06
881.988	8819.63
882.306	8818.5
882.624	8814.88
882.941	8725.17
883.259	8662.57
883.577	8689.69
883.894	8716.8
884.212	8623.93
884.529	8641.1
884.846	8645.85
885.164	8597.49
885.481	8532.18
885.798	8614.21
886.115	8545.74
886.432	8497.38
886.75	8486.98
887.067	8551.61
887.383	8449.47
887.7	8449.02
888.017	8456.25
888.334	8397.04
888.651	8411.5
888.967	8373.31
889.284	8311.62
889.6	8287.44
889.917	8335.8
890.233	8306.42
890.55	8271.17
890.866	8270.49
891.182	8211.28
891.498	8228.91
891.815	8136.03
892.131	8145.29
892.447	8064.62
892.763	8033.88
893.079	8021
893.395	8012.19
893.71	7969.48
894.026	7981
894.342	7942.14
894.657	7906.88
894.973	7915.47
895.289	7891.52
895.604	7907.79
895.92	7792.76
896.235	7761.8
896.55	7734.46
896.865	7773.55
897.181	7765.64
897.496	7736.04
897.811	7687.45
898.126	7604.74
898.441	7595.25
898.756	7628.25
899.071	7520.45
899.386	7584.41
899.7	7551.64
900.015	7405.2
900.33	7421.02
900.644	7390.06
900.959	7437.97
901.273	7403.84
901.588	7302.38
901.902	7316.16
902.216	7290.4
902.531	7333.79
902.845	7293.34
903.159	7245.66
903.473	7178.09
903.787	7137.86
904.101	7084.08
904.415	7137.86
904.729	7099.9
905.042	7084.76
905.356	7056.51
905.67	7040.92
905.984	6994.14
906.297	7010.63
906.611	7005.89
906.924	6925.21
907.237	6924.08
907.551	6934.03
907.864	6864.42
908.177	6839.34
908.491	6804.54
908.804	6731.55
909.117	6773.8
909.43	6678.21
909.743	6706.24
910.056	6668.95
910.368	6695.84
910.681	6624.2
910.994	6584.21
911.307	6526.13
911.619	6513.92
911.932	6518.67
912.244	6479.58
912.557	6437.32
912.869	6476.64
913.181	6394.38
913.494	6381.72
913.806	6362.29
914.118	6349.64
914.43	6278
914.742	6294.04
915.054	6236.19
915.366	6228.96
915.678	6205.23
915.99	6198.45
916.302	6155.74
916.613	6102.18
916.925	6111.22
917.236	6115.29
917.548	6012.92
917.859	6122.75
918.171	5987.16
918.482	5934.05
918.794	5927.73
919.105	5901.51
919.416	5917.56
919.727	5869.42
920.038	5861.51
920.349	5811.57
920.66	5807.05
920.971	5806.6
921.282	5748.52
921.593	5713.49
921.903	5721.63
922.214	5684.34
922.525	5598.47
922.835	5628.3
923.146	5615.87
923.456	5621.29
923.767	5547.62
924.077	5581.29
924.387	5572.25
924.697	5522.99
925.008	5528.41
925.318	5462.43
925.628	5461.07
925.938	5437.12
926.248	5352.6
926.558	5373.62
926.867	5329.55
927.177	5317.8
927.487	5256.1
927.796	5200.29
928.106	5217.01
928.416	5228.99
928.725	5202.32
929.034	5178.37
929.344	5146.96
929.653	5155.99
929.962	5116.67
930.271	5097.24
930.581	5071.93
930.89	5000.07
931.199	5045.26
931.508	4989.67
931.817	4982.67
932.125	4941.54
932.434	4964.14
932.743	4906.28
933.051	4894.98
933.36	4865.83
933.669	4832.61
933.977	4895.89
934.286	4818.15
934.594	4782.9
934.902	4773.86
935.21	4754.42
935.519	4753.29
935.827	4717.59
936.135	4741.54
936.443	4673.3
936.751	4626.74
937.059	4603.92
937.367	4628.78
937.674	4626.97
937.982	4607.99
938.29	4575.44
938.597	4603.24
938.905	4531.38
939.213	4538.61
939.52	4474.66
939.827	4529.34
940.135	4428.78
940.442	4449.8
940.749	4435.34
941.056	4445.5
941.363	4363.02
941.67	4329.58
941.977	4337.71
942.284	4323.93
942.591	4325.28
942.898	4319.86
943.205	4317.37
943.511	4240.54
943.818	4256.13
944.125	4209.58
944.431	4205.51
944.738	4194.44
945.044	4157.38
945.35	4163.93
945.657	4158.51
945.963	4107.43
946.269	4130.48
946.575	4105.17
946.881	4094.1
947.187	4042.13
947.493	4032.18
947.799	4004.61
948.105	4007.78
948.41	3941.34
948.716	3946.99
949.022	3922.13
949.327	3897.72
949.633	3927.55
949.938	3875.12
950.244	3916.7
950.549	3845.97
950.854	3834.9
951.16	3856.14
951.465	3818.63
951.77	3775.24
952.075	3728.91
952.38	3751.74
952.685	3731.4
952.99	3733.43
953.294	3722.13
953.599	3662.25
953.904	3678.07
954.209	3675.36
954.513	3668.35
954.818	3667.9
955.122	3619.54
955.426	3576.83
955.731	3608.92
956.035	3577.73
956.339	3536.83
956.643	3537.73
956.948	3474.46
957.252	3476.94
957.556	3482.59
957.86	3454.12
958.163	3446.66
958.467	3457.73
958.771	3419.54
959.075	3426.55
959.378	3396.27
959.682	3394.91
959.985	3353.1
960.289	3343.39
960.592	3328.7
960.896	3319.66
961.199	3317.85
961.502	3319.66
961.805	3281.69
962.108	3291.64
962.411	3290.73
962.714	3179.1
963.017	3219.32
963.32	3238.3
963.623	3207.12
963.926	3221.13
964.228	3187.46
964.531	3153.56
964.833	3197.4
965.136	3110.17
965.438	3139.32
965.741	3137.97
966.043	3066.33
966.345	3149.72
966.648	3068.37
966.95	3076.73
967.252	3052.55
967.554	3012.55
967.856	3055.26
968.158	3009.84
968.46	2979.55
968.761	2970.52
969.063	2947.92
969.365	2948.37
969.666	2936.17
969.968	2938.88
970.269	2903.62
970.571	2906.79
970.872	2878.09
971.174	2878.54
971.475	2880.35
971.776	2856.62
972.077	2862.27
972.378	2834.25
972.679	2824.08
972.98	2811.88
973.281	2793.8
973.582	2791.54
973.883	2760.8
974.183	2777.3
974.484	2728.94
974.785	2756.51
975.085	2745.44
975.386	2729.39
975.686	2702.05
975.986	2683.07
976.287	2714.25
976.587	2672.67
976.887	2642.39
977.187	2680.81
977.487	2674.25
977.787	2636.74
978.087	2631.77
978.387	2623.18
978.687	2621.6
978.987	2573.24
979.286	2560.13
979.586	2537.31
979.885	2535.95
980.185	2543.86
980.484	2517.19
980.784	2513.8
981.083	2499.34
981.382	2483.97
981.682	2493.01
981.981	2469.29
982.28	2462.73
982.579	2436.74
982.878	2473.13
983.177	2424.09
983.475	2419.12
983.774	2400.13
984.073	2371.43
984.372	2378.67
984.67	2384.09
984.969	2368.95
985.267	2407.14
985.566	2346.12
985.864	2332.11
986.162	2317.65
986.461	2318.55
986.759	2321.04
987.057	2283.3
987.355	2298.89
987.653	2275.62
987.951	2247.6
988.249	2277.2
988.547	2244.88
988.844	2224.77
989.142	2229.07
989.44	2202.85
989.737	2222.29
990.035	2169.63
990.332	2182.97
990.63	2194.72
990.927	2156.75
991.224	2170.31
991.521	2135.51
991.819	2149.29
992.116	2147.49
992.413	2092.57
992.71	2120.82
993.006	2122.18
993.303	2107.94
993.6	2072.91
993.897	2059.58
994.193	2071.78
994.49	2043.08
994.787	2020.94
995.083	2012.8
995.379	2035.62
995.676	2028.39
995.972	2013.25
996.268	1977.77
996.565	1964.21
996.861	1964.44
997.157	1980.26
997.453	1972.8
997.749	1914.27
998.044	1921.05
998.34	1928.06
998.636	1904.55
998.932	1905.68
999.227	1904.33
999.523	1865.01
999.818	1883.99
1000.114	1864.56
1000.409	1848.96
1000.704	1852.35
1001	1820.26
1001.295	1828.17
1001.59	1821.39
1001.885	1836.76
1002.18	1815.97
1002.475	1797.21
1002.77	1792.69
1003.065	1778.68
1003.359	1774.16
1003.654	1756.31
1003.949	1748.85
1004.243	1738.91
1004.538	1747.04
1004.832	1701.4
1005.127	1719.7
1005.421	1717.67
1005.715	1708.4
1006.009	1712.92
1006.304	1698.23
1006.598	1647.16
1006.892	1660.04
1007.186	1646.71
1007.48	1666.14
1007.773	1617.78
1008.067	1626.14
1008.361	1632.02
1008.655	1609.65
1008.948	1589.53
1009.242	1577.33
1009.535	1613.04
1009.829	1567.61
1010.122	1571
1010.415	1560.83
1010.708	1564
1011.001	1520.84
1011.295	1535.52
1011.588	1520.84
1011.881	1530.1
1012.173	1504.11
1012.466	1487.16
1012.759	1491.68
1013.052	1464.79
1013.344	1460.95
1013.637	1473.61
1013.93	1433.38
1014.222	1418.24
1014.514	1440.84
1014.807	1411.01
1015.099	1442.42
1015.391	1418.47
1015.683	1418.47
1015.976	1394.74
1016.268	1395.19
1016.56	1370.56
1016.851	1367.17
1017.143	1378.69
1017.435	1366.94
1017.727	1357
1018.018	1348.64
1018.31	1361.74
1018.602	1311.12
1018.893	1321.07
1019.185	1306.38
1019.476	1302.76
1019.767	1293.72
1020.058	1278.36
1020.35	1236.55
1020.641	1274.51
1020.932	1256.89
1021.223	1282.65
1021.514	1247.4
1021.804	1241.52
1022.095	1230.67
1022.386	1178.7
1022.677	1208.53
1022.967	1229.09
1023.258	1187.51
1023.548	1181.86
1023.839	1191.58
1024.129	1180.96
1024.419	1180.05
1024.709	1174.18
1025	1126.27
1025.29	1142.77
1025.58	1133.95
1025.87	1126.72
1026.16	1128.98
1026.449	1134.63
1026.739	1100.51
1027.029	1094.63
1027.319	1096.44
1027.608	1094.41
1027.898	1079.49
1028.187	1083.56
1028.477	1063.67
1028.766	1055.54
1029.055	1044.24
1029.344	1044.92
1029.634	1052.15
1029.923	1037.91
1030.212	1035.65
1030.501	1016.89
1030.79	1023.45
1031.078	1040.4
1031.367	1014.86
1031.656	1006.5
1031.945	972.83
1032.233	984.58
1032.522	993.84
1032.81	986.16
1033.099	955.2
1033.387	971.92
1033.675	973.96
1033.963	967.63
1034.251	952.26
1034.54	931.02
1034.828	923.11
1035.116	910.91
1035.403	932.6
1035.691	918.82
1035.979	916.56
1036.267	880.17
1036.554	901.19
1036.842	893.28
1037.129	896.45
1037.417	862.32
1037.704	897.58
1037.992	865.49
1038.279	856.45
1038.566	863.45
1038.853	863.45
1039.14	863.45
