Data from tablewood_dark_bookshelf_FLMS001491_00076.txt Node
Date: Wed Feb 08 14:15:36 GMT 2017
User: dcchb
Spectrometer: FLMS00149
Trigger mode: 0
Integration Time (sec): 2.000000E-2
Scans to average: 10
Electric dark correction enabled: true
Nonlinearity correction enabled: false
Boxcar width: 0
XAxis mode: Wavelengths
Number of Pixels in Spectrum: 2048
>>>>>Begin Spectral Data<<<<<
341.393	-2.12
341.776	-2.12
342.16	-2.12
342.543	-53.87
342.927	-60.87
343.31	-66.75
343.693	-82.57
344.077	-45.06
344.46	-48.67
344.843	-48.22
345.226	-50.48
345.61	-43.02
345.993	-40.31
346.376	-17.49
346.759	14.6
347.142	37.2
347.525	40.82
347.908	68.84
348.291	93.02
348.674	95.51
349.057	92.57
349.44	128.95
349.823	154.71
350.206	163.07
350.588	183.87
350.971	224.09
351.354	202.17
351.737	229.29
352.119	247.59
352.502	246.01
352.884	269.96
353.267	293.47
353.65	301.15
354.032	303.18
354.414	307.7
354.797	307.03
355.179	335.73
355.562	330.75
355.944	341.38
356.326	347.7
356.709	292.79
357.091	346.35
357.473	364.65
357.855	371.88
358.238	338.66
358.62	325.56
359.002	355.16
359.384	333.01
359.766	343.86
360.148	345.67
360.53	356.29
360.912	344.09
361.294	321.94
361.676	327.14
362.057	337.31
362.439	319.45
362.821	335.27
363.203	339.12
363.584	335.95
363.966	333.69
364.348	326.91
364.729	336.63
365.111	324.65
365.493	328.27
365.874	342.51
366.256	325.1
366.637	345.89
367.019	307.25
367.4	326.01
367.781	322.62
368.163	333.01
368.544	343.18
368.925	323.97
369.306	344.31
369.688	328.95
370.069	320.81
370.45	336.86
370.831	338.44
371.212	336.86
371.593	316.97
371.974	323.97
372.355	331.21
372.736	330.08
373.117	331.66
373.498	340.47
373.879	330.53
374.26	328.27
374.641	344.09
375.021	360.36
375.402	334.14
375.783	337.31
376.163	349.28
376.544	363.97
376.925	380.24
377.305	342.73
377.686	342.73
378.066	334.37
378.447	363.97
378.827	367.36
379.208	356.74
379.588	350.64
379.968	354.48
380.349	360.36
380.729	370.98
381.109	384.76
381.489	380.24
381.87	360.13
382.25	366.23
382.63	382.28
383.01	375.27
383.39	388.83
383.77	364.43
384.15	384.31
384.53	378.21
384.91	381.6
385.29	380.24
385.67	406.23
386.049	410.98
386.429	407.14
386.809	399.23
387.189	379.57
387.568	415.27
387.948	417.08
388.328	401.71
388.707	394.26
389.087	402.84
389.466	392
389.846	408.72
390.225	451.2
390.605	422.28
390.984	391.32
391.363	450.98
391.743	424.08
392.122	440.13
392.501	443.52
392.881	444.65
393.26	455.72
393.639	447.14
394.018	442.16
394.397	448.49
394.776	440.58
395.155	434.71
395.534	455.5
395.913	453.01
396.292	480.35
396.671	467.02
397.05	476.29
397.429	461.82
397.808	471.32
398.186	479.68
398.565	484.65
398.944	479.22
399.323	490.3
399.701	487.13
400.08	492.33
400.458	500.92
400.837	503.86
401.215	490.75
401.594	476.29
401.972	506.79
402.351	481.26
402.729	510.41
403.107	504.76
403.486	498.89
403.864	515.61
404.242	522.39
404.62	548.38
404.999	548.6
405.377	532.33
405.755	521.26
406.133	503.86
406.511	551.77
406.889	556.28
407.267	559.9
407.645	554.02
408.023	574.36
408.401	591.31
408.779	567.58
409.156	576.4
409.534	593.8
409.912	599.22
410.29	596.06
410.667	582.27
411.045	600.58
411.422	602.84
411.8	610.29
412.178	620.92
412.555	654.59
412.933	630.86
413.31	612.1
413.687	634.25
414.065	668.15
414.442	655.94
414.819	679.9
415.197	658.88
415.574	684.87
415.951	661.82
416.328	691.65
416.705	648.94
417.082	683.06
417.46	703.63
417.837	703.63
418.214	690.29
418.591	731.65
418.967	751.53
419.344	725.09
419.721	715.15
420.098	733.23
420.475	749.05
420.852	731.65
421.228	759.22
421.605	753.79
421.982	758.54
422.358	754.7
422.735	765.77
423.111	768.03
423.488	786.34
423.864	778.43
424.241	808.26
424.617	817.52
424.994	801.7
425.37	816.39
425.746	808.03
426.123	835.37
426.499	828.14
426.875	832.66
427.251	858.88
427.627	851.19
428.003	850.97
428.379	881.7
428.756	881.93
429.132	903.85
429.507	915.6
429.883	894.81
430.259	927.8
430.635	954.69
431.011	940.46
431.387	918.08
431.763	965.99
432.138	985.43
432.514	996.73
432.89	967.35
433.265	1015.93
433.641	991.75
434.016	1037.4
434.392	1021.81
434.767	1041.47
435.143	1056.16
435.518	1054.12
435.894	1067.23
436.269	1069.27
436.644	1114.46
437.02	1105.2
437.395	1091.19
437.77	1095.71
438.145	1135.25
438.52	1144.97
438.895	1147.91
439.271	1156.72
439.646	1166.89
440.021	1192.88
440.395	1162.37
440.77	1178.87
441.145	1183.84
441.52	1210.28
441.895	1203.73
442.27	1224.06
442.645	1212.31
443.019	1215.02
443.394	1220.67
443.769	1212.54
444.143	1241.69
444.518	1302.25
444.892	1271.75
445.267	1264.29
445.641	1290.28
446.016	1325.53
446.39	1307.45
446.764	1308.58
447.139	1336.83
447.513	1315.59
447.887	1334.12
448.262	1349.94
448.636	1330.05
449.01	1385.19
449.384	1378.18
449.758	1393.55
450.132	1417.05
450.506	1387.22
450.88	1416.38
451.254	1439.65
451.628	1406.43
452.002	1455.24
452.376	1452.76
452.75	1454.34
453.123	1449.59
453.497	1504.73
453.871	1495.92
454.244	1539.54
454.618	1553.32
454.992	1577.27
455.365	1561.23
455.739	1578.86
456.112	1592.64
456.486	1617.73
456.859	1666.09
457.232	1677.39
457.606	1693.43
457.979	1650.95
458.352	1698.4
458.725	1729.81
459.099	1742.69
459.472	1760.55
459.845	1757.16
460.218	1807.1
460.591	1805.29
460.964	1841.9
461.337	1863.37
461.71	1864.05
462.083	1922.8
462.456	1908.79
462.829	1933.42
463.201	1968.9
463.574	1963.48
463.947	1998.51
464.32	2039.86
464.692	2030.37
465.065	2069.69
465.438	2079.86
465.81	2112.4
466.183	2155.79
466.555	2183.36
466.928	2164.83
467.3	2178.16
467.672	2237.6
468.045	2264.26
468.417	2255.68
468.789	2283.92
469.161	2291.38
469.534	2330.25
469.906	2381.1
470.278	2420.42
470.65	2433.3
471.022	2474.88
471.394	2497.7
471.766	2566.4
472.138	2532.05
472.51	2652.27
472.882	2644.59
473.253	2693.18
473.625	2718.94
473.997	2759.16
474.369	2801.2
474.74	2863.79
475.112	2902.66
475.484	2922.78
475.855	2924.81
476.227	3026.05
476.598	3084.58
476.97	3082.77
477.341	3153.05
477.713	3160.28
478.084	3203.67
478.455	3288.42
478.827	3343.78
479.198	3427.62
479.569	3412.93
479.94	3517.11
480.311	3543.32
480.682	3603.21
481.053	3670.55
481.424	3716.43
481.795	3741.29
482.166	3837.55
482.537	3890.21
482.908	3953.26
483.279	3966.36
483.65	4056.98
484.021	4117.1
484.391	4149.64
484.762	4200.71
485.133	4256.07
485.503	4321.84
485.874	4393.92
486.244	4469.85
486.615	4520.02
486.985	4571.77
487.356	4664.65
487.726	4691.32
488.097	4817.42
488.467	4802.27
488.837	4910.75
489.207	4887.92
489.578	4985.32
489.948	5018.99
490.318	5137.41
490.688	5136.96
491.058	5222.6
491.428	5309.38
491.798	5305.31
492.168	5359.32
492.538	5478.19
492.908	5502.37
493.278	5568.13
493.648	5592.76
494.017	5674.79
494.387	5629.82
494.757	5744.85
495.126	5804.96
495.496	5833.66
495.866	5882.47
496.235	5905.3
496.605	5992.07
496.974	6051.73
497.344	6120.21
497.713	6136.48
498.082	6189.58
498.452	6239.07
498.821	6248.79
499.19	6280.43
499.559	6376.7
499.928	6408.79
500.298	6451.27
500.667	6524.94
501.036	6508.9
501.405	6534.66
501.774	6634.77
502.143	6642
502.512	6711.15
502.88	6710.7
503.249	6720.42
503.618	6829.34
503.987	6857.59
504.356	6870.02
504.724	6953.86
505.093	6964.25
505.462	6961.09
505.83	7054.19
506.199	7192.72
506.567	7234.75
506.936	7245.83
507.304	7259.61
507.672	7322.66
508.041	7370.34
508.409	7426.84
508.777	7472.04
509.145	7564.01
509.514	7579.83
509.882	7595.42
510.25	7671.13
510.618	7741.63
510.986	7784.34
511.354	7855.08
511.722	7860.95
512.09	7961.51
512.458	7969.65
512.826	8094.17
513.193	8048.29
513.561	8194.05
513.929	8258.46
514.297	8276.76
514.664	8327.38
515.032	8380.03
515.4	8439.24
515.767	8490.99
516.135	8530.76
516.502	8553.59
516.869	8693.02
517.237	8707.48
517.604	8756.75
517.972	8817.99
518.339	8806.69
518.706	8865.9
519.073	8990.19
519.44	9024.54
519.808	9167.36
520.175	9137.53
520.542	9276.06
520.909	9294.81
521.276	9330.07
521.643	9484.86
522.009	9520.12
522.376	9552.21
522.743	9661.36
523.11	9701.58
523.477	9808.92
523.843	9904.51
524.21	10001.01
524.577	10167.11
524.943	10062.25
525.31	10199.65
525.676	10302.02
526.043	10332.3
526.409	10390.6
526.776	10532.07
527.142	10581.11
527.508	10624.49
527.874	10700.88
528.241	10791.27
528.607	10878.27
528.973	10957.59
529.339	10959.85
529.705	11022.68
530.071	11079.85
530.437	11181.54
530.803	11178.38
531.169	11274.2
531.535	11323.23
531.901	11344.02
532.267	11472.16
532.632	11496.11
532.998	11597.58
533.364	11686.84
533.73	11657.01
534.095	11718.48
534.461	11830.11
534.826	11946.04
535.192	11986.94
535.557	12067.39
535.923	12118.92
536.288	12077.56
536.653	12191.69
537.019	12134.51
537.384	12179.71
537.749	12212.48
538.114	12405.01
538.479	12260.84
538.845	12419.48
539.21	12497.44
539.575	12473.71
539.94	12532.92
540.305	12550.77
540.67	12645.46
541.034	12663.76
541.399	12798.45
541.764	12720.71
542.129	12876.86
542.494	12833.25
542.858	12983.98
543.223	13023.98
543.587	13064.66
543.952	13099.68
544.316	13108.27
544.681	13073.24
545.045	13229.4
545.41	13291.09
545.774	13282.96
546.138	13318.89
546.503	13410.64
546.867	13391.88
547.231	13520.92
547.595	13503.51
547.959	13585.77
548.324	13668.03
548.688	13663.51
549.052	13751.42
549.416	13825.77
549.779	13752.77
550.143	13806.11
550.507	13941.02
550.871	13934.46
551.235	13975.59
551.599	14114.57
551.962	14117.28
552.326	14193.44
552.689	14338.3
553.053	14211.74
553.417	14347.56
553.78	14465.3
554.143	14386.66
554.507	14521.57
554.87	14523.15
555.234	14693.09
555.597	14703.71
555.96	14779.87
556.323	14871.39
556.686	14797.04
557.05	14991.61
557.413	14981.44
557.776	15096.47
558.139	15154.55
558.502	15182.11
558.865	15286.07
559.228	15331.26
559.59	15354.31
559.953	15494.65
560.316	15564.03
560.679	15567.64
561.041	15716.79
561.404	15776
561.767	15865.03
562.129	15884.47
562.492	16130.79
562.854	16125.37
563.217	16177.34
563.579	16225.7
563.941	16399.71
564.304	16373.27
564.666	16565.36
565.028	16588.41
565.39	16658.01
565.753	16790.89
566.115	16805.35
566.477	16951.11
566.839	16948.62
567.201	17035.17
567.563	17122.85
567.925	17173.7
568.287	17243.53
568.648	17432.9
569.01	17509.06
569.372	17494.82
569.734	17437.42
570.095	17617.31
570.457	17699.11
570.819	17766
571.18	17857.75
571.542	17976.62
571.903	17982.95
572.265	18083.06
572.626	18168.48
572.987	18303.16
573.349	18207.57
573.71	18260
574.071	18409.15
574.432	18475.81
574.794	18776.14
575.155	18624.96
575.516	18661.35
575.877	18805.07
576.238	18810.04
576.599	18955.58
576.96	18847.56
577.32	18973.2
577.681	19059.53
578.042	19078.74
578.403	19153.99
578.763	19188.79
579.124	19300.42
579.485	19319.41
579.845	19417.03
580.206	19387.43
580.566	19428.56
580.927	19436.24
581.287	19632.39
581.648	19498.61
582.008	19688.44
582.368	19697.02
582.728	19795.33
583.089	19692.5
583.449	19698.38
583.809	19880.75
584.169	20014.76
584.529	19931.37
584.889	20114.41
585.249	19965.72
585.609	19901.54
585.969	20007.98
586.329	19970.24
586.688	20063.34
587.048	20195.09
587.408	20058.37
587.768	20206.62
588.127	20169.78
588.487	20170.68
588.846	20291.36
589.206	20263.11
589.565	20149.67
589.925	20414.07
590.284	20367.06
590.643	20382.66
591.003	20425.37
591.362	20490.45
591.721	20448.42
592.08	20458.81
592.44	20500.62
592.799	20570
593.158	20497
593.517	20551.92
593.876	20668.3
594.235	20662.2
594.593	20694.74
594.952	20669.88
595.311	20826.26
595.67	20820.84
596.029	20954.17
596.387	20925.47
596.746	20968.86
597.104	21030.77
597.463	20876.2
597.822	21059.25
598.18	20988.06
598.538	20971.57
598.897	21187.83
599.255	20977.22
599.613	21329.07
599.972	21195.52
600.33	21311.45
600.688	21139.47
601.046	21280.71
601.404	21417.66
601.762	21334.95
602.12	21439.35
602.478	21495.17
602.836	21445.68
603.194	21439.13
603.552	21442.74
603.91	21455.4
604.268	21582.62
604.625	21508.5
604.983	21616.07
605.341	21532.23
605.698	21747.82
606.056	21654.04
606.413	21793.92
606.771	21675.73
607.128	21881.6
607.485	21708.5
607.843	21760.47
608.2	21814.48
608.557	21933.8
608.914	21981.71
609.272	22007.25
609.629	21993.01
609.986	22241.36
610.343	22114.59
610.7	22282.49
611.057	22136.28
611.414	22035.27
611.771	22223.51
612.127	22252.89
612.484	22230.74
612.841	22328.82
613.198	22188.71
613.554	22293.57
613.911	22527.01
614.267	22392.77
614.624	22441.36
614.98	22470.74
615.337	22592.54
615.693	22564.29
616.05	22517.74
616.406	22624.86
616.762	22601.81
617.118	22645.65
617.475	22567.23
617.831	22760.9
618.187	22699.43
618.543	22755.48
618.899	22804.74
619.255	22925.87
619.611	22825.53
619.967	22940.1
620.323	22953.89
620.678	22862.82
621.034	22804.97
621.39	22881.35
621.746	22882.48
622.101	22935.36
622.457	22908.47
622.812	22887.45
623.168	22989.37
623.523	23002.02
623.879	23057.16
624.234	22920.44
624.589	23047.22
624.945	23000.67
625.3	22933.55
625.655	23057.61
626.01	23039.08
626.365	23038.41
626.72	22989.37
627.075	22898.97
627.43	22977.62
627.785	22940.33
628.14	23016.94
628.495	23028.91
628.85	22840.22
629.205	22913.66
629.559	23098.52
629.914	22972.87
630.269	22952.31
630.623	22915.7
630.978	22875.25
631.332	22886.77
631.687	23014
632.041	22874.34
632.396	22900.78
632.75	22753.44
633.104	22932.42
633.459	22818.07
633.813	22720
634.167	22768.36
634.521	22768.36
634.875	22757.06
635.229	22660.11
635.583	22679.09
635.937	22627.34
636.291	22578.3
636.645	22553.45
636.999	22426.44
637.352	22628.7
637.706	22419.21
638.06	22533.56
638.413	22471.19
638.767	22393.22
639.121	22392.32
639.474	22265.54
639.828	22389.61
640.181	22360.68
640.534	22308.48
640.888	22389.84
641.241	22214.25
641.594	22303.74
641.947	22269.84
642.301	22202.04
642.654	22230.97
643.007	22155.72
643.36	22155.72
643.713	22095.38
644.066	22210.63
644.419	22105.77
644.771	21994.37
645.124	21830.75
645.477	21749.63
645.83	21546.69
646.182	21566.35
646.535	21441.61
646.888	21513.93
647.24	21374.95
647.593	21471.22
647.945	21486.13
648.298	21349.18
648.65	21234.61
649.002	21343.31
649.355	21284.33
649.707	21225.57
650.059	21426.47
650.411	21681.38
650.763	21764.31
651.115	21841.6
651.467	21746.01
651.819	21788.72
652.171	21707.82
652.523	21761.6
652.875	21661.27
653.227	21578.33
653.578	21872.79
653.93	21750.98
654.282	21668.95
654.633	21637.31
654.985	21619.23
655.337	21627.37
655.688	21518.9
656.039	21766.35
656.391	21459.69
656.742	21552.57
657.094	21627.82
657.445	21673.24
657.796	21497.88
658.147	21569.97
658.498	21530.42
658.849	21634.15
659.2	21465.79
659.551	21520.03
659.902	21689.97
660.253	21582.62
660.604	21539.01
660.955	21481.84
661.306	21609.52
661.656	21567.26
662.007	21497.66
662.358	21498.33
662.708	21438
663.059	21550.76
663.409	21385.79
663.76	21395.06
664.11	21444.55
664.461	21510.31
664.811	21464.21
665.161	21483.19
665.511	21449.52
665.862	21456.75
666.212	21505.11
666.562	21503.53
666.912	21469.63
667.262	21428.28
667.612	21459.24
667.962	21433.02
668.312	21294.95
668.662	21562.74
669.011	21457.43
669.361	21423.53
669.711	21453.59
670.06	21283.65
670.41	21358.22
670.76	21367.04
671.109	21450.88
671.459	21384.44
671.808	21416.98
672.157	21409.07
672.507	21181.51
672.856	21268.96
673.205	21290.65
673.554	21310.99
673.904	21244.55
674.253	21339.47
674.602	21252.24
674.951	21010.66
675.3	20894.51
675.649	21259.24
675.998	21204.1
676.346	21201.39
676.695	21335.17
677.044	21089.98
677.393	21249.07
677.741	21254.95
678.09	21075.52
678.438	21072.81
678.787	21096.99
679.135	21172.01
679.484	21067.84
679.832	21051.11
680.181	20953.71
680.529	21033.03
680.877	21040.04
681.225	20964.79
681.573	21004.33
681.922	20882.3
682.27	20961.85
682.618	20840.5
682.966	20826.94
683.314	20811.12
683.661	20742.19
684.009	20759.37
684.357	20654.51
684.705	20721.63
685.053	20662.42
685.4	20652.93
685.748	20575.87
686.095	20541.97
686.443	20511.01
686.79	20488.87
687.138	20450.22
687.485	20525.03
687.832	20328.65
688.18	20378.36
688.527	20230.8
688.874	20135.88
689.221	20242.09
689.568	20206.16
689.915	20139.5
690.262	20071.25
690.609	19995.77
690.956	19999.84
691.303	19967.75
691.65	19867.87
691.997	19871.48
692.344	19744.03
692.69	19717.36
693.037	19737.25
693.383	19623.81
693.73	19644.6
694.077	19611.83
694.423	19590.36
694.769	19464.49
695.116	19380.42
695.462	19425.39
695.808	19291.39
696.155	19383.13
696.501	19278.05
696.847	19309.24
697.193	19086.87
697.539	19105.18
697.885	19073.54
698.231	18990.15
698.577	18959.64
698.923	19017.04
699.269	18864.73
699.614	18696.6
699.96	18747.22
700.306	18772.53
700.651	18668.58
700.997	18705.64
701.342	18651.85
701.688	18526.89
702.033	18486.43
702.379	18577.05
702.724	18469.26
703.069	18597.17
703.415	18207.57
703.76	18282.6
704.105	18306.55
704.45	18221.81
704.795	18132.77
705.14	18098.42
705.485	18020.23
705.83	17977.07
706.175	17935.94
706.52	17963.51
706.865	17848.94
707.209	17855.49
707.554	17845.1
707.899	17828.82
708.243	17746.12
708.588	17647.59
708.932	17574.82
709.277	17674.48
709.621	17634.93
709.966	17513.13
710.31	17533.92
710.654	17378.22
710.998	17474.71
711.342	17450.53
711.687	17464.99
712.031	17290.76
712.375	17338.22
712.719	17401.49
713.063	17299.57
713.407	17290.76
713.75	17149.75
714.094	17104.1
714.438	17076.53
714.782	17109.3
715.125	17050.09
715.469	16990.2
715.812	16940.26
716.156	16922.63
716.499	16928.51
716.843	16978.45
717.186	16810.55
717.53	16959.92
717.873	16970.54
718.216	16853.94
718.559	16865.23
718.902	16601.51
719.246	16696.65
719.589	16682.64
719.932	16524.23
720.275	16599.25
720.617	16663.88
720.96	16600.83
721.303	16679.02
721.646	16580.72
721.989	16501.85
722.331	16542.76
722.674	16521.51
723.016	16511.35
723.359	16433.61
723.701	16521.74
724.044	16408.07
724.386	16334.85
724.729	16327.85
725.071	16295.08
725.413	16235.87
725.755	16255.08
726.097	16272.03
726.439	16198.81
726.782	16136.21
727.124	16233.39
727.465	16105.03
727.807	16192.48
728.149	16125.59
728.491	16174.41
728.833	16147.74
729.175	15997.46
729.516	15987.52
729.858	16043.79
730.199	15982.09
730.541	15982.09
730.882	15980.51
731.224	15989.1
731.565	15838.14
731.906	15940.74
732.248	15951.36
732.589	15887.18
732.93	15827.52
733.271	15827.52
733.612	15883.57
733.953	15916.11
734.294	15790.46
734.635	15801.99
734.976	15834.53
735.317	15771.7
735.658	15722.44
735.999	15731.48
736.339	15735.32
736.68	15741.42
737.021	15680.86
737.361	15611.48
737.702	15685.15
738.042	15748.43
738.383	15565.83
738.723	15625.72
739.063	15596.34
739.404	15585.72
739.744	15624.82
740.084	15545.27
740.424	15580.52
740.764	15479.06
741.104	15517.02
741.444	15490.81
741.784	15440.19
742.124	15466.63
742.464	15509.56
742.804	15426.85
743.143	15281.55
743.483	15386.4
743.823	15307.54
744.162	15318.61
744.502	15387.31
744.841	15221.89
745.181	15344.14
745.52	15317.48
745.86	15314.09
746.199	15227.54
746.538	15263.69
746.877	15231.38
747.216	15305.5
747.556	15215.11
747.895	15311.6
748.234	15192.74
748.573	15227.99
748.911	15159.74
749.25	15214.66
749.589	15116.81
749.928	15051.27
750.267	15201.32
750.605	15026.41
750.944	15054.43
751.283	15012.63
751.621	15053.76
751.96	14880.2
752.298	15011.5
752.636	14959.52
752.975	14878.62
753.313	14821.9
753.651	14877.49
753.989	14788.9
754.327	14756.82
754.666	14673.43
755.004	14719.08
755.342	14607.44
755.679	14726.76
756.017	14580.77
756.355	14696.7
756.693	14610.15
757.031	14533.54
757.368	14428.69
757.706	14453.77
758.044	14428.24
758.381	14459.87
758.719	14415.36
759.056	14299.65
759.394	14339.88
759.731	14275.7
760.068	14300.56
760.405	14194.8
760.743	14113.44
761.08	14186.66
761.417	14108.92
761.754	14028.25
762.091	14091.75
762.428	13997.74
762.765	13886.1
763.102	13945.09
763.438	13880.91
763.775	13778.54
764.112	13736.73
764.449	13773.11
764.785	13752.1
765.122	13639.56
765.458	13612.89
765.795	13527.02
766.131	13614.25
766.467	13576.06
766.804	13447.7
767.14	13393.24
767.476	13393.24
767.812	13339.9
768.148	13352.56
768.485	13208.83
768.821	13193.92
769.157	13074.83
769.492	13146.91
769.828	13094.49
770.164	12984.88
770.5	12916.64
770.836	12961.38
771.171	12814.27
771.507	12843.19
771.842	12713.71
772.178	12732.69
772.513	12692.24
772.849	12737.21
773.184	12632.13
773.519	12567.49
773.855	12556.42
774.19	12536.99
774.525	12442.75
774.86	12503.99
775.195	12443.43
775.53	12391.68
775.865	12254.73
776.2	12224.9
776.535	12103.1
776.87	12104.23
777.205	12089.77
777.539	12052.71
777.874	12100.84
778.209	11952.14
778.543	11878.47
778.878	11830.56
779.212	11847.51
779.547	11789.44
779.881	11778.36
780.215	11675.77
780.55	11686.39
780.884	11600.74
781.218	11544.7
781.552	11559.84
781.886	11490.01
782.22	11465.6
782.554	11310.58
782.888	11235.1
783.222	11221.32
783.556	11232.16
783.889	11268.77
784.223	11108.55
784.557	11089.12
784.89	11153.07
785.224	11071.71
785.557	11002.11
785.891	10910.81
786.224	10951.27
786.558	10962.34
786.891	10797.15
787.224	10773.42
787.557	10695.91
787.891	10720.31
788.224	10673.31
788.557	10658.84
788.89	10662.91
789.223	10656.13
789.556	10557.15
789.888	10509.92
790.221	10486.65
790.554	10457.49
790.887	10439.41
791.219	10439.87
791.552	10292.53
791.884	10324.62
792.217	10210.04
792.549	10253.66
792.882	10150.61
793.214	10080.78
793.546	10099.54
793.879	10027
794.211	10014.12
794.543	10074.68
794.875	9961.69
795.207	9967.34
795.539	9911.07
795.871	9971.86
796.203	9749.94
796.535	9838.53
796.867	9827.23
797.198	9763.27
797.53	9754.91
797.862	9686.44
798.193	9704.74
798.525	9576.61
798.856	9622.04
799.188	9522.6
799.519	9479.89
799.85	9469.72
800.182	9434.02
800.513	9489.61
800.844	9333.68
801.175	9418.42
801.506	9366
801.837	9361.25
802.168	9348.37
802.499	9283.74
802.83	9189.96
803.161	9211.42
803.491	9205.77
803.822	9214.14
804.153	9114.48
804.483	9016.18
804.814	9080.13
805.145	9071.77
805.475	8991.32
805.805	9000.81
806.136	8954.26
806.466	8906.12
806.796	8984.31
807.126	8898.44
807.457	8884.43
807.787	8803.3
808.117	8796.29
808.447	8774.37
808.777	8765.33
809.107	8747.48
809.436	8740.25
809.766	8647.15
810.096	8632.23
810.426	8609.18
810.755	8632
811.085	8675.39
811.414	8602.17
811.744	8552.01
812.073	8557.88
812.403	8509.07
812.732	8443.76
813.061	8420.03
813.39	8428.85
813.719	8369.41
814.049	8427.26
814.378	8373.03
814.707	8318.11
815.036	8349.07
815.365	8215.52
815.693	8230.66
816.022	8227.72
816.351	8226.37
816.68	8247.83
817.008	8205.8
817.337	8140.04
817.665	8120.15
817.994	8175.97
818.322	8100.49
818.651	8054.84
818.979	8084.9
819.307	8109.31
819.636	8013.49
819.964	8018.24
820.292	8019.82
820.62	7963.1
820.948	7980.72
821.276	8032.47
821.604	7963.1
821.932	8003.32
822.259	7963.77
822.587	7968.97
822.915	7940.95
823.243	7942.31
823.57	7919.93
823.898	7920.84
824.225	7869.54
824.553	7909.99
824.88	7921.06
825.207	7946.15
825.535	7865.47
825.862	7908.41
826.189	7852.82
826.516	7917.45
826.843	7922.87
827.17	7904.34
827.497	7850.33
827.824	7934.62
828.151	7844.91
828.478	7934.85
828.805	7951.12
829.131	7878.8
829.458	7861.63
829.785	7811.01
830.111	7831.35
830.438	7921.06
830.764	7924.23
831.09	7861.86
831.417	7846.26
831.743	7868.41
832.069	7788.64
832.395	7851.01
832.722	7875.41
833.048	7849.88
833.374	7813.5
833.7	7830.9
834.026	7819.6
834.351	7778.47
834.677	7788.19
835.003	7778.92
835.329	7775.98
835.654	7778.47
835.98	7692.37
836.306	7773.04
836.631	7728.75
836.956	7727.4
837.282	7680.39
837.607	7731.69
837.932	7645.36
838.258	7725.81
838.583	7650.79
838.908	7649.43
839.233	7652.82
839.558	7575.31
839.883	7546.38
840.208	7609.21
840.533	7628.87
840.858	7589.32
841.182	7540.73
841.507	7538.25
841.832	7491.24
842.156	7500.96
842.481	7460.96
842.805	7486.27
843.13	7479.49
843.454	7390.46
843.778	7441.75
844.103	7367.86
844.427	7367.18
844.751	7384.58
845.075	7310.91
845.399	7307.75
845.723	7299.38
846.047	7354.07
846.371	7230.46
846.695	7195.88
847.019	7132.16
847.343	7043.35
847.666	7095.77
847.99	7017.36
848.313	7070.46
848.637	7038.37
848.96	7012.39
849.284	7017.81
849.607	6957.7
849.931	6966.29
850.254	6864.37
850.577	6878.15
850.9	6847.19
851.223	6839.28
851.546	6782.11
851.869	6760.87
852.192	6819.85
852.515	6765.39
852.838	6670.93
853.161	6677.71
853.483	6627.76
853.806	6592.06
854.129	6606.07
854.451	6604.26
854.774	6616.69
855.096	6553.64
855.419	6517.48
855.741	6541.44
856.063	6470.48
856.385	6470.71
856.708	6435.45
857.03	6404.49
857.352	6463.47
857.674	6413.08
857.996	6350.03
858.318	6385.74
858.64	6311.16
858.961	6317.72
859.283	6335.79
859.605	6251.28
859.926	6281.56
860.248	6247.43
860.57	6268.68
860.891	6260.99
861.212	6240.66
861.534	6163.59
861.855	6190.49
862.176	6122.01
862.498	6165.4
862.819	6171.96
863.14	6179.41
863.461	6137.16
863.782	6083.37
864.103	6097.61
864.424	6125.18
864.745	6144.39
865.065	6096.93
865.386	6099.87
865.707	6036.82
866.027	6078.4
866.348	6002.02
866.668	6007.44
866.989	6033.43
867.309	5997.5
867.63	6042.69
867.95	6006.09
868.27	5972.87
868.59	5957.27
868.91	5965.63
869.23	5955.01
869.55	5978.29
869.87	5974.22
870.19	5909.59
870.51	5932.87
870.83	5922.25
871.15	5826.43
871.469	5874.56
871.789	5944.39
872.109	5918.86
872.428	5849.48
872.748	5854
873.067	5877.95
873.386	5860.1
873.706	5847.67
874.025	5846.54
874.344	5798.41
874.663	5812.42
874.982	5798.63
875.301	5838.41
875.62	5763.15
875.939	5743.04
876.258	5722.25
876.577	5671.18
876.896	5734.68
877.214	5706.88
877.533	5646.77
877.852	5713.44
878.17	5734.23
878.489	5684.51
878.807	5730.61
879.125	5699.65
879.444	5598.41
879.762	5623.95
880.08	5653.55
880.398	5687.45
880.716	5642.48
881.034	5645.42
881.352	5590.73
881.67	5593.21
881.988	5542.59
882.306	5543.27
882.624	5576.49
882.941	5592.76
883.259	5578.3
883.577	5541.01
883.894	5533.33
884.212	5524.06
884.529	5470.28
884.846	5471.18
885.164	5454.24
885.481	5436.16
885.798	5458.98
886.115	5456.04
886.432	5402.71
886.75	5408.81
887.067	5380.79
887.383	5364.52
887.7	5417.85
888.017	5329.27
888.334	5362.26
888.651	5336.95
888.967	5371.07
889.284	5291.3
889.6	5278.19
889.917	5267.35
890.233	5270.74
890.55	5309.15
890.866	5231.42
891.182	5213.11
891.498	5240.91
891.815	5211.98
892.131	5181.7
892.447	5202.94
892.763	5154.81
893.079	5140.8
893.395	5156.62
893.71	5089.72
894.026	5113.91
894.342	5075.04
894.657	5056.73
894.973	5092.89
895.289	5037.75
895.604	5038.65
895.92	4953.91
896.235	5009.73
896.55	5017.41
896.865	4936.73
897.181	4950.75
897.496	4953.91
897.811	4906
898.126	4888.37
898.441	4891.76
898.756	4838.88
899.071	4859
899.386	4848.83
899.7	4824.65
900.015	4812.44
900.33	4773.12
900.644	4793.24
900.959	4800.24
901.273	4775.83
901.588	4752.56
901.902	4762.28
902.216	4714.37
902.531	4681.15
902.845	4659.68
903.159	4674.37
903.473	4672.11
903.787	4621.49
904.101	4548.04
904.415	4620.81
904.729	4541.49
905.042	4559.57
905.356	4583.75
905.67	4531.32
905.984	4522.96
906.297	4531.55
906.611	4505.56
906.924	4518.89
907.237	4505.56
907.551	4499.23
907.864	4456.97
908.177	4439.35
908.491	4450.19
908.804	4365.22
909.117	4417.65
909.43	4327.71
909.743	4356.64
910.056	4303.98
910.368	4353.93
910.681	4287.71
910.994	4209.07
911.307	4282.29
911.619	4285.23
911.932	4252.91
912.244	4229.18
912.557	4249.75
912.869	4219.69
913.181	4192.35
913.494	4219.69
913.806	4127.94
914.118	4181.5
914.43	4131.11
914.742	4108.51
915.054	4114.16
915.366	4049.98
915.678	4071.9
915.99	4049.75
916.302	4026.25
916.613	4045.68
916.925	3995.74
917.236	3989.64
917.548	3937.44
917.859	4008.17
918.171	3949.64
918.482	3921.62
918.794	3918.68
919.105	3907.61
919.416	3861.51
919.727	3896.31
920.038	3855.18
920.349	3820.83
920.66	3844.56
920.971	3809.76
921.282	3801.17
921.593	3769.53
921.903	3755.52
922.214	3753.49
922.525	3735.64
922.835	3748.97
923.146	3695.64
923.456	3678.24
923.767	3657.22
924.077	3680.95
924.387	3666.71
924.697	3659.93
925.008	3626.03
925.318	3600.95
925.628	3590.1
925.938	3595.53
926.248	3534.51
926.558	3583.55
926.867	3525.47
927.177	3542.65
927.487	3510.78
927.796	3456.1
928.106	3462.88
928.416	3468.98
928.725	3481.18
929.034	3457.9
929.344	3464.91
929.653	3452.03
929.962	3410.67
930.271	3392.59
930.581	3368.64
930.89	3348.98
931.199	3359.37
931.508	3360.5
931.817	3357.57
932.125	3362.09
932.434	3328.64
932.743	3294.29
933.051	3277.34
933.36	3295.65
933.669	3267.4
933.977	3247.97
934.286	3231.69
934.594	3202.54
934.902	3190.79
935.21	3195.76
935.519	3202.54
935.827	3180.62
936.135	3156.67
936.443	3159.15
936.751	3095.88
937.059	3097.01
937.367	3084.58
937.674	3080.06
937.982	3076.9
938.29	3115.54
938.597	3079.38
938.905	3031.02
939.213	3035.32
939.52	2983.57
939.827	2981.53
940.135	3031.93
940.442	2997.35
940.749	2976.79
941.056	2971.59
941.363	2957.58
941.67	2940.85
941.977	2949.44
942.284	2918.48
942.591	2945.37
942.898	2898.37
943.205	2911.25
943.511	2852.27
943.818	2857.92
944.125	2862.89
944.431	2822.21
944.738	2872.16
945.044	2854.08
945.35	2813.85
945.657	2817.47
945.963	2830.58
946.269	2772.5
946.575	2785.83
946.881	2770.92
947.187	2761.42
947.493	2729.34
947.799	2723.91
948.105	2710.13
948.41	2709.45
948.716	2733.63
949.022	2656.57
949.327	2675.78
949.633	2652.27
949.938	2622.9
950.244	2655.44
950.549	2653.86
950.854	2631.94
951.16	2623.12
951.465	2629
951.77	2613.18
952.075	2579.73
952.38	2582.67
952.685	2569.11
952.99	2531.83
953.294	2552.39
953.599	2524.37
953.904	2526.85
954.209	2508.55
954.513	2514.43
954.818	2520.53
955.122	2494.09
955.426	2513.3
955.731	2463.58
956.035	2431.49
956.339	2440.3
956.643	2464.03
956.948	2394.2
957.252	2413.41
957.556	2405.95
957.86	2428.33
958.163	2385.62
958.467	2405.73
958.771	2382
959.075	2409.8
959.378	2361.44
959.682	2356.24
959.985	2326.41
960.289	2355.79
960.592	2313.75
960.896	2298.39
961.199	2332.28
961.502	2298.39
961.805	2286.18
962.108	2311.72
962.411	2282.57
962.714	2267.88
963.017	2281.44
963.32	2224.26
963.623	2266.07
963.926	2213.64
964.228	2226.3
964.531	2228.11
964.833	2185.62
965.136	2182.91
965.438	2184.72
965.741	2172.06
966.043	2156.47
966.345	2156.02
966.648	2122.8
966.95	2170.25
967.252	2142.46
967.554	2133.42
967.856	2112.18
968.158	2100.88
968.46	2082.35
968.761	2103.81
969.063	2103.59
969.365	2072.63
969.666	2078.73
969.968	2083.25
970.269	2073.31
970.571	2045.74
970.872	2040.09
971.174	2060.2
971.475	2024.49
971.776	2007.77
972.077	2033.53
972.378	1981.56
972.679	2009.35
972.98	1994.44
973.281	1977.04
973.582	1972.74
973.883	1956.7
974.183	1969.13
974.484	1962.35
974.785	1986.53
975.085	1957.15
975.386	1941.56
975.686	1910.6
975.986	1913.54
976.287	1928
976.587	1911.05
976.887	1885.97
977.187	1866.76
977.487	1910.37
977.787	1868.11
978.087	1872.18
978.387	1861.56
978.687	1841
978.987	1851.84
979.286	1798.74
979.586	1822.69
979.885	1810.72
980.185	1812.52
980.484	1796.48
980.784	1820.43
981.083	1790.83
981.382	1760.55
981.682	1776.14
981.981	1778.63
982.28	1768.68
982.579	1725.52
982.878	1751.96
983.177	1736.14
983.475	1756.48
983.774	1749.02
984.073	1720.1
984.372	1715.58
984.67	1704.5
984.969	1708.12
985.267	1696.37
985.566	1698.18
985.864	1681.9
986.162	1656.37
986.461	1641.23
986.759	1683.94
987.057	1647.1
987.355	1641
987.653	1643.04
987.951	1618.86
988.249	1629.02
988.547	1613.21
988.844	1613.66
989.142	1625.41
989.44	1616.82
989.737	1596.48
990.035	1585.86
990.332	1556.48
990.63	1571.4
990.927	1563.26
991.224	1584.05
991.521	1576.37
991.819	1537.05
992.116	1553.55
992.413	1549.03
992.71	1529.82
993.006	1525.52
993.303	1550.16
993.6	1540.21
993.897	1529.82
994.193	1491.4
994.49	1524.39
994.787	1486.43
995.083	1487.56
995.379	1468.8
995.676	1469.93
995.972	1472.19
996.268	1473.55
996.565	1457.05
996.861	1448.92
997.157	1441.23
997.453	1460.89
997.749	1408.92
998.044	1407.11
998.34	1425.64
998.636	1431.74
998.932	1405.98
999.227	1414.34
999.523	1400.33
999.818	1391.52
1000.114	1366.88
1000.409	1384.29
1000.704	1330.73
1001	1357.39
1001.295	1347.45
1001.59	1330.5
1001.885	1342.93
1002.18	1325.53
1002.475	1342.48
1002.77	1336.83
1003.065	1316.04
1003.359	1300.67
1003.654	1284.85
1003.949	1299.77
1004.243	1294.34
1004.538	1299.32
1004.832	1281.46
1005.127	1273.55
1005.421	1292.08
1005.715	1253.89
1006.009	1276.27
1006.304	1241.69
1006.598	1251.18
1006.892	1238.3
1007.186	1242.82
1007.48	1236.72
1007.773	1236.94
1008.067	1203.95
1008.361	1202.37
1008.655	1215.25
1008.948	1209.83
1009.242	1182.26
1009.535	1185.19
1009.829	1170.96
1010.122	1192.43
1010.415	1170.28
1010.708	1175.7
1011.001	1146.78
1011.295	1144.74
1011.588	1135.93
1011.881	1144.07
1012.173	1148.13
1012.466	1146.78
1012.759	1125.31
1013.052	1137.74
1013.344	1102.49
1013.637	1131.64
1013.93	1104.29
1014.222	1107.91
1014.514	1100.23
1014.807	1103.84
1015.099	1066.33
1015.391	1060.45
1015.683	1075.59
1015.976	1062.49
1016.268	1057.74
1016.56	1059.32
1016.851	1063.62
1017.143	1043.05
1017.435	1041.47
1017.727	1031.3
1018.018	990.85
1018.31	1020.23
1018.602	1005.99
1018.893	995.82
1019.185	1011.87
1019.476	988.59
1019.767	976.84
1020.058	991.75
1020.35	960.57
1020.641	953.79
1020.932	969.38
1021.223	968.25
1021.514	954.69
1021.804	951.08
1022.095	945.88
1022.386	949.49
1022.677	943.39
1022.967	915.37
1023.258	919.21
1023.548	915.6
1023.839	935.48
1024.129	931.87
1024.419	936.84
1024.709	891.42
1025	891.87
1025.29	899.1
1025.58	872.66
1025.87	881.25
1026.16	886.45
1026.449	889.84
1026.739	853.45
1027.029	866.11
1027.319	847.8
1027.608	848.48
1027.898	853.9
1028.187	857.75
1028.477	861.81
1028.766	835.15
1029.055	821.81
1029.344	848.71
1029.634	824.98
1029.923	811.65
1030.212	809.39
1030.501	814.13
1030.79	799.67
1031.078	803.06
1031.367	773.23
1031.656	809.39
1031.945	820.23
1032.233	775.04
1032.522	793.79
1032.81	796.05
1033.099	794.92
1033.387	766.67
1033.675	763.96
1033.963	762.16
1034.251	757.18
1034.54	742.72
1034.828	745.66
1035.116	749.27
1035.403	743.85
1035.691	740.01
1035.979	737.07
1036.267	733
1036.554	724.64
1036.842	750.86
1037.129	733.46
1037.417	710.63
1037.704	702.27
1037.992	725.77
1038.279	716.96
1038.566	710.63
1038.853	710.63
1039.14	710.63
