Data from tablewood_dark_bookshelf_FLMS001491_00047.txt Node
Date: Wed Feb 08 14:14:49 GMT 2017
User: dcchb
Spectrometer: FLMS00149
Trigger mode: 0
Integration Time (sec): 2.000000E-2
Scans to average: 10
Electric dark correction enabled: true
Nonlinearity correction enabled: false
Boxcar width: 0
XAxis mode: Wavelengths
Number of Pixels in Spectrum: 2048
>>>>>Begin Spectral Data<<<<<
341.393	-14.12
341.776	-14.12
342.16	-14.12
342.543	-55.48
342.927	-67
343.31	-62.48
343.693	-65.87
344.077	-58.42
344.46	-78.53
344.843	-51.41
345.226	-35.14
345.61	-33.33
345.993	-31.98
346.376	-10.51
346.759	30.17
347.142	8.02
347.525	34.46
347.908	73.33
348.291	78.53
348.674	99.77
349.057	103.39
349.44	123.27
349.823	157.17
350.206	154.91
350.588	197.85
350.971	200.79
351.354	208.92
351.737	238.52
352.119	248.02
352.502	244.85
352.884	255.93
353.267	266.55
353.65	271.74
354.032	283.72
354.414	291.86
354.797	292.08
355.179	318.75
355.562	320.56
355.944	310.16
356.326	327.34
356.709	345.19
357.091	343.61
357.473	313.33
357.855	318.52
358.238	347.9
358.62	336.15
359.002	339.77
359.384	325.98
359.766	329.14
360.148	327.56
360.53	331.4
360.912	344.96
361.294	341.35
361.676	312.2
362.057	325.53
362.439	325.98
362.821	306.77
363.203	319.88
363.584	316.49
363.966	336.83
364.348	327.56
364.729	317.62
365.111	302.93
365.493	307.22
365.874	316.26
366.256	311.29
366.637	329.14
367.019	293.44
367.4	300.9
367.781	316.49
368.163	335.47
368.544	309.94
368.925	313.1
369.306	319.88
369.688	311.97
370.069	324.62
370.45	306.77
370.831	321.69
371.212	323.04
371.593	316.49
371.974	325.3
372.355	311.07
372.736	314.91
373.117	318.75
373.498	310.84
373.879	288.69
374.26	337.96
374.641	302.03
375.021	323.27
375.402	323.72
375.783	317.17
376.163	336.15
376.544	332.08
376.925	339.77
377.305	313.78
377.686	332.76
378.066	318.3
378.447	303.83
378.827	330.73
379.208	353.55
379.588	331.4
379.968	342.25
380.349	346.54
380.729	337.73
381.109	332.31
381.489	339.54
381.87	330.95
382.25	335.25
382.63	343.15
383.01	347.67
383.39	333.66
383.77	349.93
384.15	351.74
384.53	365.3
384.91	350.84
385.29	355.58
385.67	359.43
386.049	351.74
386.429	344.96
386.809	366.43
387.189	355.81
387.568	365.53
387.948	370.05
388.328	354
388.707	377.5
389.087	356.49
389.466	373.66
389.846	363.95
390.225	366.43
390.605	376.15
390.984	381.8
391.363	384.06
391.743	396.49
392.122	392.19
392.501	384.51
392.881	392.65
393.26	379.09
393.639	398.75
394.018	379.54
394.397	411.63
394.776	383.83
395.155	381.57
395.534	397.16
395.913	396.03
396.292	387.67
396.671	392.65
397.05	411.4
397.429	401.23
397.808	411.85
398.186	387.22
398.565	413.44
398.944	407.79
399.323	418.63
399.701	416.6
400.08	418.86
400.458	412.08
400.837	428.35
401.215	439.88
401.594	432.42
401.972	429.03
402.351	421.12
402.729	424.28
403.107	445.07
403.486	463.83
403.864	442.36
404.242	466.32
404.62	448.01
404.999	448.69
405.377	468.58
405.755	475.81
406.133	462.47
406.511	449.37
406.889	448.24
407.267	453.66
407.645	465.64
408.023	476.71
408.401	457.05
408.779	485.07
409.156	509.25
409.534	507.67
409.912	494.79
410.29	496.82
410.667	500.89
411.045	495.69
411.422	479.2
411.8	484.62
412.178	522.36
412.555	525.07
412.933	512.42
413.31	509.25
413.687	541.79
414.065	539.76
414.442	519.87
414.819	528.91
415.197	547.67
415.574	541.12
415.951	549.93
416.328	559.87
416.705	554.67
417.082	564.84
417.46	548.12
417.837	574.79
418.214	574.56
418.591	582.24
418.967	587.89
419.344	591.06
419.721	583.37
420.098	582.92
420.475	591.06
420.852	590.83
421.228	585.41
421.605	608.23
421.982	610.49
422.358	623.37
422.735	614.79
423.111	640.55
423.488	639.19
423.864	626.76
424.241	644.62
424.617	639.42
424.994	615.01
425.37	636.25
425.746	638.06
426.123	661.34
426.499	650.94
426.875	666.76
427.251	668.34
427.627	695.69
428.003	664.5
428.379	668.34
428.756	703.6
429.132	709.25
429.507	730.49
429.883	727.1
430.259	714.67
430.635	732.98
431.011	749.02
431.387	737.27
431.763	723.94
432.138	751.28
432.514	776.82
432.89	765.74
433.265	773.2
433.641	782.01
434.016	787.66
434.392	805.52
434.767	817.27
435.143	810.94
435.518	838.96
435.894	826.08
436.269	800.32
436.644	833.31
437.02	833.54
437.395	854.1
437.77	864.72
438.145	842.8
438.52	890.71
438.895	886.42
439.271	884.61
439.646	891.61
440.021	892.52
440.395	902.91
440.77	881.9
441.145	913.99
441.52	904.95
441.895	926.64
442.27	953.31
442.645	940.65
443.019	933.2
443.394	952.86
443.769	964.38
444.143	961.44
444.518	973.19
444.892	976.36
445.267	997.6
445.641	997.83
446.016	987.21
446.39	986.75
446.764	1016.36
447.139	998.73
447.513	1010.26
447.887	1044.83
448.262	1014.78
448.636	1054.1
449.01	1041.89
449.384	1045.96
449.758	1058.16
450.132	1041.22
450.506	1080.99
450.88	1080.99
451.254	1059.97
451.628	1100.88
452.002	1114.21
452.376	1114.21
452.75	1120.76
453.123	1129.57
453.497	1167.31
453.871	1158.5
454.244	1133.42
454.618	1175
454.992	1193.53
455.365	1177.03
455.739	1211.61
456.112	1204.83
456.486	1246.18
456.859	1256.35
457.232	1244.83
457.606	1278.05
457.979	1270.36
458.352	1296.35
458.725	1319.85
459.099	1320.3
459.472	1323.92
459.845	1374.31
460.218	1346.97
460.591	1398.72
460.964	1409.12
461.337	1426.29
461.71	1414.31
462.083	1447.31
462.456	1445.95
462.829	1467.42
463.201	1473.52
463.574	1504.71
463.947	1495.44
464.32	1527.98
464.692	1551.94
465.065	1577.25
465.438	1599.62
465.81	1608.66
466.183	1598.04
466.555	1659.5
466.928	1617.7
467.3	1612.73
467.672	1665.83
468.045	1746.96
468.417	1715.1
468.789	1701.31
469.161	1728.66
469.534	1749.22
469.906	1799.84
470.278	1800.29
470.65	1828.77
471.022	1850.46
471.394	1863.79
471.766	1921.64
472.138	1955.54
472.51	1962.55
472.882	2016.78
473.253	2030.12
473.625	2043.9
473.997	2067.86
474.369	2097.46
474.74	2131.58
475.112	2133.16
475.484	2177.23
475.855	2218.59
476.227	2224.01
476.598	2264.01
476.97	2287.96
477.341	2380.16
477.713	2377.45
478.084	2400.73
478.455	2470.1
478.827	2493.83
479.198	2550.33
479.569	2569.99
479.94	2621.96
480.311	2680.27
480.682	2722.3
481.053	2722.75
481.424	2795.75
481.795	2828.29
482.166	2879.36
482.537	2919.13
482.908	2919.58
483.279	2972.24
483.65	3032.8
484.021	3145.79
484.391	3098.11
484.762	3152.35
485.133	3194.61
485.503	3192.8
485.874	3254.49
486.244	3320.7
486.615	3389.63
486.985	3403.87
487.356	3497.2
487.726	3507.59
488.097	3588.72
488.467	3545.78
488.837	3647.25
489.207	3691.54
489.578	3734.7
489.948	3760.92
490.318	3830.52
490.688	3834.36
491.058	3905.32
491.428	3953.91
491.798	3952.1
492.168	4049.27
492.538	4078.2
492.908	4091.76
493.278	4152.55
493.648	4173.56
494.017	4255.59
494.387	4194.58
494.757	4286.55
495.126	4357.96
495.496	4363.39
495.866	4371.3
496.235	4420.11
496.605	4470.05
496.974	4433.22
497.344	4558.64
497.713	4574.23
498.082	4637.28
498.452	4683.83
498.821	4646.77
499.19	4664.85
499.559	4745.98
499.928	4785.98
500.298	4851.06
500.667	4876.14
501.036	4796.6
501.405	4918.85
501.774	4960.66
502.143	4978.51
502.512	4999.98
502.88	5053.31
503.249	5047.66
503.618	5088.79
503.987	5125.85
504.356	5150.71
504.724	5203.82
505.093	5218.28
505.462	5218.51
505.83	5238.39
506.199	5266.42
506.567	5367.43
506.936	5412.85
507.304	5454.21
507.672	5458.05
508.041	5535.56
508.409	5559.51
508.777	5598.38
509.145	5657.82
509.514	5670.25
509.882	5691.94
510.25	5720.64
510.618	5748.66
510.986	5831.15
511.354	5846.96
511.722	5868.43
512.09	5985.94
512.458	5916.57
512.826	6023.01
513.193	6065.49
513.561	6086.51
513.929	6091.7
514.297	6177.58
514.664	6218.71
515.032	6221.64
515.4	6345.26
515.767	6290.57
516.135	6338.48
516.502	6383
516.869	6410.34
517.237	6484.01
517.604	6491.92
517.972	6548.87
518.339	6643.78
518.706	6593.84
519.073	6677.23
519.44	6742.99
519.808	6799.71
520.175	6738.92
520.542	6893.72
520.909	6943.43
521.276	6947.95
521.643	7038.35
522.009	7079.47
522.376	7135.07
522.743	7187.72
523.11	7281.28
523.477	7323.08
523.843	7377.77
524.21	7431.78
524.577	7500.48
524.943	7561.72
525.31	7522.85
525.676	7646.69
526.043	7716.97
526.409	7726.01
526.776	7853.01
527.142	7886.69
527.508	7887.36
527.874	7989.96
528.241	8028.83
528.607	8034.25
528.973	8094.59
529.339	8138.66
529.705	8229.73
530.071	8208.03
530.437	8308.37
530.803	8361.48
531.169	8434.69
531.535	8362.6
531.901	8433.34
532.267	8428.14
532.632	8523.28
532.998	8530.74
533.364	8655.7
533.73	8632.2
534.095	8773.22
534.461	8749.71
534.826	8789.03
535.192	8847.34
535.557	8934.79
535.923	8951.52
536.288	8985.19
536.653	8973.66
537.019	8974.34
537.384	9055.02
537.749	9097.27
538.114	9065.41
538.479	9086.43
538.845	9136.14
539.21	9145.18
539.575	9203.71
539.94	9275.58
540.305	9301.56
540.67	9365.29
541.034	9387.89
541.399	9443.03
541.764	9408.45
542.129	9446.19
542.494	9483.93
542.858	9536.81
543.223	9551.27
543.587	9551.5
543.952	9594.89
544.316	9717.6
544.681	9704.49
545.045	9673.08
545.41	9775.68
545.774	9763.02
546.138	9837.14
546.503	9869.68
546.867	9860.42
547.231	9969.12
547.595	9979.06
547.959	9970.92
548.324	10067.87
548.688	10076.23
549.052	10059.96
549.416	10132.05
549.779	10103.8
550.143	10144.71
550.507	10187.87
550.871	10212.95
551.235	10256.11
551.599	10390.8
551.962	10302.67
552.326	10403.23
552.689	10458.6
553.053	10447.97
553.417	10483.91
553.78	10628.53
554.143	10535.2
554.507	10626.95
554.87	10679.15
555.234	10770.68
555.597	10630.57
555.96	10825.59
556.323	10831.92
556.686	10800.51
557.05	10969.99
557.413	10933.38
557.776	10993.5
558.139	11066.49
558.502	11097.67
558.865	11134.74
559.228	11137.9
559.59	11271.91
559.953	11294.28
560.316	11348.97
560.679	11435.97
561.041	11454.28
561.404	11494.5
561.767	11632.58
562.129	11586.02
562.492	11748.5
562.854	11703.08
563.217	11671.9
563.579	11758.22
563.941	11934.94
564.304	11929.74
564.666	11968.39
565.028	12071.21
565.39	12044.54
565.753	12104.43
566.115	12214.48
566.477	12318.89
566.839	12245.21
567.201	12429.39
567.563	12403.85
567.925	12456.06
568.287	12539.22
568.648	12550.07
569.01	12615.6
569.372	12738.08
569.734	12797.29
570.095	12798.87
570.457	12911.64
570.819	12939.21
571.18	12966.33
571.542	12979.66
571.903	13016.49
572.265	13130.62
572.626	13166.09
572.987	13158.64
573.349	13189.14
573.71	13402.02
574.071	13362.25
574.432	13449.02
574.794	13489.02
575.155	13487.22
575.516	13433.66
575.877	13526.09
576.238	13659.19
576.599	13671.17
576.96	13661.9
577.32	13693.09
577.681	13717.04
578.042	13853.31
578.403	13800.65
578.763	13905.96
579.124	13963.59
579.485	13989.8
579.845	14067.31
580.206	13990.25
580.566	14066.64
580.927	14072.51
581.287	14124.94
581.648	14103.92
582.008	14215.78
582.368	14246.29
582.728	14250.59
583.089	14285.84
583.449	14286.07
583.809	14286.07
584.169	14466.17
584.529	14381.2
584.889	14510.92
585.249	14393.18
585.609	14375.78
585.969	14463.91
586.329	14517.92
586.688	14531.48
587.048	14529.22
587.408	14592.72
587.768	14533.29
588.127	14604.7
588.487	14533.29
588.846	14689.9
589.206	14557.7
589.565	14621.65
589.925	14655.32
590.284	14693.51
590.643	14695.32
591.003	14784.58
591.362	14847.86
591.721	14815.54
592.08	14770.12
592.44	14944.35
592.799	14830.46
593.158	14886.5
593.517	14840.17
593.876	14893.96
594.235	14912.04
594.593	14952.04
594.952	14996.33
595.311	15004.92
595.67	15019.15
596.029	15133.5
596.387	15168.53
596.746	15211.01
597.104	15056.67
597.463	15101.64
597.822	15196.1
598.18	15204.23
598.538	15135.31
598.897	15292.59
599.255	15191.58
599.613	15349.99
599.972	15385.7
600.33	15351.12
600.688	15305.25
601.046	15326.26
601.404	15520.16
601.762	15406.71
602.12	15485.81
602.478	15491.68
602.836	15505.69
603.194	15444.23
603.552	15480.84
603.91	15451.46
604.268	15467.05
604.625	15502.98
604.983	15546.6
605.341	15492.81
605.698	15589.53
606.056	15648.97
606.413	15674.28
606.771	15698.68
607.128	15715.18
607.485	15682.64
607.843	15648.74
608.2	15712.02
608.557	15875.18
608.914	15730.32
609.272	15808.74
609.629	15988.39
609.986	15990.43
610.343	15888.73
610.7	16078.11
611.057	16030.65
611.414	16014.38
611.771	16003.53
612.127	16140.71
612.484	16042.86
612.841	16102.29
613.198	16107.49
613.554	16109.07
613.911	16182.74
614.267	16190.42
614.624	16244.66
614.98	16190.42
615.337	16261.83
615.693	16272.68
616.05	16267.03
616.406	16413.92
616.762	16221.16
617.118	16371.89
617.475	16284.43
617.831	16377.54
618.187	16368.72
618.543	16385.67
618.899	16442.84
619.255	16436.52
619.611	16504.76
619.967	16513.58
620.323	16507.93
620.678	16410.08
621.034	16473.35
621.39	16462.05
621.746	16477.65
622.101	16623.4
622.457	16480.36
622.812	16491.2
623.168	16566.68
623.523	16559.9
623.879	16595.83
624.234	16515.84
624.589	16501.15
624.945	16600.58
625.3	16620.69
625.655	16535.95
626.01	16564.88
626.365	16607.81
626.72	16528.49
627.075	16482.62
627.43	16548.38
627.785	16519.9
628.14	16579.34
628.495	16551.99
628.85	16542.28
629.205	16461.6
629.559	16525.78
629.914	16471.77
630.269	16500.47
630.623	16527.81
630.978	16401.94
631.332	16554.93
631.687	16514.03
632.041	16370.76
632.396	16501.6
632.75	16449.4
633.104	16491.66
633.459	16263.87
633.813	16469.51
634.167	16402.39
634.521	16417.31
634.875	16356.97
635.229	16388.83
635.583	16266.58
635.937	16287.37
636.291	16208.73
636.645	16314.26
636.999	16224.77
637.352	16251.21
637.706	16098.45
638.06	16297.31
638.413	16264.09
638.767	16179.12
639.121	16210.76
639.474	16028.62
639.828	16099.8
640.181	16123.3
640.534	16146.81
640.888	16039.92
641.241	15994.49
641.594	15986.59
641.947	16077.43
642.301	15915.63
642.654	16116.07
643.007	16043.76
643.36	16039.47
643.713	16067.71
644.066	16102.29
644.419	15995.17
644.771	15848.28
645.124	15798.79
645.477	15639.93
645.83	15593.38
646.182	15513.83
646.535	15440.16
646.888	15473.15
647.24	15304.8
647.593	15326.26
647.945	15261.63
648.298	15310.44
648.65	15338.01
649.002	15231.58
649.355	15397.22
649.707	15392.02
650.059	15488.97
650.411	15711.34
650.763	15646.71
651.115	15818.23
651.467	15794.73
651.819	15740.26
652.171	15681.28
652.523	15662.53
652.875	15683.77
653.227	15615.75
653.578	15697.55
653.93	15691.9
654.282	15575.52
654.633	15550.66
654.985	15603.32
655.337	15528.52
655.688	15647.84
656.039	15629.53
656.391	15456.66
656.742	15534.17
657.094	15538.91
657.445	15634.5
657.796	15523.77
658.147	15595.41
658.498	15541.4
658.849	15621.85
659.2	15496.65
659.551	15542.08
659.902	15556.09
660.253	15578.46
660.604	15533.04
660.955	15526.71
661.306	15570.78
661.656	15576.88
662.007	15464.34
662.358	15500.04
662.708	15608.52
663.059	15477.9
663.409	15443.1
663.76	15561.96
664.11	15467.5
664.461	15521.51
664.811	15497.56
665.161	15503.43
665.511	15447.16
665.862	15544.34
666.212	15512.7
666.562	15524.9
666.912	15455.98
667.262	15388.63
667.612	15505.24
667.962	15424.57
668.312	15486.94
668.662	15496.88
669.011	15429.09
669.361	15494.17
669.711	15533.49
670.06	15437.45
670.41	15468.41
670.76	15483.32
671.109	15428.18
671.459	15410.1
671.808	15373.95
672.157	15467.73
672.507	15291.91
672.856	15342.53
673.205	15465.92
673.554	15417.56
673.904	15402.65
674.253	15434.96
674.602	15426.15
674.951	15198.36
675.3	15135.08
675.649	15312.25
675.998	15344.79
676.346	15347.51
676.695	15335.53
677.044	15153.84
677.393	15244.68
677.741	15250.79
678.09	15303.89
678.438	15184.57
678.787	15231.35
679.135	15211.69
679.484	15143.9
679.832	15225.93
680.181	15091.69
680.529	15222.31
680.877	15057.12
681.225	15218.92
681.573	15244.23
681.922	15042.88
682.27	15090.11
682.618	15093.73
682.966	14993.17
683.314	15010.11
683.661	15054.86
684.009	14873.62
684.357	14775.32
684.705	14899.61
685.053	14858.48
685.4	14862.55
685.748	14767.41
686.095	14833.4
686.443	14742.55
686.79	14651.25
687.138	14776.45
687.485	14688.31
687.832	14618.94
688.18	14594.98
688.527	14558.83
688.874	14541.65
689.221	14548.88
689.568	14497.36
689.915	14590.69
690.262	14484.48
690.609	14520.18
690.956	14393.18
691.303	14421.65
691.65	14338.72
691.997	14312.05
692.344	14258.27
692.69	14232.96
693.037	14282.9
693.383	14125.39
693.73	14147.99
694.077	13973.08
694.423	14083.13
694.769	14062.34
695.116	14018.05
695.462	13925.62
695.808	13987.99
696.155	13977.6
696.501	13860.77
696.847	13890.14
697.193	13790.71
697.539	13827.55
697.885	13779.64
698.231	13582.58
698.577	13619.87
698.923	13651.05
699.269	13539.64
699.614	13428.46
699.96	13513.88
700.306	13520.44
700.651	13441.57
700.997	13430.04
701.342	13375.35
701.688	13426.2
702.033	13341.68
702.379	13393.66
702.724	13250.84
703.069	13240.89
703.415	13146.43
703.76	13072.31
704.105	13100.79
704.45	13136.04
704.795	12969.26
705.14	13017.62
705.485	12935.82
705.83	12927.68
706.175	12940.34
706.52	12840.91
706.865	12809.95
707.209	12815.6
707.554	12727.46
707.899	12855.37
708.243	12699.21
708.588	12787.12
708.932	12626.45
709.277	12580.8
709.621	12724.3
709.966	12619.44
710.31	12661.25
710.654	12523.4
710.998	12637.29
711.342	12417.19
711.687	12519.33
712.031	12460.12
712.375	12391.43
712.719	12400.01
713.063	12428.03
713.407	12435.72
713.75	12312.33
714.094	12359.79
714.438	12299.9
714.782	12312.33
715.125	12315.04
715.469	12264.65
715.812	12139.91
716.156	12116.63
716.499	12097.87
716.843	12190.3
717.186	12086.35
717.53	12168.38
717.873	12193.01
718.216	12129.06
718.559	11987.59
718.902	11948.05
719.246	12004.54
719.589	11952.12
719.932	11929.97
720.275	11960.25
720.617	11963.87
720.96	11969.29
721.303	11941.27
721.646	11874.83
721.989	11885
722.331	11926.81
722.674	11846.81
723.016	11886.58
723.359	11895.85
723.701	11878.9
724.044	11815.62
724.386	11759.8
724.729	11797.09
725.071	11730.2
725.413	11824.21
725.755	11809.07
726.097	11649.75
726.439	11568.85
726.782	11628.28
727.124	11678.45
727.465	11636.19
727.807	11586.02
728.149	11587.83
728.491	11523.65
728.833	11644.33
729.175	11503.31
729.516	11567.72
729.858	11604.1
730.199	11575.63
730.541	11581.28
730.882	11523.43
731.224	11558
731.565	11420.15
731.906	11535.85
732.248	11544.44
732.589	11558
732.93	11393.26
733.271	11459.7
733.612	11529.53
733.953	11506.48
734.294	11465.35
734.635	11490.43
734.976	11434.16
735.317	11456.99
735.658	11521.17
735.999	11414.28
736.339	11412.47
736.68	11421.06
737.021	11367.5
737.361	11330.66
737.702	11458.57
738.042	11391.23
738.383	11449.76
738.723	11300.83
739.063	11313.26
739.404	11405.01
739.744	11344.67
740.084	11371.34
740.424	11334.5
740.764	11311
741.104	11410.21
741.444	11353.03
741.784	11248.63
742.124	11310.1
742.464	11231.23
742.804	11227.39
743.143	11244.34
743.483	11250.21
743.823	11241.4
744.162	11197.11
744.502	11258.57
744.841	11209.54
745.181	11228.52
745.52	11171.8
745.86	11177.67
746.199	11137.67
746.538	11210.67
746.877	11236.65
747.216	11180.16
747.556	11155.98
747.895	11191.46
748.234	11104.91
748.573	11130.89
748.911	11181.97
749.25	11108.75
749.589	11118.01
749.928	11046.15
750.267	11131.35
750.605	11140.16
750.944	11112.82
751.283	10969.54
751.621	11065.13
751.96	11006.38
752.298	11047.96
752.636	10981.07
752.975	10912.14
753.313	10935.42
753.651	11027.85
753.989	10932.48
754.327	10873.05
754.666	10896.78
755.004	10829.88
755.342	10919.83
755.679	10926.83
756.017	10841.41
756.355	10824.91
756.693	10815.2
757.031	10776.33
757.368	10717.12
757.706	10787.85
758.044	10656.78
758.381	10710.79
758.719	10684.35
759.056	10654.97
759.394	10636.22
759.731	10470.35
760.068	10545.15
760.405	10510.12
760.743	10490.01
761.08	10523.23
761.417	10447.97
761.754	10372.95
762.091	10446.17
762.428	10391.93
762.765	10348.77
763.102	10350.58
763.438	10351.48
763.775	10243.23
764.112	10304.25
764.449	10308.32
764.785	10206.85
765.122	10184.25
765.458	10105.61
765.795	10141.54
766.131	10125.27
766.467	10069.23
766.804	9934.99
767.14	9932.06
767.476	9948.1
767.812	9915.56
768.148	9955.11
768.485	9857.93
768.821	9849.8
769.157	9847.31
769.492	9803.25
769.828	9785.84
770.164	9648.67
770.5	9608.9
770.836	9645.06
771.171	9581.33
771.507	9568.22
771.842	9504.95
772.178	9523.93
772.513	9563.7
772.849	9480.99
773.184	9499.98
773.519	9392.86
773.855	9374.78
774.19	9309.47
774.525	9283.48
774.86	9291.39
775.195	9277.38
775.53	9230.83
775.865	9201.23
776.2	9081.91
776.535	9024.06
776.87	9090.72
777.205	9059.76
777.539	8976.6
777.874	9026.99
778.209	8930.95
778.543	8921.23
778.878	8890.95
779.212	8844.4
779.547	8838.07
779.881	8886.43
780.215	8786.55
780.55	8793.33
780.884	8682.6
781.218	8677.17
781.552	8641.24
781.886	8533.9
782.22	8578.87
782.554	8528.93
782.888	8467.69
783.222	8445.09
783.556	8428.37
783.889	8393.56
784.223	8259.33
784.557	8303.4
784.89	8316.5
785.224	8178.66
785.557	8211.2
785.891	8164.87
786.224	8203.51
786.558	8163.51
786.891	8085.1
787.224	7985.67
787.557	8067.47
787.891	8074.7
788.224	7979.34
788.557	7954.48
788.89	7934.82
789.223	7931.88
789.556	7862.51
789.888	7889.62
790.221	7848.95
790.554	7808.95
790.887	7768.04
791.219	7730.76
791.552	7660.25
791.884	7680.36
792.217	7645.56
792.549	7601.27
792.882	7623.64
793.214	7587.71
793.546	7572.12
793.879	7454.83
794.211	7490.09
794.543	7521.05
794.875	7490.09
795.207	7487.15
795.539	7464.1
795.871	7377.77
796.203	7326.93
796.535	7263.88
796.867	7343.65
797.198	7296.42
797.53	7225.69
797.862	7216.65
798.193	7238.11
798.525	7176.42
798.856	7179.36
799.188	7157.21
799.519	7060.27
799.85	7034.05
800.182	7058.91
800.513	7040.15
800.844	6985.24
801.175	7029.08
801.506	7021.62
801.837	6962.87
802.168	6960.16
802.499	6908.41
802.83	6894.62
803.161	6930.55
803.491	6857.79
803.822	6871.57
804.153	6833.38
804.483	6752.03
804.814	6761.52
805.145	6765.36
805.475	6769.88
805.805	6685.36
806.136	6749.77
806.466	6728.3
806.796	6707.06
807.126	6626.83
807.457	6658.02
807.787	6606.94
808.117	6597.23
808.447	6580.05
808.777	6563.33
809.107	6539.6
809.436	6515.65
809.766	6505.7
810.096	6498.25
810.426	6462.77
810.755	6475.65
811.085	6439.94
811.414	6441.75
811.744	6364.92
812.073	6331.7
812.403	6338.03
812.732	6333.51
813.061	6394.97
813.39	6260.29
813.719	6260.97
814.049	6261.87
814.378	6269.55
814.707	6246.73
815.036	6256.67
815.365	6185.26
815.693	6182.1
816.022	6190.68
816.351	6083.12
816.68	6114.75
817.008	6154.08
817.337	6104.36
817.665	6080.63
817.994	6064.13
818.322	6058.03
818.651	6042.44
818.979	6026.85
819.307	6070.91
819.636	5992.27
819.964	6019.84
820.292	5992.5
820.62	5985.72
820.948	5944.82
821.276	6000.41
821.604	5943.46
821.932	5938.04
822.259	5949.34
822.587	5975.55
822.915	5966.28
823.243	5968.54
823.57	5906.17
823.898	5936.91
824.225	5888.09
824.553	5912.5
824.88	5966.51
825.207	5920.18
825.535	5935.32
825.862	5964.25
826.189	5917.25
826.516	5924.93
826.843	5969.45
827.17	5936.23
827.497	5937.58
827.824	5966.96
828.151	5955.89
828.478	5879.73
828.805	5927.64
829.131	5916.12
829.458	5895.33
829.785	5965.38
830.111	5905.95
830.438	5969.22
830.764	5931.71
831.09	5896.68
831.417	5867.76
831.743	5891.26
832.069	5891.48
832.395	5874.08
832.722	5909.11
833.048	5883.57
833.374	5850.81
833.7	5826.63
834.026	5854.87
834.351	5888.09
834.677	5814.88
835.003	5843.58
835.329	5849
835.654	5797.25
835.98	5804.48
836.306	5802.22
836.631	5830.92
836.956	5807.42
837.282	5852.61
837.607	5794.76
837.932	5781.66
838.258	5824.59
838.583	5796.57
838.908	5756.8
839.233	5773.07
839.558	5725.84
839.883	5729.68
840.208	5644.71
840.533	5691.26
840.858	5724.71
841.182	5637.03
841.507	5651.94
841.832	5682.45
842.156	5603.36
842.481	5615.78
842.805	5651.72
843.13	5556.13
843.454	5577.82
843.778	5553.87
844.103	5550.7
844.427	5546.18
844.751	5552.28
845.075	5477.26
845.399	5511.15
845.723	5522.45
846.047	5474.55
846.371	5437.94
846.695	5456.24
847.019	5336.7
847.343	5358.84
847.666	5363.59
847.99	5339.41
848.313	5307.77
848.637	5333.98
848.96	5279.52
849.284	5329.69
849.607	5166.3
849.931	5214.21
850.254	5163.37
850.577	5178.06
850.9	5100.09
851.223	5143.25
851.546	5117.04
851.869	5079.3
852.192	5109.58
852.515	5052.18
852.838	5028.91
853.161	5019.42
853.483	5021.68
853.806	5006.08
854.129	4995.01
854.451	5016.25
854.774	4932.64
855.096	4905.97
855.419	4934.45
855.741	4903.94
856.063	4881.79
856.385	4882.24
856.708	4846.77
857.03	4869.59
857.352	4874.79
857.674	4888.8
857.996	4825.75
858.318	4835.24
858.64	4757.73
858.961	4788.91
859.283	4731.74
859.605	4734
859.926	4762.93
860.248	4731.74
860.57	4737.16
860.891	4751.63
861.212	4706.66
861.534	4694.9
861.855	4670.27
862.176	4679.99
862.498	4679.09
862.819	4653.1
863.14	4667.56
863.461	4625.53
863.782	4627.79
864.103	4632.53
864.424	4611.07
864.745	4586.89
865.065	4580.56
865.386	4589.82
865.707	4543.04
866.027	4610.16
866.348	4564.29
866.668	4531.52
866.989	4550.05
867.309	4527.68
867.63	4524.51
867.95	4553.44
868.27	4483.16
868.59	4480.9
868.91	4522.71
869.23	4521.35
869.55	4492.88
869.87	4556.6
870.19	4538.75
870.51	4463.72
870.83	4450.39
871.15	4457.4
871.469	4449.49
871.789	4544.17
872.109	4473.89
872.428	4433.22
872.748	4428.25
873.067	4445.65
873.386	4463.72
873.706	4418.53
874.025	4405.19
874.344	4397.06
874.663	4403.61
874.982	4380.56
875.301	4417.62
875.62	4372.43
875.939	4426.89
876.258	4353.9
876.577	4309.15
876.896	4339.66
877.214	4335.82
877.533	4357.51
877.852	4367.68
878.17	4316.61
878.489	4331.75
878.807	4365.2
879.125	4350.73
879.444	4307.12
879.762	4325.87
880.08	4284.29
880.398	4269.83
880.716	4275.25
881.034	4278.42
881.352	4258.98
881.67	4245.2
881.988	4239.55
882.306	4249.94
882.624	4234.35
882.941	4207.46
883.259	4226.67
883.577	4199.55
883.894	4204.52
884.212	4200.91
884.529	4178.31
884.846	4193.68
885.164	4185.77
885.481	4119.55
885.798	4137.41
886.115	4151.42
886.432	4131.98
886.75	4112.32
887.067	4087.46
887.383	4101.25
887.7	4118.2
888.017	4108.25
888.334	4074.81
888.651	4075.94
888.967	4036.84
889.284	4065.32
889.6	4035.94
889.917	3993.91
890.233	4027.13
890.55	4009.27
890.866	3995.04
891.182	3980.35
891.498	3991.19
891.815	3955.49
892.131	3946.68
892.447	3949.61
892.763	3929.05
893.079	3953.23
893.395	3917.3
893.71	3887.47
894.026	3915.94
894.342	3897.19
894.657	3910.29
894.973	3870.07
895.289	3878.43
895.604	3838.66
895.92	3829.84
896.235	3824.42
896.55	3808.37
896.865	3817.19
897.181	3796.17
897.496	3821.26
897.811	3780.35
898.126	3763.63
898.441	3721.82
898.756	3750.97
899.071	3731.54
899.386	3741.26
899.7	3667.81
900.015	3701.71
900.33	3707.59
900.644	3647.7
900.959	3657.42
901.273	3667.36
901.588	3647.47
901.902	3657.87
902.216	3589.17
902.531	3594.14
902.845	3593.46
903.159	3579.68
903.473	3537.87
903.787	3555.5
904.101	3536.29
904.415	3592.33
904.729	3544.88
905.042	3521.15
905.356	3476.86
905.67	3480.02
905.984	3522.05
906.297	3475.5
906.611	3436.18
906.924	3462.39
907.237	3465.78
907.551	3425.11
907.864	3394.6
908.177	3398.22
908.491	3393.92
908.804	3361.15
909.117	3401.83
909.43	3331.32
909.743	3350.08
910.056	3329.97
910.368	3325.22
910.681	3338.1
910.994	3318.22
911.307	3274.6
911.619	3289.52
911.932	3275.06
912.244	3252.91
912.557	3256.98
912.869	3235.96
913.181	3215.62
913.494	3229.63
913.806	3231.44
914.118	3204.55
914.43	3181.05
914.742	3165.91
915.054	3155.28
915.366	3146.47
915.678	3130.65
915.99	3122.06
916.302	3101.5
916.613	3073.93
916.925	3089.52
917.236	3064.89
917.548	3041.84
917.859	3047.04
918.171	3026.25
918.482	3058.11
918.794	3030.09
919.105	3022.63
919.416	3005.46
919.727	3005.23
920.038	2974.05
920.349	2988.51
920.66	2966.14
920.971	2961.39
921.282	2949.64
921.593	2950.77
921.903	2913.26
922.214	2910.32
922.525	2903.31
922.835	2892.69
923.146	2881.85
923.456	2871.9
923.767	2872.13
924.077	2875.74
924.387	2830.55
924.697	2837.78
925.008	2810.89
925.318	2806.59
925.628	2805.91
925.938	2770.89
926.248	2768.85
926.558	2770.44
926.867	2756.65
927.177	2748.06
927.487	2746.26
927.796	2717.56
928.106	2719.82
928.416	2725.69
928.725	2698.35
929.034	2707.61
929.344	2694.96
929.653	2678.91
929.962	2678.23
930.271	2669.42
930.581	2591.68
930.89	2620.16
931.199	2645.47
931.508	2611.8
931.817	2627.84
932.125	2576.09
932.434	2587.62
932.743	2595.3
933.051	2573.15
933.36	2587.62
933.669	2557.33
933.977	2515.08
934.286	2529.76
934.594	2518.46
934.902	2520.27
935.21	2511.23
935.519	2456.55
935.827	2478.47
936.135	2440.95
936.443	2481.63
936.751	2454.51
937.059	2440.27
937.367	2408.86
937.674	2438.92
937.982	2421.52
938.29	2396.43
938.597	2386.26
938.905	2383.78
939.213	2339.94
939.52	2390.33
939.827	2393.72
940.135	2391.69
940.442	2337.9
940.749	2326.83
941.056	2369.09
941.363	2289.54
941.67	2328.64
941.977	2312.14
942.284	2293.61
942.591	2269.88
942.898	2256.32
943.205	2270.34
943.511	2281.41
943.818	2254.07
944.125	2222.65
944.431	2221.07
944.738	2253.16
945.044	2234.18
945.35	2199.83
945.657	2204.35
945.963	2177.46
946.269	2182.43
946.575	2186.95
946.881	2167.74
947.187	2200.96
947.493	2188.76
947.799	2180.62
948.105	2139.49
948.41	2134.07
948.716	2152.6
949.022	2125.48
949.327	2098.36
949.633	2096.78
949.938	2093.62
950.244	2073.28
950.549	2071.7
950.854	2091.81
951.16	2089.1
951.465	2060.4
951.77	2060.62
952.075	2048.65
952.38	2068.99
952.685	2025.37
952.99	2045.26
953.294	2041.19
953.599	2008.65
953.904	1993.96
954.209	1982.66
954.513	1992.38
954.818	1991.7
955.122	1967.29
955.426	1975.43
955.731	1965.94
956.035	1979.5
956.339	1963.9
956.643	1949.89
956.948	1959.84
957.252	1966.16
957.556	1941.08
957.86	1906.28
958.163	1916.67
958.467	1944.24
958.771	1925.03
959.075	1902.66
959.378	1870.12
959.682	1872.15
959.985	1860.86
960.289	1828.54
960.592	1882.1
960.896	1849.1
961.199	1827.18
961.502	1857.92
961.805	1824.92
962.108	1824.25
962.411	1828.09
962.714	1784.25
963.017	1768.2
963.32	1787.64
963.623	1790.8
963.926	1782.44
964.228	1794.87
964.531	1777.69
964.833	1779.05
965.136	1738.15
965.438	1743.34
965.741	1747.19
966.043	1740.86
966.345	1745.83
966.648	1713.06
966.95	1742.21
967.252	1706.96
967.554	1732.72
967.856	1733.63
968.158	1707.64
968.46	1696.34
968.761	1699.05
969.063	1687.07
969.365	1658.6
969.666	1673.97
969.968	1643.46
970.269	1649.34
970.571	1664.7
970.872	1641.88
971.174	1642.78
971.475	1625.38
971.776	1657.47
972.077	1627.41
972.378	1629.45
972.679	1611.14
972.98	1623.57
973.281	1582.9
973.582	1611.14
973.883	1593.97
974.183	1593.74
974.484	1541.09
974.785	1572.5
975.085	1570.24
975.386	1529.56
975.686	1581.99
975.986	1549
976.287	1541.77
976.587	1524.59
976.887	1529.11
977.187	1528.21
977.487	1530.47
977.787	1525.04
978.087	1529.34
978.387	1513.29
978.687	1536.57
978.987	1509.9
979.286	1498.83
979.586	1497.47
979.885	1482.33
980.185	1475.1
980.484	1514.2
980.784	1500.41
981.083	1466.06
981.382	1456.35
981.682	1435.78
981.981	1420.19
982.28	1414.54
982.579	1426.74
982.878	1433.52
983.177	1433.97
983.475	1416.8
983.774	1399.17
984.073	1414.99
984.372	1396.46
984.67	1436.91
984.969	1369.79
985.267	1390.36
985.566	1386.07
985.864	1365.73
986.162	1395.78
986.461	1385.16
986.759	1342
987.057	1334.09
987.355	1320.98
987.653	1353.98
987.951	1360.3
988.249	1313.75
988.547	1350.13
988.844	1344.26
989.142	1328.21
989.44	1290.02
989.737	1281.66
990.035	1295.22
990.332	1287.54
990.63	1280.31
990.927	1261.32
991.224	1291.83
991.521	1285.73
991.819	1288.21
992.116	1285.05
992.413	1258.61
992.71	1273.53
993.006	1284.82
993.303	1252.96
993.6	1236.69
993.897	1235.56
994.193	1244.83
994.49	1261.32
994.787	1248.67
995.083	1254.77
995.379	1232.62
995.676	1239.63
995.972	1217.48
996.268	1209.12
996.565	1173.64
996.861	1204.6
997.157	1175
997.453	1196.24
997.749	1205.05
998.044	1153.75
998.34	1162.12
998.636	1178.16
998.932	1165.05
999.227	1150.82
999.523	1170.25
999.818	1173.87
1000.114	1122.8
1000.409	1134.32
1000.704	1123.47
1001	1135
1001.295	1118.95
1001.59	1124.38
1001.885	1124.6
1002.18	1091.38
1002.475	1114.66
1002.77	1113.98
1003.065	1104.04
1003.359	1099.75
1003.654	1095.23
1003.949	1076.47
1004.243	1069.69
1004.538	1071.05
1004.832	1080.76
1005.127	1083.47
1005.421	1061.55
1005.715	1077.37
1006.009	1032.4
1006.304	1049.12
1006.598	1060.2
1006.892	1024.72
1007.186	1037.37
1007.48	1010.48
1007.773	1024.94
1008.067	1009.58
1008.361	1027.2
1008.655	989.69
1008.948	988.56
1009.242	1000.76
1009.535	1009.13
1009.829	996.02
1010.122	978.62
1010.415	967.55
1010.708	968.68
1011.001	990.37
1011.295	975.91
1011.588	982.23
1011.881	941.33
1012.173	963.25
1012.466	944.04
1012.759	935.23
1013.052	929.13
1013.344	971.16
1013.637	946.3
1013.93	912.41
1014.222	934.33
1014.514	920.31
1014.807	942.24
1015.099	929.58
1015.391	939.3
1015.683	911.73
1015.976	898.39
1016.268	900.43
1016.56	872.18
1016.851	867.21
1017.143	879.19
1017.435	883.03
1017.727	881.45
1018.018	859.53
1018.31	858.85
1018.602	849.58
1018.893	849.36
1019.185	867.89
1019.476	837.61
1019.767	849.13
1020.058	841.22
1020.35	838.74
1020.641	827.21
1020.932	835.35
1021.223	840.99
1021.514	828.11
1021.804	816.14
1022.095	800.54
1022.386	817.94
1022.677	807.55
1022.967	830.37
1023.258	801.67
1023.548	770.94
1023.839	797.61
1024.129	801
1024.419	782.01
1024.709	777.04
1025	780.66
1025.29	789.24
1025.58	754.67
1025.87	754.44
1026.16	736.82
1026.449	765.97
1026.739	741.34
1027.029	741.79
1027.319	741.11
1027.608	738.85
1027.898	755.57
1028.187	744.05
1028.477	742.24
1028.766	732.75
1029.055	694.56
1029.344	723.03
1029.634	709.47
1029.923	705.41
1030.212	711.51
1030.501	701.11
1030.79	699.3
1031.078	704.28
1031.367	690.04
1031.656	692.3
1031.945	675.8
1032.233	674.22
1032.522	668.8
1032.81	668.8
1033.099	685.97
1033.387	673.32
1033.675	691.85
1033.963	680.32
1034.251	664.95
1034.54	669.47
1034.828	641.45
1035.116	663.15
1035.403	622.92
1035.691	654.11
1035.979	665.41
1036.267	635.8
1036.554	656.82
1036.842	624.28
1037.129	660.43
1037.417	615.92
1037.704	625.18
1037.992	643.71
1038.279	630.38
1038.566	592.87
1038.853	592.87
1039.14	592.87
