Data from tablewood_brown_FLMS001491_023.txt Node
Date: Tue Feb 07 11:10:14 GMT 2017
User: dcchb
Spectrometer: FLMS00149
Trigger mode: 0
Integration Time (sec): 2.000000E-2
Scans to average: 10
Electric dark correction enabled: true
Nonlinearity correction enabled: false
Boxcar width: 0
XAxis mode: Wavelengths
Number of Pixels in Spectrum: 2048
>>>>>Begin Spectral Data<<<<<
341.393	-3.01
341.776	-3.01
342.16	-3.01
342.543	-65.15
342.927	-68.77
343.31	-90.24
343.693	-68.77
344.077	-59.28
344.46	-79.84
344.843	-42.56
345.226	-28.32
345.61	-14.76
345.993	-10.24
346.376	-1.2
346.759	18.01
347.142	21.17
347.525	39.7
347.908	44.22
348.291	74.5
348.674	91.45
349.057	106.14
349.44	126.71
349.823	139.81
350.206	174.84
350.588	194.95
350.971	209.19
351.354	245.8
351.737	229.98
352.119	265.01
352.502	260.94
352.884	267.72
353.267	285.35
353.65	288.28
354.032	320.6
354.414	295.06
354.797	316.98
355.179	323.08
355.562	331.22
355.944	340.26
356.326	332.8
356.709	343.2
357.091	350.65
357.473	344.55
357.855	344.78
358.238	355.85
358.62	338.23
359.002	341.84
359.384	341.62
359.766	341.39
360.148	344.78
360.53	348.85
360.912	355.63
361.294	349.75
361.676	342.29
362.057	331.22
362.439	337.77
362.821	321.73
363.203	335.29
363.584	331.22
363.966	345.01
364.348	333.93
364.729	331.22
365.111	335.74
365.493	341.84
365.874	340.49
366.256	314.95
366.637	307.27
367.019	315.63
367.4	311.79
367.781	314.5
368.163	340.94
368.544	325.34
368.925	321.95
369.306	319.02
369.688	297.1
370.069	325.8
370.45	300.26
370.831	312.24
371.212	323.08
371.593	324.21
371.974	306.36
372.355	319.92
372.736	346.81
373.117	335.97
373.498	331.22
373.879	326.7
374.26	347.94
374.641	327.38
375.021	315.4
375.402	324.67
375.783	352.69
376.163	339.58
376.544	349.07
376.925	338.23
377.305	330.32
377.686	325.34
378.066	334.38
378.447	337.55
378.827	351.11
379.208	329.41
379.588	354.04
379.968	330.09
380.349	356.3
380.729	346.81
381.109	348.17
381.489	356.98
381.87	356.3
382.25	370.54
382.63	372.8
383.01	359.69
383.39	367.6
383.77	357.43
384.15	348.62
384.53	360.6
384.91	368.06
385.29	363.54
385.67	373.25
386.049	392.24
386.429	384.1
386.809	388.85
387.189	378.45
387.568	381.61
387.948	388.17
388.328	396.76
388.707	381.84
389.087	407.38
389.466	400.14
389.846	424.78
390.225	396.08
390.605	388.62
390.984	427.71
391.363	400.37
391.743	417.55
392.122	411.9
392.501	415.74
392.881	434.72
393.26	417.55
393.639	403.76
394.018	433.59
394.397	416.64
394.776	449.64
395.155	435.17
395.534	413.93
395.913	447.38
396.292	458.22
396.671	463.19
397.05	482.63
397.429	440.14
397.808	450.99
398.186	448.96
398.565	448.96
398.944	459.13
399.323	458.67
399.701	458.22
400.08	486.92
400.458	471.56
400.837	461.61
401.215	475.62
401.594	485.34
401.972	458.22
402.351	472.23
402.729	491.89
403.107	520.14
403.486	516.53
403.864	499.13
404.242	499.58
404.62	512.68
404.999	506.81
405.377	500.03
405.755	516.3
406.133	552.01
406.511	535.06
406.889	529.18
407.267	533.47
407.645	541.84
408.023	551.78
408.401	539.58
408.779	545.45
409.156	569.86
409.534	544.77
409.912	556.75
410.29	564.43
410.667	589.74
411.045	584.32
411.422	598.56
411.8	587.26
412.178	587.71
412.555	601.04
412.933	606.47
413.31	602.63
413.687	607.6
414.065	625.68
414.442	616.18
414.819	634.04
415.197	633.13
415.574	626.13
415.951	632.91
416.328	652.79
416.705	648.5
417.082	655.96
417.46	648.27
417.837	656.18
418.214	668.16
418.591	672.23
418.967	656.64
419.344	674.49
419.721	662.06
420.098	656.18
420.475	717.65
420.852	696.41
421.228	711.32
421.605	713.81
421.982	720.36
422.358	727.59
422.735	738.22
423.111	738.44
423.488	735.73
423.864	735.05
424.241	746.58
424.617	766.91
424.994	790.87
425.37	754.49
425.746	763.53
426.123	769.85
426.499	799.68
426.875	797.42
427.251	802.85
427.627	815.5
428.003	809.4
428.379	838.55
428.756	830.64
429.132	848.04
429.507	830.42
429.883	838.33
430.259	870.19
430.635	871.54
431.011	899.57
431.387	883.75
431.763	902.73
432.138	901.83
432.514	919.91
432.89	897.76
433.265	956.29
433.641	953.58
434.016	954.93
434.392	959.45
434.767	988.15
435.143	997.19
435.518	993.58
435.894	1012.11
436.269	1040.35
436.644	1034.25
437.02	1038.55
437.395	1016.4
437.77	1051.43
438.145	1062.27
438.52	1069.05
438.895	1066.79
439.271	1074.7
439.646	1079.9
440.021	1097.98
440.395	1122.39
440.77	1110.63
441.145	1107.92
441.52	1162.38
441.895	1148.37
442.27	1163.74
442.645	1151.31
443.019	1169.16
443.394	1165.1
443.769	1158.32
444.143	1197.86
444.518	1180.01
444.892	1201.03
445.267	1205.32
445.641	1245.77
446.016	1219.11
446.39	1232.44
446.764	1247.35
447.139	1254.81
447.513	1266.34
447.887	1282.83
448.262	1285.09
448.636	1257.75
449.01	1283.29
449.384	1280.12
449.758	1287.13
450.132	1307.01
450.506	1316.05
450.88	1341.82
451.254	1307.24
451.628	1352.44
452.002	1372.55
452.376	1380.23
452.75	1401.7
453.123	1385.2
453.497	1386.56
453.871	1410.97
454.244	1448.25
454.618	1454.58
454.992	1505.88
455.365	1439.67
455.739	1484.86
456.112	1499.1
456.486	1543.17
456.859	1498.87
457.232	1580.23
457.606	1538.19
457.979	1569.38
458.352	1594.46
458.725	1633.78
459.099	1635.82
459.472	1678.98
459.845	1676.27
460.218	1696.38
460.591	1705.2
460.964	1741.58
461.337	1759.66
461.71	1767.79
462.083	1801.92
462.456	1819.99
462.829	1843.04
463.201	1856.83
463.574	1851.41
463.947	1877.17
464.32	1925.08
464.692	1952.19
465.065	1947.22
465.438	1981.35
465.81	2021.35
466.183	2033.55
466.555	2080.33
466.928	2066.32
467.3	2122.13
467.672	2135.24
468.045	2166.88
468.417	2212.53
468.789	2239.64
469.161	2231.74
469.534	2292.52
469.906	2342.01
470.278	2369.58
470.65	2397.61
471.022	2445.51
471.394	2479.41
471.766	2509.24
472.138	2558.51
472.51	2627.43
472.882	2649.58
473.253	2659.52
473.625	2746.52
473.997	2804.15
474.369	2840.31
474.74	2893.19
475.112	2912.4
475.484	2997.59
475.855	3050.7
476.227	3073.75
476.598	3161.65
476.97	3173.86
477.341	3298.83
477.713	3344.7
478.084	3385.6
478.455	3457.24
478.827	3509.89
479.198	3638.48
479.569	3674.64
479.94	3727.06
480.311	3742.43
480.682	3876.89
481.053	3964.12
481.424	4026.04
481.795	4083.44
482.166	4160.95
482.537	4200.72
482.908	4312.13
483.279	4382.64
483.65	4474.16
484.021	4551.22
484.391	4621.5
484.762	4701.5
485.133	4749.18
485.503	4843.87
485.874	4945.11
486.244	4940.82
486.615	5075.05
486.985	5132.45
487.356	5218.32
487.726	5303.52
488.097	5404.08
488.467	5450.41
488.837	5546.9
489.207	5600.23
489.578	5696.5
489.948	5798.42
490.318	5814.92
490.688	5862.83
491.058	5959.77
491.428	6076.15
491.798	6111.63
492.168	6257.62
492.538	6278.63
492.908	6334
493.278	6373.77
493.648	6462.81
494.017	6522.02
494.387	6600.66
494.757	6657.83
495.126	6718.4
495.496	6747.55
495.866	6833.65
496.235	6881.78
496.605	6921.33
496.974	7008.11
497.344	7057.14
497.713	7111.61
498.082	7208.78
498.452	7247.42
498.821	7298.95
499.19	7313.86
499.559	7398.83
499.928	7444.71
500.298	7477.47
500.667	7634.76
501.036	7591.37
501.405	7744.13
501.774	7659.84
502.143	7762.21
502.512	7799.27
502.88	7888.99
503.249	7948.65
503.618	8063.67
503.987	8080.85
504.356	8157.46
504.724	8137.57
505.093	8182.54
505.462	8270.67
505.83	8328.52
506.199	8450.1
506.567	8536.43
506.936	8527.61
507.304	8640.61
507.672	8618.69
508.041	8738.68
508.409	8799.47
508.777	8919.69
509.145	8881.96
509.514	8930.09
509.882	9057.32
510.25	9098.67
510.618	9194.04
510.986	9215.28
511.354	9263.87
511.722	9396.52
512.09	9438.78
512.458	9459.79
512.826	9585.21
513.193	9716.06
513.561	9747.02
513.929	9769.62
514.297	9962.38
514.664	10037.86
515.032	10026.78
515.4	10098.65
515.767	10217.29
516.135	10240.34
516.502	10166.44
516.869	10475.36
517.237	10456.83
517.604	10485.3
517.972	10607.11
518.339	10723.72
518.706	10828.35
519.073	10806.88
519.44	10910.38
519.808	11023.14
520.175	11013.43
520.542	11204.15
520.909	11309.01
521.276	11293.64
521.643	11497.93
522.009	11525.73
522.376	11634.65
522.743	11717.14
523.11	11829.9
523.477	12025.83
523.843	12004.36
524.21	12203.9
524.577	12258.82
524.943	12313.5
525.31	12450.45
525.676	12465.14
526.043	12648.18
526.409	12667.62
526.776	12845.02
527.142	12876.2
527.508	12939.48
527.874	13142.86
528.241	13176.76
528.607	13190.32
528.973	13319.35
529.339	13348.05
529.705	13448.39
530.071	13580.14
530.437	13679.12
530.803	13747.14
531.169	13955.49
531.535	13880.24
531.901	13854.03
532.267	14098.54
532.632	14138.77
532.998	14202.27
533.364	14296.95
533.73	14276.16
534.095	14428.02
534.461	14489.49
534.826	14531.07
535.192	14572.2
535.557	14691.52
535.923	14707.57
536.288	14835.92
536.653	14847.22
537.019	14884.96
537.384	14895.58
537.749	15036.6
538.114	14929.93
538.479	15060.78
538.845	15153.2
539.21	15201.79
539.575	15305.06
539.94	15266.87
540.305	15341.45
540.67	15324.5
541.034	15455.34
541.399	15533.76
541.764	15620.54
542.129	15736.46
542.494	15724.94
542.858	15746.63
543.223	15813.07
543.587	15860.98
543.952	15885.16
544.316	15957.02
544.681	15953.86
545.045	16017.14
545.41	16227.53
545.774	16173.74
546.138	16252.61
546.503	16373.28
546.867	16314.3
547.231	16574.41
547.595	16479.04
547.959	16613.73
548.324	16628.87
548.688	16638.36
549.052	16768.53
549.416	16829.32
549.779	16848.53
550.143	16967.84
550.507	17069.99
550.871	17161.29
551.235	17161.51
551.599	17283.32
551.962	17302.98
552.326	17349.53
552.689	17483.76
553.053	17557.66
553.417	17618.45
553.78	17835.39
554.143	17898.89
554.507	18105.67
554.87	18137.98
555.234	18321.03
555.597	18231.54
555.96	18389.95
556.323	18556.73
556.686	18551.31
557.05	18731.64
557.413	18874.91
557.776	18940.22
558.139	19161.69
558.502	19192.19
558.865	19308.12
559.228	19541.11
559.59	19480.77
559.953	19566.87
560.316	19906.52
560.679	19921.21
561.041	20182.9
561.404	20203.92
561.767	20332.28
562.129	20394.65
562.492	20692.04
562.854	20662.44
563.217	20900.85
563.579	20995.99
563.941	21221.97
564.304	21331.8
564.666	21595.75
565.028	21586.03
565.39	21769.98
565.753	22071.67
566.115	22110.08
566.477	22129.29
566.839	22372.45
567.201	22490.64
567.563	22618.09
567.925	22777.64
568.287	22802.49
568.648	23102.6
569.01	23261.92
569.372	23444.51
569.734	23487.22
570.095	23738.97
570.457	23876.59
570.819	24027.32
571.18	24131.05
571.542	24367.65
571.903	24429.8
572.265	24675.44
572.626	24749.34
572.987	24790.24
573.349	24994.53
573.71	25218.48
574.071	25314.52
574.432	25422.31
574.794	25746.15
575.155	25733.72
575.516	25761.96
575.877	26063.42
576.238	26206.02
576.599	26347.94
576.96	26386.13
577.32	26630.64
577.681	26744.31
578.042	26860.24
578.403	26914.7
578.763	26933.68
579.124	27198.31
579.485	27304.97
579.845	27376.84
580.206	27488.92
580.566	27450.06
580.927	27705.87
581.287	27667.68
581.648	27823.15
582.008	27977.72
582.368	27985.63
582.728	28123.03
583.089	28115.8
583.449	28188.11
583.809	28258.4
584.169	28405.74
584.529	28242.8
584.889	28614.09
585.249	28391.95
585.609	28354.66
585.969	28572.06
586.329	28570.93
586.688	28679.18
587.048	28553.53
587.408	28767.53
587.768	28813.64
588.127	28779.96
588.487	28852.73
588.846	28932.73
589.206	28841.66
589.565	28924.37
589.925	29192.38
590.284	28976.79
590.643	29120.97
591.003	29195.55
591.362	29185.83
591.721	29204.59
592.08	29312.15
592.44	29384.24
592.799	29485.93
593.158	29320.29
593.517	29285.04
593.876	29438.93
594.235	29359.84
594.593	29279.84
594.952	29532.94
595.311	29335.88
595.67	29317.12
596.029	29598.93
596.387	29862.2
596.746	29783.55
597.104	29759.6
597.463	29692.26
597.822	29691.8
598.18	29588.98
598.538	29651.81
598.897	29786.04
599.255	29526.38
599.613	30047.73
599.972	29870.1
600.33	29991.68
600.688	29802.54
601.046	29859.26
601.404	29993.72
601.762	29974.06
602.12	30142.87
602.478	30090.44
602.836	30068.07
603.194	30085.24
603.552	30146.93
603.91	29957.33
604.268	30121.62
604.625	30066.26
604.983	30205.24
605.341	30010.21
605.698	30354.61
606.056	30390.09
606.413	30249.08
606.771	30355.29
607.128	30474.61
607.485	30269.64
607.843	30289.53
608.2	30477.77
608.557	30489.52
608.914	30470.31
609.272	30518.9
609.629	30667.15
609.986	30804.54
610.343	30600.03
610.7	30819.23
611.057	30844.77
611.414	30837.31
611.771	30841.83
612.127	30920.25
612.484	30825.79
612.841	30866.91
613.198	30937.42
613.554	30928.16
613.911	31099.45
614.267	31162.95
614.624	31004.31
614.98	31121.14
615.337	31175.61
615.693	31182.84
616.05	31114.37
616.406	31349.16
616.762	31220.13
617.118	31252.67
617.475	31338.54
617.831	31399.33
618.187	31347.35
618.543	31403.85
618.899	31604.3
619.255	31513.45
619.611	31367.01
619.967	31654.46
620.323	31712.09
620.678	31594.58
621.034	31443.85
621.39	31468.03
621.746	31452.21
622.101	31830.73
622.457	31576.05
622.812	31706.89
623.168	31867.79
623.523	31724.52
623.879	31770.17
624.234	31568.14
624.589	31738.76
624.945	31708.25
625.3	31731.98
625.655	31722.49
626.01	31644.3
626.365	31725.65
626.72	31683.16
627.075	31631.19
627.43	31576.5
627.785	31637.29
628.14	31812.43
628.495	31678.64
628.85	31717.29
629.205	31561.36
629.559	31714.58
629.914	31449.72
630.269	31544.64
630.623	31374.92
630.978	31395.04
631.332	31574.24
631.687	31551.87
632.041	31424.41
632.396	31490.17
632.75	31294.7
633.104	31477.07
633.459	31322.72
633.813	31247.02
634.167	31236.85
634.521	31267.13
634.875	31247.7
635.229	31177.19
635.583	31078.89
635.937	31178.54
636.291	31117.53
636.645	31085.89
636.999	30949.17
637.352	30883.19
637.706	30729.74
638.06	31004.54
638.413	30897.65
638.767	30736.97
639.121	30795.96
639.474	30705.11
639.828	30779.46
640.181	30633.02
640.534	30737.43
640.888	30828.95
641.241	30549.18
641.594	30670.31
641.947	30763.41
642.301	30531.78
642.654	30668.95
643.007	30547.6
643.36	30471.44
643.713	30358.68
644.066	30541.73
644.419	30409.07
644.771	30107.61
645.124	29914.17
645.477	29922.08
645.83	29805.7
646.182	29458.36
646.535	29493.17
646.888	29618.59
647.24	29455.65
647.593	29379.72
647.945	29400.74
648.298	29361.42
648.65	29328.42
649.002	29227.18
649.355	29403.9
649.707	29261.76
650.059	29547.18
650.411	29814.51
650.763	29962.98
651.115	30169.98
651.467	29924.11
651.819	30002.98
652.171	29998.01
652.523	29847.73
652.875	29983.32
653.227	29868.07
653.578	30124.56
653.93	29893.38
654.282	29912.14
654.633	29878.24
654.985	29902.65
655.337	29849.31
655.688	29903.1
656.039	30022.19
656.391	29822.42
656.742	29809.99
657.094	29735.42
657.445	29909.65
657.796	29816.77
658.147	29730.22
658.498	29743.33
658.849	29905.81
659.2	29765.47
659.551	29726.61
659.902	29842.31
660.253	29669.43
660.604	29807.06
660.955	29669.66
661.306	29690.9
661.656	29736.77
662.007	29660.17
662.358	29687.06
662.708	29746.94
663.059	29697.45
663.409	29572.71
663.76	29775.42
664.11	29630.79
664.461	29658.13
664.811	29725.7
665.161	29780.62
665.511	29681.18
665.862	29610.45
666.212	29694.29
666.562	29823.55
666.912	29733.61
667.262	29697
667.612	29624.91
667.962	29679.15
668.312	29571.36
668.662	29679.37
669.011	29481.64
669.361	29517.8
669.711	29459.72
670.06	29352.83
670.41	29435.54
670.76	29489.78
671.109	29549.21
671.459	29383.79
671.808	29389.44
672.157	29447.06
672.507	29324.58
672.856	29287.29
673.205	29414.07
673.554	29405.03
673.904	29274.87
674.253	29402.32
674.602	29257.01
674.951	28799.4
675.3	28669.91
675.649	29094.31
675.998	29031.71
676.346	29068.09
676.695	29148.77
677.044	28893.63
677.393	28987.87
677.741	29090.46
678.09	28993.29
678.438	28929.79
678.787	28952.39
679.135	29010.69
679.484	28809.34
679.832	28921.88
680.181	28760.53
680.529	28760.98
680.877	28720.76
681.225	28643.02
681.573	28786.52
681.922	28613.19
682.27	28546.52
682.618	28502.46
682.966	28428.11
683.314	28461.33
683.661	28389.01
684.009	28254.78
684.357	28142.92
684.705	28171.84
685.053	28189.92
685.4	28129.13
685.748	28003.26
686.095	28020.89
686.443	27833.32
686.79	27777.28
687.138	27828.8
687.485	27779.54
687.832	27613.21
688.18	27711.07
688.527	27518.08
688.874	27547
689.221	27394.01
689.568	27311.98
689.915	27229.95
690.262	27260.23
690.609	27168.48
690.956	27064.98
691.303	27035.38
691.65	26926.23
691.997	26912.22
692.344	26672.22
692.69	26659.57
693.037	26757.64
693.383	26419.8
693.73	26604.65
694.077	26371.67
694.423	26406.24
694.769	26246.7
695.116	26221.39
695.462	26138.68
695.808	26084.22
696.155	26051.22
696.501	25861.4
696.847	25837.44
697.193	25575.98
697.539	25775.52
697.885	25536.66
698.231	25444.68
698.577	25522.65
698.923	25366.04
699.269	25305.7
699.614	25260.06
699.96	25155.43
700.306	25165.6
700.651	24957.24
700.997	24920.86
701.342	24758.6
701.688	24810.8
702.033	24638.15
702.379	24763.35
702.724	24552.5
703.069	24564.93
703.415	24248.78
703.76	24335.11
704.105	24321.1
704.45	24224.15
704.795	23988.45
705.14	23914.55
705.485	23996.13
705.83	23827.55
706.175	23840.66
706.52	23788.68
706.865	23663.49
707.209	23618.97
707.554	23602.25
707.899	23657.84
708.243	23468.01
708.588	23374
708.932	23209.71
709.277	23276.83
709.621	23272.09
709.966	23144.18
710.31	23193.9
710.654	22966.33
710.998	23115.71
711.342	22966.33
711.687	22957.07
712.031	22840.01
712.375	22800.91
712.719	22781.7
713.063	22769.05
713.407	22869.16
713.75	22694.02
714.094	22651.31
714.438	22530.64
714.782	22524.08
715.125	22419.23
715.469	22531.31
715.812	22475.04
716.156	22301.49
716.499	22244.32
716.843	22394.59
717.186	22071.21
717.53	22309.17
717.873	22254.71
718.216	22183.75
718.559	22092.68
718.902	22087.48
719.246	22016.53
719.589	21955.28
719.932	21929.52
720.275	21902.4
720.617	21921.39
720.96	21820.15
721.303	21913.25
721.646	21885.46
721.989	21790.77
722.331	21778.11
722.674	21826.25
723.016	21693.82
723.359	21712.8
723.701	21713.71
724.044	21714.84
724.386	21602.75
724.729	21651.79
725.071	21510.32
725.413	21494.51
725.755	21502.41
726.097	21485.24
726.439	21384.45
726.782	21451.79
727.124	21524.56
727.465	21465.13
727.807	21405.92
728.149	21397.56
728.491	21343.77
728.833	21396.2
729.175	21426.71
729.516	21326.15
729.858	21218.13
730.199	21338.35
730.541	21265.36
730.882	21275.3
731.224	21276.43
731.565	21101.75
731.906	21128.41
732.248	21195.08
732.589	21104.46
732.93	21094.52
733.271	21073.27
733.612	21132.93
733.953	21207.06
734.294	21115.08
734.635	21017
734.976	21128.87
735.317	21063.78
735.658	20992.15
735.999	21094.52
736.339	21088.19
736.68	21113.95
737.021	21044.12
737.361	20932.03
737.702	21100.84
738.042	21031.24
738.383	21066.49
738.723	21036.89
739.063	21058.13
739.404	21006.16
739.744	20986.72
740.084	20888.65
740.424	20973.16
740.764	20902.88
741.104	21052.71
741.444	20892.71
741.784	20864.01
742.124	20890.68
742.464	20853.84
742.804	20897.91
743.143	20919.38
743.483	20916.67
743.823	20815.88
744.162	20770
744.502	20908.31
744.841	20790.34
745.181	20785.15
745.52	20867.63
745.86	20791.25
746.199	20748.76
746.538	20810.23
746.877	20885.26
747.216	20795.09
747.556	20739.05
747.895	20832.6
748.234	20667.86
748.573	20699.72
748.911	20667.18
749.25	20663.11
749.589	20555.32
749.928	20677.13
750.267	20769.33
750.605	20548.99
750.944	20697.01
751.283	20588.31
751.621	20607.75
751.96	20441.43
752.298	20484.81
752.636	20516
752.975	20458.83
753.313	20448.43
753.651	20498.37
753.989	20472.39
754.327	20357.59
754.666	20291.37
755.004	20339.73
755.342	20295.89
755.679	20309
756.017	20244.59
756.355	20154.2
756.693	20178.38
757.031	20140.42
757.368	20086.41
757.706	20093.64
758.044	20025.39
758.381	20007.76
758.719	19976.81
759.056	19989.23
759.394	19859.75
759.731	19691.84
760.068	19735.23
760.405	19631.5
760.743	19598.51
761.08	19664.27
761.417	19570.71
761.754	19516.03
762.091	19539.98
762.428	19438.06
762.765	19275.35
763.102	19369.14
763.438	19214.34
763.775	19184.51
764.112	19158.97
764.449	19324.62
764.785	19144.51
765.122	18970.28
765.458	18908.81
765.795	19083.04
766.131	18863.61
766.467	18789.72
766.804	18647.12
767.14	18597.86
767.476	18646.9
767.812	18602.15
768.148	18619.55
768.485	18462.95
768.821	18365.55
769.157	18334.81
769.492	18296.17
769.828	18244.87
770.164	18038.78
770.5	18083.3
770.836	18129.85
771.171	18068.38
771.507	17902.06
771.842	17871.78
772.178	17837.65
772.513	17763.08
772.849	17796.3
773.184	17631.78
773.519	17625
773.855	17582.29
774.19	17449.87
774.525	17394.95
774.86	17385.01
775.195	17373.48
775.53	17201.96
775.865	17146.37
776.2	17072.47
776.535	16953.38
776.87	16998.58
777.205	17064.57
777.539	16814.18
777.874	16825.93
778.209	16588.87
778.543	16614.63
778.878	16534.41
779.212	16575.09
779.547	16479.04
779.881	16470.91
780.215	16373.51
780.55	16413.51
780.884	16210.12
781.218	16262.1
781.552	16227.75
781.886	16025.95
782.22	16098.49
782.554	15997.93
782.888	15809.91
783.222	15827.99
783.556	15768.33
783.889	15691.95
784.223	15667.09
784.557	15566.53
784.89	15563.59
785.224	15515.68
785.557	15374.44
785.891	15390.71
786.224	15341.22
786.558	15348.68
786.891	15202.47
787.224	15209.02
787.557	15131.06
787.891	15146.88
788.224	15094.45
788.557	15054
788.89	15013.55
789.223	15005.18
789.556	14800.22
789.888	14821.23
790.221	14823.27
790.554	14593.44
790.887	14644.74
791.219	14537.17
791.552	14518.19
791.884	14442.04
792.217	14500.11
792.549	14359.1
792.882	14197.75
793.214	14315.49
793.546	14234.81
793.879	14182.83
794.211	14048.83
794.543	14168.6
794.875	14097.64
795.207	14084.76
795.539	13988.26
795.871	13927.7
796.203	13859.68
796.535	13799.79
796.867	13800.7
797.198	13755.5
797.53	13702.62
797.862	13671.43
798.193	13722.05
798.525	13607.03
798.856	13642.96
799.188	13329.75
799.519	13374.27
799.85	13277.09
800.182	13246.13
800.513	13272.8
800.844	13174.5
801.175	13343.99
801.506	13227.38
801.837	13129.08
802.168	13129.98
802.499	13079.81
802.83	13037.1
803.161	13027.16
803.491	13014.95
803.822	12984.67
804.153	12873.04
804.483	12740.84
804.814	12763.21
805.145	12744.68
805.475	12697.22
805.805	12802.3
806.136	12689.09
806.466	12679.14
806.796	12618.13
807.126	12530.67
807.457	12586.04
807.787	12555.53
808.117	12477.57
808.447	12418.59
808.777	12409.55
809.107	12322.77
809.436	12319.61
809.766	12283.9
810.096	12235.09
810.426	12267.63
810.755	12219.27
811.085	12199.16
811.414	12154.41
811.744	12073.28
812.073	11979.05
812.403	12062.66
812.732	11822.9
813.061	11967.07
813.39	11936.11
813.719	11899.05
814.049	11899.73
814.378	11824.25
814.707	11809.11
815.036	11901.09
815.365	11744.25
815.693	11658.38
816.022	11669.45
816.351	11643.47
816.68	11603.01
817.008	11581.77
817.337	11461.1
817.665	11467.42
817.994	11519.4
818.322	11414.77
818.651	11409.35
818.979	11382.91
819.307	11380.2
819.636	11324.6
819.964	11320.99
820.292	11318.05
820.62	11309.24
820.948	11318.95
821.276	11348.56
821.604	11238.96
821.932	11372.51
822.259	11296.58
822.587	11303.81
822.915	11290.93
823.243	11244.38
823.57	11203.93
823.898	11226.75
824.225	11104.04
824.553	11154.89
824.88	11234.21
825.207	11208.45
825.535	11192.86
825.862	11266.98
826.189	11174.1
826.516	11291.84
826.843	11317.6
827.17	11276.24
827.497	11265.17
827.824	11151.5
828.151	11249.35
828.478	11239.41
828.805	11258.84
829.131	11182.91
829.458	11168.22
829.785	11179.3
830.111	11141.78
830.438	11201.89
830.764	11198.96
831.09	11191.27
831.417	11138.17
831.743	11186.08
832.069	11206.41
832.395	11132.07
832.722	11217.04
833.048	11122.8
833.374	11118.96
833.7	11078.28
834.026	11112.63
834.351	11173.19
834.677	11143.37
835.003	11137.72
835.329	11063.14
835.654	11025.4
835.98	11024.72
836.306	11038.96
836.631	11011.62
836.956	11076.02
837.282	11056.14
837.607	10941.56
837.932	10980.88
838.258	10856.59
838.583	10903.82
838.908	10805.07
839.233	10940.66
839.558	10808.68
839.883	10737.73
840.208	10765.97
840.533	10752.42
840.858	10796.71
841.182	10717.84
841.507	10808.46
841.832	10657.5
842.156	10620.22
842.481	10617.96
842.805	10554.91
843.13	10632.19
843.454	10557.39
843.778	10584.96
844.103	10500.44
844.427	10514.68
844.751	10478.98
845.075	10491.86
845.399	10419.99
845.723	10360.33
846.047	10418.41
846.371	10254.8
846.695	10311.52
847.019	10234.01
847.343	10207.57
847.666	10177.74
847.99	10063.85
848.313	10111.75
848.637	10005.77
848.96	10002.15
849.284	9934.36
849.607	9898.43
849.931	9843.06
850.254	9804.87
850.577	9807.81
850.9	9682.39
851.223	9703.63
851.546	9639
851.869	9551.32
852.192	9642.84
852.515	9566.23
852.838	9460.02
853.161	9515.61
853.483	9540.47
853.806	9381.15
854.129	9431.32
854.451	9352.45
854.774	9324.2
855.096	9312.23
855.419	9337.76
855.741	9286.46
856.063	9190.65
856.385	9262.51
856.708	9147.71
857.03	9125.79
857.352	9174.38
857.674	9107.49
857.996	9078.11
858.318	9029.52
858.64	8990.43
858.961	9000.14
859.283	8945.23
859.605	8865.91
859.926	8919.24
860.248	8918.11
860.57	8807.16
860.891	8831.34
861.212	8762.18
861.534	8747.95
861.855	8699.59
862.176	8759.93
862.498	8760.83
862.819	8752.69
863.14	8706.37
863.461	8647.84
863.782	8630.44
864.103	8690.32
864.424	8590.21
864.745	8654.39
865.065	8542.08
865.386	8600.38
865.707	8637.22
866.027	8584.11
866.348	8574.62
866.668	8563.32
866.989	8530.1
867.309	8456.43
867.63	8488.97
867.95	8529.42
868.27	8436.54
868.59	8496.2
868.91	8409.2
869.23	8442.42
869.55	8393.38
869.87	8422.76
870.19	8381.18
870.51	8375.53
870.83	8338.69
871.15	8359.48
871.469	8329.2
871.789	8317.68
872.109	8260.73
872.428	8287.62
872.748	8223.67
873.067	8285.59
873.386	8233.16
873.706	8269.09
874.025	8198.13
874.344	8222.54
874.663	8198.58
874.982	8182.31
875.301	8148.64
875.62	8118.36
875.939	8153.61
876.258	8114.29
876.577	8130.79
876.896	8084.91
877.214	8053.05
877.533	8095.99
877.852	8091.69
878.17	8037.91
878.489	8060.28
878.807	8084.24
879.125	8001.53
879.444	8027.06
879.762	8013.5
880.08	7983.67
880.398	7937.8
880.716	7916.11
881.034	7926.05
881.352	7895.77
881.67	7869.78
881.988	7925.82
882.306	7922.43
882.624	7921.53
882.941	7791.81
883.259	7820.06
883.577	7737.13
883.894	7756.79
884.212	7738.03
884.529	7652.84
884.846	7687.64
885.164	7662.1
885.481	7683.57
885.798	7728.54
886.115	7614.19
886.432	7671.59
886.75	7611.48
887.067	7639.05
887.383	7550.01
887.7	7536.91
888.017	7511.6
888.334	7510.92
888.651	7505.72
888.967	7466.85
889.284	7460.3
889.6	7387.31
889.917	7379.62
890.233	7382.79
890.55	7410.58
890.866	7382.33
891.182	7327.19
891.498	7249.46
891.815	7254.65
892.131	7294.88
892.447	7223.02
892.763	7196.58
893.079	7168.78
893.395	7183.02
893.71	7170.14
894.026	7098.73
894.342	7117.26
894.657	7127.65
894.973	7097.37
895.289	7052.85
895.604	7053.08
895.92	7007.88
896.235	6904.83
896.55	6967.66
896.865	7020.54
897.181	6924.49
897.496	6900.54
897.811	6859.18
898.126	6824.83
898.441	6808.34
898.756	6811.5
899.071	6792.97
899.386	6791.16
899.7	6684.95
900.015	6698.28
900.33	6676.36
900.644	6632.52
900.959	6627.33
901.273	6573.77
901.588	6604.28
901.902	6535.58
902.216	6512.75
902.531	6530.15
902.845	6489.93
903.159	6421.91
903.473	6423.94
903.787	6453.77
904.101	6363.15
904.415	6401.12
904.729	6338.97
905.042	6324.28
905.356	6341.23
905.67	6301.68
905.984	6268.24
906.297	6230.95
906.611	6233.21
906.924	6187.34
907.237	6152.31
907.551	6165.87
907.864	6137.4
908.177	6070.05
908.491	6078.41
908.804	6057.85
909.117	6004.52
909.43	5976.04
909.743	5940.79
910.056	5966.55
910.368	5945.31
910.681	5902.37
910.994	5869.83
911.307	5872.77
911.619	5836.39
911.932	5796.61
912.244	5784.64
912.557	5779.21
912.869	5751.42
913.181	5769.5
913.494	5729.5
913.806	5687.69
914.118	5658.31
914.43	5603.17
914.742	5636.84
915.054	5544.87
915.366	5561.37
915.678	5575.6
915.99	5536.28
916.302	5477.3
916.613	5474.81
916.925	5509.62
917.236	5452.67
917.548	5408.37
917.859	5449.5
918.171	5387.36
918.482	5373.12
918.794	5335.16
919.105	5310.75
919.416	5269.4
919.727	5299.45
920.038	5253.58
920.349	5179.68
920.66	5186.46
920.971	5210.87
921.282	5164.99
921.593	5157.31
921.903	5092
922.214	5129.74
922.525	5048.38
922.835	5081.15
923.146	5001.15
923.456	5024.2
923.767	4995.73
924.077	4964.32
924.387	4944.66
924.697	4917.54
925.008	4940.36
925.318	4905.79
925.628	4849.29
925.938	4861.27
926.248	4776.75
926.558	4783.76
926.867	4828.73
927.177	4807.94
927.487	4695.17
927.796	4690.88
928.106	4704.89
928.416	4676.87
928.725	4683.42
929.034	4653.14
929.344	4676.19
929.653	4652.24
929.962	4571.11
930.271	4582.86
930.581	4538.79
930.89	4521.39
931.199	4494.05
931.508	4494.5
931.817	4473.71
932.125	4451.56
932.434	4447.5
932.743	4424.9
933.051	4374.96
933.36	4386.48
933.669	4352.13
933.977	4329.53
934.286	4340.83
934.594	4337.22
934.902	4270.78
935.21	4226.71
935.519	4253.83
935.827	4268.74
936.135	4244.79
936.443	4199.82
936.751	4194.17
937.059	4178.8
937.367	4168.63
937.674	4167.28
937.982	4103.32
938.29	4118.47
938.597	4056.32
938.905	4040.73
939.213	4069.65
939.52	4033.5
939.827	4023.33
940.135	3946.72
940.442	3970.67
940.749	3937.9
941.056	3956.66
941.363	3909.21
941.67	3913.72
941.977	3897.23
942.284	3858.36
942.591	3860.62
942.898	3848.19
943.205	3834.86
943.511	3830.56
943.818	3763.22
944.125	3747.4
944.431	3773.84
944.738	3741.53
945.044	3761.41
945.35	3745.37
945.657	3711.02
945.963	3718.02
946.269	3653.62
946.575	3707.85
946.881	3643.45
947.187	3610
947.493	3595.99
947.799	3594.19
948.105	3560.29
948.41	3570.91
948.716	3526.16
949.022	3541.08
949.327	3511.25
949.633	3471.02
949.938	3484.36
950.244	3466.05
950.549	3492.94
950.854	3407.75
951.16	3427.18
951.465	3389.44
951.77	3405.26
952.075	3350.12
952.38	3393.74
952.685	3374.98
952.99	3318.94
953.294	3322.1
953.599	3316.68
953.904	3281.2
954.209	3269
954.513	3258.83
954.818	3280.07
955.122	3243.69
955.426	3222.44
955.731	3195.78
956.035	3200.98
956.339	3221.77
956.643	3228.32
956.948	3156.23
957.252	3148.32
957.556	3131.6
957.86	3140.41
958.163	3113.29
958.467	3126.63
958.771	3091.37
959.075	3097.25
959.378	3066.29
959.682	3097.02
959.985	3036.69
960.289	3050.92
960.592	3032.62
960.896	3000.53
961.199	3010.7
961.502	2992.85
961.805	2972.73
962.108	2958.5
962.411	2922.34
962.714	2890.7
963.017	2909.68
963.32	2906.75
963.623	2890.47
963.926	2848.22
964.228	2866.07
964.531	2861.55
964.833	2875.33
965.136	2848.89
965.438	2812.06
965.741	2839.18
966.043	2831.49
966.345	2840.53
966.648	2797.37
966.95	2755.34
967.252	2765.96
967.554	2725.06
967.856	2711.95
968.158	2712.4
968.46	2736.58
968.761	2656.13
969.063	2696.58
969.365	2693.19
969.666	2672.63
969.968	2638.5
970.269	2628.11
970.571	2634.21
970.872	2622.01
971.174	2595.79
971.475	2626.98
971.776	2553.31
972.077	2601.44
972.378	2561.9
972.679	2539.52
972.98	2569.58
973.281	2547.21
973.582	2517.83
973.883	2470.6
974.183	2502.69
974.484	2489.58
974.785	2477.15
975.085	2488.45
975.386	2469.02
975.686	2457.04
975.986	2441.22
976.287	2427.89
976.587	2451.39
976.887	2401
977.187	2419.53
977.487	2384.95
977.787	2351.05
978.087	2337.27
978.387	2334.56
978.687	2356.03
978.987	2346.31
979.286	2298.17
979.586	2301.79
979.885	2306.31
980.185	2275.8
980.484	2290.26
980.784	2283.26
981.083	2241.68
981.382	2225.41
981.682	2257.95
981.981	2212.75
982.28	2249.36
982.579	2193.77
982.878	2198.52
983.177	2224.05
983.475	2198.97
983.774	2155.8
984.073	2169.59
984.372	2183.83
984.67	2146.54
984.969	2165.3
985.267	2175.92
985.566	2156.93
985.864	2133.66
986.162	2125.3
986.461	2094.34
986.759	2078.07
987.057	2081.23
987.355	2068.8
987.653	2013.44
987.951	2042.36
988.249	2049.82
988.547	2022.25
988.844	2009.59
989.142	2015.92
989.44	2016.15
989.737	1997.84
990.035	1964.62
990.332	1976.37
990.63	1967.79
990.927	1985.41
991.224	1950.61
991.521	1945.64
991.819	1937.51
992.116	1916.94
992.413	1919.2
992.71	1888.02
993.006	1902.25
993.303	1888.02
993.6	1885.98
993.897	1873.33
994.193	1885.3
994.49	1886.66
994.787	1858.64
995.083	1848.02
995.379	1841.24
995.676	1836.04
995.972	1847.56
996.268	1812.09
996.565	1790.62
996.861	1776.38
997.157	1792.88
997.453	1799.88
997.749	1779.54
998.044	1733.9
998.34	1779.54
998.636	1734.12
998.932	1753.1
999.227	1731.41
999.523	1714.69
999.818	1733.44
1000.114	1706.1
1000.409	1710.84
1000.704	1695.93
1001	1657.74
1001.295	1668.13
1001.59	1650.96
1001.885	1640.56
1002.18	1636.72
1002.475	1637.63
1002.77	1634.69
1003.065	1642.37
1003.359	1600.79
1003.654	1588.14
1003.949	1598.08
1004.243	1604.18
1004.538	1555.14
1004.832	1573
1005.127	1565.09
1005.421	1535.71
1005.715	1561.92
1006.009	1565.31
1006.304	1551.98
1006.598	1482.15
1006.892	1524.41
1007.186	1484.86
1007.48	1511.53
1007.773	1489.16
1008.067	1471.08
1008.361	1462.72
1008.655	1464.3
1008.948	1455.71
1009.242	1456.84
1009.535	1415.94
1009.829	1447.12
1010.122	1405.77
1010.415	1448.7
1010.708	1436.28
1011.001	1406.22
1011.295	1407.35
1011.588	1382.94
1011.881	1385.43
1012.173	1357.63
1012.466	1350.4
1012.759	1361.48
1013.052	1357.18
1013.344	1357.18
1013.637	1382.49
1013.93	1314.02
1014.222	1314.47
1014.514	1317.86
1014.807	1300.91
1015.099	1304.53
1015.391	1288.26
1015.683	1286.9
1015.976	1270.63
1016.268	1277.86
1016.56	1254.36
1016.851	1256.85
1017.143	1245.77
1017.435	1276.51
1017.727	1232.44
1018.018	1215.49
1018.31	1219.56
1018.602	1209.16
1018.893	1190.63
1019.185	1202.38
1019.476	1169.39
1019.767	1216.39
1020.058	1186.34
1020.35	1184.53
1020.641	1173.23
1020.932	1167.13
1021.223	1154.93
1021.514	1147.24
1021.804	1142.05
1022.095	1127.81
1022.386	1111.54
1022.677	1122.84
1022.967	1101.6
1023.258	1104.08
1023.548	1076.29
1023.839	1094.36
1024.129	1081.26
1024.419	1074.93
1024.709	1069.51
1025	1076.06
1025.29	1047.36
1025.58	1062.73
1025.87	1034.25
1026.16	1066.34
1026.449	1040.81
1026.739	1027.7
1027.029	1026.34
1027.319	1006
1027.608	1014.14
1027.898	1011.88
1028.187	982.95
1028.477	974.59
1028.766	1000.36
1029.055	989.73
1029.344	955.16
1029.634	974.82
1029.923	957.87
1030.212	961.49
1030.501	922.84
1030.79	947.48
1031.078	915.84
1031.367	938.66
1031.656	915.84
1031.945	917.65
1032.233	906.57
1032.522	942.96
1032.81	916.06
1033.099	921.04
1033.387	900.24
1033.675	871.54
1033.963	885.1
1034.251	865.67
1034.54	862.96
1034.828	858.66
1035.116	846.46
1035.403	861.15
1035.691	844.43
1035.979	885.78
1036.267	847.36
1036.554	846.23
1036.842	850.3
1037.129	829.51
1037.417	829.06
1037.704	823.18
1037.992	835.84
1038.279	798.78
1038.566	825.44
1038.853	825.44
1039.14	825.44
