Data from tablewood_brown_FLMS001491_009.txt Node
Date: Tue Feb 07 11:09:56 GMT 2017
User: dcchb
Spectrometer: FLMS00149
Trigger mode: 0
Integration Time (sec): 2.000000E-2
Scans to average: 10
Electric dark correction enabled: true
Nonlinearity correction enabled: false
Boxcar width: 0
XAxis mode: Wavelengths
Number of Pixels in Spectrum: 2048
>>>>>Begin Spectral Data<<<<<
341.393	-27.19
341.776	-27.19
342.16	-27.19
342.543	-42.1
342.927	-53.85
343.31	-67.19
343.693	-48.88
344.077	-66.28
344.46	-91.37
344.843	-44.59
345.226	-41.65
345.61	-40.07
345.993	-13.63
346.376	8.29
346.759	26.37
347.142	32.7
347.525	56.65
347.908	52.81
348.291	58.46
348.674	63.88
349.057	114.5
349.44	133.49
349.823	158.12
350.206	134.84
350.588	206.7
350.971	218.91
351.354	216.87
351.737	249.41
352.119	271.79
352.502	270.66
352.884	287.38
353.267	279.7
353.65	289.64
354.032	287.83
354.414	304.55
354.797	338
355.179	320.15
355.562	318.11
355.944	339.13
356.326	329.86
356.709	340.94
357.091	345.01
357.473	360.6
357.855	339.58
358.238	339.81
358.62	335.51
359.002	363.99
359.384	335.74
359.766	352.46
360.148	327.6
360.53	342.29
360.912	329.64
361.294	349.52
361.676	341.62
362.057	348.17
362.439	348.62
362.821	335.51
363.203	328.73
363.584	330.32
363.966	349.07
364.348	330.32
364.729	312.24
365.111	352.01
365.493	314.27
365.874	359.47
366.256	339.58
366.637	332.12
367.019	329.86
367.4	322.86
367.781	320.15
368.163	319.92
368.544	339.36
368.925	348.39
369.306	326.25
369.688	338
370.069	327.6
370.45	314.27
370.831	323.76
371.212	335.29
371.593	340.49
371.974	328.51
372.355	339.58
372.736	334.38
373.117	348.62
373.498	331.22
373.879	347.94
374.26	335.29
374.641	343.42
375.021	322.18
375.402	361.05
375.783	354.95
376.163	366.47
376.544	364.44
376.925	332.12
377.305	350.65
377.686	342.75
378.066	359.02
378.447	361.28
378.827	375.06
379.208	368.28
379.588	353.59
379.968	369.41
380.349	363.31
380.729	357.43
381.109	392.24
381.489	361.05
381.87	389.07
382.25	389.75
382.63	367.38
383.01	391.56
383.39	389.75
383.77	393.82
384.15	405.79
384.53	378.9
384.91	393.14
385.29	411.22
385.67	374.83
386.049	395.63
386.429	392.24
386.809	420.71
387.189	422.97
387.568	412.12
387.948	379.35
388.328	408.51
388.707	407.83
389.087	408.51
389.466	398.11
389.846	445.34
390.225	443.99
390.605	417.55
390.984	449.41
391.363	439.24
391.743	436.75
392.122	436.98
392.501	427.49
392.881	448.51
393.26	461.84
393.639	463.87
394.018	443.99
394.397	470.43
394.776	455.28
395.155	472.69
395.534	491.22
395.913	508.62
396.292	500.26
396.671	483.76
397.05	489.41
397.429	481.72
397.808	478.33
398.186	498.22
398.565	508.84
398.944	483.76
399.323	506.36
399.701	509.75
400.08	512.01
400.458	513.36
400.837	513.14
401.215	528.96
401.594	514.04
401.972	528.28
402.351	535.73
402.729	547.03
403.107	535.73
403.486	531.44
403.864	552.01
404.242	544.32
404.62	546.58
404.999	545.45
405.377	577.09
405.755	557.88
406.133	573.25
406.511	576.19
406.889	587.26
407.267	597.2
407.645	598.56
408.023	580.03
408.401	608.73
408.779	607.37
409.156	595.17
409.534	627.71
409.912	620.93
410.29	620.93
410.667	638.78
411.045	642.85
411.422	653.47
411.8	664.77
412.178	656.41
412.555	662.74
412.933	664.77
413.31	680.14
413.687	705.9
414.065	718.78
414.442	689.18
414.819	697.99
415.197	733.24
415.574	721.04
415.951	730.76
416.328	744.09
416.705	741.6
417.082	738.89
417.46	743.41
417.837	732.79
418.214	760.36
418.591	765.33
418.967	772.79
419.344	766.91
419.721	781.15
420.098	768.27
420.475	809.63
420.852	766.01
421.228	800.59
421.605	813.47
421.982	793.58
422.358	820.7
422.735	802.85
423.111	835.61
423.488	832.68
423.864	829.74
424.241	837.42
424.617	842.62
424.994	859.57
425.37	879.68
425.746	883.07
426.123	902.05
426.499	903.86
426.875	874.48
427.251	903.41
427.627	925.1
428.003	930.3
428.379	933.92
428.756	932.33
429.132	967.14
429.507	954.93
429.883	968.04
430.259	1001.26
430.635	990.19
431.011	967.59
431.387	1032.44
431.763	1041.71
432.138	991.99
432.514	1047.36
432.89	1052.33
433.265	1038.77
433.641	1082.84
434.016	1088.71
434.392	1089.39
434.767	1099.56
435.143	1129.17
435.518	1138.66
435.894	1157.64
436.269	1168.26
436.644	1165.1
437.02	1162.61
437.395	1185.43
437.77	1197.64
438.145	1193.34
438.52	1229.73
438.895	1234.93
439.271	1238.09
439.646	1274.7
440.021	1267.47
440.395	1306.34
440.77	1286.45
441.145	1299.33
441.52	1293.91
441.895	1279.9
442.27	1312.89
442.645	1342.94
443.019	1366
443.394	1308.82
443.769	1346.56
444.143	1331.42
444.518	1394.24
444.892	1377.07
445.267	1380.91
445.641	1399.44
446.016	1391.76
446.39	1410.74
446.764	1417.52
447.139	1431.76
447.513	1426.11
447.887	1446.67
448.262	1470.4
448.636	1466.78
449.01	1475.37
449.384	1460.68
449.758	1497.74
450.132	1489.16
450.506	1495.26
450.88	1515.82
451.254	1522.15
451.628	1563.96
452.002	1566.67
452.376	1594.01
452.75	1584.75
453.123	1575.93
453.497	1644.63
453.871	1643.73
454.244	1652.32
454.618	1677.4
454.992	1652.54
455.365	1686.66
455.739	1706.78
456.112	1719.66
456.486	1740.45
456.859	1787.23
457.232	1796.94
457.606	1817.28
457.979	1797.4
458.352	1883.27
458.725	1898.18
459.099	1883.95
459.472	1905.64
459.845	1948.13
460.218	1945.64
460.591	2000.1
460.964	1964.4
461.337	2002.59
461.71	2046.2
462.083	2097.5
462.456	2077.39
462.829	2103.83
463.201	2116.48
463.574	2141.57
463.947	2192.19
464.32	2219.53
464.692	2255.46
465.065	2254.11
465.438	2302.92
465.81	2338.62
466.183	2321.68
466.555	2426.31
466.928	2376.59
467.3	2414.78
467.672	2474.89
468.045	2510.6
468.417	2508.79
468.789	2539.3
469.161	2572.29
469.534	2626.53
469.906	2683.47
470.278	2691.84
470.65	2696.81
471.022	2797.14
471.394	2842.57
471.766	2836.69
472.138	2911.04
472.51	2946.52
472.882	3052.73
473.253	3061.32
473.625	3076.46
473.997	3148.1
474.369	3190.81
474.74	3262.89
475.112	3348.77
475.484	3343.34
475.855	3463.34
476.227	3491.36
476.598	3576.56
476.97	3617.01
477.341	3730.9
477.713	3780.17
478.084	3809.32
478.455	3919.37
478.827	3944.23
479.198	4107.84
479.569	4065.36
479.94	4205.92
480.311	4311.91
480.682	4360.72
481.053	4474.16
481.424	4553.03
481.795	4576.08
482.166	4647.26
482.537	4750.09
482.908	4877.54
483.279	4927.48
483.65	4974.26
484.021	5139.68
484.391	5174.03
484.762	5245.22
485.133	5339.68
485.503	5405.21
485.874	5470.97
486.244	5568.6
486.615	5661.93
486.985	5788.03
487.356	5864.63
487.726	5889.27
488.097	6033.9
488.467	6052.65
488.837	6206.77
489.207	6261.01
489.578	6358.18
489.948	6394.34
490.318	6464.17
490.688	6535.58
491.058	6625.52
491.428	6713.2
491.798	6811.73
492.168	6885.4
492.538	7021.67
492.908	7051.95
493.278	7173.98
493.648	7145.5
494.017	7245.39
494.387	7338.49
494.757	7369.91
495.126	7551.82
495.496	7523.57
495.866	7616.23
496.235	7649.22
496.605	7748.65
496.974	7756.11
497.344	7922.43
497.713	7909.1
498.082	8008.53
498.452	8133.05
498.821	8099.6
499.19	8160.62
499.559	8254.4
499.928	8297.34
500.298	8380.5
500.667	8460.27
501.036	8429.09
501.405	8571.91
501.774	8576.2
502.143	8653.94
502.512	8676.99
502.88	8817.78
503.249	8799.02
503.618	8853.03
503.987	8908.4
504.356	8969.19
504.724	9031.33
505.093	9068.17
505.462	9111.1
505.83	9205.34
506.199	9301.83
506.567	9363.98
506.936	9411.66
507.304	9482.17
507.672	9563.07
508.041	9648.04
508.409	9717.64
508.777	9727.58
509.145	9871.76
509.514	9919.22
509.882	9959.44
510.25	10036.73
510.618	10186.78
510.986	10210.28
511.354	10185.65
511.722	10361.24
512.09	10488.24
512.458	10513.1
512.826	10597.16
513.193	10669.03
513.561	10735.69
513.929	10742.02
514.297	10921
514.664	10930.26
515.032	11101.56
515.4	11126.64
515.767	11231.72
516.135	11236.02
516.502	11292.06
516.869	11498.16
517.237	11477.82
517.604	11554.65
517.972	11683.46
518.339	11829.9
518.706	11869.67
519.073	11884.59
519.44	11964.81
519.808	12126.84
520.175	12167.07
520.542	12363.9
520.909	12412.94
521.276	12435.99
521.643	12567.28
522.009	12678.47
522.376	12752.59
522.743	12927.95
523.11	13075.74
523.477	13134.73
523.843	13212.92
524.21	13347.83
524.577	13512.12
524.943	13539.01
525.31	13661.27
525.676	13770.64
526.043	13910.3
526.409	14014.7
526.776	14122.27
527.142	14226.22
527.508	14295.6
527.874	14360.46
528.241	14478.42
528.607	14460.34
528.973	14742.82
529.339	14722.93
529.705	14899.2
530.071	14942.81
530.437	15082.47
530.803	15213.77
531.169	15286.53
531.535	15290.83
531.901	15253.77
532.267	15374.67
532.632	15523.36
532.998	15598.62
533.364	15752.28
533.73	15732.62
534.095	15876.12
534.461	16006.97
534.826	15976.68
535.192	16069.79
535.557	16149.56
535.923	16139.84
536.288	16240.18
536.653	16396.79
537.019	16384.81
537.384	16496.44
537.749	16584.58
538.114	16662.09
538.479	16663.45
538.845	16701.64
539.21	16741.64
539.575	16825.93
539.94	16961.74
540.305	17140.5
540.67	17008.3
541.034	17099.37
541.399	17168.74
541.764	17206.93
542.129	17290.55
542.494	17269.53
542.858	17412.58
543.223	17446.25
543.587	17522.63
543.952	17490.77
544.316	17656.64
544.681	17655.28
545.045	17793.13
545.41	17827.94
545.774	17918.55
546.138	17948.84
546.503	18032
546.867	17962.17
547.231	18218.89
547.595	18154.48
547.959	18303.18
548.324	18439.22
548.688	18402.61
549.052	18601.93
549.416	18546.79
549.779	18646.22
550.143	18756.72
550.507	18973.67
550.871	18927.57
551.235	18993.78
551.599	19258.86
551.962	19248.01
552.326	19283.49
552.689	19457.95
553.053	19402.13
553.417	19585.18
553.78	19770.26
554.143	19760.77
554.507	19947.88
554.87	19918.5
555.234	20187.42
555.597	20104.94
555.96	20285.05
556.323	20371.37
556.686	20499.05
557.05	20695.66
557.413	20689.33
557.776	20918.48
558.139	21069.66
558.502	21220.61
558.865	21192.14
559.228	21286.15
559.59	21618.57
559.953	21505.58
560.316	21887.94
560.679	21917.55
561.041	22206.13
561.404	22358.66
561.767	22483.18
562.129	22449.06
562.492	22753.23
562.854	22830.29
563.217	22833.91
563.579	23021.7
563.941	23223.5
564.304	23526.77
564.666	23626.65
565.028	23734.45
565.39	23908.45
565.753	24070.48
566.115	24130.37
566.477	24412.39
566.839	24502.34
567.201	24718.15
567.563	24799.73
567.925	24986.39
568.287	25172.6
568.648	25287.85
569.01	25547.51
569.372	25779.14
569.734	25685.58
570.095	26032.24
570.457	26225.91
570.819	26479.01
571.18	26575.5
571.542	26688.72
571.903	26893.46
572.265	27099.1
572.626	27181.59
572.987	27306.78
573.349	27469.04
573.71	27574.12
574.071	27786.09
574.432	27998.97
574.794	28179.98
575.155	28250.03
575.516	28439.63
575.877	28509.24
576.238	28734.99
576.599	28806.18
576.96	28975.89
577.32	29137.02
577.681	29343.56
578.042	29621.75
578.403	29634.4
578.763	29589.21
579.124	29833.5
579.485	29998.01
579.845	30141.28
580.206	30139.25
580.566	30249.08
580.927	30264.9
581.287	30549.63
581.648	30445.23
582.008	30618.33
582.368	30768.39
582.728	30883.19
583.089	30873.24
583.449	30801.15
583.809	31093.8
584.169	31224.19
584.529	31159.11
584.889	31424.64
585.249	31293.12
585.609	31364.75
585.969	31507.12
586.329	31468.48
586.688	31494.69
587.048	31460.8
587.408	31561.59
587.768	31556.16
588.127	31630.74
588.487	31715.71
588.846	31992.76
589.206	31771.52
589.565	31957.28
589.925	32075.24
590.284	31958.19
590.643	32195.02
591.003	32212.19
591.362	32215.58
591.721	32214.45
592.08	32256.71
592.44	32327.44
592.799	32439.53
593.158	32426.65
593.517	32420.55
593.876	32504.39
594.235	32271.85
594.593	32423.03
594.952	32470.04
595.311	32499.19
595.67	32463.48
596.029	32700.31
596.387	32613.08
596.746	32786.19
597.104	32592.52
597.463	32667.09
597.822	32797.71
598.18	32615.79
598.538	32789.35
598.897	32803.36
599.255	32601.56
599.613	33103.47
599.972	32824.83
600.33	32940.08
600.688	32787.54
601.046	33010.81
601.404	33124.26
601.762	33100.08
602.12	33277.25
602.478	33143.92
602.836	33150.02
603.194	32974.66
603.552	33086.07
603.91	33088.32
604.268	33302.33
604.625	33140.98
604.983	33251.03
605.341	33027.76
605.698	33322.9
606.056	33442.21
606.413	33467.98
606.771	33453.97
607.128	33623.45
607.485	33293.29
607.843	33307.53
608.2	33650.34
608.557	33664.35
608.914	33514.08
609.272	33610.35
609.629	33721.53
609.986	33851.24
610.343	33727.86
610.7	33783.9
611.057	33858.47
611.414	33804.92
611.771	33658.71
612.127	33917
612.484	33900.96
612.841	34114.06
613.198	34039.71
613.554	34020.73
613.911	34205.36
614.267	34270.44
614.624	34154.29
614.98	34240.61
615.337	34444.67
615.693	34260.95
616.05	34338.01
616.406	34444
616.762	34378.91
617.118	34388.63
617.475	34460.04
617.831	34669.53
618.187	34597.21
618.543	34597.21
618.899	34860.71
619.255	34672.46
619.611	34740.94
619.967	34822.06
620.323	34912.46
620.678	34653.03
621.034	34670.66
621.39	34710.2
621.746	34731.45
622.101	35086.92
622.457	34817.09
622.812	34877.88
623.168	34963.98
623.523	34900.93
623.879	34997.88
624.234	34799.01
624.589	34862.52
624.945	34968.28
625.3	34872.23
625.655	34984.09
626.01	34952.23
626.365	35047.6
626.72	34952.91
627.075	34977.99
627.43	34853.48
627.785	34748.39
628.14	34854.83
628.495	34939.58
628.85	34822.74
629.205	34704.1
629.559	35026.35
629.914	34758.56
630.269	34779.13
630.623	34627.49
630.978	34603.54
631.332	34810.31
631.687	34982.06
632.041	34600.83
632.396	34817.77
632.75	34474.96
633.104	34553.82
633.459	34576.87
633.813	34509.76
634.167	34573.71
634.521	34415.97
634.875	34598.12
635.229	34357.9
635.583	34246.26
635.937	34241.29
636.291	34199.26
636.645	34156.77
636.999	34060.05
637.352	34285.81
637.706	34089.65
638.06	34144.79
638.413	34093.5
638.767	33944.12
639.121	34130.78
639.474	33860.73
639.828	33912.03
640.181	33862.54
640.534	33985.7
640.888	33757.91
641.241	33768.31
641.594	33760.62
641.947	33681.98
642.301	33642.21
642.654	33683.11
643.007	33875.2
643.36	33680.4
643.713	33687.18
644.066	33765.6
644.419	33500.29
644.771	33338.94
645.124	33075.22
645.477	33042.22
645.83	32733.53
646.182	32732.18
646.535	32406.08
646.888	32654.66
647.24	32508.23
647.593	32669.58
647.945	32508.45
648.298	32443.37
648.65	32306.2
649.002	32430.26
649.355	32356.82
649.707	32251.51
650.059	32458.96
650.411	33049.46
650.763	32834.77
651.115	33182.79
651.467	33137.36
651.819	33028.21
652.171	33001.1
652.523	33193.63
652.875	32972.17
653.227	32853.3
653.578	33118.15
653.93	33186.63
654.282	33035.44
654.633	32912.96
654.985	32974.88
655.337	33050.13
655.688	33047.65
656.039	33153.86
656.391	32910.93
656.742	32870.25
657.094	33021.43
657.445	33098.95
657.796	32896.24
658.147	33073.86
658.498	32910.7
658.849	33057.14
659.2	32879.97
659.551	32872.96
659.902	33053.3
660.253	32868.67
660.604	32950.7
660.955	32723.36
661.306	32773.08
661.656	32916.58
662.007	32829.57
662.358	32836.35
662.708	32745.28
663.059	32788.67
663.409	32632.07
663.76	32891.95
664.11	32924.04
664.461	32840.2
664.811	32729.69
665.161	32881.55
665.511	32724.49
665.862	32830.93
666.212	32938.72
666.562	32947.54
666.912	32925.39
667.262	32809.01
667.612	32658.05
667.962	32922.23
668.312	32738.73
668.662	32858.95
669.011	32720.42
669.361	32734.89
669.711	32675
670.06	32663.25
670.41	32691.27
670.76	32461.45
671.109	32708
671.459	32597.94
671.808	32493.99
672.157	32670.71
672.507	32397.04
672.856	32500.54
673.205	32486.08
673.554	32526.31
673.904	32431.17
674.253	32590.71
674.602	32421
674.951	31899.88
675.3	31823.73
675.649	32329.7
675.998	32322.7
676.346	32372.41
676.695	32396.82
677.044	32103.04
677.393	32181.46
677.741	32291.06
678.09	32034.34
678.438	32043.83
678.787	32019.65
679.135	32186.65
679.484	31870.05
679.832	32025.3
680.181	31890.16
680.529	31907.34
680.877	31844.06
681.225	31772.43
681.573	31985.98
681.922	31587.35
682.27	31615.14
682.618	31647.46
682.966	31545.09
683.314	31575.82
683.661	31454.47
684.009	31320.91
684.357	31215.83
684.705	31136.96
685.053	31270.07
685.4	31243.18
685.748	31182.16
686.095	31012.45
686.443	30886.35
686.79	30802.51
687.138	30847.48
687.485	30843.86
687.832	30722.96
688.18	30699.24
688.527	30470.77
688.874	30399.58
689.221	30411.56
689.568	30323.43
689.915	30228.97
690.262	30132.7
690.609	30161.85
690.956	30112.36
691.303	30008.41
691.65	29776.55
691.997	29834.17
692.344	29662.88
692.69	29619.04
693.037	29527.29
693.383	29300.63
693.73	29506.27
694.077	29398.03
694.423	29246.84
694.769	29219.73
695.116	29013.63
695.462	29045.27
695.808	28792.62
696.155	28909.45
696.501	28511.27
696.847	28640.08
697.193	28487.54
697.539	28546.98
697.885	28239.86
698.231	28217.94
698.577	28278.73
698.923	28084.84
699.269	28048.01
699.614	27896.6
699.96	27767.79
700.306	27642.59
700.651	27741.35
700.997	27592.88
701.342	27500.22
701.688	27497.29
702.033	27419.1
702.379	27360.79
702.724	27256.16
703.069	27202.15
703.415	27025.89
703.76	26956.06
704.105	26853.01
704.45	26832.67
704.795	26707.93
705.14	26627.25
705.485	26541.15
705.83	26394.72
706.175	26583.64
706.52	26331.21
706.865	26142.29
707.209	26224.32
707.554	26015.06
707.899	26083.54
708.243	25907.95
708.588	25859.36
708.932	25737.78
709.277	25780.72
709.621	25813.04
709.966	25565.36
710.31	25530.56
710.654	25425.93
710.998	25452.14
711.342	25524.91
711.687	25392.26
712.031	25228.19
712.375	25171.02
712.719	25280.62
713.063	25196.33
713.407	25312.94
713.75	25054.19
714.094	25156.78
714.438	24916.79
714.782	24881.31
715.125	24840.41
715.469	24808.09
715.812	24724.48
716.156	24566.06
716.499	24742.56
716.843	24678.15
717.186	24458.04
717.53	24606.29
717.873	24555.67
718.216	24364.49
718.559	24456.69
718.902	24290.36
719.246	24368.1
719.589	24312.51
719.932	24198.39
720.275	24250.82
720.617	24164.72
720.96	24101.67
721.303	24150.93
721.646	24138.05
721.989	24075.68
722.331	24090.14
722.674	23905.06
723.016	24130.37
723.359	24090.82
723.701	24074.1
724.044	23938.06
724.386	23869.13
724.729	23996.81
725.071	23880.88
725.413	23848.12
725.755	23819.64
726.097	23819.64
726.439	23844.5
726.782	23839.53
727.124	23968.34
727.465	23673.43
727.807	23738.97
728.149	23651.51
728.491	23600.44
728.833	23716.59
729.175	23614.9
729.516	23686.54
729.858	23601.12
730.199	23629.59
730.541	23607.67
730.882	23550.5
731.224	23597.28
731.565	23571.29
731.906	23568.58
732.248	23580.1
732.589	23456.04
732.93	23479.54
733.271	23500.1
733.612	23522.47
733.953	23512.31
734.294	23465.75
734.635	23464.4
734.976	23475.92
735.317	23460.1
735.658	23402.48
735.999	23442.93
736.339	23430.27
736.68	23448.13
737.021	23329.49
737.361	23312.76
737.702	23375.59
738.042	23417.62
738.383	23440.44
738.723	23417.17
739.063	23306.44
739.404	23438.64
739.744	23419.2
740.084	23354.12
740.424	23354.57
740.764	23263.72
741.104	23504.17
741.444	23206.55
741.784	23331.07
742.124	23330.84
742.464	23260.33
742.804	23259.43
743.143	23215.82
743.483	23349.15
743.823	23111.41
744.162	23297.17
744.502	23367.68
744.841	23264.18
745.181	23292.88
745.52	23280
745.86	23264.4
746.199	23161.13
746.538	23268.7
746.877	23332.42
747.216	23184.4
747.556	23268.47
747.895	23248.36
748.234	23220.34
748.573	23141.24
748.911	23203.39
749.25	23173.33
749.589	23078.19
749.928	23183.27
750.267	23189.38
750.605	23188.02
750.944	23108.02
751.283	23160.9
751.621	23143.05
751.96	23115.48
752.298	23033.22
752.636	23176.72
752.975	22997.52
753.313	22948.48
753.651	22934.02
753.989	22991.19
754.327	22957.07
754.666	22834.58
755.004	22850.85
755.342	22891.76
755.679	22851.31
756.017	22706.68
756.355	22830.52
756.693	22722.72
757.031	22686.34
757.368	22618.09
757.706	22556.17
758.044	22550.07
758.381	22550.3
758.719	22540.13
759.056	22608.6
759.394	22527.25
759.731	22346.91
760.068	22418.32
760.405	22367.48
760.743	22234.82
761.08	22299.68
761.417	22031.21
761.754	22121.61
762.091	21991.89
762.428	21915.29
762.765	21852.46
763.102	21928.17
763.438	21807.04
763.775	21684.33
764.112	21771.56
764.449	21688.62
764.785	21652.02
765.122	21506.26
765.458	21449.31
765.795	21467.16
766.131	21394.62
766.467	21329.99
766.804	21244.34
767.14	21090.9
767.476	21130.45
767.812	20961.64
768.148	21062.2
768.485	20941.3
768.821	20879.15
769.157	20879.83
769.492	20752.6
769.828	20727.07
770.164	20535.43
770.5	20415.44
770.836	20492.95
771.171	20314.2
771.507	20309
771.842	20237.36
772.178	20165.27
772.513	20160.98
772.849	20112.85
773.184	19962.12
773.519	20021.78
773.855	19849.58
774.19	19883.02
774.525	19812.97
774.86	19781.1
775.195	19703.82
775.53	19626.08
775.865	19428.57
776.2	19344.96
776.535	19254.56
776.87	19222.47
777.205	19283.49
777.539	18995.81
777.874	19097.05
778.209	19015.7
778.543	18856.38
778.878	18789.94
779.212	18799.44
779.547	18794.01
779.881	18698.19
780.215	18573.9
780.55	18659.78
780.884	18496.39
781.218	18419.33
781.552	18458.88
781.886	18278.09
782.22	18208.26
782.554	18144.99
782.888	18088.04
783.222	18006.46
783.556	17949.51
783.889	17897.54
784.223	17764.21
784.557	17655.74
784.89	17811.89
785.224	17615.74
785.557	17558.79
785.891	17504.55
786.224	17455.74
786.558	17443.09
786.891	17213.71
787.224	17249.87
787.557	17173.49
787.891	17155.41
788.224	17087.39
788.557	17126.94
788.89	17121.29
789.223	17007.62
789.556	16902.76
789.888	16817.11
790.221	16716.33
790.554	16690.56
790.887	16615.54
791.219	16500.29
791.552	16567.4
791.884	16505.48
792.217	16394.53
792.549	16368.76
792.882	16248.99
793.214	16183.68
793.546	16232.95
793.879	16045.84
794.211	15995.44
794.543	16074.99
794.875	16013.52
795.207	15988.44
795.539	15963.35
795.871	15881.77
796.203	15793.86
796.535	15720.65
796.867	15731.27
797.198	15590.71
797.53	15590.03
797.862	15543.48
798.193	15541.44
798.525	15394.1
798.856	15441.78
799.188	15267.78
799.519	15240.88
799.85	15162.47
800.182	15161.56
800.513	15146.65
800.844	15006.09
801.175	15090.61
801.506	15079.76
801.837	15022.81
802.168	14954.11
802.499	14775.59
802.83	14781.24
803.161	14823.04
803.491	14732.2
803.822	14670.96
804.153	14647
804.483	14514.8
804.814	14561.13
805.145	14566.33
805.475	14500.11
805.805	14416.73
806.136	14383.05
806.466	14440.23
806.796	14390.29
807.126	14233.45
807.457	14231.19
807.787	14226.45
808.117	14185.09
808.447	14083.4
808.777	14084.76
809.107	14007.02
809.436	14039.56
809.766	13973.57
810.096	14071.42
810.426	13936.51
810.755	13960.47
811.085	13817.65
811.414	13798.89
811.744	13747.14
812.073	13667.14
812.403	13746.91
812.732	13617.2
813.061	13656.97
813.39	13505.56
813.719	13456.75
814.049	13575.62
814.378	13515.73
814.707	13396.64
815.036	13409.29
815.365	13340.82
815.693	13273.48
816.022	13229.86
816.351	13214.72
816.68	13161.39
817.008	13178.11
817.337	13028.29
817.665	13089.08
817.994	13080.49
818.322	13067.61
818.651	12969.53
818.979	13015.41
819.307	12995.52
819.636	12938.57
819.964	12884.11
820.292	12925.24
820.62	12837.33
820.948	12825.58
821.276	12841.4
821.604	12778.35
821.932	12833.26
822.259	12894.28
822.587	12849.54
822.915	12787.84
823.243	12891.57
823.57	12747.84
823.898	12784
824.225	12758.01
824.553	12718.24
824.88	12790.33
825.207	12824.22
825.535	12788.52
825.862	12882.3
826.189	12777.22
826.516	12853.83
826.843	12816.77
827.17	12836.2
827.497	12777.9
827.824	12882.98
828.151	12852.47
828.478	12775.64
828.805	12793.27
829.131	12788.97
829.458	12733.38
829.785	12707.39
830.111	12806.37
830.438	12827.84
830.764	12711.69
831.09	12745.36
831.417	12643.66
831.743	12695.19
832.069	12718.01
832.395	12674.4
832.722	12744.91
833.048	12655.87
833.374	12650.22
833.7	12681.63
834.026	12590.11
834.351	12620.61
834.677	12675.98
835.003	12631.01
835.329	12528.64
835.654	12609.99
835.98	12510.79
836.306	12576.32
836.631	12494.97
836.956	12562.08
837.282	12433.95
837.607	12506.49
837.932	12476.89
838.258	12443.22
838.583	12455.65
838.908	12340.4
839.233	12329.1
839.558	12332.03
839.883	12308.98
840.208	12341.75
840.533	12306.95
840.858	12320.74
841.182	12248.19
841.507	12262.66
841.832	12139.72
842.156	12212.49
842.481	12201.19
842.805	12134.98
843.13	12092.94
843.454	12088.2
843.778	11996
844.103	11987.86
844.427	12005.26
844.751	11958.03
845.075	11978.37
845.399	11869.9
845.723	11858.6
846.047	11811.82
846.371	11728.43
846.695	11720.3
847.019	11678.27
847.343	11657.7
847.666	11537.25
847.99	11420.42
848.313	11427.65
848.637	11334.55
848.96	11316.69
849.284	11331.38
849.607	11242.35
849.931	11233.08
850.254	11185.62
850.577	11099.52
850.9	10958.74
851.223	11078.96
851.546	11006.65
851.869	10888.91
852.192	10974.33
852.515	10883.71
852.838	10848.23
853.161	10766.2
853.483	10830.15
853.806	10709.93
854.129	10744.96
854.451	10677.61
854.774	10577.5
855.096	10656.37
855.419	10617.73
855.741	10594
856.063	10474.23
856.385	10431.97
856.708	10431.07
857.03	10440.56
857.352	10390.16
857.674	10396.72
857.996	10317.17
858.318	10154.92
858.64	10274.01
858.961	10186.33
859.283	10264.52
859.605	10187.01
859.926	10166.22
860.248	10125.31
860.57	10094.58
860.891	10095.26
861.212	10042.83
861.534	10029.04
861.855	9968.25
862.176	9973.23
862.498	9957.63
862.819	9942.27
863.14	9998.99
863.461	9930.74
863.782	9803.06
864.103	9844.19
864.424	9888.48
864.745	9867.92
865.065	9785.21
865.386	9806.23
865.707	9714.93
866.027	9802.61
866.348	9785.43
866.668	9732.55
866.989	9699.56
867.309	9674.48
867.63	9704.08
867.95	9694.82
868.27	9578.89
868.59	9599.45
868.91	9608.49
869.23	9603.52
869.55	9617.08
869.87	9594.25
870.19	9525.33
870.51	9579.79
870.83	9565.55
871.15	9409.4
871.469	9504.31
871.789	9521.03
872.109	9446.46
872.428	9451.21
872.748	9380.93
873.067	9374.15
873.386	9355.84
873.706	9359.91
874.025	9400.13
874.344	9323.98
874.663	9307.03
874.982	9338.89
875.301	9267.93
875.62	9202.85
875.939	9285.33
876.258	9287.82
876.577	9217.54
876.896	9211.89
877.214	9208.95
877.533	9243.08
877.852	9171.67
878.17	9168.95
878.489	9142.51
878.807	9127.37
879.125	9061.16
879.444	9145.45
879.762	9071.56
880.08	9096.87
880.398	9091.89
880.716	9102.51
881.034	9019.81
881.352	8977.32
881.67	8984.33
881.988	8945.23
882.306	8936.42
882.624	8975.06
882.941	8889.19
883.259	8912.46
883.577	8891.45
883.894	8853.93
884.212	8819.13
884.529	8834.05
884.846	8843.31
885.164	8812.81
885.481	8764.44
885.798	8729.87
886.115	8678.57
886.432	8668.18
886.75	8624.34
887.067	8681.51
887.383	8636.99
887.7	8657.78
888.017	8591.79
888.334	8644.67
888.651	8513.6
888.967	8535.98
889.284	8522.19
889.6	8423.66
889.917	8473.15
890.233	8413.95
890.55	8372.82
890.866	8394.06
891.182	8331.46
891.498	8341.18
891.815	8307.51
892.131	8236.32
892.447	8344.79
892.763	8201.07
893.079	8197
893.395	8195.65
893.71	8137.57
894.026	8133.5
894.342	8106.16
894.657	8082.65
894.973	8161.52
895.289	8090.79
895.604	8070.9
895.92	8058.02
896.235	7971.92
896.55	7891.93
896.865	7946.16
897.181	7906.61
897.496	7899.38
897.811	7851.25
898.126	7851.47
898.441	7828.65
898.756	7773.74
899.071	7733.06
899.386	7724.7
899.7	7675.66
900.015	7673.63
900.33	7621.2
900.644	7554.08
900.959	7583.46
901.273	7555.21
901.588	7474.99
901.902	7422.33
902.216	7420.53
902.531	7415.55
902.845	7386.18
903.159	7410.58
903.473	7350.47
903.787	7299.17
904.101	7300.53
904.415	7260.3
904.729	7223.92
905.042	7169.23
905.356	7198.84
905.67	7210.14
905.984	7142.57
906.297	7169.23
906.611	7084.71
906.924	7066.41
907.237	7054.43
907.551	7028.22
907.864	7027.54
908.177	6957.26
908.491	6943.7
908.804	6902.35
909.117	6852.4
909.43	6833.2
909.743	6836.59
910.056	6839.3
910.368	6808.56
910.681	6768.56
910.994	6728.34
911.307	6610.38
911.619	6598.63
911.932	6695.8
912.244	6642.24
912.557	6597.27
912.869	6598.85
913.181	6584.16
913.494	6449.93
913.806	6497.84
914.118	6491.74
914.43	6414.45
914.742	6422.59
915.054	6393.21
915.366	6258.07
915.678	6301.91
915.99	6282.93
916.302	6252.42
916.613	6248.8
916.925	6207
917.236	6176.94
917.548	6193.21
917.859	6144.85
918.171	6151.18
918.482	6082.71
918.794	6104.4
919.105	6063.95
919.416	6037.96
919.727	6009.26
920.038	6003.39
920.349	5962.48
920.66	5878.19
920.971	5896.72
921.282	5925.2
921.593	5862.83
921.903	5843.17
922.214	5829.61
922.525	5766.78
922.835	5725.2
923.146	5737.18
923.456	5695.6
923.767	5685.88
924.077	5708.03
924.387	5670.06
924.697	5605.66
925.008	5655.15
925.318	5583.06
925.628	5595.71
925.938	5550.29
926.248	5464.42
926.558	5451.09
926.867	5508.26
927.177	5406.57
927.487	5378.09
927.796	5332.9
928.106	5352.56
928.416	5346
928.725	5361.6
929.034	5280.69
929.344	5299.23
929.653	5268.27
929.962	5216.97
930.271	5193.47
930.581	5173.8
930.89	5127.48
931.199	5097.65
931.508	5083.64
931.817	5147.59
932.125	5118.44
932.434	5016.97
932.743	5006.13
933.051	4994.15
933.36	5007.93
933.669	4970.42
933.977	4932.46
934.286	4915.05
934.594	4932
934.902	4836.86
935.21	4847.49
935.519	4849.52
935.827	4822.18
936.135	4834.6
936.443	4788.96
936.751	4785.57
937.059	4733.14
937.367	4743.08
937.674	4725
937.982	4731.33
938.29	4691.33
938.597	4650.2
938.905	4590.32
939.213	4586.48
939.52	4536.08
939.827	4567.72
940.135	4573.14
940.442	4537.44
940.749	4497.89
941.056	4525.46
941.363	4483.65
941.67	4471.22
941.977	4468.96
942.284	4386.25
942.591	4385.8
942.898	4375.41
943.205	4362.07
943.511	4308.74
943.818	4374.96
944.125	4330.21
944.431	4278.91
944.738	4268.07
945.044	4210.89
945.35	4205.47
945.657	4215.19
945.963	4184
946.269	4195.98
946.575	4204.34
946.881	4152.59
947.187	4138.8
947.493	4120.95
947.799	4136.32
948.105	4088.18
948.41	4043.44
948.716	4031.24
949.022	3989.43
949.327	4040.28
949.633	3951.69
949.938	3974.97
950.244	3993.5
950.549	3946.27
950.854	3897.68
951.16	3919.6
951.465	3885.93
951.77	3904.69
952.075	3884.57
952.38	3837.79
952.685	3839.38
952.99	3801.19
953.294	3754.63
953.599	3805.48
953.904	3750.79
954.209	3728.19
954.513	3736.55
954.818	3700.85
955.122	3673.05
955.426	3660.4
955.731	3658.14
956.035	3649.78
956.339	3606.84
956.643	3653.84
956.948	3594.86
957.252	3614.98
957.556	3591.93
957.86	3570.91
958.163	3565.49
958.467	3526.16
958.771	3485.04
959.075	3467.86
959.378	3447.97
959.682	3480.06
959.985	3431.93
960.289	3450.01
960.592	3442.55
960.896	3441.65
961.199	3416.34
961.502	3379.73
961.805	3377.24
962.108	3373.4
962.411	3322.33
962.714	3303.35
963.017	3286.17
963.32	3294.76
963.623	3287.07
963.926	3310.8
964.228	3258.83
964.531	3278.26
964.833	3258.6
965.136	3200.75
965.438	3191.03
965.741	3171.6
966.043	3163.01
966.345	3159.39
966.648	3177.7
966.95	3157.81
967.252	3111.94
967.554	3096.8
967.856	3089.11
968.158	3076.23
968.46	3048.89
968.761	3028.32
969.063	3066.29
969.365	3035.33
969.666	3015.67
969.968	2976.35
970.269	2979.96
970.571	2985.61
970.872	2961.21
971.174	2931.38
971.475	2948.1
971.776	2904.71
972.077	2921.66
972.378	2843.24
972.679	2859.52
972.98	2885.5
973.281	2888.89
973.582	2902
973.883	2868.33
974.183	2826.3
974.484	2830.82
974.785	2826.3
975.085	2809.12
975.386	2774.55
975.686	2774.32
975.986	2749.46
976.287	2737.26
976.587	2704.72
976.887	2687.77
977.187	2710.37
977.487	2684.6
977.787	2624.95
978.087	2672.18
978.387	2661.33
978.687	2673.31
978.987	2589.47
979.286	2590.37
979.586	2614.32
979.885	2603.02
980.185	2570.03
980.484	2559.64
980.784	2588.79
981.083	2575.23
981.382	2562.8
981.682	2559.64
981.981	2520.09
982.28	2541.11
982.579	2484.61
982.878	2503.37
983.177	2511.28
983.475	2482.12
983.774	2483.48
984.073	2438.28
984.372	2472.86
984.67	2469.02
984.969	2401.22
985.267	2416.81
985.566	2408.23
985.864	2387.89
986.162	2379.98
986.461	2363.94
986.759	2378.4
987.057	2357.61
987.355	2327.55
987.653	2362.35
987.951	2319.64
988.249	2312.64
988.547	2304.73
988.844	2311.96
989.142	2269.47
989.44	2239.19
989.737	2263.15
990.035	2281.9
990.332	2245.07
990.63	2198.29
990.927	2205.52
991.224	2200.78
991.521	2212.98
991.819	2179.53
992.116	2165.3
992.413	2163.94
992.71	2173.43
993.006	2161.91
993.303	2090.5
993.6	2137.27
993.897	2121.46
994.193	2129.59
994.49	2094.11
994.787	2103.15
995.083	2080.33
995.379	2052.08
995.676	2036.03
995.972	2033.55
996.268	2012.31
996.565	2030.16
996.861	2016.37
997.157	1989.03
997.453	2038.97
997.749	1983.83
998.044	1994.45
998.34	1974.57
998.636	1963.72
998.932	1957.84
999.227	1958.3
999.523	1950.16
999.818	1927.11
1000.114	1911.97
1000.409	1913.1
1000.704	1886.89
1001	1885.53
1001.295	1875.59
1001.59	1887.56
1001.885	1872.65
1002.18	1840.78
1002.475	1826.77
1002.77	1830.62
1003.065	1798.53
1003.359	1818.41
1003.654	1805.98
1003.949	1804.18
1004.243	1770.96
1004.538	1772.31
1004.832	1744.97
1005.127	1771.18
1005.421	1754.69
1005.715	1729.38
1006.009	1729.38
1006.304	1726.66
1006.598	1717.4
1006.892	1702.26
1007.186	1653.9
1007.48	1678.08
1007.773	1668.36
1008.067	1678.08
1008.361	1644.63
1008.655	1637.17
1008.948	1636.04
1009.242	1619.1
1009.535	1591.3
1009.829	1608.93
1010.122	1622.94
1010.415	1617.51
1010.708	1592.43
1011.001	1582.26
1011.295	1571.19
1011.588	1562.37
1011.881	1554.46
1012.173	1508.59
1012.466	1532.09
1012.759	1513.34
1013.052	1518.53
1013.344	1498.42
1013.637	1489.38
1013.93	1465.88
1014.222	1459.1
1014.514	1448.93
1014.807	1465.43
1015.099	1418.88
1015.391	1447.35
1015.683	1420.46
1015.976	1430.4
1016.268	1399.44
1016.56	1404.19
1016.851	1416.16
1017.143	1410.51
1017.435	1375.03
1017.727	1385.66
1018.018	1393.34
1018.31	1356.73
1018.602	1344.98
1018.893	1345.2
1019.185	1321.7
1019.476	1314.92
1019.767	1324.64
1020.058	1313.57
1020.35	1301.14
1020.641	1282.83
1020.932	1294.36
1021.223	1249.84
1021.514	1291.87
1021.804	1242.38
1022.095	1263.62
1022.386	1242.38
1022.677	1225.43
1022.967	1241.7
1023.258	1231.99
1023.548	1211.2
1023.839	1197.64
1024.129	1202.16
1024.419	1183.4
1024.709	1208.94
1025	1195.15
1025.29	1166.9
1025.58	1172.33
1025.87	1165.55
1026.16	1154.7
1026.449	1135.94
1026.739	1135.27
1027.029	1158.32
1027.319	1121.71
1027.608	1101.82
1027.898	1104.31
1028.187	1123.29
1028.477	1096.4
1028.766	1129.39
1029.055	1104.99
1029.344	1072.44
1029.634	1076.74
1029.923	1039.9
1030.212	1072.9
1030.501	1073.57
1030.79	1039.45
1031.078	1024.31
1031.367	1007.36
1031.656	1026.8
1031.945	1010.75
1032.233	1013.69
1032.522	999.45
1032.81	1003.74
1033.099	1006.68
1033.387	1006.23
1033.675	965.78
1033.963	976.85
1034.251	959
1034.54	957.64
1034.828	950.64
1035.116	943.18
1035.403	954.93
1035.691	919.91
1035.979	919.23
1036.267	927.59
1036.554	909.96
1036.842	920.36
1037.129	906.8
1037.417	902.05
1037.704	905.22
1037.992	890.53
1038.279	902.73
1038.566	865.67
1038.853	865.67
1039.14	865.67
