Data from tablewood_dark_bookshelf_FLMS001491_00022.txt Node
Date: Wed Feb 08 14:14:05 GMT 2017
User: dcchb
Spectrometer: FLMS00149
Trigger mode: 0
Integration Time (sec): 2.000000E-2
Scans to average: 10
Electric dark correction enabled: true
Nonlinearity correction enabled: false
Boxcar width: 0
XAxis mode: Wavelengths
Number of Pixels in Spectrum: 2048
>>>>>Begin Spectral Data<<<<<
341.393	4.68
341.776	4.68
342.16	4.68
342.543	-55.21
342.927	-78.71
343.31	-62.22
343.693	-67.87
344.077	-58.37
344.46	-56.34
344.843	-46.17
345.226	-63.8
345.61	-30.8
345.993	-11.6
346.376	-0.75
346.759	15.52
347.142	26.37
347.525	45.58
347.908	59.36
348.291	79.48
348.674	77.89
349.057	93.71
349.44	116.08
349.823	137.78
350.206	150.89
350.588	207.16
350.971	208.74
351.354	207.61
351.737	221.39
352.119	241.5
352.502	266.36
352.884	252.35
353.267	267.27
353.65	291.67
354.032	298.68
354.414	296.42
354.797	304.55
355.179	299.58
355.562	304.78
355.944	313.59
356.326	316.08
356.709	320.82
357.091	339.36
357.473	317.89
357.855	353.59
358.238	335.29
358.62	326.7
359.002	342.07
359.384	324.21
359.766	328.06
360.148	323.08
360.53	325.8
360.912	328.28
361.294	335.29
361.676	341.84
362.057	316.08
362.439	323.99
362.821	319.47
363.203	306.81
363.584	320.6
363.966	332.58
364.348	318.34
364.729	314.95
365.111	314.05
365.493	294.84
365.874	331.9
366.256	312.69
366.637	312.92
367.019	311.79
367.4	307.72
367.781	323.54
368.163	306.14
368.544	296.64
368.925	305.46
369.306	299.13
369.688	318.34
370.069	304.1
370.45	315.18
370.831	293.93
371.212	323.54
371.593	318.57
371.974	321.73
372.355	306.14
372.736	296.42
373.117	327.15
373.498	302.52
373.879	317.44
374.26	314.95
374.641	315.18
375.021	331.9
375.402	315.85
375.783	309.75
376.163	339.81
376.544	318.11
376.925	312.24
377.305	304.78
377.686	323.08
378.066	323.76
378.447	312.46
378.827	339.81
379.208	330.99
379.588	337.77
379.968	337.1
380.349	347.94
380.729	351.11
381.109	349.98
381.489	336.42
381.87	326.93
382.25	347.94
382.63	342.29
383.01	335.97
383.39	369.86
383.77	338.68
384.15	339.13
384.53	341.62
384.91	352.24
385.29	333.93
385.67	359.24
386.049	359.02
386.429	348.39
386.809	367.6
387.189	335.97
387.568	371.67
387.948	358.11
388.328	363.99
388.707	378.68
389.087	352.01
389.466	375.96
389.846	348.85
390.225	375.96
390.605	369.64
390.984	386.59
391.363	371.22
391.743	371.45
392.122	375.29
392.501	382.52
392.881	409.86
393.26	412.35
393.639	387.72
394.018	376.64
394.397	389.3
394.776	397.43
395.155	408.05
395.534	388.39
395.913	400.37
396.292	395.63
396.671	402.4
397.05	396.3
397.429	405.34
397.808	395.85
398.186	411.9
398.565	411.9
398.944	425.91
399.323	394.04
399.701	424.33
400.08	430.43
400.458	405.12
400.837	426.81
401.215	415.96
401.594	421.84
401.972	442.4
402.351	425.68
402.729	438.56
403.107	429.75
403.486	444.21
403.864	440.82
404.242	436.53
404.62	445.12
404.999	440.37
405.377	459.8
405.755	458.67
406.133	453.7
406.511	435.17
406.889	456.87
407.267	469.07
407.645	471.78
408.023	469.97
408.401	468.84
408.779	477.66
409.156	493.93
409.534	486.02
409.912	489.18
410.29	505.23
410.667	493.02
411.045	502.29
411.422	496.87
411.8	486.02
412.178	506.81
412.555	523.98
412.933	503.19
413.31	520.37
413.687	516.98
414.065	529.41
414.442	540.93
414.819	550.88
415.197	540.71
415.574	552.46
415.951	542.51
416.328	560.59
416.705	554.49
417.082	552.91
417.46	578.22
417.837	575.51
418.214	539.58
418.591	565.11
418.967	565.79
419.344	581.38
419.721	574.83
420.098	592.46
420.475	584.55
420.852	588.16
421.228	588.61
421.605	580.03
421.982	590.65
422.358	609.86
422.735	629.52
423.111	627.03
423.488	613.92
423.864	608.27
424.241	655.73
424.617	630.65
424.994	633.13
425.37	645.11
425.746	633.81
426.123	626.81
426.499	656.18
426.875	669.06
427.251	673.36
427.627	668.39
428.003	668.39
428.379	682.17
428.756	677.65
429.132	716.75
429.507	680.14
429.883	693.92
430.259	717.2
430.635	727.82
431.011	725.79
431.387	728.05
431.763	736.86
432.138	750.42
432.514	787.71
432.89	779.34
433.265	761.27
433.641	767.82
434.016	781.15
434.392	774.82
434.767	789.06
435.143	798.33
435.518	821.38
435.894	817.76
436.269	798.1
436.644	828.38
437.02	827.48
437.395	845.33
437.77	852.34
438.145	845.78
438.52	848.95
438.895	850.53
439.271	864.54
439.646	868.38
440.021	877.42
440.395	893.01
440.77	873.35
441.145	865.67
441.52	923.07
441.895	917.19
442.27	887.36
442.645	922.17
443.019	914.48
443.394	936.63
443.769	921.26
444.143	922.39
444.518	953.12
444.892	959.45
445.267	944.99
445.641	932.33
446.016	970.53
446.39	951.77
446.764	964.2
447.139	977.3
447.513	971.66
447.887	990.41
448.262	955.38
448.636	1006.68
449.01	1005.78
449.384	1000.36
449.758	998.77
450.132	1023.86
450.506	1018.43
450.88	1027.02
451.254	1035.61
451.628	1025.67
452.002	1059.56
452.376	1078.77
452.75	1064.76
453.123	1057.08
453.497	1092.56
453.871	1108.37
454.244	1087.81
454.618	1124.65
454.992	1140.69
455.365	1123.29
455.739	1148.15
456.112	1175.27
456.486	1181.37
456.859	1176.4
457.232	1243.06
457.606	1183.18
457.979	1174.59
458.352	1236.73
458.725	1250.74
459.099	1276.28
459.472	1316.73
459.845	1311.76
460.218	1273.34
460.591	1292.1
460.964	1321.48
461.337	1327.35
461.71	1357.18
462.083	1384.75
462.456	1370.06
462.829	1386.33
463.201	1381.59
463.574	1399.67
463.947	1412.55
464.32	1454.35
464.692	1424.98
465.065	1467.46
465.438	1482.6
465.81	1503.39
466.183	1510.62
466.555	1529.15
466.928	1549.72
467.3	1567.12
467.672	1581.13
468.045	1596.05
468.417	1606.67
468.789	1595.82
469.161	1615.25
469.534	1638.3
469.906	1690.96
470.278	1709.04
470.65	1740.45
471.022	1759.43
471.394	1772.76
471.766	1797.4
472.138	1805.31
472.51	1834.23
472.882	1853.67
473.253	1890.05
473.625	1919.43
473.997	1955.58
474.369	1949.26
474.74	1951.29
475.112	1990.84
475.484	2032.19
475.855	2079.65
476.227	2096.15
476.598	2131.4
476.97	2153.55
477.341	2210.04
477.713	2225.18
478.084	2255.69
478.455	2290.04
478.827	2292.07
479.198	2356.48
479.569	2359.87
479.94	2391.5
480.311	2454.1
480.682	2456.59
481.053	2534.1
481.424	2550.37
481.795	2579.75
482.166	2625.85
482.537	2647.32
482.908	2733.42
483.279	2743.13
483.65	2796.69
484.021	2794.21
484.391	2852.51
484.762	2915.11
485.133	2944.94
485.503	2963.24
485.874	3024.48
486.244	3056.35
486.615	3048.21
486.985	3126.4
487.356	3149.45
487.726	3212.5
488.097	3234.42
488.467	3247.08
488.837	3322.1
489.207	3340.86
489.578	3399.84
489.948	3440.74
490.318	3460.4
490.688	3497.24
491.058	3552.15
491.428	3575.43
491.798	3613.85
492.168	3692.49
492.538	3697.23
492.908	3728.87
493.278	3757.12
493.648	3789.89
494.017	3822.43
494.387	3831.24
494.757	3885.7
495.126	3960.05
495.496	3975.64
495.866	3977.68
496.235	4029.43
496.605	4066.04
496.974	4078.92
497.344	4165.24
497.713	4153.27
498.082	4133.61
498.452	4242.53
498.821	4243.43
499.19	4234.85
499.559	4336.99
499.928	4293.38
500.298	4328.86
500.667	4386.25
501.036	4383.54
501.405	4403.66
501.774	4409.53
502.143	4490.88
502.512	4508.96
502.88	4511.68
503.249	4548.51
503.618	4568.85
503.987	4603.65
504.356	4642.07
504.724	4734.95
505.093	4710.54
505.462	4725.68
505.83	4744.44
506.199	4819.01
506.567	4813.59
506.936	4860.82
507.304	4890.42
507.672	4925.22
508.041	4961.15
508.409	4980.82
508.777	5037.76
509.145	5031.21
509.514	5082.73
509.882	5129.74
510.25	5141.04
510.618	5156.63
510.986	5166.12
511.354	5237.76
511.722	5283.86
512.09	5345.78
512.458	5292.67
512.826	5383.29
513.193	5444.31
513.561	5431.88
513.929	5496.06
514.297	5525.89
514.664	5604.3
515.032	5594.81
515.4	5671.87
515.767	5619.89
516.135	5710.74
516.502	5657.41
516.869	5782.6
517.237	5800.23
517.604	5785.09
517.972	5853.33
518.339	5954.8
518.706	5942.37
519.073	5975.82
519.44	5996.83
519.808	6059.43
520.175	6118.64
520.542	6197.28
520.909	6209.71
521.276	6191.18
521.643	6277.05
522.009	6314.34
522.376	6359.99
522.743	6417.39
523.11	6445.86
523.477	6545.52
523.843	6578.74
524.21	6639.3
524.577	6709.58
524.943	6728.11
525.31	6739.41
525.676	6835.91
526.043	6837.72
526.409	6905.74
526.776	6933.76
527.142	6973.98
527.508	7043.13
527.874	7103.25
528.241	7172.4
528.607	7101.21
528.973	7220.08
529.339	7178.95
529.705	7296.46
530.071	7343.01
530.437	7401.32
530.803	7456.91
531.169	7544.82
531.535	7488.09
531.901	7530.8
532.267	7553.4
532.632	7657.36
532.998	7638.15
533.364	7729.9
533.73	7734.87
534.095	7830.23
534.461	7807.41
534.826	7887.63
535.192	7853.28
535.557	7886.5
535.923	7951.58
536.288	7990.45
536.653	7967.18
537.019	8011.47
537.384	8039.94
537.749	8080.85
538.114	8131.92
538.479	8157.68
538.845	8134.63
539.21	8181.86
539.575	8181.18
539.94	8300.73
540.305	8338.02
540.67	8330.11
541.034	8389.31
541.399	8400.16
541.764	8383.89
542.129	8512.47
542.494	8476.09
542.858	8474.06
543.223	8546.82
543.587	8601.51
543.952	8629.31
544.316	8600.38
544.681	8562.42
545.045	8747.27
545.41	8729.64
545.774	8811
546.138	8730.55
546.503	8836.31
546.867	8854.61
547.231	8886.48
547.595	8926.93
547.959	8968.28
548.324	8962.86
548.688	9023.87
549.052	9073.36
549.416	9023.42
549.779	9096.41
550.143	9080.82
550.507	9176.41
550.871	9129.63
551.235	9247.37
551.599	9215.05
551.962	9295.05
552.326	9334.37
552.689	9422.51
553.053	9326.01
553.417	9372.11
553.78	9484.65
554.143	9443.52
554.507	9491.88
554.87	9616.85
555.234	9613.46
555.597	9686.91
555.96	9706.79
556.323	9722.39
556.686	9747.47
557.05	9783.63
557.413	9888.71
557.776	9920.12
558.139	9912.89
558.502	9991.98
558.865	10083.73
559.228	10155.14
559.59	10116.73
559.953	10213.67
560.316	10247.34
560.679	10297.74
561.041	10297.06
561.404	10350.84
561.767	10520.78
562.129	10409.37
562.492	10538.64
562.854	10612.53
563.217	10615.92
563.579	10640.55
563.941	10760.55
564.304	10807.1
564.666	10804.84
565.028	10860.89
565.39	10888.91
565.753	10993.76
566.115	11094.55
566.477	11139.07
566.839	11125.74
567.201	11169.58
567.563	11255.9
567.925	11350.14
568.287	11278.5
568.648	11371.83
569.01	11403.02
569.372	11471.04
569.734	11430.14
570.095	11568.44
570.457	11683.24
570.819	11660.41
571.18	11666.29
571.542	11770.92
571.903	11900.63
572.265	11839.84
572.626	11979.28
572.987	11979.95
573.349	12016.56
573.71	12130.91
574.071	12148.08
574.432	12226.5
574.794	12286.84
575.155	12319.38
575.516	12281.19
575.877	12377.46
576.238	12365.48
576.599	12477.34
576.96	12513.72
577.32	12549.88
577.681	12581.07
578.042	12653.83
578.403	12606.6
578.763	12705.58
579.124	12694.74
579.485	12796.66
579.845	12852.02
580.206	12837.33
580.566	12898.8
580.927	12852.02
581.287	13019.47
581.648	12916.2
582.008	13036.65
582.368	13047.27
582.728	13078.68
583.089	13213.37
583.449	13150.09
583.809	13158
584.169	13165.01
584.529	13104.9
584.889	13242.97
585.249	13280.26
585.609	13194.61
585.969	13315.51
586.329	13270.09
586.688	13307.15
587.048	13362.74
587.408	13379.92
587.768	13432.12
588.127	13432.34
588.487	13375.62
588.846	13507.14
589.206	13407.71
589.565	13488.39
589.925	13574.71
590.284	13529.07
590.643	13603.64
591.003	13615.62
591.362	13735.61
591.721	13630.76
592.08	13738.55
592.44	13654.03
592.799	13817.65
593.158	13758.89
593.517	13747.36
593.876	13763.64
594.235	13734.26
594.593	13870.07
594.952	13881.6
595.311	13893.58
595.67	13827.36
596.029	13977.19
596.387	14018.54
596.746	13960.01
597.104	13888.83
597.463	13949.39
597.822	14095.38
598.18	14039.79
598.538	13975.38
598.897	14158.65
599.255	14008.37
599.613	14261.48
599.972	14090.63
600.33	14207.47
600.688	14131.08
601.046	14290.4
601.404	14295.6
601.762	14273
602.12	14329.04
602.478	14412.21
602.836	14396.61
603.194	14320
603.552	14366.11
603.91	14335.37
604.268	14442.94
604.625	14390.96
604.983	14492.66
605.341	14342.38
605.698	14458.31
606.056	14529.04
606.413	14541.02
606.771	14629.38
607.128	14610.17
607.485	14618.08
607.843	14580.34
608.2	14688.81
608.557	14739.88
608.914	14668.24
609.272	14664.63
609.629	14740.11
609.986	14859.2
610.343	14845.41
610.7	14927.9
611.057	14863.04
611.414	14896.94
611.771	14903.94
612.127	14894.68
612.484	14941.23
612.841	15003.15
613.198	14937.84
613.554	14997.28
613.911	15074.34
614.267	15016.03
614.624	15111.4
614.98	15100.55
615.337	15192.3
615.693	15099.65
616.05	15197.5
616.406	15189.13
616.762	15163.82
617.118	15133.54
617.475	15121.79
617.831	15260.09
618.187	15242.24
618.543	15270.04
618.899	15335.57
619.255	15291.96
619.611	15346.19
619.967	15374.67
620.323	15458.28
620.678	15356.81
621.034	15428.68
621.39	15338.51
621.746	15353.2
622.101	15432.97
622.457	15369.92
622.812	15372.86
623.168	15451.5
623.523	15463.25
623.879	15559.75
624.234	15366.98
624.589	15499.41
624.945	15552.06
625.3	15504.38
625.655	15483.59
626.01	15487.43
626.365	15568.11
626.72	15443.37
627.075	15528.79
627.43	15542.12
627.785	15459.86
628.14	15559.07
628.495	15552.06
628.85	15482.46
629.205	15373.76
629.559	15460.54
629.914	15441.33
630.269	15405.17
630.623	15432.29
630.978	15378.28
631.332	15383.48
631.687	15466.19
632.041	15502.12
632.396	15379.19
632.75	15363.82
633.104	15437.49
633.459	15296.93
633.813	15348
634.167	15270.71
634.521	15335.8
634.875	15323.37
635.229	15207.67
635.583	15300.77
635.937	15155.92
636.291	15217.83
636.645	15216.03
636.999	15223.26
637.352	15156.59
637.706	15088.57
638.06	15192.3
638.413	15145.75
638.767	15183.26
639.121	15107.55
639.474	15147.78
639.828	15089.02
640.181	15055.8
640.534	15063.49
640.888	15106.65
641.241	15014.9
641.594	15069.14
641.947	15081.79
642.301	15034.79
642.654	14955.02
643.007	15010.61
643.36	15008.35
643.713	15023.26
644.066	15080.66
644.419	15016.03
644.771	14840.44
645.124	14733.55
645.477	14659.2
645.83	14585.31
646.182	14470.28
646.535	14497.63
646.888	14503.5
647.24	14447.91
647.593	14575.37
647.945	14578.98
648.298	14523.84
648.65	14465.31
649.002	14438.87
649.355	14466.44
649.707	14395.26
650.059	14567.91
650.411	14630.96
650.763	14718.64
651.115	14836.6
651.467	14774
651.819	14786.21
652.171	14767.68
652.523	14696.94
652.875	14638.87
653.227	14600.22
653.578	14719.99
653.93	14749.82
654.282	14707.79
654.633	14614.46
654.985	14689.26
655.337	14614.46
655.688	14692.2
656.039	14684.97
656.391	14617.85
656.742	14661.92
657.094	14627.12
657.445	14624.4
657.796	14627.34
658.147	14609.04
658.498	14611.07
658.849	14735.36
659.2	14636.83
659.551	14525.2
659.902	14692.42
660.253	14629.6
660.604	14572.43
660.955	14516.61
661.306	14597.29
661.656	14569.04
662.007	14539.43
662.358	14625.53
662.708	14636.15
663.059	14588.02
663.409	14510.51
663.76	14573.56
664.11	14682.03
664.461	14617.17
664.811	14595.03
665.161	14616.95
665.511	14563.16
665.862	14534.91
666.212	14606.55
666.562	14549.38
666.912	14580.34
667.262	14675.48
667.612	14604.07
667.962	14676.83
668.312	14545.08
668.662	14731.52
669.011	14623.73
669.361	14635.93
669.711	14607
670.06	14608.81
670.41	14539.66
670.76	14491.75
671.109	14617.4
671.459	14508.02
671.808	14585.99
672.157	14535.37
672.507	14560.9
672.856	14514.58
673.205	14542.37
673.554	14607.68
673.904	14522.26
674.253	14654.91
674.602	14480.9
674.951	14244.98
675.3	14274.13
675.649	14556.83
675.998	14512.09
676.346	14489.72
676.695	14575.82
677.044	14411.98
677.393	14475.03
677.741	14481.13
678.09	14454.46
678.438	14441.36
678.787	14337.41
679.135	14432.77
679.484	14350.74
679.832	14352.09
680.181	14389.38
680.529	14342.83
680.877	14338.54
681.225	14334.92
681.573	14303.96
681.922	14304.41
682.27	14212.89
682.618	14263.96
682.966	14208.37
683.314	14217.18
683.661	14166.56
684.009	14181.48
684.357	14072.1
684.705	14097.64
685.053	14028.04
685.4	14041.14
685.748	14017.87
686.095	13967.92
686.443	13992.1
686.79	13979
687.138	13963.4
687.485	13965.21
687.832	13893.12
688.18	13908.26
688.527	13884.99
688.874	13886.12
689.221	13877.3
689.568	13840.47
689.915	13848.83
690.262	13725.67
690.609	13683.19
690.956	13671.43
691.303	13723.86
691.65	13610.42
691.997	13605.22
692.344	13507.37
692.69	13490.2
693.037	13466.24
693.383	13506.92
693.73	13446.58
694.077	13468.95
694.423	13375.17
694.769	13314.61
695.116	13342.4
695.462	13345.34
695.808	13372.46
696.155	13280.94
696.501	13219.92
696.847	13215.85
697.193	13125.91
697.539	13156.65
697.885	13111.45
698.231	13080.94
698.577	13051.34
698.923	13034.84
699.269	12963.43
699.614	12922.98
699.96	12907.84
700.306	12876.65
700.651	12923.43
700.997	12812.47
701.342	12789.2
701.688	12693.15
702.033	12668.52
702.379	12764.11
702.724	12571.58
703.069	12683.66
703.415	12553.5
703.76	12534.97
704.105	12564.57
704.45	12548.75
704.795	12511.92
705.14	12465.82
705.485	12388.98
705.83	12420.85
706.175	12386.27
706.52	12322.32
706.865	12265.6
707.209	12320.28
707.554	12123.68
707.899	12266.05
708.243	12195.09
708.588	12152.6
708.932	12085.04
709.277	12108.09
709.621	12091.81
709.966	12001.42
710.31	12074.41
710.654	11941.31
710.998	11969.11
711.342	12009.33
711.687	11926.4
712.031	11939.95
712.375	11875.55
712.719	11948.09
713.063	11849.56
713.407	11939.95
713.75	11801.88
714.094	11825.16
714.438	11759.62
714.782	11867.41
715.125	11720.3
715.469	11744.93
715.812	11684.37
716.156	11599.4
716.499	11643.47
716.843	11676.46
717.186	11682.79
717.53	11689.79
717.873	11675.1
718.216	11654.54
718.559	11590.13
718.902	11498.16
719.246	11623.8
719.589	11517.82
719.932	11521.21
720.275	11505.39
720.617	11457.93
720.96	11492.96
721.303	11393.53
721.646	11513.07
721.989	11387.88
722.331	11420.87
722.674	11473.3
723.016	11452.74
723.359	11351.72
723.701	11399.4
724.044	11308.11
724.386	11323.47
724.729	11362.34
725.071	11363.25
725.413	11295.23
725.755	11323.02
726.097	11239.41
726.439	11245.74
726.782	11240.54
727.124	11318.73
727.465	11211.16
727.807	11239.18
728.149	11226.75
728.491	11165.74
728.833	11319.41
729.175	11163.25
729.516	11177.94
729.858	11195.12
730.199	11139.3
730.541	11124.61
730.882	11132.07
731.224	11141.78
731.565	11069.24
731.906	11070.82
732.248	11051.62
732.589	11083.25
732.93	11007.55
733.271	11049.81
733.612	10997.38
733.953	11001.67
734.294	11053.65
734.635	11061.79
734.976	11157.6
735.317	10952.18
735.658	10998.06
735.999	11032.86
736.339	10949.7
736.68	11077.6
737.021	11009.58
737.361	10967.1
737.702	11033.09
738.042	10987.44
738.383	10993.99
738.723	11012.97
739.063	10972.3
739.404	10922.58
739.744	11000.77
740.084	10872.64
740.424	10883.94
740.764	10877.16
741.104	10908.34
741.444	10888
741.784	10923.03
742.124	10930.26
742.464	10864.5
742.804	10822.7
743.143	10830.61
743.483	10860.43
743.823	10818.63
744.162	10840.55
744.502	10796.93
744.841	10756.26
745.181	10802.81
745.52	10819.31
745.86	10772.08
746.199	10789.25
746.538	10820.89
746.877	10807.55
747.216	10801.23
747.556	10801
747.895	10791.51
748.234	10743.6
748.573	10742.47
748.911	10776.37
749.25	10775.69
749.589	10678.07
749.928	10729.36
750.267	10716.71
750.605	10668.58
750.944	10610.5
751.283	10618.18
751.621	10687.78
751.96	10539.77
752.298	10638.07
752.636	10646.88
752.975	10573.21
753.313	10563.04
753.651	10588.8
753.989	10517.62
754.327	10553.78
754.666	10427.23
755.004	10487.56
755.342	10525.3
755.679	10464.29
756.017	10429.03
756.355	10470.61
756.693	10366.89
757.031	10384.74
757.368	10386.77
757.706	10354.46
758.044	10362.82
758.381	10394.91
758.719	10312.2
759.056	10278.53
759.394	10265.87
759.731	10190.62
760.068	10181.36
760.405	10145.88
760.743	10064.52
761.08	10091.87
761.417	10110.17
761.754	10038.08
762.091	10045.31
762.428	10058.87
762.765	9937.52
763.102	9974.58
763.438	9943.17
763.775	9909.5
764.112	9852.78
764.449	9867.01
764.785	9855.94
765.122	9828.82
765.458	9723.52
765.795	9741.37
766.131	9720.8
766.467	9690.97
766.804	9655.72
767.14	9640.13
767.476	9533.92
767.812	9579.34
768.148	9603.07
768.485	9477.42
768.821	9468.83
769.157	9479.45
769.492	9424.09
769.828	9422.05
770.164	9267.03
770.5	9282.4
770.836	9280.82
771.171	9225.22
771.507	9169.41
771.842	9129.63
772.178	9161.27
772.513	9188.16
772.849	9085.34
773.184	9097.54
773.519	9092.8
773.855	8992.01
774.19	8982.74
774.525	8957.43
774.86	8967.38
775.195	8841.96
775.53	8914.72
775.865	8855.97
776.2	8798.34
776.535	8701.62
776.87	8754.73
777.205	8714.73
777.539	8706.82
777.874	8694.39
778.209	8539.82
778.543	8589.53
778.878	8565.81
779.212	8507.73
779.547	8496.43
779.881	8488.29
780.215	8441.52
780.55	8425.7
780.884	8333.95
781.218	8366.26
781.552	8381.4
781.886	8265.93
782.22	8247.4
782.554	8207.62
782.888	8152.03
783.222	8139.38
783.556	8112.26
783.889	8120.85
784.223	7959.27
784.557	8035.2
784.89	8084.24
785.224	7972.15
785.557	7944.81
785.891	7924.24
786.224	7942.32
786.558	7934.41
786.891	7812.83
787.224	7773.28
787.557	7713.17
787.891	7740.74
788.224	7735.32
788.557	7715.43
788.89	7711.14
789.223	7733.51
789.556	7631.59
789.888	7656.68
790.221	7603.12
790.554	7516.34
790.887	7539.39
791.219	7490.58
791.552	7478.15
791.884	7409
792.217	7413.29
792.549	7390.47
792.882	7314.77
793.214	7309.34
793.546	7410.58
793.879	7251.94
794.211	7246.74
794.543	7246.07
794.875	7230.93
795.207	7302.79
795.539	7198.16
795.871	7219.85
796.203	7113.41
796.535	7086.07
796.867	7058.27
797.198	7044.72
797.53	7039.29
797.862	6955.45
798.193	7021.21
798.525	6995.68
798.856	6979.18
799.188	6931.72
799.519	6878.62
799.85	6865.06
800.182	6887.88
800.513	6827.55
800.844	6786.64
801.175	6771.5
801.506	6742.35
801.837	6775.57
802.168	6743.25
802.499	6676.14
802.83	6665.74
803.161	6711.17
803.491	6583.94
803.822	6650.38
804.153	6585.07
804.483	6528.35
804.814	6564.73
805.145	6515.92
805.475	6525.63
805.805	6520.89
806.136	6458.52
806.466	6467.33
806.796	6483.15
807.126	6477.05
807.457	6395.02
807.787	6406.31
808.117	6403.38
808.447	6362.25
808.777	6359.99
809.107	6365.41
809.436	6271.4
809.766	6279.09
810.096	6272.08
810.426	6248.58
810.755	6284.28
811.085	6193.89
811.414	6253.1
811.744	6248.13
812.073	6148.92
812.403	6121.58
812.732	6095.36
813.061	6145.98
813.39	6119.77
813.719	6113.44
814.049	6099.66
814.378	6106.66
814.707	6085.87
815.036	6077.74
815.365	6009.04
815.693	6005.2
816.022	5968.59
816.351	5952.99
816.68	5944.86
817.008	5920
817.337	5936.5
817.665	5910.28
817.994	5847.91
818.322	5880.23
818.651	5904.63
818.979	5854.92
819.307	5819.89
819.636	5835.48
819.964	5789.38
820.292	5832.09
820.62	5795.71
820.948	5774.47
821.276	5782.83
821.604	5813.34
821.932	5784.86
822.259	5790.06
822.587	5758.2
822.915	5790.96
823.243	5797.29
823.57	5777.63
823.898	5808.59
824.225	5754.35
824.553	5747.57
824.88	5752.55
825.207	5747.12
825.535	5776.95
825.862	5807.69
826.189	5705.09
826.516	5797.29
826.843	5753.22
827.17	5746.9
827.497	5775.82
827.824	5746.44
828.151	5776.73
828.478	5736.5
828.805	5779.44
829.131	5772.21
829.458	5731.98
829.785	5733.79
830.111	5731.76
830.438	5755.48
830.764	5704.41
831.09	5777.63
831.417	5639.33
831.743	5725.43
832.069	5701.25
832.395	5679.1
832.722	5736.05
833.048	5682.27
833.374	5690.4
833.7	5609.05
834.026	5690.18
834.351	5668.93
834.677	5708.25
835.003	5708.48
835.329	5643.85
835.654	5656.05
835.98	5617.63
836.306	5664.19
836.631	5690.85
836.956	5630.74
837.282	5620.57
837.607	5610.4
837.932	5589.16
838.258	5592.1
838.583	5616.28
838.908	5576.28
839.233	5557.52
839.558	5506
839.883	5511.2
840.208	5490.63
840.533	5548.03
840.858	5500.58
841.182	5509.39
841.507	5490.86
841.832	5489.5
842.156	5487.24
842.481	5479.11
842.805	5470.07
843.13	5469.84
843.454	5428.71
843.778	5403.86
844.103	5439.56
844.427	5375.16
844.751	5430.07
845.075	5364.08
845.399	5318.43
845.723	5307.13
846.047	5347.13
846.371	5306.46
846.695	5342.39
847.019	5253.35
847.343	5223.07
847.666	5221.71
847.99	5185.33
848.313	5167.7
848.637	5149.62
848.96	5142.39
849.284	5096.07
849.607	5106.91
849.931	5098.78
850.254	5050.64
850.577	5065.56
850.9	4990.53
851.223	4973.13
851.546	4985.56
851.869	4945.56
852.192	4981.27
852.515	4941.27
852.838	4902.17
853.161	4918.67
853.483	4934.04
853.806	4900.82
854.129	4882.51
854.451	4864.89
854.774	4851.1
855.096	4830.54
855.419	4807.49
855.741	4781.72
856.063	4794.61
856.385	4750.99
856.708	4746.02
857.03	4741.95
857.352	4706.25
857.674	4722.07
857.996	4675.96
858.318	4644.33
858.64	4651.78
858.961	4651.56
859.283	4649.07
859.605	4615.63
859.926	4618.34
860.248	4590.54
860.57	4611.11
860.891	4606.14
861.212	4588.06
861.534	4566.36
861.855	4536.08
862.176	4624.21
862.498	4535.63
862.819	4556.65
863.14	4543.54
863.461	4549.19
863.782	4522.07
864.103	4524.1
864.424	4515.29
864.745	4451.56
865.065	4474.16
865.386	4455.63
865.707	4421.51
866.027	4478.68
866.348	4441.85
866.668	4446.14
866.989	4445.46
867.309	4412.92
867.63	4419.93
867.95	4438.91
868.27	4365.46
868.59	4412.69
868.91	4390.55
869.23	4402.3
869.55	4366.14
869.87	4353.26
870.19	4344.67
870.51	4350.78
870.83	4399.36
871.15	4348.52
871.469	4353.49
871.789	4350.78
872.109	4373.15
872.428	4325.92
872.748	4313.94
873.067	4335.41
873.386	4340.15
873.706	4290.89
874.025	4308.97
874.344	4294.28
874.663	4260.38
874.982	4304
875.301	4282.98
875.62	4298.35
875.939	4319.59
876.258	4275.52
876.577	4230.55
876.896	4267.39
877.214	4243.43
877.533	4215.64
877.852	4263.55
878.17	4219.03
878.489	4252.25
878.807	4202.3
879.125	4215.86
879.444	4253.15
879.762	4171.12
880.08	4180.16
880.398	4182.42
880.716	4221.97
881.034	4139.48
881.352	4173.38
881.67	4154.85
881.988	4160.5
882.306	4165.47
882.624	4168.63
882.941	4114.62
883.259	4118.69
883.577	4080.95
883.894	4072.59
884.212	4082.76
884.529	4111.69
884.846	4091.57
885.164	4077.79
885.481	4014.51
885.798	4078.01
886.115	4007.28
886.432	4032.14
886.75	4049.77
887.067	4050.22
887.383	4044.57
887.7	4034.63
888.017	4018.58
888.334	3988.75
888.651	3964.57
888.967	3951.92
889.284	3978.58
889.6	3908.53
889.917	3922.09
890.233	3937.45
890.55	3929.54
890.866	3961.18
891.182	3894.97
891.498	3934.97
891.815	3919.6
892.131	3864.91
892.447	3853.16
892.763	3832.37
893.079	3864.46
893.395	3843.22
893.71	3836.66
894.026	3829.66
894.342	3819.04
894.657	3824.91
894.973	3812.03
895.289	3826.72
895.604	3774.07
895.92	3741.75
896.235	3747.18
896.55	3775.88
896.865	3751.02
897.181	3720.28
897.496	3716.89
897.811	3726.84
898.126	3673.73
898.441	3639.83
898.756	3657.01
899.071	3669.44
899.386	3645.26
899.7	3629.89
900.015	3602.32
900.33	3603.68
900.644	3555.09
900.959	3554.86
901.273	3597.12
901.588	3583.79
901.902	3556.22
902.216	3584.69
902.531	3549.21
902.845	3541.08
903.159	3478.93
903.473	3465.37
903.787	3507.63
904.101	3484.13
904.415	3428.09
904.729	3429.9
905.042	3443.23
905.356	3436.22
905.67	3418.14
905.984	3409.56
906.297	3430.57
906.611	3372.27
906.924	3370.69
907.237	3376.79
907.551	3431.7
907.864	3345.15
908.177	3364.81
908.491	3342.67
908.804	3345.6
909.117	3271.26
909.43	3282.55
909.743	3276.68
910.056	3266.06
910.368	3266.74
910.681	3232.61
910.994	3245.95
911.307	3236.91
911.619	3191.94
911.932	3222.44
912.244	3180.18
912.557	3185.16
912.869	3217.47
913.181	3140.64
913.494	3142.9
913.806	3109.68
914.118	3106.51
914.43	3117.59
914.742	3109
915.054	3087.76
915.366	3085.27
915.678	3047.31
915.99	3058.61
916.302	3074.42
916.613	3033.52
916.925	2973.41
917.236	3046.4
917.548	2991.94
917.859	2996.01
918.171	3027.87
918.482	3000.3
918.794	2956.01
919.105	2988.78
919.416	2959.17
919.727	2939.74
920.038	2930.02
920.349	2885.73
920.66	2895.22
920.971	2858.61
921.282	2871.49
921.593	2897.03
921.903	2868.55
922.214	2857.71
922.525	2835.56
922.835	2816.13
923.146	2810.93
923.456	2846.86
923.767	2805.73
924.077	2791.04
924.387	2834.88
924.697	2749.46
925.008	2750.37
925.318	2742.91
925.628	2724.83
925.938	2774.55
926.248	2722.8
926.558	2723.7
926.867	2691.16
927.177	2660.65
927.487	2656.58
927.796	2667.2
928.106	2670.14
928.416	2626.53
928.725	2640.54
929.034	2668.79
929.344	2624.27
929.653	2622.01
929.962	2633.53
930.271	2628.79
930.581	2603.02
930.89	2569.58
931.199	2563.03
931.508	2540.43
931.817	2557.83
932.125	2540.43
932.434	2562.57
932.743	2527.77
933.051	2518.73
933.36	2520.09
933.669	2469.92
933.977	2461.33
934.286	2497.49
934.594	2484.16
934.902	2467.89
935.21	2443.25
935.519	2476.47
935.827	2466.98
936.135	2427.21
936.443	2411.84
936.751	2402.35
937.059	2421.79
937.367	2387.44
937.674	2396.25
937.982	2378.17
938.29	2394.44
938.597	2375.69
938.905	2357.61
939.213	2366.65
939.52	2352.86
939.827	2340.43
940.135	2330.04
940.442	2333.65
940.749	2286.65
941.056	2273.09
941.363	2271.96
941.67	2276.03
941.977	2250.04
942.284	2233.77
942.591	2248.23
942.898	2208.23
943.205	2228.35
943.511	2241
943.818	2227.89
944.125	2225.18
944.431	2193.32
944.738	2194.22
945.044	2178.86
945.35	2228.57
945.657	2173.43
945.963	2135.47
946.269	2172.08
946.575	2173.66
946.881	2104.05
947.187	2166.2
947.493	2113.09
947.799	2147.44
948.105	2124.62
948.41	2080.78
948.716	2073.77
949.022	2100.67
949.327	2080.78
949.633	2069.03
949.938	2085.07
950.244	2061.57
950.549	2057.73
950.854	2046.66
951.16	2026.99
951.465	2013.44
951.77	2020.22
952.075	1999.2
952.38	1983.38
952.685	2009.59
952.99	2001.46
953.294	1975.47
953.599	1993.55
953.904	1980.22
954.209	1963.04
954.513	1971.18
954.818	1989.26
955.122	1953.78
955.426	1941.35
955.731	1911.52
956.035	1902.03
956.339	1949.26
956.643	1938.41
956.948	1896.83
957.252	1903.38
957.556	1903.38
957.86	1885.08
958.163	1859.54
958.467	1878.3
958.771	1848.47
959.075	1849.37
959.378	1845.3
959.682	1840.56
959.985	1830.39
960.289	1833.55
960.592	1819.32
960.896	1839.43
961.199	1805.98
961.502	1797.62
961.805	1810.5
962.108	1784.97
962.411	1808.02
962.714	1793.78
963.017	1782.03
963.32	1786.55
963.623	1759.43
963.926	1736.38
964.228	1737.74
964.531	1746.1
964.833	1750.62
965.136	1724.63
965.438	1697.74
965.741	1703.39
966.043	1704.07
966.345	1740.45
966.648	1684.63
966.95	1709.49
967.252	1676.04
967.554	1665.65
967.856	1662.48
968.158	1652.09
968.46	1634.01
968.761	1645.54
969.063	1664.29
969.365	1629.49
969.666	1617.06
969.968	1637.85
970.269	1620.45
970.571	1620.45
970.872	1610.06
971.174	1605.31
971.475	1578.19
971.776	1586.1
972.077	1569.38
972.378	1606.21
972.679	1565.54
972.98	1569.15
973.281	1570.51
973.582	1561.24
973.883	1564.63
974.183	1539.1
974.484	1575.71
974.785	1567.12
975.085	1546.33
975.386	1575.93
975.686	1527.8
975.986	1518.76
976.287	1507.46
976.587	1510.85
976.887	1489.83
977.187	1489.16
977.487	1506.78
977.787	1501.81
978.087	1476.05
978.387	1497.52
978.687	1497.29
978.987	1454.58
979.286	1481.47
979.586	1468.82
979.885	1457.29
980.185	1451.64
980.484	1455.48
980.784	1444.86
981.083	1437.41
981.382	1449.83
981.682	1415.71
981.981	1408.25
982.28	1411.64
982.579	1415.71
982.878	1401.93
983.177	1387.92
983.475	1375.03
983.774	1396.95
984.073	1385.88
984.372	1383.85
984.67	1402.6
984.969	1367.13
985.267	1363.74
985.566	1353.57
985.864	1344.98
986.162	1346.56
986.461	1341.59
986.759	1348.37
987.057	1318.76
987.355	1313.79
987.653	1321.02
987.951	1335.49
988.249	1341.36
988.547	1323.74
988.844	1302.95
989.142	1308.14
989.44	1309.5
989.737	1258.2
990.035	1262.5
990.332	1291.87
990.63	1269.95
990.927	1277.18
991.224	1266.79
991.521	1247.35
991.819	1260.46
992.116	1244.64
992.413	1254.36
992.71	1254.81
993.006	1241.48
993.303	1238.77
993.6	1254.59
993.897	1230.63
994.193	1215.72
994.49	1206.9
994.787	1211.42
995.083	1192.89
995.379	1196.96
995.676	1200.35
995.972	1214.81
996.268	1201.03
996.565	1182.5
996.861	1191.08
997.157	1166.23
997.453	1162.38
997.749	1143.85
998.044	1158.09
998.34	1145.44
998.636	1160.8
998.932	1126.68
999.227	1142.05
999.523	1152.22
999.818	1123.52
1000.114	1135.27
1000.409	1132.33
1000.704	1126.91
1001	1106.34
1001.295	1088.71
1001.59	1076.06
1001.885	1105.21
1002.18	1106.34
1002.475	1070.64
1002.77	1085.78
1003.065	1073.8
1003.359	1092.78
1003.654	1033.8
1003.949	1050.3
1004.243	1031.77
1004.538	1058.66
1004.832	1068.38
1005.127	1053.01
1005.421	1035.83
1005.715	998.77
1006.009	1029.73
1006.304	1027.47
1006.598	1018.43
1006.892	1003.97
1007.186	1030.86
1007.48	1026.57
1007.773	1016.85
1008.067	1002.39
1008.361	980.69
1008.655	996.74
1008.948	979.56
1009.242	964.65
1009.535	980.02
1009.829	966.01
1010.122	947.93
1010.415	985.89
1010.708	947.48
1011.001	953.8
1011.295	938.89
1011.588	985.44
1011.881	939.11
1012.173	930.3
1012.466	921.94
1012.759	935.95
1013.052	908.83
1013.344	902.73
1013.637	916.97
1013.93	894.14
1014.222	921.04
1014.514	901.83
1014.807	902.5
1015.099	885.78
1015.391	882.62
1015.683	878.1
1015.976	876.97
1016.268	877.42
1016.56	861.6
1016.851	878.32
1017.143	832.68
1017.435	866.12
1017.727	857.08
1018.018	853.92
1018.31	853.24
1018.602	850.75
1018.893	834.26
1019.185	840.81
1019.476	818.89
1019.767	857.76
1020.058	827.25
1020.35	803.07
1020.641	800.81
1020.932	790.87
1021.223	797.65
1021.514	793.35
1021.804	785.45
1022.095	792.45
1022.386	803.98
1022.677	782.73
1022.967	801.72
1023.258	779.34
1023.548	794.26
1023.839	768.95
1024.129	767.14
1024.419	767.59
1024.709	759.23
1025	768.04
1025.29	742.06
1025.58	741.15
1025.87	748.38
1026.16	758.1
1026.449	736.41
1026.739	742.28
1027.029	740.02
1027.319	708.61
1027.608	735.05
1027.898	719.91
1028.187	725.56
1028.477	684.21
1028.766	728.5
1029.055	705.67
1029.344	716.75
1029.634	702.74
1029.923	720.36
1030.212	686.47
1030.501	681.27
1030.79	691.66
1031.078	680.14
1031.367	675.84
1031.656	671.1
1031.945	672.68
1032.233	677.43
1032.522	662.51
1032.81	670.19
1033.099	675.17
1033.387	638.78
1033.675	629.07
1033.963	634.71
1034.251	652.12
1034.54	649.86
1034.828	657.09
1035.116	631.55
1035.403	610.31
1035.691	622.51
1035.979	637.88
1036.267	627.26
1036.554	610.31
1036.842	610.08
1037.129	639.91
1037.417	637.88
1037.704	614.38
1037.992	610.08
1038.279	604.21
1038.566	610.08
1038.853	610.08
1039.14	610.08
