Data from tablewood_dark_bookshelf_FLMS001491_00020.txt Node
Date: Wed Feb 08 14:13:44 GMT 2017
User: dcchb
Spectrometer: FLMS00149
Trigger mode: 0
Integration Time (sec): 2.000000E-2
Scans to average: 10
Electric dark correction enabled: true
Nonlinearity correction enabled: false
Boxcar width: 0
XAxis mode: Wavelengths
Number of Pixels in Spectrum: 2048
>>>>>Begin Spectral Data<<<<<
341.393	-16.4
341.776	-16.4
342.16	-16.4
342.543	-62.5
342.927	-71.99
343.31	-93.91
343.693	-72.89
344.077	-64.76
344.46	-52.1
344.843	-55.27
345.226	-57.07
345.61	-33.12
345.993	-19.34
346.376	4.62
346.759	21.12
347.142	32.64
347.525	45.75
347.908	55.92
348.291	76.71
348.674	107.67
349.057	104.05
349.44	112.86
349.823	152.86
350.206	172.07
350.588	196.48
350.971	196.25
351.354	205.29
351.737	212.07
352.119	230.6
352.502	236.48
352.884	250.71
353.267	280.77
353.65	266.31
354.032	271.28
354.414	291.84
354.797	284.16
355.179	302.01
355.562	301.11
355.944	310.15
356.326	334.55
356.709	328.45
357.091	325.51
357.473	321.67
357.855	316.47
358.238	338.17
358.62	311.73
359.002	330.94
359.384	330.94
359.766	332.97
360.148	330.71
360.53	329.58
360.912	326.42
361.294	335.68
361.676	315.57
362.057	332.29
362.439	332.07
362.821	322.12
363.203	337.49
363.584	313.31
363.966	319.41
364.348	320.32
364.729	301.11
365.111	309.47
365.493	317.38
365.874	328
366.256	298.17
366.637	316.93
367.019	321.45
367.4	285.74
367.781	306.08
368.163	308.34
368.544	340.2
368.925	318.28
369.306	339.3
369.688	324.16
370.069	297.49
370.45	302.92
370.831	321.9
371.212	309.02
371.593	326.64
371.974	291.84
372.355	311.96
372.736	319.19
373.117	319.19
373.498	318.73
373.879	332.97
374.26	317.6
374.641	301.11
375.021	325.06
375.402	320.32
375.783	320.32
376.163	328.23
376.544	314.67
376.925	337.94
377.305	328.23
377.686	336.59
378.066	334.78
378.447	320.09
378.827	335.68
379.208	328.68
379.588	352.86
379.968	339.3
380.349	344.27
380.729	339.3
381.109	347.89
381.489	324.38
381.87	339.52
382.25	346.98
382.63	338.85
383.01	343.59
383.39	355.12
383.77	350.37
384.15	351.5
384.53	365.29
384.91	342.91
385.29	349.02
385.67	352.18
386.049	359.64
386.429	379.3
386.809	381.11
387.189	357.15
387.568	371.39
387.948	372.29
388.328	372.07
388.707	370.48
389.087	387.89
389.466	361.22
389.846	368.9
390.225	376.36
390.605	399.18
390.984	393.76
391.363	374.78
391.743	396.02
392.122	403.03
392.501	385.4
392.881	391.28
393.26	422.01
393.639	383.59
394.018	400.54
394.397	398.28
394.776	378.39
395.155	403.7
395.534	427.43
395.913	426.08
396.292	419.3
396.671	432.18
397.05	432.18
397.429	419.75
397.808	404.16
398.186	431.05
398.565	426.98
398.944	438.05
399.323	448.9
399.701	426.08
400.08	442.12
400.458	464.04
400.837	435.12
401.215	441.9
401.594	439.86
401.972	440.77
402.351	450.48
402.729	465.4
403.107	478.05
403.486	470.14
403.864	476.24
404.242	485.28
404.62	467.66
404.999	478.05
405.377	473.98
405.755	488.22
406.133	481.89
406.511	472.63
406.889	484.15
407.267	508.56
407.645	498.39
408.023	501.33
408.401	498.62
408.779	511.95
409.156	526.64
409.534	520.09
409.912	533.64
410.29	530.03
410.667	532.06
411.045	520.09
411.422	526.86
411.8	529.58
412.178	565.51
412.555	550.14
412.933	540.42
413.31	555.11
413.687	566.41
414.065	567.99
414.442	566.19
414.819	567.32
415.197	575.9
415.574	595.79
415.951	599.86
416.328	609.8
416.705	595.34
417.082	623.36
417.46	615.22
417.837	605.05
418.214	611.16
418.591	619.52
418.967	633.98
419.344	637.82
419.721	619.74
420.098	635.79
420.475	633.08
420.852	643.92
421.228	630.59
421.605	664.94
421.982	669.46
422.358	639.18
422.735	662
423.111	670.82
423.488	668.78
423.864	669.69
424.241	674.88
424.617	686.18
424.994	695.22
425.37	692.51
425.746	696.13
426.123	718.95
426.499	715.11
426.875	700.42
427.251	742.23
427.627	742.68
428.003	736.58
428.379	745.84
428.756	760.53
429.132	753.3
429.507	760.98
429.883	779.06
430.259	779.97
430.635	767.54
431.011	776.35
431.387	799.63
431.763	828.78
432.138	845.73
432.514	823.58
432.89	854.54
433.265	849.12
433.641	856.12
434.016	864.71
434.392	861.32
434.767	868.32
435.143	886.18
435.518	884.37
435.894	885.95
436.269	910.81
436.644	919.85
437.02	934.09
437.395	915.78
437.77	935.89
438.145	936.12
438.52	953.29
438.895	981.54
439.271	956.46
439.646	995.55
440.021	958.94
440.395	991.94
440.77	991.71
441.145	1001.65
441.52	1011.82
441.895	1032.84
442.27	1030.81
442.645	1007.98
443.019	1020.19
443.394	1036.23
443.769	1035.55
444.143	1070.81
444.518	1051.14
444.892	1064.7
445.267	1058.83
445.641	1101.09
446.016	1078.71
446.39	1085.04
446.764	1120.52
447.139	1081.65
447.513	1109.22
447.887	1100.86
448.262	1123.23
448.636	1140.63
449.01	1130.69
449.384	1142.44
449.758	1116
450.132	1142.67
450.506	1142.44
450.88	1167.75
451.254	1183.8
451.628	1197.36
452.002	1187.86
452.376	1204.14
452.75	1228.54
453.123	1238.71
453.497	1230.12
453.871	1250.91
454.244	1273.29
454.618	1259.73
454.992	1267.86
455.365	1294.75
455.739	1330.46
456.112	1318.71
456.486	1365.94
456.859	1316
457.232	1373.62
457.606	1354.41
457.979	1385.6
458.352	1412.27
458.725	1422.43
459.099	1449.33
459.472	1454.52
459.845	1469.66
460.218	1471.92
460.591	1500.17
460.964	1502.43
461.337	1565.03
461.71	1550.11
462.083	1584.92
462.456	1568.19
462.829	1597.57
463.201	1631.92
463.574	1619.27
463.947	1597.57
464.32	1660.85
464.692	1671.24
465.065	1674.63
465.438	1717.79
465.81	1701.07
466.183	1754.18
466.555	1772.03
466.928	1795.98
467.3	1798.92
467.672	1799.15
468.045	1847.96
468.417	1841.86
468.789	1874.85
469.161	1863.78
469.534	1926.38
469.906	1944.68
470.278	1979.93
470.65	1990.56
471.022	2027.16
471.394	2054.28
471.766	2062.42
472.138	2099.03
472.51	2135.18
472.882	2154.17
473.253	2198.23
473.625	2221.96
473.997	2221.06
474.369	2278.91
474.74	2301.51
475.112	2334.95
475.484	2378.34
475.855	2399.58
476.227	2399.58
476.598	2489.07
476.97	2500.6
477.341	2536.98
477.713	2556.42
478.084	2599.58
478.455	2667.15
478.827	2663.08
479.198	2784.43
479.569	2766.81
479.94	2842.51
480.311	2836.18
480.682	2909.85
481.053	2947.82
481.424	3007.25
481.795	3055.39
482.166	3077.98
482.537	3111.2
482.908	3161.15
483.279	3189.17
483.65	3270.97
484.021	3312.1
484.391	3317.53
484.762	3390.29
485.133	3383.29
485.503	3488.82
485.874	3550.29
486.244	3580.12
486.615	3622.15
486.985	3668.7
487.356	3704.41
487.726	3708.25
488.097	3835.93
488.467	3836.16
488.837	3905.31
489.207	3943.5
489.578	3996.15
489.948	4052.42
490.318	4089.03
490.688	4139.65
491.058	4141.01
491.428	4239.08
491.798	4251.06
492.168	4315.92
492.538	4351.17
492.908	4398.63
493.278	4450.38
493.648	4490.38
494.017	4495.8
494.387	4545.74
494.757	4603.82
495.126	4653.54
495.496	4684.72
495.866	4712.07
496.235	4744.83
496.605	4804.72
496.974	4800.42
497.344	4840.65
497.713	4878.61
498.082	4899.63
498.452	4965.84
498.821	5032.51
499.19	4968.56
499.559	5039.51
499.928	5082.23
500.298	5138.49
500.667	5191.83
501.036	5218.27
501.405	5226.4
501.774	5247.42
502.143	5340.07
502.512	5298.04
502.88	5321.09
503.249	5405.15
503.618	5432.5
503.987	5478.6
504.356	5505.04
504.724	5512.95
505.093	5490.35
505.462	5551.14
505.83	5608.31
506.199	5658.48
506.567	5718.82
506.936	5700.97
507.304	5788.2
507.672	5773.51
508.041	5849.44
508.409	5908.19
508.777	6015.31
509.145	5992.71
509.514	5987.06
509.882	6055.53
510.25	6008.75
510.618	6147.96
510.986	6202.87
511.354	6185.7
511.722	6251.91
512.09	6397.44
512.458	6325.81
512.826	6400.38
513.193	6366.03
513.561	6468.18
513.929	6489.87
514.297	6580.26
514.664	6623.65
515.032	6677.89
515.4	6693.26
515.767	6724.89
516.135	6803.31
516.502	6736.87
516.869	6888.51
517.237	6887.6
517.604	6879.24
517.972	7001.5
518.339	6969.63
518.706	7058.9
519.073	7060.7
519.44	7138.22
519.808	7265.9
520.175	7243.98
520.542	7380.7
520.909	7375.05
521.276	7394.93
521.643	7423.63
522.009	7574.59
522.376	7556.06
522.743	7620.69
523.11	7714.7
523.477	7841.7
523.843	7803.74
524.21	7882.15
524.577	8003.28
524.943	8013.9
525.31	8111.3
525.676	8121.02
526.043	8187
526.409	8307.45
526.776	8399.65
527.142	8372.76
527.508	8397.62
527.874	8431.97
528.241	8552.87
528.607	8514.45
528.973	8643.26
529.339	8621.34
529.705	8713.54
530.071	8787.44
530.437	8810.04
530.803	8866.76
531.169	8899.3
531.535	8990.6
531.901	8987.89
532.267	8944.72
532.632	9109.24
532.998	9141.1
533.364	9209.35
533.73	9342
534.095	9298.39
534.461	9383.81
534.826	9416.57
535.192	9462.9
535.557	9493.41
535.923	9446.4
536.288	9573.41
536.653	9624.93
537.019	9578.83
537.384	9617.7
537.749	9742.44
538.114	9780.63
538.479	9734.76
538.845	9804.13
539.21	9857.69
539.575	9825.6
539.94	9917.13
540.305	9979.72
540.67	9947.63
541.034	10064.47
541.399	10145.14
541.764	10154.86
542.129	10187.85
542.494	10245.25
542.858	10228.98
543.223	10190.57
543.587	10304.69
543.952	10317.57
544.316	10345.82
544.681	10417.45
545.045	10396.21
545.41	10481.18
545.774	10511.01
546.138	10538.35
546.503	10657.9
546.867	10634.62
547.231	10753.49
547.595	10711.23
547.959	10776.76
548.324	10737.44
548.688	10751.91
549.052	10862.19
549.416	10898.34
549.779	10928.85
550.143	10938.57
550.507	11079.36
550.871	11048.85
551.235	11084.55
551.599	11160.71
551.962	11229.63
552.326	11294.94
552.689	11296.75
553.053	11297.88
553.417	11282.29
553.78	11482.73
554.143	11426.47
554.507	11579.91
554.87	11581.94
555.234	11602.05
555.597	11682.05
555.96	11714.37
556.323	11771.31
556.686	11761.6
557.05	11824.42
557.413	11979.9
557.776	11947.58
558.139	12018.77
558.502	12082.72
558.865	12164.07
559.228	12284.52
559.59	12261.02
559.953	12294.46
560.316	12463.73
560.679	12492.88
561.041	12623.04
561.404	12642.03
561.767	12748.46
562.129	12621.46
562.492	12867.33
562.854	12858.74
563.217	12829.37
563.579	12973.32
563.941	12959.76
564.304	13126.31
564.666	13117.49
565.028	13162.92
565.39	13298.96
565.753	13352.74
566.115	13404.04
566.477	13579.63
566.839	13503.47
567.201	13642.23
567.563	13688.55
567.925	13726.07
568.287	13804.71
568.648	13835.67
569.01	13998.37
569.372	14074.08
569.734	14073.18
570.095	14163.12
570.457	14161.31
570.819	14186.39
571.18	14313.85
571.542	14439.27
571.903	14394.52
572.265	14596.33
572.626	14595.42
572.987	14552.26
573.349	14672.71
573.71	14726.27
574.071	14885.36
574.432	14891.01
574.794	14972.59
575.155	15116.09
575.516	14966.94
575.877	15087.39
576.238	15172.36
576.599	15274.95
576.96	15251
577.32	15319.92
577.681	15388.39
578.042	15496.87
578.403	15492.12
578.763	15428.62
579.124	15567.83
579.485	15648.5
579.845	15714.71
580.206	15709.97
580.566	15691.21
580.927	15801.27
581.287	15855.5
581.648	15796.97
582.008	16010.53
582.368	16020.47
582.728	16105.44
583.089	16148.6
583.449	16093.69
583.809	16133.46
584.169	16187.47
584.529	16133.69
584.889	16280.35
585.249	16220.01
585.609	16120.35
585.969	16359.44
586.329	16281.25
586.688	16422.72
587.048	16439.44
587.408	16425.88
587.768	16467.91
588.127	16359.67
588.487	16430.63
588.846	16710.39
589.206	16489.16
589.565	16514.01
589.925	16702.48
590.284	16586.78
590.643	16724.4
591.003	16765.99
591.362	16756.72
591.721	16763.05
592.08	16828.58
592.44	16812.54
592.799	16881.01
593.158	16881.91
593.517	16904.74
593.876	16998.07
594.235	16946.77
594.593	17043.72
594.952	17064.51
595.311	16999.43
595.67	17027
596.029	17199.42
596.387	17250.94
596.746	17250.94
597.104	17261.79
597.463	17237.84
597.822	17329.13
598.18	17256.59
598.538	17298.4
598.897	17410.04
599.255	17260.66
599.613	17542.01
599.972	17456.59
600.33	17492.75
600.688	17335.24
601.046	17580.65
601.404	17582.46
601.762	17598.73
602.12	17751.72
602.478	17732.74
602.836	17755.56
603.194	17633.76
603.552	17716.7
603.91	17655
604.268	17867.88
604.625	17862.45
604.983	17930.47
605.341	17830.14
605.698	17985.61
606.056	18014.31
606.413	18038.49
606.771	18054.77
607.128	18079.17
607.485	18078.27
607.843	18006.41
608.2	18268.32
608.557	18276.91
608.914	18166.63
609.272	18266.96
609.629	18385.6
609.986	18436
610.343	18368.2
610.7	18459.73
611.057	18398.71
611.414	18426.51
611.771	18421.99
612.127	18494.08
612.484	18524.13
612.841	18614.52
613.198	18583.79
613.554	18661.53
613.911	18706.73
614.267	18635.54
614.624	18693.84
614.98	18741.08
615.337	18809.55
615.693	18758.93
616.05	18854.52
616.406	18903.33
616.762	18927.28
617.118	18876.44
617.475	18819.72
617.831	18874.18
618.187	18859.72
618.543	18943.33
618.899	19101.29
619.255	19068.98
619.611	18987.85
619.967	19060.39
620.323	19102.42
620.678	19067.62
621.034	19066.94
621.39	19021.97
621.746	19029.2
622.101	19235.07
622.457	19200.27
622.812	19171.12
623.168	19167.96
623.523	19220.38
623.879	19344.22
624.234	19204.79
624.589	19266.71
624.945	19162.31
625.3	19261.06
625.655	19320.95
626.01	19236.2
626.365	19278.91
626.72	19232.36
627.075	19161.18
627.43	19130.22
627.785	19135.64
628.14	19211.35
628.495	19207.96
628.85	19132.03
629.205	19146.26
629.559	19348.74
629.914	19136.77
630.269	19213.38
630.623	19080.73
630.978	19143.32
631.332	19264.9
631.687	19286.82
632.041	19071.01
632.396	19197.11
632.75	19057
633.104	19184.45
633.459	19017
633.813	19054.74
634.167	19013.16
634.521	19088.41
634.875	19043.67
635.229	18969.09
635.583	18841.19
635.937	18978.58
636.291	18908.98
636.645	18974.52
636.999	18990.33
637.352	18918.25
637.706	18838.7
638.06	18878.47
638.413	18817.23
638.767	18803.9
639.121	18833.05
639.474	18766.61
639.828	18768.87
640.181	18730.45
640.534	18786.72
640.888	18812.71
641.241	18638.03
641.594	18791.92
641.947	18677.57
642.301	18638.7
642.654	18654.3
643.007	18746.5
643.36	18687.07
643.713	18656.33
644.066	18705.14
644.419	18612.49
644.771	18467.86
645.124	18343.35
645.477	18306.74
645.83	18163.01
646.182	18076.69
646.535	18057.93
646.888	18072.62
647.24	18028.55
647.593	18096.57
647.945	18035.78
648.298	17899.06
648.65	17905.62
649.002	17910.81
649.355	17960.98
649.707	17873.53
650.059	17947.42
650.411	18219.96
650.763	18250.24
651.115	18431.7
651.467	18380.86
651.819	18318.94
652.171	18340.86
652.523	18385.15
652.875	18338.83
653.227	18183.35
653.578	18396.23
653.93	18199.39
654.282	18194.65
654.633	18192.16
654.985	18234.42
655.337	18332.5
655.688	18306.28
656.039	18343.8
656.391	18193.29
656.742	18266.51
657.094	18193.52
657.445	18206.17
657.796	18135.67
658.147	18169.56
658.498	18247.98
658.849	18264.25
659.2	18168.66
659.551	18137.02
659.902	18190.36
660.253	18192.84
660.604	18180.41
660.955	18160.75
661.306	18128.66
661.656	18135.89
662.007	18088.21
662.358	18161.2
662.708	18130.92
663.059	18153.29
663.409	18035.56
663.76	18178.15
664.11	18115.78
664.461	18114.88
664.811	18152.62
665.161	18235.33
665.511	18051.38
665.862	18201.2
666.212	18210.47
666.562	18129.57
666.912	18076.91
667.262	18125.5
667.612	18128.66
667.962	18109.68
668.312	18160.53
668.662	18183.8
669.011	18155.1
669.361	18046.86
669.711	18130.47
670.06	18014.09
670.41	18009.57
670.76	18082.34
671.109	18154.65
671.459	18076.23
671.808	18083.69
672.157	18137.7
672.507	18025.61
672.856	18043.24
673.205	18096.57
673.554	18087.53
673.904	18087.31
674.253	18162.33
674.602	17996.91
674.951	17820.2
675.3	17657.94
675.649	18017.93
675.998	18042.79
676.346	18028.55
676.695	18026.07
677.044	17907.65
677.393	17962.11
677.741	17939.51
678.09	17957.37
678.438	17944.71
678.787	17960.3
679.135	18003.47
679.484	17847.31
679.832	18045.05
680.181	17831.95
680.529	17912.62
680.877	17882.57
681.225	17903.81
681.573	17963.24
681.922	17832.62
682.27	17725.06
682.618	17687.77
682.966	17718.05
683.314	17791.04
683.661	17678.5
684.009	17607.32
684.357	17539.52
684.705	17564.38
685.053	17654.32
685.4	17649.58
685.748	17560.77
686.095	17452.07
686.443	17449.58
686.79	17401.22
687.138	17466.08
687.485	17500.88
687.832	17403.71
688.18	17305.18
688.527	17330.04
688.874	17214.11
689.221	17296.37
689.568	17242.36
689.915	17285.29
690.262	17231.96
690.609	17191.74
690.956	17261.11
691.303	17117.61
691.65	17095.69
691.997	17046.66
692.344	16875.36
692.69	16960.56
693.037	16945.42
693.383	16854.8
693.73	16902.48
694.077	16744.74
694.423	16778.87
694.769	16764.86
695.116	16761.92
695.462	16735.7
695.808	16628.36
696.155	16665.42
696.501	16656.61
696.847	16485.77
697.193	16362.15
697.539	16528.25
697.885	16354.7
698.231	16398.31
698.577	16262.5
698.923	16294.36
699.269	16231.31
699.614	16144.08
699.96	16034.93
700.306	16147.47
700.651	16042.16
700.997	16042.39
701.342	16031.99
701.688	16001.94
702.033	16012.33
702.379	15927.59
702.724	15909.29
703.069	15880.59
703.415	15751.55
703.76	15812.79
704.105	15865.44
704.45	15749.52
704.795	15771.89
705.14	15667.03
705.485	15617.77
705.83	15522.85
706.175	15515.17
706.52	15570.99
706.865	15438.56
707.209	15502.06
707.554	15428.85
707.899	15427.26
708.243	15416.42
708.588	15265.91
708.932	15299.36
709.277	15279.25
709.621	15329.19
709.966	15262.97
710.31	15243.99
710.654	15055.3
710.998	15146.59
711.342	15098.23
711.687	15194.5
712.031	15093.71
712.375	14945.92
712.719	15018.46
713.063	15034.51
713.407	14987.28
713.75	14896.43
714.094	14922.42
714.438	14865.92
714.782	14921.74
715.125	14845.58
715.469	14832.25
715.812	14767.85
716.156	14742.08
716.499	14744.12
716.843	14761.97
717.186	14684.46
717.53	14806.26
717.873	14782.99
718.216	14762.65
718.559	14639.94
718.902	14578.02
719.246	14629.77
719.589	14524.01
719.932	14486.5
720.275	14524.69
720.617	14503.67
720.96	14526.95
721.303	14518.59
721.646	14450.34
721.989	14395.88
722.331	14421.87
722.674	14447.18
723.016	14414.41
723.359	14338.03
723.701	14415.54
724.044	14310.23
724.386	14257.8
724.729	14256.22
725.071	14295.99
725.413	14324.47
725.755	14223
726.097	14262.32
726.439	14179.39
726.782	14158.82
727.124	14121.99
727.465	14159.5
727.807	14168.09
728.149	14088.32
728.491	14128.31
728.833	14130.57
729.175	14063.91
729.516	14027.75
729.858	14096.45
730.199	14025.04
730.541	14042.22
730.882	14042.89
731.224	14047.19
731.565	13956.12
731.906	14027.07
732.248	13986.85
732.589	13993.63
732.93	13881.99
733.271	13920.41
733.612	13947.53
733.953	13945.49
734.294	13903.46
734.635	13854.88
734.976	13921.54
735.317	13847.64
735.658	13790.7
735.999	13824.82
736.339	13742.11
736.68	13876.8
737.021	13817.81
737.361	13711.15
737.702	13824.37
738.042	13769.68
738.383	13648.33
738.723	13652.62
739.063	13688.55
739.404	13749.34
739.744	13587.76
740.084	13548.67
740.424	13569.91
740.764	13614.66
741.104	13679.29
741.444	13577.37
741.784	13543.47
742.124	13637.71
742.464	13561.78
742.804	13583.7
743.143	13559.52
743.483	13536.92
743.823	13469.8
744.162	13415.57
744.502	13448.11
744.841	13455.79
745.181	13478.16
745.52	13439.07
745.86	13446.98
746.199	13452.85
746.538	13406.53
746.877	13408.79
747.216	13377.15
747.556	13322.01
747.895	13426.64
748.234	13304.83
748.573	13294.66
748.911	13238.39
749.25	13316.58
749.589	13198.4
749.928	13256.02
750.267	13231.84
750.605	13253.08
750.944	13253.54
751.283	13156.82
751.621	13236.59
751.96	13183.71
752.298	13090.38
752.636	13114.1
752.975	13026.65
753.313	13000.66
753.651	13057.38
753.989	12933.54
754.327	12960.44
754.666	12846.99
755.004	12858.07
755.342	12914.34
755.679	12902.81
756.017	12749.82
756.355	12834.79
756.693	12753.66
757.031	12749.59
757.368	12694.91
757.706	12674.79
758.044	12637.05
758.381	12637.28
758.719	12596.83
759.056	12609.71
759.394	12540.56
759.731	12483.84
760.068	12410.17
760.405	12412.2
760.743	12423.5
761.08	12379.21
761.417	12337.85
761.754	12341.92
762.091	12312.77
762.428	12242.94
762.765	12211.3
763.102	12178.99
763.438	12189.83
763.775	12042.27
764.112	12054.92
764.449	12046.11
764.785	11985.55
765.122	11883.85
765.458	11938.32
765.795	11895.15
766.131	11864.87
766.467	11792.11
766.804	11675.72
767.14	11662.62
767.476	11755.95
767.812	11590.3
768.148	11655.16
768.485	11597.76
768.821	11462.17
769.157	11496.97
769.492	11525.22
769.828	11451.1
770.164	11381.04
770.5	11324.55
770.836	11368.16
771.171	11194.38
771.507	11192.35
771.842	11127.04
772.178	11189.64
772.513	11072.58
772.849	11071.67
773.184	11039.81
773.519	10959.81
773.855	10921.62
774.19	10884.56
774.525	10827.16
774.86	10816.09
775.195	10790.32
775.53	10782.41
775.865	10729.31
776.2	10620.16
776.535	10563.89
776.87	10541.06
777.205	10567.73
777.539	10481.41
777.874	10500.16
778.209	10406.83
778.543	10419.26
778.878	10355.31
779.212	10301.97
779.547	10226.95
779.881	10269.21
780.215	10211.13
780.55	10261.75
780.884	10128.42
781.218	10134.07
781.552	10113.96
781.886	10043
782.22	9963
782.554	9972.49
782.888	9837.13
783.222	9817.24
783.556	9831.48
783.889	9772.72
784.223	9707.19
784.557	9709.22
784.89	9685.49
785.224	9663.35
785.557	9637.36
785.891	9571.6
786.224	9573.41
786.558	9572.73
786.891	9517.36
787.224	9456.8
787.557	9370.25
787.891	9354.43
788.224	9322.57
788.557	9375.9
788.89	9309.68
789.223	9284.83
789.556	9225.84
789.888	9207.54
790.221	9198.28
790.554	9146.75
790.887	9080.54
791.219	9030.6
791.552	9037.83
791.884	9021.1
792.217	8965.29
792.549	8892.52
792.882	8910.6
793.214	8824.27
793.546	8885.74
793.879	8761
794.211	8754.22
794.543	8711.73
794.875	8674.67
795.207	8736.37
795.539	8691.85
795.871	8644.62
796.203	8578.4
796.535	8501.34
796.867	8576.6
797.198	8444.62
797.53	8510.38
797.862	8450.5
798.193	8427.45
798.525	8375.02
798.856	8416.15
799.188	8302.93
799.519	8269.03
799.85	8290.73
800.182	8200.34
800.513	8288.24
800.844	8130.51
801.175	8185.19
801.506	8121.02
801.837	8071.75
802.168	8131.41
802.499	8120.34
802.83	8078.53
803.161	7927.8
803.491	8019.55
803.822	8004.63
804.153	7977.52
804.483	7902.26
804.814	7893.68
805.145	7833.11
805.475	7825.43
805.805	7759.22
806.136	7790.18
806.466	7795.37
806.796	7808.48
807.126	7695.49
807.457	7654.59
807.787	7674.25
808.117	7665.66
808.447	7680.12
808.777	7699.33
809.107	7603.51
809.436	7599.9
809.766	7549.5
810.096	7492.78
810.426	7570.75
810.755	7544.31
811.085	7479
811.414	7489.17
811.744	7424.76
812.073	7389.06
812.403	7366.91
812.732	7321.94
813.061	7333.01
813.39	7353.13
813.719	7299.12
814.049	7306.12
814.378	7308.16
814.707	7291.88
815.036	7253.24
815.365	7224.32
815.693	7108.39
816.022	7158.55
816.351	7129.18
816.68	7050.08
817.008	7061.83
817.337	7023.19
817.665	7065.45
817.994	7066.81
818.322	7028.84
818.651	6992.23
818.979	6962.85
819.307	6991.1
819.636	7003.53
819.964	6880.6
820.292	6951.78
820.62	6892.8
820.948	6898.67
821.276	6898.22
821.604	6894.61
821.932	6876.75
822.259	6942.29
822.587	6913.14
822.915	6869.07
823.243	6879.69
823.57	6909.07
823.898	6932.35
824.225	6862.29
824.553	6830.43
824.88	6862.29
825.207	6897.09
825.535	6917.66
825.862	6926.02
826.189	6858.68
826.516	6913.59
826.843	6892.57
827.17	6885.79
827.497	6860.03
827.824	6874.04
828.151	6852.8
828.478	6877.43
828.805	6919.24
829.131	6856.19
829.458	6877.43
829.785	6763.31
830.111	6836.98
830.438	6905.45
830.764	6820.26
831.09	6818.9
831.417	6779.81
831.743	6791.78
832.069	6849.18
832.395	6776.87
832.722	6853.7
833.048	6810.32
833.374	6833.37
833.7	6766.02
834.026	6753.37
834.351	6760.6
834.677	6783.88
835.003	6758.34
835.329	6730.77
835.654	6726.02
835.98	6653.48
836.306	6759.02
836.631	6724.89
836.956	6716.31
837.282	6769.41
837.607	6685.12
837.932	6647.16
838.258	6693.26
838.583	6648.96
838.908	6607.83
839.233	6637.66
839.558	6609.42
839.883	6532.81
840.208	6638.57
840.533	6551.34
840.858	6540.04
841.182	6569.87
841.507	6531.9
841.832	6524.9
842.156	6536.42
842.481	6507.5
842.805	6502.07
843.13	6468.18
843.454	6412.81
843.778	6420.5
844.103	6417.11
844.427	6418.46
844.751	6396.77
845.075	6372.81
845.399	6344.11
845.723	6339.82
846.047	6335.3
846.371	6275.64
846.695	6287.62
847.019	6202.42
847.343	6232.7
847.666	6196.77
847.99	6125.59
848.313	6158.58
848.637	6140.05
848.96	6109.54
849.284	6086.72
849.607	6027.06
849.931	6030.45
850.254	5922.66
850.577	6025.93
850.9	5918.36
851.223	5908.64
851.546	5877.23
851.869	5909.77
852.192	5904.58
852.515	5813.05
852.838	5810.57
853.161	5878.81
853.483	5779.61
853.806	5790.91
854.129	5760.85
854.451	5750.91
854.774	5714.75
855.096	5712.94
855.419	5648.31
855.741	5705.03
856.063	5583
856.385	5645.6
856.708	5600.4
857.03	5589.1
857.352	5625.26
857.674	5596.56
857.996	5546.17
858.318	5534.42
858.64	5559.27
858.961	5508.65
859.283	5483.8
859.605	5491.48
859.926	5481.31
860.248	5465.72
860.57	5401.09
860.891	5416.68
861.212	5418.26
861.534	5445.15
861.855	5430.69
862.176	5359.05
862.498	5394.76
862.819	5393.18
863.14	5413.52
863.461	5369.9
863.782	5364.7
864.103	5336.23
864.424	5325.61
864.745	5335.33
865.065	5317.93
865.386	5282.22
865.707	5245.84
866.027	5340.07
866.348	5265.05
866.668	5246.97
866.989	5262.56
867.309	5206.29
867.63	5227.98
867.95	5279.96
868.27	5189.11
868.59	5221.88
868.91	5175.1
869.23	5161.09
869.55	5170.36
869.87	5218.04
870.19	5202.9
870.51	5202.67
870.83	5175.1
871.15	5162
871.469	5122.22
871.789	5164.26
872.109	5139.17
872.428	5087.42
872.748	5124.48
873.067	5133.07
873.386	5113.64
873.706	5098.5
874.025	5059.17
874.344	5032.28
874.663	5058.95
874.982	5085.39
875.301	5059.85
875.62	5054.66
875.939	5015.56
876.258	5025.05
876.577	5007.88
876.896	5026.86
877.214	4964.71
877.533	5046.97
877.852	5005.17
878.17	5002.23
878.489	4969.91
878.807	4996.58
879.125	4988.67
879.444	4984.83
879.762	4966.3
880.08	4973.3
880.398	4934.66
880.716	4934.43
881.034	4953.87
881.352	4915.68
881.67	4910.48
881.988	4885.39
882.306	4881.33
882.624	4856.69
882.941	4879.74
883.259	4843.36
883.577	4821.44
883.894	4790.48
884.212	4881.1
884.529	4877.03
884.846	4792.29
885.164	4842.01
885.481	4820.99
885.798	4798.62
886.115	4766.53
886.432	4749.8
886.75	4766.98
887.067	4704.16
887.383	4749.8
887.7	4717.94
888.017	4748
888.334	4672.52
888.651	4715
888.967	4720.2
889.284	4701.44
889.6	4652.63
889.917	4661.45
890.233	4651.28
890.55	4611.5
890.866	4625.29
891.182	4651.5
891.498	4587.55
891.815	4508.45
892.131	4572.86
892.447	4577.61
892.763	4525.18
893.079	4555.01
893.395	4538.96
893.71	4511.62
894.026	4493.54
894.342	4470.94
894.657	4437.72
894.973	4435.69
895.289	4459.64
895.604	4443.15
895.92	4422.36
896.235	4446.99
896.55	4411.28
896.865	4386.42
897.181	4407.21
897.496	4362.02
897.811	4374.67
898.126	4344.62
898.441	4356.14
898.756	4327.89
899.071	4244.96
899.386	4296.03
899.7	4262.59
900.015	4282.7
900.33	4248.8
900.644	4256.26
900.959	4272.53
901.273	4246.54
901.588	4195.47
901.902	4164.96
902.216	4145.98
902.531	4173.1
902.845	4142.59
903.159	4106.66
903.473	4153.44
903.787	4132.65
904.101	4099.43
904.415	4040.67
904.729	4056.94
905.042	4050.39
905.356	4065.53
905.67	4038.64
905.984	4051.29
906.297	4022.59
906.611	3972.65
906.924	3971.29
907.237	3981.24
907.551	3932.65
907.864	3897.62
908.177	3923.61
908.491	3947.34
908.804	3921.35
909.117	3911.18
909.43	3904.85
909.743	3868.7
910.056	3813.78
910.368	3782.82
910.681	3797.97
910.994	3794.35
911.307	3797.29
911.619	3749.38
911.932	3809.04
912.244	3746.44
912.557	3738.53
912.869	3741.02
913.181	3728.36
913.494	3753.22
913.806	3695.37
914.118	3697.85
914.43	3654.92
914.742	3645.65
915.054	3621.92
915.366	3593.45
915.678	3620.57
915.99	3612.89
916.302	3583.28
916.613	3587.12
916.925	3571.3
917.236	3529.5
917.548	3532.44
917.859	3541.7
918.171	3535.37
918.482	3510.29
918.794	3466.45
919.105	3494.92
919.416	3440.91
919.727	3453.79
920.038	3430.52
920.349	3396.85
920.66	3401.59
920.971	3404.53
921.282	3390.52
921.593	3388.48
921.903	3352.33
922.214	3359.56
922.525	3343.97
922.835	3348.71
923.146	3307.36
923.456	3309.84
923.767	3282.27
924.077	3331.54
924.387	3293.57
924.697	3233.23
925.008	3229.39
925.318	3222.16
925.628	3253.57
925.938	3209.73
926.248	3146.91
926.558	3168.83
926.867	3166.34
927.177	3189.39
927.487	3174.03
927.796	3127.47
928.106	3119.56
928.416	3132.22
928.725	3073.69
929.034	3112.11
929.344	3077.76
929.653	3086.57
929.962	3046.57
930.271	3037.08
930.581	3012
930.89	3015.39
931.199	3016.06
931.508	3000.92
931.817	3017.42
932.125	3001.15
932.434	2977.2
932.743	2927.71
933.051	2933.13
933.36	2955.28
933.669	2936.52
933.977	2935.61
934.286	2881.15
934.594	2941.49
934.902	2898.78
935.21	2893.81
935.519	2907.14
935.827	2877.99
936.135	2887.48
936.443	2822.85
936.751	2823.08
937.059	2827.6
937.367	2797.77
937.674	2793.7
937.982	2804.32
938.29	2797.54
938.597	2803.87
938.905	2756.18
939.213	2765.9
939.52	2730.65
939.827	2741.04
940.135	2711.21
940.442	2710.76
940.749	2697.2
941.056	2688.39
941.363	2682.06
941.67	2668.73
941.977	2649.52
942.284	2650.42
942.591	2646.36
942.898	2620.14
943.205	2631.67
943.511	2632.12
943.818	2563.42
944.125	2595.51
944.431	2593.93
944.738	2577.88
945.044	2567.04
945.35	2547.15
945.657	2542.18
945.963	2527.94
946.269	2535.63
946.575	2524.1
946.881	2501.28
947.187	2501.73
947.493	2530.2
947.799	2498.34
948.105	2486.14
948.41	2470.09
948.716	2440.26
949.022	2476.42
949.327	2442.75
949.633	2405.01
949.938	2398.45
950.244	2396.19
950.549	2416.53
950.854	2384.22
951.16	2424.22
951.465	2348.51
951.77	2373.82
952.075	2368.17
952.38	2340.38
952.685	2339.25
952.99	2325.24
953.294	2351.22
953.599	2312.81
953.904	2312.81
954.209	2296.31
954.513	2281.85
954.818	2272.36
955.122	2254.05
955.426	2271.45
955.731	2247.5
956.035	2234.84
956.339	2231
956.643	2238.91
956.948	2219.25
957.252	2201.85
957.556	2239.36
957.86	2193.94
958.163	2159.36
958.467	2209.76
958.771	2167.27
959.075	2148.29
959.378	2183.32
959.682	2177.67
959.985	2142.87
960.289	2125.92
960.592	2108.29
960.896	2140.83
961.199	2120.04
961.502	2107.84
961.805	2092.93
962.108	2085.02
962.411	2108.07
962.714	2106.48
963.017	2076.65
963.32	2077.78
963.623	2086.6
963.926	2075.3
964.228	2042.08
964.531	2012.7
964.833	2056.54
965.136	2001.18
965.438	2018.58
965.741	1985.81
966.043	2030.1
966.345	1991.91
966.648	1982.87
966.95	1988.3
967.252	1960.05
967.554	1956.88
967.856	1949.43
968.158	1927.73
968.46	1952.14
968.761	1929.77
969.063	1920.27
969.365	1943.1
969.666	1934.29
969.968	1901.07
970.269	1897.9
970.571	1870.78
970.872	1873.95
971.174	1848.86
971.475	1870.56
971.776	1835.3
972.077	1870.33
972.378	1871.01
972.679	1830.11
972.98	1802.09
973.281	1828.07
973.582	1833.05
973.883	1828.07
974.183	1814.97
974.484	1788.07
974.785	1814.06
975.085	1773.39
975.386	1812.25
975.686	1801.86
975.986	1784.46
976.287	1742.43
976.587	1764.35
976.887	1759.6
977.187	1742.65
977.487	1759.15
977.787	1733.16
978.087	1725.03
978.387	1723.22
978.687	1714.63
978.987	1704.46
979.286	1710.11
979.586	1692.71
979.885	1675.54
980.185	1682.54
980.484	1666.27
980.784	1668.3
981.083	1660.39
981.382	1670.56
981.682	1668.76
981.981	1632.37
982.28	1623.11
982.579	1622.88
982.878	1668.53
983.177	1614.07
983.475	1629.89
983.774	1582.2
984.073	1616.1
984.372	1588.08
984.67	1579.72
984.969	1577.68
985.267	1548.98
985.566	1567.74
985.864	1559.38
986.162	1560.51
986.461	1553.05
986.759	1534.07
987.057	1530.68
987.355	1539.95
987.653	1549.89
987.951	1541.98
988.249	1520.96
988.547	1540.4
988.844	1489.78
989.142	1498.59
989.44	1524.13
989.737	1493.84
990.035	1481.42
990.332	1460.4
990.63	1452.04
990.927	1485.48
991.224	1449.33
991.521	1450.91
991.819	1468.31
992.116	1436.67
992.413	1449.33
992.71	1461.53
993.006	1447.97
993.303	1412.04
993.6	1415.65
993.897	1404.81
994.193	1422.89
994.49	1418.37
994.787	1384.02
995.083	1375.88
995.379	1369.78
995.676	1379.27
995.972	1358.26
996.268	1336.11
996.565	1365.94
996.861	1377.24
997.157	1376.56
997.453	1362.32
997.749	1345.37
998.044	1344.02
998.34	1328.43
998.636	1316.22
998.932	1310.57
999.227	1336.11
999.523	1310.8
999.818	1310.12
1000.114	1281.65
1000.409	1281.65
1000.704	1276
1001	1249.78
1001.295	1274.19
1001.59	1275.55
1001.885	1262.66
1002.18	1214.3
1002.475	1240.74
1002.77	1240.52
1003.065	1256.79
1003.359	1235.32
1003.654	1215.66
1003.949	1235.32
1004.243	1198.94
1004.538	1205.04
1004.832	1197.81
1005.127	1203.91
1005.421	1172.05
1005.715	1208.2
1006.009	1170.24
1006.304	1177.47
1006.598	1166.85
1006.892	1151.03
1007.186	1166.85
1007.48	1150.13
1007.773	1141.09
1008.067	1148.54
1008.361	1151.48
1008.655	1122.1
1008.948	1143.12
1009.242	1124.14
1009.535	1116.45
1009.829	1104.7
1010.122	1088.43
1010.415	1104.48
1010.708	1078.26
1011.001	1083.23
1011.295	1054.08
1011.588	1059.05
1011.881	1089.79
1012.173	1056.79
1012.466	1062.9
1012.759	1059.05
1013.052	1050.69
1013.344	1044.37
1013.637	1055.21
1013.93	1064.48
1014.222	1038.26
1014.514	1050.24
1014.807	1013.86
1015.099	1009.34
1015.391	1014.31
1015.683	1003.24
1015.976	986.51
1016.268	987.64
1016.56	983.58
1016.851	979.73
1017.143	1000.07
1017.435	982.9
1017.727	972.05
1018.018	938.15
1018.31	958.04
1018.602	944.25
1018.893	945.38
1019.185	943.8
1019.476	920.98
1019.767	928.44
1020.058	903.8
1020.35	921.88
1020.641	919.62
1020.932	912.17
1021.223	903.58
1021.514	900.87
1021.804	892.05
1022.095	905.61
1022.386	872.17
1022.677	885.05
1022.967	871.71
1023.258	883.69
1023.548	873.52
1023.839	872.17
1024.129	841.66
1024.419	852.05
1024.709	856.57
1025	852.28
1025.29	845.73
1025.58	848.21
1025.87	840.08
1026.16	803.92
1026.449	823.35
1026.739	807.76
1027.029	817.03
1027.319	827.42
1027.608	820.64
1027.898	818.83
1028.187	806.63
1028.477	800.76
1028.766	789.46
1029.055	783.13
1029.344	789.68
1029.634	796.24
1029.923	748.78
1030.212	780.19
1030.501	793.3
1030.79	753.3
1031.078	762.79
1031.367	746.52
1031.656	748.55
1031.945	746.97
1032.233	754.88
1032.522	746.97
1032.81	739.97
1033.099	721.21
1033.387	705.17
1033.675	705.62
1033.963	732.96
1034.251	723.24
1034.54	715.56
1034.828	718.27
1035.116	706.97
1035.403	690.25
1035.691	696.8
1035.979	703.81
1036.267	712.85
1036.554	692.51
1036.842	692.28
1037.129	674.43
1037.417	676.92
1037.704	661.1
1037.992	678.27
1038.279	666.3
1038.566	670.14
1038.853	670.14
1039.14	670.14
