Data from tablewood_brown_FLMS001491_082.txt Node
Date: Tue Feb 07 11:11:07 GMT 2017
User: dcchb
Spectrometer: FLMS00149
Trigger mode: 0
Integration Time (sec): 2.000000E-2
Scans to average: 10
Electric dark correction enabled: true
Nonlinearity correction enabled: false
Boxcar width: 0
XAxis mode: Wavelengths
Number of Pixels in Spectrum: 2048
>>>>>Begin Spectral Data<<<<<
341.393	-16.69
341.776	-16.69
342.16	-16.69
342.543	-59.86
342.927	-58.95
343.31	-72.96
343.693	-76.13
344.077	-63.92
344.46	-48.33
344.843	-53.98
345.226	-41.33
345.61	-21.89
345.993	-11.5
346.376	-14.21
346.759	5.23
347.142	25.56
347.525	37.99
347.908	66.47
348.291	75.51
348.674	102.4
349.057	91.1
349.44	116.18
349.823	139.01
350.206	176.52
350.588	214.49
350.971	214.71
351.354	224.88
351.737	252.68
352.119	266.01
352.502	254.26
352.884	283.41
353.267	290.42
353.65	325.22
354.032	305.56
354.414	313.92
354.797	309.4
355.179	331.54
355.562	317.99
355.944	330.87
356.326	346.23
356.709	357.98
357.091	334.03
357.473	348.95
357.855	338.78
358.238	336.52
358.62	347.82
359.002	348.95
359.384	365.22
359.766	359.57
360.148	346.69
360.53	355.27
360.912	339.23
361.294	327.48
361.676	360.47
362.057	341.49
362.439	357.76
362.821	328.83
363.203	327.03
363.584	329.06
363.966	353.69
364.348	333.58
364.729	359.34
365.111	323.18
365.493	339.23
365.874	340.13
366.256	326.8
366.637	313.24
367.019	336.74
367.4	326.35
367.781	334.48
368.163	328.83
368.544	322.51
368.925	311.21
369.306	340.13
369.688	339
370.069	331.32
370.45	338.32
370.831	337.42
371.212	349.62
371.593	321.15
371.974	323.18
372.355	334.71
372.736	340.81
373.117	343.3
373.498	341.26
373.879	335.39
374.26	339.45
374.641	335.16
375.021	334.03
375.402	328.16
375.783	341.04
376.163	362.28
376.544	351.66
376.925	345.78
377.305	362.5
377.686	354.6
378.066	375.61
378.447	388.27
378.827	354.6
379.208	350.75
379.588	358.44
379.968	352.79
380.349	388.27
380.729	366.8
381.109	371.54
381.489	366.57
381.87	355.27
382.25	356.86
382.63	389.62
383.01	372.45
383.39	380.36
383.77	358.66
384.15	362.73
384.53	381.94
384.91	375.39
385.29	406.8
385.67	401.37
386.049	405.44
386.429	405.22
386.809	387.14
387.189	357.76
387.568	416.97
387.948	405.67
388.328	424.65
388.707	432.33
389.087	418.55
389.466	416.29
389.846	416.06
390.225	404.54
390.605	409.96
390.984	432.33
391.363	447.7
391.743	427.36
392.122	418.1
392.501	440.24
392.881	433.01
393.26	439.11
393.639	432.56
394.018	459.45
394.397	446.57
394.776	447.02
395.155	457.42
395.534	473.69
395.913	467.13
396.292	490.64
396.671	482.95
397.05	465.33
397.429	461.03
397.808	461.03
398.186	486.57
398.565	481.15
398.944	482.95
399.323	487.02
399.701	497.64
400.08	513.91
400.458	495.83
400.837	499.45
401.215	489.51
401.594	525.66
401.972	502.84
402.351	493.57
402.729	512.56
403.107	519.11
403.486	531.09
403.864	534.48
404.242	541.93
404.62	546
404.999	570.41
405.377	564.76
405.755	553.23
406.133	547.81
406.511	581.93
406.889	570.41
407.267	582.16
407.645	588.26
408.023	585.32
408.401	585.78
408.779	588.49
409.156	580.13
409.534	600.46
409.912	604.98
410.29	586.23
410.667	612.67
411.045	619.45
411.422	614.93
411.8	654.25
412.178	662.61
412.555	655.83
412.933	665.1
413.31	644.08
413.687	673
414.065	664.64
414.442	664.19
414.819	667.81
415.197	673.23
415.574	710.29
415.951	688.15
416.328	683.63
416.705	729.73
417.082	711.87
417.46	693.8
417.837	728.14
418.214	753
418.591	721.82
418.967	742.83
419.344	741.48
419.721	770.18
420.098	735.15
420.475	788.26
420.852	782.83
421.228	778.54
421.605	768.14
421.982	807.46
422.358	775.38
422.735	814.92
423.111	810.4
423.488	803.4
423.864	795.71
424.241	844.53
424.617	836.84
424.994	838.2
425.37	814.47
425.746	821.7
426.123	838.42
426.499	844.98
426.875	863.06
427.251	879.1
427.627	906.22
428.003	896.95
428.379	891.98
428.756	884.98
429.132	905.99
429.507	906.9
429.883	947.35
430.259	943.28
430.635	938.08
431.011	967.23
431.387	970.85
431.763	1020.79
432.138	989.38
432.514	994.35
432.89	1028.02
433.265	1051.07
433.641	1042.71
434.016	1045.42
434.392	1059.89
434.767	1077.97
435.143	1072.09
435.518	1103.5
435.894	1080.68
436.269	1108.93
436.644	1140.34
437.02	1111.64
437.395	1134.24
437.77	1187.57
438.145	1194.8
438.52	1187.79
438.895	1160.45
439.271	1196.61
439.646	1209.71
440.021	1238.19
440.395	1204.74
440.77	1224.18
441.145	1234.12
441.52	1259.66
441.895	1270.28
442.27	1277.73
442.645	1280.9
443.019	1288.81
443.394	1288.81
443.769	1322.48
444.143	1303.72
444.518	1336.49
444.892	1316.15
445.267	1346.43
445.641	1348.02
446.016	1348.69
446.39	1384.62
446.764	1382.59
447.139	1382.82
447.513	1386.88
447.887	1391.18
448.262	1412.65
448.636	1399.99
449.01	1442.02
449.384	1437.5
449.758	1447.67
450.132	1460.1
450.506	1473.89
450.88	1495.36
451.254	1488.12
451.628	1498.75
452.002	1500.78
452.376	1514.34
452.75	1537.16
453.123	1515.69
453.497	1561.57
453.871	1593.66
454.244	1615.13
454.618	1617.61
454.992	1629.82
455.365	1642.02
455.739	1672.53
456.112	1694.67
456.486	1696.93
456.859	1719.53
457.232	1775.35
457.606	1747.1
457.979	1759.08
458.352	1804.5
458.725	1834.56
459.099	1850.38
459.472	1869.13
459.845	1865.06
460.218	1891.73
460.591	1924.72
460.964	1933.76
461.337	2011.5
461.71	2013.08
462.083	2005.17
462.456	2070.71
462.829	2028.22
463.201	2096.92
463.574	2081.33
463.947	2119.75
464.32	2161.33
464.692	2202.46
465.065	2203.13
465.438	2231.83
465.81	2262.34
466.183	2281.1
466.555	2312.28
466.928	2318.16
467.3	2368.55
467.672	2382.56
468.045	2451.04
468.417	2453.75
468.789	2506.85
469.161	2529.91
469.534	2557.48
469.906	2637.7
470.278	2642.9
470.65	2660.98
471.022	2747.53
471.394	2797.02
471.766	2803.57
472.138	2863.23
472.51	2939.61
472.882	2979.16
473.253	3020.97
473.625	3103.45
473.997	3125.37
474.369	3174.18
474.74	3212.83
475.112	3292.6
475.484	3339.6
475.855	3359.94
476.227	3447.4
476.598	3558.35
476.97	3604.68
477.341	3691.68
477.713	3746.37
478.084	3799.7
478.455	3887.16
478.827	3935.97
479.198	4091.45
479.569	4053.93
479.94	4178.45
480.311	4262.74
480.682	4345.22
481.053	4416.18
481.424	4522.62
481.795	4592
482.166	4647.59
482.537	4700.7
482.908	4854.82
483.279	4881.93
483.65	4982.72
484.021	5086.45
484.391	5179.55
484.762	5261.58
485.133	5305.2
485.503	5371.19
485.874	5513.33
486.244	5550.16
486.615	5642.82
486.985	5745.41
487.356	5808.24
487.726	5903.38
488.097	6038.29
488.467	6138.4
488.837	6176.59
489.207	6307.88
489.578	6312.86
489.948	6413.19
490.318	6520.76
490.688	6538.39
491.058	6699.97
491.428	6687.31
491.798	6838.94
492.168	7000.97
492.538	6960.75
492.908	7125.49
493.278	7099.28
493.648	7189.22
494.017	7325.26
494.387	7330.68
494.757	7449.55
495.126	7602.99
495.496	7577
495.866	7604.8
496.235	7671.01
496.605	7805.92
496.974	7878.69
497.344	7918.92
497.713	7915.07
498.082	8007.5
498.452	8151
498.821	8179.47
499.19	8189.19
499.559	8289.53
499.928	8393.71
500.298	8385.57
500.667	8498.11
501.036	8533.82
501.405	8561.16
501.774	8606.81
502.143	8709.63
502.512	8746.24
502.88	8818.55
503.249	8856.29
503.618	8903.07
503.987	8968.38
504.356	9057.87
504.724	9123.4
505.093	9204.98
505.462	9244.98
505.83	9298.31
506.199	9346.45
506.567	9493.56
506.936	9491.53
507.304	9630.28
507.672	9644.07
508.041	9728.81
508.409	9715.93
508.777	9899.43
509.145	9955.7
509.514	10076.15
509.882	10045.41
510.25	10102.59
510.618	10219.87
510.986	10308.46
511.354	10368.57
511.722	10442.01
512.09	10572.41
512.458	10550.94
512.826	10690.37
513.193	10729.24
513.561	10775.11
513.929	11016.46
514.297	11084.71
514.664	11123.13
515.032	11139.17
515.4	11206.74
515.767	11248.77
516.135	11364.02
516.502	11394.98
516.869	11538.03
517.237	11669.1
517.604	11625.26
517.972	11754.52
518.339	11915.87
518.706	11915.87
519.073	12012.14
519.44	12105.92
519.808	12290.33
520.175	12395.86
520.542	12391.57
520.909	12575.06
521.276	12518.34
521.643	12668.85
522.009	12792.01
522.376	12855.74
522.743	13073.81
523.11	13165.78
523.477	13300.24
523.843	13383.41
524.21	13560.8
524.577	13682.83
524.943	13747.24
525.31	13755.37
525.676	13992.88
526.043	13984.52
526.409	14083.5
526.776	14343.38
527.142	14298.64
527.508	14436.26
527.874	14508.12
528.241	14555.35
528.607	14602.81
528.973	14820.2
529.339	14856.36
529.705	15024.72
530.071	15170.93
530.437	15228.55
530.803	15258.61
531.169	15289.8
531.535	15371.83
531.901	15515.33
532.267	15639.17
532.632	15703.12
532.998	15747.18
533.364	15826.5
533.73	15813.62
534.095	16037.8
534.461	16082.54
534.826	16198.92
535.192	16202.77
535.557	16339.94
535.923	16374.74
536.288	16430.1
536.653	16530.67
537.019	16532.02
537.384	16527.28
537.749	16778.8
538.114	16714.39
538.479	16795.52
538.845	16960.03
539.21	16889.75
539.575	17065.12
539.94	17034.38
540.305	17222.4
540.67	17227.37
541.034	17287.94
541.399	17334.71
541.764	17347.37
542.129	17363.41
542.494	17512.34
542.858	17629.85
543.223	17601.15
543.587	17750.52
543.952	17573.58
544.316	17765.21
544.681	17839.33
545.045	17967.69
545.41	18036.39
545.774	18058.54
546.138	18128.82
546.503	18123.85
546.867	18218.08
547.231	18372.2
547.595	18330.39
547.959	18531.52
548.324	18515.02
548.688	18547.11
549.052	18606.32
549.416	18692.87
549.779	18755.69
550.143	18822.81
550.507	18905.52
550.871	19067.32
551.235	19110.71
551.599	19257.15
551.962	19219.41
552.326	19420.31
552.689	19594.09
553.053	19519.29
553.417	19554.54
553.78	19859.62
554.143	19890.13
554.507	19952.05
554.87	20014.64
555.234	20349.78
555.597	20268.2
555.96	20410.34
556.323	20464.8
556.686	20601.52
557.05	20774.17
557.413	20863.21
557.776	20954.51
558.139	21196.08
558.502	21260.03
558.865	21333.25
559.228	21484.44
559.59	21679.68
559.953	21768.95
560.316	21999.68
560.679	22067.7
561.041	22229.95
561.404	22427.24
561.767	22602.82
562.129	22624.07
562.492	22810.73
562.854	22895.02
563.217	22953.32
563.579	23302.47
563.941	23382.92
564.304	23532.97
564.666	23753.98
565.028	23863.13
565.39	24017.02
565.753	24236
566.115	24242.1
566.477	24435.32
566.839	24695.65
567.201	24903.1
567.563	24869.43
567.925	25176.09
568.287	25236.2
568.648	25423.99
569.01	25622.18
569.372	25807.03
569.734	25868.05
570.095	26222.39
570.457	26298.55
570.819	26390.75
571.18	26603.62
571.542	26741.7
571.903	26875.71
572.265	27050.62
572.626	27146.66
572.987	27428.01
573.349	27544.39
573.71	27680.2
574.071	27904.38
574.432	28039.97
574.794	28341.66
575.155	28334.2
575.516	28491.03
575.877	28724.02
576.238	28739.39
576.599	28968.08
576.96	29015.08
577.32	29129.88
577.681	29319.48
578.042	29438.12
578.403	29578.46
578.763	29715.86
579.124	29808.96
579.485	29936.42
579.845	30145.9
580.206	30170.76
580.566	30272
580.927	30415.73
581.287	30557.42
581.648	30547.93
582.008	30746.11
582.368	30789.73
582.728	30804.19
583.089	30800.35
583.449	30935.49
583.809	31005.99
584.169	31169.38
584.529	31139.55
584.889	31387.45
585.249	31230.17
585.609	31247.12
585.969	31420.45
586.329	31384.97
586.688	31609.37
587.048	31641.68
587.408	31429.03
587.768	31610.95
588.127	31593.77
588.487	31659.76
588.846	31932.52
589.206	31665.18
589.565	31816.14
589.925	31917.61
590.284	31826.76
590.643	32023.82
591.003	32131.84
591.362	32180.88
591.721	32195.79
592.08	32016.81
592.44	32206.19
592.799	32228.11
593.158	32221.1
593.517	32286.86
593.876	32278.28
594.235	32179.97
594.593	32343.58
594.952	32411.38
595.311	32445.28
595.67	32361.66
596.029	32642.56
596.387	32682.11
596.746	32634.65
597.104	32525.5
597.463	32495.22
597.822	32653.41
598.18	32614.76
598.538	32631.03
598.897	32793.06
599.255	32516.69
599.613	32997.58
599.972	32831.71
600.33	32878.49
600.688	32870.58
601.046	32933.63
601.404	33104.24
601.762	32876.23
602.12	33133.39
602.478	33133.62
602.836	33230.34
603.194	32974.75
603.552	33019.5
603.91	33032.38
604.268	33202.55
604.625	32986.96
604.983	33099.5
605.341	33077.12
605.698	33315.31
606.056	33429.21
606.413	33303.11
606.771	33388.3
607.128	33571.8
607.485	33337.23
607.843	33366.83
608.2	33652.93
608.557	33584.46
608.914	33431.92
609.272	33645.25
609.629	33784.45
609.986	33973.6
610.343	33551.46
610.7	33839.14
611.057	33764.79
611.414	33802.98
611.771	33921.17
612.127	33980.83
612.484	33964.56
612.841	34104.89
613.198	33962.07
613.554	34044.78
613.911	34274.83
614.267	34194.16
614.624	34127.94
614.98	34244.55
615.337	34347.6
615.693	34382.4
616.05	34281.61
616.406	34545.33
616.762	34387.6
617.118	34477.99
617.475	34503.08
617.831	34642.28
618.187	34559.57
618.543	34539.46
618.899	34847.7
619.255	34638.21
619.611	34685.67
619.967	34800.24
620.323	34850.19
620.678	34686.12
621.034	34605.22
621.39	34724.09
621.746	34515.05
622.101	35130.86
622.457	34769.51
622.812	34748.72
623.168	34963.63
623.523	34916.4
623.879	34969.73
624.234	34727.25
624.589	34895.38
624.945	34855.61
625.3	34824.42
625.655	34992.1
626.01	35074.81
626.365	34911.2
626.72	34890.86
627.075	34915.04
627.43	34874.59
627.785	34855.83
628.14	34928.15
628.495	34770.87
628.85	34775.61
629.205	34716.63
629.559	34921.14
629.914	34603.19
630.269	34904.87
630.623	34753.24
630.978	34630.3
631.332	34713.47
631.687	34788.04
632.041	34574.71
632.396	34760.24
632.75	34539.69
633.104	34596.86
633.459	34318.9
633.813	34385.79
634.167	34445
634.521	34417.43
634.875	34519.8
635.229	34364.1
635.583	34259.92
635.937	34181.5
636.291	34269.86
636.645	34252.69
636.999	34219.02
637.352	34135.63
637.706	34043.88
638.06	34203.87
638.413	34141.96
638.767	34072.13
639.121	34119.36
639.474	33863.32
639.828	33864.67
640.181	33948.06
640.534	33711.68
640.888	33795.52
641.241	33595.53
641.594	33763.21
641.947	33781.96
642.301	33640.95
642.654	33709.88
643.007	33731.34
643.36	33673.27
643.713	33569.32
644.066	33725.7
644.419	33615.19
644.771	33371.13
645.124	33166.39
645.477	33143.34
645.83	32729.56
646.182	32754.65
646.535	32515.33
646.888	32547.2
647.24	32433.53
647.593	32528.66
647.945	32464.03
648.298	32412.74
648.65	32324.83
649.002	32266.52
649.355	32330.25
649.707	32312.62
650.059	32502.22
650.411	32949.9
650.763	32846.4
651.115	33332.49
651.467	33121.64
651.819	33114.19
652.171	33158.93
652.523	33004.36
652.875	33101.98
653.227	32954.87
653.578	33082.55
653.93	33114.41
654.282	32923
654.633	32914.87
654.985	33016.11
655.337	33003.91
655.688	32930.01
656.039	33185.37
656.391	32723.01
656.742	32878.03
657.094	32946.51
657.445	33028.99
657.796	33008.88
658.147	32868.99
658.498	32890.24
658.849	32859.5
659.2	32922.78
659.551	32861.09
659.902	32953.06
660.253	32797.81
660.604	33009.1
660.955	32805.04
661.306	32909.22
661.656	32715.1
662.007	32713.74
662.358	32867.19
662.708	32829.9
663.059	32731.15
663.409	32572.73
663.76	32860.63
664.11	32740.86
664.461	32767.75
664.811	32755.78
665.161	32680.52
665.511	32778.83
665.862	32682.11
666.212	32784.93
666.562	32882.33
666.912	32678.27
667.262	32665.38
667.612	32742.9
667.962	32791.03
668.312	32690.24
668.662	32753.52
669.011	32665.84
669.361	32575.89
669.711	32665.16
670.06	32558.49
670.41	32684.59
670.76	32643.24
671.109	32495.45
671.459	32586.97
671.808	32480.53
672.157	32573.18
672.507	32387.2
672.856	32317.37
673.205	32405.05
673.554	32453.19
673.904	32342.45
674.253	32528.21
674.602	32549.68
674.951	31972.52
675.3	31707.22
675.649	32308.33
675.998	32160.31
676.346	32152.86
676.695	32366.86
677.044	32019.3
677.393	32228.33
677.741	32123.48
678.09	32042.58
678.438	31937.72
678.787	32022.24
679.135	32032.41
679.484	31782.92
679.832	31887.33
680.181	31669.48
680.529	31846.2
680.877	31676.71
681.225	31565.53
681.573	31723.04
681.922	31545.87
682.27	31450.05
682.618	31588.35
682.966	31480.33
683.314	31434.46
683.661	31370.05
684.009	31213.44
684.357	31111.53
684.705	31123.5
685.053	31156.95
685.4	31051.42
685.748	31062.71
686.095	31053.9
686.443	30797.64
686.79	30889.61
687.138	30842.61
687.485	30746.79
687.832	30639.9
688.18	30591.54
688.527	30399.91
688.874	30497.53
689.221	30295.28
689.568	30269.51
689.915	30223.41
690.262	30159.46
690.609	30128.73
690.956	30025.91
691.303	29911.78
691.65	29787.72
691.997	29850.54
692.344	29520.16
692.69	29699.36
693.037	29554.73
693.383	29386.37
693.73	29516.77
694.077	29237.68
694.423	29272.25
694.769	29142.31
695.116	29076.78
695.462	29018.02
695.808	29047.4
696.155	28917.69
696.501	28700.97
696.847	28771.7
697.193	28490.13
697.539	28561.09
697.885	28250.58
698.231	28178.27
698.577	28188.44
698.923	28095.79
699.269	28041.32
699.614	27799.75
699.96	27891.72
700.306	27795.46
700.651	27739.41
700.997	27610.83
701.342	27530.83
701.688	27591.17
702.033	27385.97
702.379	27370.16
702.724	27237.96
703.069	27350.72
703.415	26937.85
703.76	27016.04
704.105	26944.4
704.45	26802.26
704.795	26749.38
705.14	26620.35
705.485	26573.11
705.83	26498.09
706.175	26334.7
706.52	26416.96
706.865	26253.58
707.209	26213.35
707.554	26208.15
707.899	26032.56
708.243	26083.41
708.588	26059.91
708.932	25896.75
709.277	25882.06
709.621	25860.59
709.966	25777.43
710.31	25698.79
710.654	25600.03
710.998	25458.79
711.342	25454.05
711.687	25356.42
712.031	25300.38
712.375	25170.21
712.719	25312.13
713.063	25170.21
713.407	25237.1
713.75	25145.36
714.094	25231
714.438	24985.81
714.782	25095.87
715.125	24912.59
715.469	25031.91
715.812	24859.94
716.156	24741.75
716.499	24731.58
716.843	24779.49
717.186	24617.46
717.53	24658.14
717.873	24687.29
718.216	24654.75
718.559	24441.19
718.902	24353.29
719.246	24456.11
719.589	24397.58
719.932	24270.35
720.275	24212.95
720.617	24163.69
720.96	24220.18
721.303	24206.62
721.646	24161.65
721.989	24060.64
722.331	24139.05
722.674	24053.18
723.016	24076.46
723.359	24081.43
723.701	24104.03
724.044	23923.47
724.386	23879.4
724.729	24086.4
725.071	23871.94
725.413	23916.46
725.755	23799.63
726.097	23868.1
726.439	23795.33
726.782	23823.58
727.124	23866.07
727.465	23687.99
727.807	23723.02
728.149	23634.21
728.491	23714.88
728.833	23757.37
729.175	23543.36
729.516	23535
729.858	23642.8
730.199	23493.87
730.541	23616.81
730.882	23490.94
731.224	23635.56
731.565	23473.76
731.906	23578.39
732.248	23568.9
732.589	23465.4
732.93	23380.88
733.271	23426.76
733.612	23409.58
733.953	23490.26
734.294	23412.52
734.635	23462.91
734.976	23407.32
735.317	23422.69
735.658	23328
735.999	23421.33
736.339	23424.27
736.68	23492.07
737.021	23301.34
737.361	23321
737.702	23410.94
738.042	23294.56
738.383	23310.38
738.723	23364.39
739.063	23284.39
739.404	23349.92
739.744	23305.63
740.084	23208.91
740.424	23199.19
740.764	23241.9
741.104	23330.04
741.444	23255.24
741.784	23170.04
742.124	23334.78
742.464	23226.99
742.804	23146.09
743.143	23191.73
743.483	23290.49
743.823	23115.8
744.162	23155.8
744.502	23188.12
744.841	23111.74
745.181	23122.13
745.52	23145.41
745.86	23171.4
746.199	23024.28
746.538	23163.71
746.877	23144.28
747.216	23229.02
747.556	23155.35
747.895	23031.29
748.234	23199.19
748.573	23046.88
748.911	23089.82
749.25	23128.69
749.589	22959.88
749.928	22953.55
750.267	23080.33
750.605	23034.45
750.944	22904.74
751.283	22989.93
751.621	22967.11
751.96	22873.1
752.298	22910.84
752.636	22884.4
752.975	22832.87
753.313	22686.66
753.651	22820.22
753.989	22674.69
754.327	22716.04
754.666	22537.51
755.004	22589.26
755.342	22706.1
755.679	22666.32
756.017	22545.2
756.355	22480.79
756.693	22430.85
757.031	22512.43
757.368	22359.21
757.706	22413.22
758.044	22245.09
758.381	22345.88
758.719	22230.18
759.056	22255.04
759.394	22219.33
759.731	21997.87
760.068	22048.49
760.405	21997.42
760.743	21891.2
761.08	21933.24
761.417	21919.68
761.754	21773.69
762.091	21787.48
762.428	21630.87
762.765	21592
763.102	21622.28
763.438	21432.69
763.775	21410.99
764.112	21347.49
764.449	21448.05
764.785	21419.35
765.122	21291.45
765.458	21107.72
765.795	21195.86
766.131	21168.51
766.467	21029.31
766.804	20957.44
767.14	20860.27
767.476	20886.48
767.812	20764.45
768.148	20816.43
768.485	20731.46
768.821	20506.83
769.157	20546.61
769.492	20450.56
769.828	20416.44
770.164	20258.25
770.5	20293.73
770.836	20206.05
771.171	20000.41
771.507	20119.05
771.842	19908.43
772.178	19880.18
772.513	19849.68
772.849	19678.38
773.184	19701.21
773.519	19646.74
773.855	19579.63
774.19	19565.16
774.525	19371.04
774.86	19462.34
775.195	19367.88
775.53	19319.97
775.865	19166.76
776.2	19084.95
776.535	19003.14
776.87	19013.77
777.205	18916.82
777.539	18719.31
777.874	18881.57
778.209	18585.75
778.543	18536.49
778.878	18520.67
779.212	18550.05
779.547	18364.97
779.881	18409.26
780.215	18297.17
780.55	18325.65
780.884	18215.82
781.218	18099.89
781.552	18123.62
781.886	18046.33
782.22	17981.48
782.554	17821.48
782.888	17705.1
783.222	17701.48
783.556	17659.9
783.889	17674.37
784.223	17506.91
784.557	17436.18
784.89	17418.1
785.224	17375.39
785.557	17289.07
785.891	17270.99
786.224	17239.35
786.558	17139.24
786.891	16912.58
787.224	17000.71
787.557	16971.79
787.891	16889.75
788.224	16879.36
788.557	16836.65
788.89	16760.94
789.223	16772.24
789.556	16537.22
789.888	16565.02
790.221	16491.12
790.554	16402.76
790.887	16433.49
791.219	16326.15
791.552	16249.09
791.884	16140.39
792.217	16194.18
792.549	16142.2
792.882	15949.89
793.214	15902.43
793.546	16003.45
793.879	15860.85
794.211	15798.71
794.543	15827.18
794.875	15730.24
795.207	15760.97
795.539	15699.95
795.871	15631.93
796.203	15534.76
796.535	15426.74
796.867	15447.76
797.198	15378.15
797.53	15362.11
797.862	15301.77
798.193	15293.86
798.525	15194.43
798.856	15184.94
799.188	14986.75
799.519	14992.4
799.85	14864.27
800.182	14932.52
800.513	14894.1
800.844	14868.11
801.175	14849.58
801.506	14768.45
801.837	14791.28
802.168	14646.65
802.499	14675.8
802.83	14589.93
803.161	14582.24
803.491	14535.24
803.822	14474.68
804.153	14440.33
804.483	14408.24
804.814	14276.49
805.145	14268.81
805.475	14250.5
805.805	14222.25
806.136	14189.03
806.466	14155.59
806.796	14132.76
807.126	13996.95
807.457	13958.76
807.787	13952.66
808.117	13959.89
808.447	13791.76
808.777	13904.07
809.107	13759.89
809.436	13759.44
809.766	13744.07
810.096	13785.88
810.426	13686
810.755	13650.06
811.085	13658.2
811.414	13632.44
811.744	13451.2
812.073	13459.11
812.403	13494.36
812.732	13448.94
813.061	13483.29
813.39	13369.17
813.719	13363.07
814.049	13338.21
814.378	13256.85
814.707	13280.58
815.036	13265.67
815.365	13133.47
815.693	13016.64
816.022	13102.96
816.351	13014.38
816.68	12951.1
817.008	12946.81
817.337	12878.79
817.665	12826.81
817.994	12887.15
818.322	12768.05
818.651	12828.17
818.979	12710.88
819.307	12822.74
819.636	12744.1
819.964	12623.2
820.292	12757.21
820.62	12749.75
820.948	12634.05
821.276	12628.17
821.604	12647.83
821.932	12638.79
822.259	12621.62
822.587	12658
822.915	12552.24
823.243	12593.37
823.57	12572.35
823.898	12587.04
824.225	12525.35
824.553	12507.04
824.88	12609.19
825.207	12516.99
825.535	12537.78
825.862	12599.24
826.189	12508.85
826.516	12580.26
826.843	12610.54
827.17	12567.16
827.497	12676.98
827.824	12579.13
828.151	12662.07
828.478	12552.47
828.805	12627.04
829.131	12611.67
829.458	12592.24
829.785	12429.08
830.111	12484.67
830.438	12604.44
830.764	12562.86
831.09	12535.97
831.417	12526.25
831.743	12558.34
832.069	12515.63
832.395	12499.59
832.722	12541.85
833.048	12465.01
833.374	12502.52
833.7	12413.94
834.026	12477.21
834.351	12507.5
834.677	12471.34
835.003	12426.37
835.329	12449.64
835.654	12390.66
835.98	12427.95
836.306	12332.36
836.631	12302.3
836.956	12383.21
837.282	12384.11
837.607	12271.12
837.932	12179.82
838.258	12266.37
838.583	12268.41
838.908	12193.38
839.233	12240.38
839.558	12123.33
839.883	12068.86
840.208	12129.2
840.533	12036.32
840.858	12122.42
841.182	12134.17
841.507	12166.71
841.832	12000.39
842.156	11940.51
842.481	11997.68
842.805	11954.06
843.13	11844.24
843.454	11907.51
843.778	11824.8
844.103	11803.79
844.427	11776.89
844.751	11811.02
845.075	11730.57
845.399	11646.28
845.723	11660.96
846.047	11688.08
846.371	11480.86
846.695	11540.74
847.019	11486.28
847.343	11463
847.666	11358.83
847.99	11337.58
848.313	11293.06
848.637	11224.14
848.96	11205.38
849.284	11178.94
849.607	11042.68
849.931	11055.56
850.254	11018.72
850.577	10954.32
850.9	10913.41
851.223	10938.95
851.546	10759.75
851.869	10710.71
852.192	10801.78
852.515	10677.04
852.838	10628.22
853.161	10659.86
853.483	10587.09
853.806	10542.35
854.129	10609.92
854.451	10533.54
854.774	10461.22
855.096	10418.96
855.419	10380.55
855.741	10404.5
856.063	10325.63
856.385	10302.13
856.708	10339.19
857.03	10156.15
857.352	10250.15
857.674	10165.64
857.996	10160.67
858.318	10129.03
858.64	10153.43
858.961	10029.14
859.283	10009.26
859.605	9982.36
859.926	10021.91
860.248	9963.83
860.57	9904.63
860.891	9930.39
861.212	9866.89
861.534	9870.96
861.855	9864.63
862.176	9793.22
862.498	9881.35
862.819	9871.41
863.14	9770.62
863.461	9678.87
863.782	9691.07
864.103	9673.67
864.424	9685.42
864.745	9643.84
865.065	9647.46
865.386	9581.02
865.707	9542.15
866.027	9593.67
866.348	9582.38
866.668	9595.71
866.989	9568.82
867.309	9571.75
867.63	9517.29
867.95	9499.89
868.27	9425.77
868.59	9442.94
868.91	9382.38
869.23	9449.95
869.55	9381.25
869.87	9441.81
870.19	9395.26
870.51	9355.04
870.83	9411.53
871.15	9352.55
871.469	9290.63
871.789	9313.23
872.109	9379.44
872.428	9282.27
872.748	9339.67
873.067	9301.25
873.386	9250.18
873.706	9281.59
874.025	9224.87
874.344	9277.52
874.663	9241.37
874.982	9121.14
875.301	9200.46
875.62	9117.08
875.939	9075.27
876.258	9072.33
876.577	9121.6
876.896	9100.35
877.214	9033.24
877.533	9015.61
877.852	9026.46
878.17	9031.66
878.489	9032.11
878.807	8916.4
879.125	8936.29
879.444	8976.06
879.762	8983.29
880.08	9006.12
880.398	8837.08
880.716	8904.2
881.034	8870.08
881.352	8858.55
881.67	8845.22
881.988	8834.15
882.306	8780.81
882.624	8787.82
882.941	8757.76
883.259	8743.75
883.577	8794.15
883.894	8733.81
884.212	8713.02
884.529	8639.35
884.846	8674.15
885.164	8663.3
885.481	8589.18
885.798	8665.11
886.115	8541.95
886.432	8547.37
886.75	8560.03
887.067	8541.27
887.383	8502.4
887.7	8475.96
888.017	8487.26
888.334	8446.36
888.651	8375.4
888.967	8484.32
889.284	8369.75
889.6	8354.84
889.917	8300.6
890.233	8285.23
890.55	8216.99
890.866	8205.69
891.182	8259.47
891.498	8213.6
891.815	8130.21
892.131	8156.88
892.447	8134.28
892.763	8151
893.079	8133.15
893.395	8007.05
893.71	8081.17
894.026	8052.7
894.342	7990.78
894.657	8008.63
894.973	7926.6
895.289	7900.16
895.604	7881.4
895.92	7786.49
896.235	7819.03
896.55	7794.17
896.865	7840.73
897.181	7794.85
897.496	7798.47
897.811	7719.83
898.126	7652.48
898.441	7625.59
898.756	7589.66
899.071	7587.4
899.386	7578.13
899.7	7530.9
900.015	7565.03
900.33	7409.1
900.644	7452.04
900.959	7499.72
901.273	7385.37
901.588	7359.83
901.902	7324.81
902.216	7332.26
902.531	7283.45
902.845	7282.77
903.159	7233.74
903.473	7211.36
903.787	7176.56
904.101	7179.05
904.415	7154.19
904.729	7185.83
905.042	7050.01
905.356	7076.9
905.67	7069.9
905.984	7007.53
906.297	7014.31
906.611	7011.14
906.924	6958.49
907.237	6922.11
907.551	6889.34
907.864	6859.06
908.177	6936.34
908.491	6859.28
908.804	6799.17
909.117	6793.07
909.43	6722.34
909.743	6709.23
910.056	6693.41
910.368	6650.7
910.681	6636.01
910.994	6637.37
911.307	6601.89
911.619	6539.97
911.932	6562.57
912.244	6503.59
912.557	6518.73
912.869	6480.08
913.181	6416.58
913.494	6440.76
913.806	6329.81
914.118	6402.35
914.43	6344.27
914.742	6255.46
915.054	6264.72
915.366	6239.41
915.678	6234.44
915.99	6196.25
916.302	6165.52
916.613	6153.31
916.925	6087.55
917.236	6125.97
917.548	6052.52
917.859	6015.46
918.171	6013.2
918.482	6051.85
918.794	6007.55
919.105	5926.65
919.416	5925.97
919.727	5946.54
920.038	5885.52
920.349	5838.97
920.66	5833.55
920.971	5801.01
921.282	5815.92
921.593	5785.64
921.903	5708.35
922.214	5691.4
922.525	5707
922.835	5673.1
923.146	5598.98
923.456	5628.35
923.767	5625.64
924.077	5579.09
924.387	5513.78
924.697	5547.45
925.008	5541.58
925.318	5477.85
925.628	5427.68
925.938	5462.03
926.248	5393.78
926.558	5410.28
926.867	5412.99
927.177	5358.08
927.487	5311.3
927.796	5339.77
928.106	5257.52
928.416	5248.93
928.725	5253.9
929.034	5178.2
929.344	5243.51
929.653	5182.94
929.962	5190.4
930.271	5153.11
930.581	5124.64
930.89	5077.18
931.199	5053.45
931.508	5044.64
931.817	5008.03
932.125	5036.28
932.434	4981.37
932.743	4968.71
933.051	4975.49
933.36	4921.03
933.669	4863.63
933.977	4879.22
934.286	4849.84
934.594	4835.83
934.902	4782.73
935.21	4724.65
935.519	4752.67
935.827	4732.56
936.135	4740.92
936.443	4678.1
936.751	4659.11
937.059	4679.45
937.367	4632
937.674	4648.49
937.982	4624.09
938.29	4571.43
938.597	4534.37
938.905	4528.5
939.213	4497.76
939.52	4506.8
939.827	4521.49
940.135	4497.99
940.442	4493.02
940.749	4453.47
941.056	4418.9
941.363	4375.05
941.67	4373.25
941.977	4369.4
942.284	4408.27
942.591	4331.44
942.898	4306.13
943.205	4321.5
943.511	4296.41
943.818	4252.8
944.125	4281.72
944.431	4227.71
944.738	4248.96
945.044	4155.17
945.35	4200.6
945.657	4130.54
945.963	4182.29
946.269	4164.66
946.575	4152.69
946.881	4069.98
947.187	4077.21
947.493	4072.24
947.799	4020.94
948.105	3981.62
948.41	3992.24
948.716	3999.47
949.022	3979.13
949.327	3908.63
949.633	3933.71
949.938	3918.34
950.244	3897.78
950.549	3868.63
950.854	3834.28
951.16	3868.63
951.465	3856.2
951.77	3811.68
952.075	3803.09
952.38	3792.24
952.685	3757.44
952.99	3753.6
953.294	3707.28
953.599	3690.78
953.904	3693.04
954.209	3691
954.513	3699.82
954.818	3627.05
955.122	3654.4
955.426	3622.98
955.731	3613.49
956.035	3592.02
956.339	3555.19
956.643	3559.71
956.948	3543.21
957.252	3534.17
957.556	3539.6
957.86	3542.53
958.163	3499.15
958.467	3466.83
958.771	3437.9
959.075	3521.29
959.378	3438.36
959.682	3446.72
959.985	3420.28
960.289	3423.67
960.592	3347.96
960.896	3334.86
961.199	3335.76
961.502	3317.68
961.805	3342.54
962.108	3327.17
962.411	3293.27
962.714	3255.31
963.017	3262.54
963.32	3236.33
963.623	3281.07
963.926	3199.94
964.228	3182.32
964.531	3237.46
964.833	3172.83
965.136	3157.69
965.438	3151.58
965.741	3133.28
966.043	3172.15
966.345	3089.66
966.648	3092.38
966.95	3116.78
967.252	3066.61
967.554	3064.13
967.856	3051.7
968.158	3027.97
968.46	3001.76
968.761	3021.19
969.063	3017.12
969.365	2992.27
969.666	2983.23
969.968	2895.55
970.269	2913.62
970.571	2936.45
970.872	2888.99
971.174	2898.48
971.475	2908.2
971.776	2854.64
972.077	2881.99
972.378	2833.85
972.679	2899.61
972.98	2841.76
973.281	2768.77
973.582	2851.03
973.883	2784.36
974.183	2818.03
974.484	2754.53
974.785	2766.51
975.085	2741.88
975.386	2733.06
975.686	2731.93
975.986	2739.62
976.287	2748.66
976.587	2630.69
976.887	2660.07
977.187	2700.07
977.487	2674.31
977.787	2606.97
978.087	2631.82
978.387	2629.79
978.687	2614.2
978.987	2625.04
979.286	2592.05
979.586	2618.04
979.885	2594.99
980.185	2560.86
980.484	2527.19
980.784	2529.91
981.083	2521.09
981.382	2535.55
981.682	2522
981.981	2496.23
982.28	2496.23
982.579	2437.25
982.878	2496.23
983.177	2476.57
983.475	2440.87
983.774	2424.37
984.073	2413.07
984.372	2403.58
984.67	2388.89
984.969	2388.67
985.267	2379.85
985.566	2350.47
985.864	2378.27
986.162	2394.09
986.461	2357.03
986.759	2308.89
987.057	2299.85
987.355	2332.85
987.653	2291.72
987.951	2258.5
988.249	2247.65
988.547	2255.56
988.844	2276.35
989.142	2230.03
989.44	2244.26
989.737	2242.23
990.035	2200.42
990.332	2187.32
990.63	2178.5
990.927	2166.3
991.224	2173.98
991.521	2191.38
991.819	2129.69
992.116	2134.89
992.413	2168.78
992.71	2122.91
993.006	2099.41
993.303	2122.01
993.6	2089.92
993.897	2095.34
994.193	2072.06
994.49	2073.19
994.787	2055.57
995.083	2042.69
995.379	2037.04
995.676	2016.92
995.972	2043.14
996.268	2013.53
996.565	2001.33
996.861	2004.72
997.157	1978.51
997.453	1977.83
997.749	1959.3
998.044	1951.16
998.34	1970.37
998.636	1962.01
998.932	1911.62
999.227	1893.09
999.523	1896.02
999.818	1866.19
1000.114	1884.5
1000.409	1902.58
1000.704	1881.56
1001	1862.8
1001.295	1858.74
1001.59	1852.41
1001.885	1864.61
1002.18	1805.18
1002.475	1798.17
1002.77	1798.63
1003.065	1802.92
1003.359	1775.57
1003.654	1778.96
1003.949	1778.74
1004.243	1750.49
1004.538	1780.77
1004.832	1741.45
1005.127	1755.24
1005.421	1712.98
1005.715	1724.05
1006.009	1720.89
1006.304	1679.08
1006.598	1684.73
1006.892	1677.72
1007.186	1645.86
1007.48	1654.45
1007.773	1675.24
1008.067	1615.35
1008.361	1652.64
1008.655	1618.97
1008.948	1610.61
1009.242	1590.27
1009.535	1583.94
1009.829	1593.43
1010.122	1588.24
1010.415	1568.35
1010.708	1561.12
1011.001	1567.22
1011.295	1548.91
1011.588	1545.75
1011.881	1520.21
1012.173	1535.36
1012.466	1547.78
1012.759	1507.11
1013.052	1501.68
1013.344	1490.16
1013.637	1468.01
1013.93	1468.24
1014.222	1468.92
1014.514	1468.46
1014.807	1456.49
1015.099	1457.62
1015.391	1435.02
1015.683	1407.67
1015.976	1421.91
1016.268	1388.69
1016.56	1402.48
1016.851	1387.11
1017.143	1385.75
1017.435	1368.58
1017.727	1379.2
1018.018	1361.57
1018.31	1355.7
1018.602	1358.86
1018.893	1329.26
1019.185	1347.56
1019.476	1331.07
1019.767	1294.91
1020.058	1312.99
1020.35	1310.95
1020.641	1271.63
1020.932	1284.74
1021.223	1256.72
1021.514	1249.03
1021.804	1237.28
1022.095	1251.29
1022.386	1210.62
1022.677	1230.28
1022.967	1220.79
1023.258	1200.22
1023.548	1204.52
1023.839	1202.03
1024.129	1173.78
1024.419	1167.91
1024.709	1140.34
1025	1177.17
1025.29	1179.66
1025.58	1153.67
1025.87	1158.42
1026.16	1126.1
1026.449	1110.96
1026.739	1121.35
1027.029	1123.16
1027.319	1112.77
1027.608	1085.42
1027.898	1103.5
1028.187	1071.41
1028.477	1074.58
1028.766	1063.73
1029.055	1058.98
1029.344	1071.64
1029.634	1059.21
1029.923	1058.76
1030.212	1038.19
1030.501	1056.27
1030.79	1045.65
1031.078	1004.3
1031.367	1010.17
1031.656	1019.44
1031.945	997.06
1032.233	993.45
1032.522	1001.13
1032.81	986.67
1033.099	967.46
1033.387	977.18
1033.675	970.17
1033.963	940.12
1034.251	944.64
1034.54	971.75
1034.828	934.47
1035.116	947.12
1035.403	953.22
1035.691	912.09
1035.979	927.24
1036.267	947.35
1036.554	892.43
1036.842	940.57
1037.129	911.87
1037.417	893.79
1037.704	917.29
1037.992	894.24
1038.279	889.72
1038.566	877.07
1038.853	877.07
1039.14	877.07
