Data from tablewood_brown_FLMS001491_016.txt Node
Date: Tue Feb 07 11:10:05 GMT 2017
User: dcchb
Spectrometer: FLMS00149
Trigger mode: 0
Integration Time (sec): 2.000000E-2
Scans to average: 10
Electric dark correction enabled: true
Nonlinearity correction enabled: false
Boxcar width: 0
XAxis mode: Wavelengths
Number of Pixels in Spectrum: 2048
>>>>>Begin Spectral Data<<<<<
341.393	-27.29
341.776	-27.29
342.16	-27.29
342.543	-62.54
342.927	-73.84
343.31	-54.41
343.693	-74.74
344.077	-75.42
344.46	-58.47
344.843	-48.3
345.226	-61.86
345.61	-30.9
345.993	-12.82
346.376	1.41
346.759	9.32
347.142	16.1
347.525	42.77
347.908	68.53
348.291	77.34
348.674	90.45
349.057	111.01
349.44	111.24
349.823	157.34
350.206	153.5
350.588	200.05
350.971	212.03
351.354	217.9
351.737	238.92
352.119	242.31
352.502	245.25
352.884	249.09
353.267	292.7
353.65	287.96
354.032	303.78
354.414	312.14
354.797	321.86
355.179	339.03
355.562	310.56
355.944	339.71
356.326	344.45
356.709	346.04
357.091	346.49
357.473	339.48
357.855	338.13
358.238	353.04
358.62	352.14
359.002	347.39
359.384	340.84
359.766	342.87
360.148	344
360.53	355.3
360.912	344.23
361.294	325.25
361.676	334.28
362.057	343.32
362.439	353.95
362.821	321.86
363.203	344.91
363.584	339.48
363.966	336.54
364.348	325.25
364.729	334.51
365.111	331.57
365.493	336.32
365.874	328.18
366.256	332.93
366.637	325.25
367.019	323.66
367.4	337
367.781	315.08
368.163	348.75
368.544	306.72
368.925	329.99
369.306	335.87
369.688	327.05
370.069	313.49
370.45	330.9
370.831	329.31
371.212	326.15
371.593	321.63
371.974	324.57
372.355	344.23
372.736	354.62
373.117	326.38
373.498	337.67
373.879	320.73
374.26	335.87
374.641	321.4
375.021	311.23
375.402	334.51
375.783	344
376.163	386.26
376.544	354.17
376.925	357.56
377.305	357.11
377.686	333.38
378.066	354.4
378.447	360.5
378.827	344
379.208	367.05
379.588	360.27
379.968	352.36
380.349	367.28
380.729	382.42
381.109	357.11
381.489	366.15
381.87	383.1
382.25	364.34
382.63	372.48
383.01	385.58
383.39	372.48
383.77	384.23
384.15	356.21
384.53	372.48
384.91	383.55
385.29	381.06
385.67	372.7
386.049	396.88
386.429	372.02
386.809	394.4
387.189	394.4
387.568	414.06
387.948	398.46
388.328	415.64
388.707	415.19
389.087	404.11
389.466	431.91
389.846	426.49
390.225	412.02
390.605	425.36
390.984	436.2
391.363	414.28
391.743	433.94
392.122	431.23
392.501	434.85
392.881	445.24
393.26	448.63
393.639	460.16
394.018	456.32
394.397	444.11
394.776	456.54
395.155	455.64
395.534	460.38
395.913	471.91
396.292	475.07
396.671	467.84
397.05	474.85
397.429	478.46
397.808	453.38
398.186	482.76
398.565	475.3
398.944	482.08
399.323	493.38
399.701	491.79
400.08	486.82
400.458	503.55
400.837	494.73
401.215	516.2
401.594	512.81
401.972	518.91
402.351	536.31
402.729	513.49
403.107	507.16
403.486	548.52
403.864	544.22
404.242	549.19
404.62	553.26
404.999	553.94
405.377	553.94
405.755	535.86
406.133	555.07
406.511	561.62
406.889	567.27
407.267	584.22
407.645	573.37
408.023	582.87
408.401	576.99
408.779	588.74
409.156	590.1
409.534	602.53
409.912	611.79
410.29	624.45
410.667	626.71
411.045	619.48
411.422	607.95
411.8	633.71
412.178	626.03
412.555	652.24
412.933	619.93
413.31	661.51
413.687	671.45
414.065	679.59
414.442	675.52
414.819	680.26
415.197	698.57
415.574	677.78
415.951	695.63
416.328	679.59
416.705	712.35
417.082	701.06
417.46	711.45
417.837	697.21
418.214	721.39
418.591	711.45
418.967	727.04
419.344	727.27
419.721	746.93
420.098	746.93
420.475	726.14
420.852	755.74
421.228	782.63
421.605	794.84
421.982	760.04
422.358	792.8
422.735	766.14
423.111	789.41
423.488	813.59
423.864	821.28
424.241	825.35
424.617	807.72
424.994	806.59
425.37	847.94
425.746	826.02
426.123	852.69
426.499	827.15
426.875	860.6
427.251	854.27
427.627	857.89
428.003	893.37
428.379	917.09
428.756	883.42
429.132	912.35
429.507	889.52
429.883	912.12
430.259	930.43
430.635	940.37
431.011	971.1
431.387	964.1
431.763	960.48
432.138	970.88
432.514	996.41
432.89	976.3
433.265	993.25
433.641	1033.7
434.016	1010.43
434.392	1035.06
434.767	1082.97
435.143	1074.15
435.518	1093.14
435.894	1096.07
436.269	1105.79
436.644	1114.15
437.02	1087.71
437.395	1100.14
437.77	1139.46
438.145	1155.05
438.52	1172
438.895	1192.57
439.271	1164.55
439.646	1194.38
440.021	1188.05
440.395	1177.65
440.77	1182.17
441.145	1210.42
441.52	1229.63
441.895	1240.48
442.27	1202.96
442.645	1254.03
443.019	1264.2
443.394	1293.58
443.769	1284.77
444.143	1269.63
444.518	1290.87
444.892	1288.38
445.267	1326.8
445.641	1299.23
446.016	1295.39
446.39	1310.3
446.764	1317.54
447.139	1311.43
447.513	1357.31
447.887	1367.48
448.262	1341.04
448.636	1355.05
449.01	1362.73
449.384	1381.94
449.758	1403.86
450.132	1443.18
450.506	1425.78
450.88	1444.99
451.254	1429.4
451.628	1429.4
452.002	1453.58
452.376	1451.77
452.75	1484.76
453.123	1494.71
453.497	1532.9
453.871	1520.69
454.244	1545.55
454.618	1584.87
454.992	1568.6
455.365	1593.01
455.739	1630.75
456.112	1603.4
456.486	1648.6
456.859	1645.66
457.232	1683.85
457.606	1694.7
457.979	1687.24
458.352	1728.82
458.725	1776.73
459.099	1785.77
459.472	1768.82
459.845	1819.67
460.218	1831.87
460.591	1831.19
460.964	1829.39
461.337	1886.56
461.71	1904.41
462.083	1937.41
462.456	1948.25
462.829	1935.82
463.201	1989.16
463.574	1971.53
463.947	2043.62
464.32	2074.58
464.692	2093.11
465.065	2083.17
465.438	2156.38
465.81	2136.95
466.183	2185.31
466.555	2251.52
466.928	2250.62
467.3	2249.04
467.672	2258.3
468.045	2329.94
468.417	2349.37
468.789	2348.02
469.161	2399.32
469.534	2444.29
469.906	2478.18
470.278	2511.63
470.65	2565.19
471.022	2563.38
471.394	2678.63
471.766	2688.57
472.138	2686.77
472.51	2765.18
472.882	2809.02
473.253	2843.15
473.625	2862.35
473.997	2959.98
474.369	2961.33
474.74	3045.17
475.112	3042.46
475.484	3141.67
475.855	3227.54
476.227	3276.58
476.598	3325.62
476.97	3366.52
477.341	3454.65
477.713	3488.78
478.084	3517.7
478.455	3639.96
478.827	3695.55
479.198	3785.04
479.569	3798.15
479.94	3919.05
480.311	3975.55
480.682	4080.18
481.053	4148.87
481.424	4197.46
481.795	4299.6
482.166	4291.02
482.537	4391.58
482.908	4522.65
483.279	4577.79
483.65	4668.86
484.021	4711.57
484.391	4842.42
484.762	4859.14
485.133	4900.04
485.503	5029.98
485.874	5060.26
486.244	5151.79
486.615	5188.17
486.985	5323.98
487.356	5429.29
487.726	5507.26
488.097	5586.12
488.467	5601.49
488.837	5782.5
489.207	5804.42
489.578	5867.02
489.948	5993.8
490.318	6071.54
490.688	6061.59
491.058	6142.49
491.428	6241.02
491.798	6296.61
492.168	6464.07
492.538	6439.44
492.908	6524.63
493.278	6602.82
493.648	6637.17
494.017	6673.33
494.387	6793.55
494.757	6880.33
495.126	6918.97
495.496	6953.55
495.866	7003.71
496.235	7051.17
496.605	7122.58
496.974	7218.85
497.344	7232.41
497.713	7328.9
498.082	7393.99
498.452	7452.52
498.821	7552.17
499.19	7558.28
499.559	7614.32
499.928	7646.86
500.298	7746.97
500.667	7777.93
501.036	7786.29
501.405	7922.11
501.774	7925.05
502.143	7998.49
502.512	8105.61
502.88	8184.25
503.249	8166.4
503.618	8251.14
503.987	8274.64
504.356	8307.41
504.724	8386.28
505.093	8469.89
505.462	8473.05
505.83	8555.09
506.199	8570.45
506.567	8733.39
506.936	8669.66
507.304	8851.12
507.672	8858.13
508.041	8923.89
508.409	8998.92
508.777	9094.51
509.145	9130.44
509.514	9182.87
509.882	9222.19
510.25	9256.08
510.618	9384.67
510.986	9450.43
511.354	9514.61
511.722	9567.71
512.09	9696.98
512.458	9739.91
512.826	9748.95
513.193	9866.92
513.561	9917.76
513.929	9997.31
514.297	10104.88
514.664	10246.57
515.032	10230.97
515.4	10345.55
515.767	10422.38
516.135	10529.27
516.502	10449.95
516.869	10679.1
517.237	10653.34
517.604	10608.59
517.972	10747.12
518.339	10957.06
518.706	10898.98
519.073	10976.04
519.44	11090.84
519.808	11244.05
520.175	11240.21
520.542	11373.54
520.909	11506.65
521.276	11570.83
521.643	11655.57
522.009	11763.14
522.376	11803.81
522.743	11877.48
523.11	12022.34
523.477	12196.57
523.843	12205.39
524.21	12360.86
524.577	12491.48
524.943	12556.11
525.31	12644.47
525.676	12708.87
526.043	12810.34
526.409	12936.67
526.776	13069.32
527.142	13145.7
527.508	13211.01
527.874	13346.37
528.241	13369.42
528.607	13476.54
528.973	13578.91
529.339	13640.15
529.705	13768.28
530.071	13909.97
530.437	13956.53
530.803	14032.23
531.169	14059.12
531.535	14039.46
531.901	14148.16
532.267	14253.69
532.632	14371.43
532.998	14422.73
533.364	14457.76
533.73	14533.91
534.095	14633.12
534.461	14743.4
534.826	14816.62
535.192	14890.51
535.557	14963.28
535.923	14955.6
536.288	14965.54
536.653	15035.82
537.019	15046.21
537.384	15254.8
537.749	15255.93
538.114	15313.33
538.479	15394.45
538.845	15410.27
539.21	15474
539.575	15535.24
539.94	15540.21
540.305	15728.68
540.67	15730.04
541.034	15842.58
541.399	15846.65
541.764	15889.58
542.129	15932.07
542.494	16073.76
542.858	16013.87
543.223	16035.12
543.587	16129.58
543.952	16226.3
544.316	16240.99
544.681	16255.67
545.045	16357.37
545.41	16446.63
545.774	16456.57
546.138	16517.14
546.503	16611.15
546.867	16708.54
547.231	16746.96
547.595	16859.95
547.959	16967.07
548.324	16948.99
548.688	16952.38
549.052	17068.53
549.416	17148.08
549.779	17070.34
550.143	17226.27
550.507	17467.85
550.871	17457.68
551.235	17500.61
551.599	17712.36
551.962	17679.14
552.326	17824.9
552.689	17926.82
553.053	17911.45
553.417	17995.06
553.78	18256.53
554.143	18209.97
554.507	18334.04
554.87	18469.4
555.234	18597.31
555.597	18555.27
555.96	18693.8
556.323	18786.46
556.686	18812.44
557.05	19085.88
557.413	19119.33
557.776	19246.1
558.139	19422.82
558.502	19497.17
558.865	19558.86
559.228	19900.1
559.59	19877.05
559.953	19941.68
560.316	20222.12
560.679	20247.89
561.041	20407.2
561.404	20586.86
561.767	20806.97
562.129	20766.29
562.492	21051.25
562.854	21052.16
563.217	21106.39
563.579	21290.12
563.941	21523.33
564.304	21585.25
564.666	21908.63
565.028	21891.68
565.39	21992.47
565.753	22234.27
566.115	22450.77
566.477	22465.45
566.839	22694.15
567.201	22965.33
567.563	22959.68
567.925	23130.3
568.287	23313.12
568.648	23385.43
569.01	23751.75
569.372	23837.62
569.734	23895.02
570.095	24070.61
570.457	24211.62
570.819	24416.82
571.18	24492.29
571.542	24763.47
571.903	24833.08
572.265	25058.15
572.626	25279.17
572.987	25368.43
573.349	25488.2
573.71	25835.99
574.071	25916.66
574.432	25959.83
574.794	26323.21
575.155	26337.22
575.516	26373.37
575.877	26496.08
576.238	26612.46
576.599	26838.22
576.96	26937.65
577.32	27117.76
577.681	27259.23
578.042	27356.85
578.403	27564.76
578.763	27642.49
579.124	27762.49
579.485	27764.3
579.845	28003.39
580.206	28089.26
580.566	28173.78
580.927	28155.93
581.287	28445.64
581.648	28428.69
582.008	28503.71
582.368	28542.81
582.728	28656.93
583.089	28724.5
583.449	28745.52
583.809	28924.72
584.169	29043.36
584.529	29074.32
584.889	29445.16
585.249	29156.8
585.609	29098.27
585.969	29411.03
586.329	29313.18
586.688	29449.68
587.048	29387.08
587.408	29461.65
587.768	29471.15
588.127	29465.5
588.487	29503.91
588.846	29818.71
589.206	29588.21
589.565	29584.36
589.925	29848.99
590.284	29759.73
590.643	29818.48
591.003	29911.81
591.362	30042.88
591.721	29985.93
592.08	30054.18
592.44	30013.96
592.799	30123.78
593.158	30161.52
593.517	30068.42
593.876	30178.47
594.235	30087.85
594.593	30164.91
594.952	30349.54
595.311	30182.09
595.67	30217.34
596.029	30467.73
596.387	30505.24
596.746	30496.43
597.104	30311.35
597.463	30291.24
597.822	30379.37
598.18	30515.19
598.538	30507.28
598.897	30631.57
599.255	30450.56
599.613	30700.49
599.972	30621.62
600.33	30651.45
600.688	30585.47
601.046	30681.06
601.404	30709.08
601.762	30773.03
602.12	30942.52
602.478	30838.79
602.836	31014.16
603.194	30826.59
603.552	30912.24
603.91	30833.37
604.268	31083.98
604.625	30846.03
604.983	31031.1
605.341	30865.46
605.698	31050.99
606.056	31110.65
606.413	31031.1
606.771	31166.24
607.128	31254.38
607.485	30967.6
607.843	31087.6
608.2	31275.39
608.557	31283.53
608.914	31117.66
609.272	31330.98
609.629	31351.55
609.986	31542.5
610.343	31310.42
610.7	31603.97
611.057	31485.1
611.414	31518.55
611.771	31567.59
612.127	31747.24
612.484	31551.54
612.841	31787.47
613.198	31711.54
613.554	31684.42
613.911	31708.15
614.267	31828.6
614.624	31746.57
614.98	31838.77
615.337	32056.84
615.693	32027.24
616.05	32035.15
616.406	32183.17
616.762	31997.63
617.118	32269.04
617.475	32045.09
617.831	32274.46
618.187	32141.81
618.543	32264.74
618.899	32353.56
619.255	32224.52
619.611	32296.38
619.967	32271.75
620.323	32339.55
620.678	32389.04
621.034	32394.68
621.39	32418.64
621.746	32234.46
622.101	32634.68
622.457	32472.2
622.812	32421.35
623.168	32616.6
623.523	32511.74
623.879	32609.14
624.234	32546.32
624.589	32558.97
624.945	32511.07
625.3	32569.37
625.655	32589.71
626.01	32525.08
626.365	32575.92
626.72	32560.56
627.075	32458.41
627.43	32542.03
627.785	32557.84
628.14	32551.74
628.495	32531.63
628.85	32435.81
629.205	32330.05
629.559	32469.71
629.914	32264.97
630.269	32230.4
630.623	32176.16
630.978	32067.46
631.332	32293.22
631.687	32262.49
632.041	32074.92
632.396	32257.51
632.75	32166.44
633.104	32073.79
633.459	32092.77
633.813	32012.77
634.167	32050.51
634.521	32027.46
634.875	32067.69
635.229	31964.87
635.583	31775.49
635.937	31853.46
636.291	31854.59
636.645	31783.18
636.999	31657.76
637.352	31767.81
637.706	31632.67
638.06	31769.39
638.413	31766.68
638.767	31764.19
639.121	31684.2
639.474	31426.12
639.828	31546.12
640.181	31502.05
640.534	31439.46
640.888	31415.95
641.241	31311.1
641.594	31436.07
641.947	31456.18
642.301	31287.14
642.654	31395.62
643.007	31354.03
643.36	31245.11
643.713	31248.5
644.066	31242.62
644.419	31085.34
644.771	31011.22
645.124	30655.07
645.477	30620.27
645.83	30358.58
646.182	30268.41
646.535	30168.3
646.888	30290.56
647.24	30125.59
647.593	30290.11
647.945	30245.14
648.298	30118.81
648.65	30092.37
649.002	30035.65
649.355	30122.88
649.707	30068.87
650.059	30264.12
650.411	30606.94
650.763	30627.95
651.115	30863.88
651.467	30724.45
651.819	30778.23
652.171	30772.35
652.523	30725.58
652.875	30775.74
653.227	30529.42
653.578	30763.99
653.93	30539.14
654.282	30724.67
654.633	30488.97
654.985	30647.39
655.337	30648.52
655.688	30727.16
656.039	30783.43
656.391	30473.61
656.742	30678.8
657.094	30652.36
657.445	30589.53
657.796	30578.91
658.147	30591.79
658.498	30563.77
658.849	30441.74
659.2	30468.86
659.551	30422.53
659.902	30531.46
660.253	30515.64
660.604	30559.93
660.955	30425.25
661.306	30578.69
661.656	30468.63
662.007	30441.29
662.358	30479.93
662.708	30446.94
663.059	30499.82
663.409	30284.01
663.76	30464.79
664.11	30505.02
664.461	30486.94
664.811	30564.68
665.161	30488.07
665.511	30313.38
665.862	30568.29
666.212	30398.35
666.562	30558.12
666.912	30380.27
667.262	30407.62
667.612	30521.51
667.962	30420.73
668.312	30392.48
668.662	30516.32
669.011	30466.37
669.361	30298.02
669.711	30388.18
670.06	30114.29
670.41	30183.67
670.76	30193.84
671.109	30451.01
671.459	30209.66
671.808	30117.91
672.157	30111.81
672.507	30058.48
672.856	30144.57
673.205	30101.41
673.554	30217.57
673.904	30084.01
674.253	30142.77
674.602	30055.31
674.951	29638.37
675.3	29498.04
675.649	29955.2
675.998	29968.76
676.346	29840.4
676.695	30072.03
677.044	29797.69
677.393	29968.76
677.741	29969.44
678.09	29792.27
678.438	29599.73
678.787	29710.01
679.135	29736
679.484	29522.44
679.832	29684.93
680.181	29369.91
680.529	29516.12
680.877	29441.54
681.225	29340.3
681.573	29521.99
681.922	29267.76
682.27	29274.77
682.618	29278.38
682.966	29108.67
683.314	29225.28
683.661	29104.38
684.009	28885.4
684.357	28899.86
684.705	28927.88
685.053	28948.45
685.4	28783.93
685.748	28746.42
686.095	28775.12
686.443	28567.44
686.79	28602.02
687.138	28543.94
687.485	28510.27
687.832	28358.63
688.18	28427.78
688.527	28324.06
688.874	28260.78
689.221	28193.21
689.568	28135.59
689.915	28012.43
690.262	27935.59
690.609	27991.18
690.956	27747.8
691.303	27837.52
691.65	27671.65
691.997	27622.83
692.344	27447.24
692.69	27410.18
693.037	27407.02
693.383	27184.65
693.73	27277.31
694.077	27095.39
694.423	27068.95
694.769	26917.09
695.116	26911.67
695.462	26822.18
695.808	26675.51
696.155	26815.62
696.501	26468.74
696.847	26553.93
697.193	26229.42
697.539	26440.27
697.885	26182.87
698.231	26143.78
698.577	26112.14
698.923	26040.95
699.269	25948.75
699.614	25762.32
699.96	25751.47
700.306	25688.19
700.651	25579.72
700.997	25598.03
701.342	25504.92
701.688	25420.63
702.033	25234.2
702.379	25165.5
702.724	25162.56
703.069	25168.21
703.415	24843.92
703.76	24956.46
704.105	24779.07
704.45	24664.27
704.795	24598.73
705.14	24478.96
705.485	24498.4
705.83	24458.85
706.175	24391.28
706.52	24323.48
706.865	24220.66
707.209	24206.43
707.554	24086.43
707.899	24144.28
708.243	23987.67
708.588	23996.04
708.932	23814.35
709.277	23822.71
709.621	23764.4
709.966	23758.53
710.31	23628.81
710.654	23468.82
710.998	23575.26
711.342	23476.05
711.687	23492.32
712.031	23305.88
712.375	23242.61
712.719	23377.52
713.063	23260.01
713.407	23160.8
713.75	23202.16
714.094	23235.15
714.438	23126.68
714.782	23000.58
715.125	23033.8
715.469	22926.46
715.812	22891.66
716.156	22727.59
716.499	22702.74
716.843	22848.27
717.186	22688.95
717.53	22799.23
717.873	22643.08
718.216	22615.06
718.559	22594.04
718.902	22436.53
719.246	22573.02
719.589	22552.68
719.932	22314.72
720.275	22315.4
720.617	22352.24
720.96	22319.92
721.303	22333.48
721.646	22317.66
721.989	22228.85
722.331	22206.93
722.674	22272.24
723.016	22235.4
723.359	22240.38
723.701	22130.32
724.044	22138.68
724.386	22160.83
724.729	22237.44
725.071	22120.83
725.413	22199.7
725.755	22073.37
726.097	21993.6
726.439	21936.2
726.782	21909.99
727.124	22011
727.465	21819.37
727.807	21913.15
728.149	21880.84
728.491	21885.36
728.833	21967.84
729.175	21879.03
729.516	21771.01
729.858	21792.93
730.199	21826.15
730.541	21812.59
730.882	21797.9
731.224	21853.95
731.565	21772.59
731.906	21787.05
732.248	21812.82
732.589	21722.2
732.93	21644.69
733.271	21751.8
733.612	21747.51
733.953	21691.24
734.294	21658.47
734.635	21606.49
734.976	21691.92
735.317	21711.58
735.658	21675.42
735.999	21628.41
736.339	21597.23
736.68	21672.26
737.021	21578.7
737.361	21488.31
737.702	21585.48
738.042	21644.69
738.383	21539.83
738.723	21648.53
739.063	21572.6
739.404	21613.95
739.744	21513.16
740.084	21540.51
740.424	21576.89
740.764	21646.04
741.104	21655.08
741.444	21584.12
741.784	21495.76
742.124	21493.73
742.464	21576.21
742.804	21483.11
743.143	21441.53
743.483	21564.91
743.823	21483.33
744.162	21494.18
744.502	21528.08
744.841	21371.7
745.181	21549.77
745.52	21496.89
745.86	21477.01
746.199	21453.73
746.538	21517.46
746.877	21607.62
747.216	21528.76
747.556	21538.02
747.895	21547.51
748.234	21439.04
748.573	21448.31
748.911	21476.55
749.25	21435.65
749.589	21448.53
749.928	21389.55
750.267	21482.88
750.605	21385.48
750.944	21406.05
751.283	21282.89
751.621	21442.43
751.96	21246.73
752.298	21390.68
752.636	21372.6
752.975	21240.63
753.313	21209.44
753.651	21287.41
753.989	21161.31
754.327	21128.09
754.666	21100.52
755.004	21161.31
755.342	21042.22
755.679	21136
756.017	21018.94
756.355	21148.88
756.693	21026.17
757.031	21045.6
757.368	20900.98
757.706	20887.87
758.044	20796.12
758.381	20825.05
758.719	20742.34
759.056	20816.23
759.394	20711.15
759.731	20618.05
760.068	20569.23
760.405	20512.74
760.743	20479.52
761.08	20519.06
761.417	20298.05
761.754	20327.21
762.091	20422.8
762.428	20241.78
762.765	20118.85
763.102	20218.51
763.438	20176.25
763.775	20010.38
764.112	20138.74
764.449	20101.67
764.785	19978.97
765.122	19863.49
765.458	19802.02
765.795	19763.15
766.131	19729.71
766.467	19617.39
766.804	19592.76
767.14	19499.2
767.476	19442.48
767.812	19473.44
768.148	19437.51
768.485	19236.16
768.821	19287.23
769.157	19204.98
769.492	19145.77
769.828	19146.9
770.164	18946
770.5	18873.68
770.836	18916.62
771.171	18802.73
771.507	18857.19
771.842	18605.22
772.178	18712.11
772.513	18583.52
772.849	18565.44
773.184	18479.34
773.519	18473.7
773.855	18358.22
774.19	18331.33
774.525	18188.96
774.86	18061.5
775.195	18133.37
775.53	18016.08
775.865	18008.4
776.2	17845.91
776.535	17705.58
776.87	17757.33
777.205	17657.67
777.539	17631.23
777.874	17676.88
778.209	17457
778.543	17468.98
778.878	17372.03
779.212	17259.26
779.547	17318.25
779.881	17245.48
780.215	17197.8
780.55	17228.08
780.884	17023.34
781.218	16948.99
781.552	17027.18
781.886	16871.93
782.22	16796.23
782.554	16663.57
782.888	16568.89
783.222	16465.39
783.556	16589
783.889	16400.08
784.223	16328.44
784.557	16327.54
784.89	16332.06
785.224	16230.59
785.557	16118.95
785.891	16147.88
786.224	16144.04
786.558	16073.53
786.891	15951.95
787.224	15845.52
787.557	15869.47
787.891	15891.39
788.224	15790.6
788.557	15737.72
788.89	15689.36
789.223	15642.58
789.556	15573.43
789.888	15483.27
790.221	15519.42
790.554	15310.39
790.887	15299.54
791.219	15272.2
791.552	15158.08
791.884	15221.58
792.217	15104.07
792.549	15048.47
792.882	14931.87
793.214	14955.82
793.546	14957.18
793.879	14887.57
794.211	14784.07
794.543	14814.36
794.875	14757.41
795.207	14774.81
795.539	14681.48
795.871	14658.43
796.203	14512.67
796.535	14503.4
796.867	14453.69
797.198	14427.25
797.53	14417.08
797.862	14281.71
798.193	14323.07
798.525	14175.05
798.856	14258.66
799.188	14082.17
799.519	14043.53
799.85	13981.38
800.182	14016.86
800.513	14025
800.844	13852.8
801.175	13949.07
801.506	13853.25
801.837	13806.7
802.168	13739.81
802.499	13722.86
802.83	13642.18
803.161	13611.9
803.491	13513.37
803.822	13590.66
804.153	13447.39
804.483	13302.76
804.814	13322.19
805.145	13361.74
805.475	13324.23
805.805	13270.89
806.136	13220.95
806.466	13266.15
806.796	13358.8
807.126	13138.92
807.457	13048.07
807.787	13037.91
808.117	12994.29
808.447	13025.7
808.777	13070.9
809.107	12952.48
809.436	12897.34
809.766	12887.18
810.096	12827.29
810.426	12794.75
810.755	12747.52
811.085	12759.04
811.414	12676.33
811.744	12679.95
812.073	12651.93
812.403	12663.9
812.732	12531.48
813.061	12514.3
813.39	12437.02
813.719	12389.56
814.049	12507.52
814.378	12472.27
814.707	12399.96
815.036	12382.56
815.365	12262.33
815.693	12253.52
816.022	12220.3
816.351	12251.71
816.68	12209
817.008	12179.4
817.337	12043.58
817.665	12017.82
817.994	12086.97
818.322	12029.12
818.651	12049.46
818.979	11912.29
819.307	12020.08
819.636	11974.2
819.964	11851.72
820.292	11963.36
820.62	11860.54
820.948	11821.67
821.276	11920.2
821.604	11813.53
821.932	11852.85
822.259	11827.32
822.587	11758.17
822.915	11785.51
823.243	11821.21
823.57	11778.96
823.898	11769.46
824.225	11814.66
824.553	11712.52
824.88	11692.4
825.207	11811.95
825.535	11789.13
825.862	11762.01
826.189	11743.25
826.516	11795
826.843	11811.05
827.17	11772.4
827.497	11716.58
827.824	11712.97
828.151	11762.69
828.478	11783.02
828.805	11867.77
829.131	11740.76
829.458	11713.42
829.785	11704.83
830.111	11655.8
830.438	11762.23
830.764	11715
831.09	11788.9
831.417	11726.08
831.743	11752.06
832.069	11687.21
832.395	11669.35
832.722	11732.4
833.048	11602.92
833.374	11733.08
833.7	11588
834.026	11642.46
834.351	11672.74
834.677	11650.6
835.003	11620.99
835.329	11597.72
835.654	11603.82
835.98	11572.41
836.306	11505.52
836.631	11524.27
836.956	11477.04
837.282	11493.99
837.607	11461
837.932	11407.89
838.258	11476.14
838.583	11506.19
838.908	11322.24
839.233	11414.45
839.558	11381.68
839.883	11406.99
840.208	11287.67
840.533	11307.78
840.858	11349.14
841.182	11305.75
841.507	11309.82
841.832	11246.09
842.156	11215.35
842.481	11177.62
842.805	11134.9
843.13	11110.95
843.454	11065.98
843.778	11098.07
844.103	11082.7
844.427	11016.94
844.751	11061.91
845.075	11006.32
845.399	10963.16
845.723	10973.78
846.047	10927
846.371	10815.82
846.695	10822.6
847.019	10719.55
847.343	10669.83
847.666	10672.54
847.99	10581.93
848.313	10548.03
848.637	10562.72
848.96	10477.07
849.284	10519.1
849.607	10395.94
849.931	10378.09
850.254	10310.75
850.577	10333.34
850.9	10129.28
851.223	10185.33
851.546	10164.99
851.869	10094.25
852.192	10160.24
852.515	10057.65
852.838	9986.23
853.161	10047.02
853.483	9999.34
853.806	9894.26
854.129	9818.56
854.451	9890.42
854.774	9787.37
855.096	9716.64
855.419	9721.61
855.741	9730.87
856.063	9614.72
856.385	9697.88
856.708	9628.73
857.03	9535.17
857.352	9560.48
857.674	9436.42
857.996	9461.73
858.318	9495.63
858.64	9456.76
858.961	9431.9
859.283	9373.14
859.605	9384.89
859.926	9376.99
860.248	9275.52
860.57	9324.56
860.891	9299.47
861.212	9243.88
861.534	9249.98
861.855	9208.18
862.176	9242.53
862.498	9192.81
862.819	9176.31
863.14	9133.15
863.461	9182.87
863.782	9100.83
864.103	9081.85
864.424	9068.29
864.745	9074.39
865.065	9013.38
865.386	9005.7
865.707	9050.67
866.027	9075.52
866.348	9038.46
866.668	8980.61
866.989	8959.14
867.309	8897
867.63	8837.11
867.95	8844.34
868.27	8827.85
868.59	8906.04
868.91	8906.49
869.23	8854.06
869.55	8835.76
869.87	8748.53
870.19	8801.18
870.51	8766.83
870.83	8787.62
871.15	8747.62
871.469	8735.87
871.789	8730
872.109	8701.07
872.428	8659.94
872.748	8694.74
873.067	8654.52
873.386	8676.66
873.706	8681.41
874.025	8631.02
874.344	8610
874.663	8565.48
874.982	8554.41
875.301	8588.76
875.62	8556.44
875.939	8489.1
876.258	8506.5
876.577	8532.49
876.896	8471.47
877.214	8466.27
877.533	8502.21
877.852	8447.07
878.17	8448.42
878.489	8467.4
878.807	8425.82
879.125	8435.09
879.444	8459.95
879.762	8393.51
880.08	8334.3
880.398	8332.49
880.716	8352.15
881.034	8352.83
881.352	8332.27
881.67	8292.95
881.988	8283
882.306	8255.21
882.624	8205.04
882.941	8194.42
883.259	8230.35
883.577	8165.27
883.894	8166.17
884.212	8131.37
884.529	8092.5
884.846	8081.65
885.164	8102.22
885.481	8027.87
885.798	8045.04
886.115	7980.19
886.432	8061.09
886.75	7937.25
887.067	7981.77
887.383	8003.01
887.7	7952.16
888.017	7919.4
888.334	7897.93
888.651	7934.76
888.967	7834.65
889.284	7786.74
889.6	7840.53
889.917	7756.69
890.233	7771.6
890.55	7762.11
890.866	7728.89
891.182	7713.75
891.498	7685.73
891.815	7612.96
892.131	7575.68
892.447	7670.82
892.763	7638.73
893.079	7570.48
893.395	7505.17
893.71	7505.17
894.026	7497.03
894.342	7517.82
894.657	7447.09
894.973	7412.74
895.289	7344.27
895.604	7379.07
895.92	7333.42
896.235	7268.57
896.55	7307.66
896.865	7223.14
897.181	7277.38
897.496	7263.82
897.811	7191.05
898.126	7151.05
898.441	7156.93
898.756	7121.9
899.071	7107.44
899.386	7104.5
899.7	7037.16
900.015	7045.07
900.33	6946.09
900.644	6964.62
900.959	7033.32
901.273	6892.98
901.588	6875.13
901.902	6866.99
902.216	6853.21
902.531	6809.59
902.845	6797.39
903.159	6801.46
903.473	6773.66
903.787	6719.88
904.101	6699.77
904.415	6686.43
904.729	6696.83
905.042	6664.06
905.356	6642.82
905.67	6654.8
905.984	6596.72
906.297	6525.08
906.611	6459.77
906.924	6529.6
907.237	6517.63
907.551	6448.93
907.864	6445.54
908.177	6481.92
908.491	6370.06
908.804	6342.04
909.117	6356.95
909.43	6245.77
909.743	6332.55
910.056	6278.54
910.368	6246.45
910.681	6245.54
910.994	6226.79
911.307	6140.01
911.619	6114.7
911.932	6145.43
912.244	6045.32
912.557	6143.17
912.869	6036.96
913.181	6000.12
913.494	6053
913.806	5963.97
914.118	5870.41
914.43	5924.42
914.742	5914.93
915.054	5889.17
915.366	5819.34
915.678	5905.44
915.99	5820.69
916.302	5771.66
916.613	5763.52
916.925	5774.14
917.236	5741.15
917.548	5733.92
917.859	5705.9
918.171	5627.71
918.482	5611.89
918.794	5570.53
919.105	5576.63
919.416	5561.04
919.727	5534.83
920.038	5519.91
920.349	5481.27
920.66	5439.24
920.971	5441.27
921.282	5424.77
921.593	5389.97
921.903	5346.58
922.214	5343.87
922.525	5307.04
922.835	5297.77
923.146	5261.61
923.456	5258.22
923.767	5269.52
924.077	5230.88
924.387	5251.22
924.697	5188.62
925.008	5180.03
925.318	5131.67
925.628	5120.15
925.938	5119.02
926.248	5122.86
926.558	5017.33
926.867	5019.81
927.177	4996.76
927.487	4930.32
927.796	4931.45
928.106	4934.62
928.416	4935.07
928.725	4917.67
929.034	4877.67
929.344	4872.47
929.653	4861.4
929.962	4860.04
930.271	4772.36
930.581	4795.18
930.89	4767.84
931.199	4747.28
931.508	4722.64
931.817	4729.65
932.125	4671.8
932.434	4660.05
932.743	4633.61
933.051	4608.97
933.36	4630.22
933.669	4536.21
933.977	4535.08
934.286	4532.59
934.594	4547.96
934.902	4497.79
935.21	4479.26
935.519	4498.7
935.827	4517.9
936.135	4463.89
936.443	4375.76
936.751	4352.48
937.059	4385.7
937.367	4361.75
937.674	4344.8
937.982	4313.84
938.29	4312.03
938.597	4319.72
938.905	4268.87
939.213	4259.61
939.52	4229.32
939.827	4250.79
940.135	4192.94
940.442	4186.84
940.749	4218.48
941.056	4152.72
941.363	4113.39
941.67	4107.29
941.977	4117.46
942.284	4102.1
942.591	4056.22
942.898	4046.05
943.205	4036.11
943.511	3985.04
943.818	3986.84
944.125	3940.29
944.431	3990.91
944.738	3953.85
945.044	3924.93
945.35	3866.85
945.657	3893.97
945.963	3885.6
946.269	3828.66
946.575	3858.03
946.881	3838.83
947.187	3824.59
947.493	3794.08
947.799	3767.19
948.105	3792.73
948.41	3754.99
948.716	3767.64
949.022	3733.29
949.327	3714.31
949.633	3643.35
949.938	3696.23
950.244	3655.33
950.549	3600.87
950.854	3630.24
951.16	3618.04
951.465	3595.89
951.77	3586.4
952.075	3596.57
952.38	3575.78
952.685	3532.62
952.99	3520.19
953.294	3508.89
953.599	3484.48
953.904	3404.71
954.209	3463.69
954.513	3423.92
954.818	3406.29
955.122	3381.89
955.426	3431.38
955.731	3433.41
956.035	3348.22
956.339	3340.53
956.643	3340.08
956.948	3292.85
957.252	3283.59
957.556	3292.63
957.86	3262.57
958.163	3276.81
958.467	3254.66
958.771	3239.07
959.075	3259.86
959.378	3227.99
959.682	3238.84
959.985	3202.68
960.289	3165.85
960.592	3178.05
960.896	3160.65
961.199	3157.04
961.502	3122.91
961.805	3137.15
962.108	3088.11
962.411	3104.16
962.714	3068.68
963.017	3037.72
963.32	3058.73
963.623	3046.98
963.926	3042.24
964.228	3000.66
964.531	2967.66
964.833	2989.81
965.136	2949.13
965.438	2944.16
965.741	2966.08
966.043	2913.43
966.345	2875.69
966.648	2924.95
966.95	2903.26
967.252	2886.99
967.554	2845.18
967.856	2820.55
968.158	2825.74
968.46	2807.21
968.761	2785.29
969.063	2821.9
969.365	2788.46
969.666	2833.2
969.968	2750.49
970.269	2745.75
970.571	2766.99
970.872	2732.87
971.174	2690.83
971.475	2709.14
971.776	2696.03
972.077	2709.14
972.378	2679.53
972.679	2637.28
972.98	2646.99
973.281	2658.97
973.582	2643.83
973.883	2619.2
974.183	2640.21
974.484	2606.54
974.785	2599.54
975.085	2587.11
975.386	2567.22
975.686	2593.66
975.986	2536.26
976.287	2532.87
976.587	2508.92
976.887	2507.79
977.187	2520.89
977.487	2506.21
977.787	2462.14
978.087	2464.62
978.387	2469.82
978.687	2446.32
978.987	2435.02
979.286	2432.99
979.586	2440.9
979.885	2387.11
980.185	2398.86
980.484	2369.94
980.784	2380.33
981.083	2396.6
981.382	2377.62
981.682	2374.91
981.981	2333.1
982.28	2360.67
982.579	2318.41
982.878	2327.68
983.177	2313.44
983.475	2271.64
983.774	2253.78
984.073	2274.35
984.372	2265.31
984.67	2259.21
984.969	2241.58
985.267	2240.45
985.566	2202.26
985.864	2223.05
986.162	2191.19
986.461	2173.11
986.759	2177.4
987.057	2135.59
987.355	2143.73
987.653	2151.41
987.951	2144.63
988.249	2109.38
988.547	2138.08
988.844	2125.42
989.142	2099.44
989.44	2096.27
989.737	2079.78
990.035	2071.19
990.332	2103.28
990.63	2064.41
990.927	2051.98
991.224	2045.65
991.521	2052.66
991.819	2047.91
992.116	2012.66
992.413	2021.25
992.71	1989.61
993.006	1971.76
993.303	1953.45
993.6	1982.83
993.897	1971.53
994.193	1965.43
994.49	1940.34
994.787	1951.64
995.083	1922.49
995.379	1919.78
995.676	1910.51
995.972	1911.64
996.268	1878.43
996.565	1871.87
996.861	1865.54
997.157	1846.34
997.453	1842.95
997.749	1842.95
998.044	1845.88
998.34	1838.2
998.636	1807.92
998.932	1829.39
999.227	1793.91
999.523	1797.3
999.818	1770.86
1000.114	1780.8
1000.409	1765.66
1000.704	1767.02
1001	1732.89
1001.295	1730.18
1001.59	1725.66
1001.885	1742.16
1002.18	1710.29
1002.475	1703.51
1002.77	1668.49
1003.065	1692.44
1003.359	1681.37
1003.654	1701.25
1003.949	1667.81
1004.243	1661.93
1004.538	1661.93
1004.832	1622.84
1005.127	1658.09
1005.421	1615.61
1005.715	1584.2
1006.009	1603.4
1006.304	1601.14
1006.598	1589.62
1006.892	1592.33
1007.186	1543.29
1007.48	1562.05
1007.773	1562.73
1008.067	1527.02
1008.361	1548.26
1008.655	1525.89
1008.948	1504.65
1009.242	1528.15
1009.535	1511.66
1009.829	1486.12
1010.122	1485.44
1010.415	1508.49
1010.708	1480.7
1011.001	1464.42
1011.295	1440.7
1011.588	1433.47
1011.881	1415.84
1012.173	1415.39
1012.466	1423.75
1012.759	1410.64
1013.052	1431.43
1013.344	1395.5
1013.637	1371.32
1013.93	1375.84
1014.222	1373.81
1014.514	1372.22
1014.807	1342.17
1015.099	1324.54
1015.391	1343.52
1015.683	1348.04
1015.976	1353.02
1016.268	1307.59
1016.56	1318.67
1016.851	1326.12
1017.143	1290.42
1017.435	1287.93
1017.727	1307.59
1018.018	1271.21
1018.31	1254.03
1018.602	1269.63
1018.893	1254.03
1019.185	1259.91
1019.476	1222.4
1019.767	1221.49
1020.058	1220.36
1020.35	1213.58
1020.641	1187.37
1020.932	1182.4
1021.223	1173.58
1021.514	1208.16
1021.804	1179.91
1022.095	1169.74
1022.386	1153.92
1022.677	1175.39
1022.967	1138.11
1023.258	1159.57
1023.548	1141.72
1023.839	1132.68
1024.129	1089.29
1024.419	1115.73
1024.709	1128.16
1025	1101.95
1025.29	1115.96
1025.58	1098.33
1025.87	1082.74
1026.16	1087.03
1026.449	1082.74
1026.739	1073.7
1027.029	1053.36
1027.319	1047.71
1027.608	1041.61
1027.898	1042.29
1028.187	1024.44
1028.477	1026.24
1028.766	1013.36
1029.055	1007.04
1029.344	998.9
1029.634	997.77
1029.923	1007.71
1030.212	997.09
1030.501	1014.49
1030.79	968.39
1031.078	954.61
1031.367	980.37
1031.656	945.79
1031.945	956.42
1032.233	983.31
1032.522	945.57
1032.81	932.69
1033.099	927.94
1033.387	932.69
1033.675	935.85
1033.963	902.18
1034.251	903.76
1034.54	896.08
1034.828	903.54
1035.116	880.94
1035.403	886.59
1035.691	869.41
1035.979	878
1036.267	892.01
1036.554	845.68
1036.842	848.85
1037.129	874.61
1037.417	833.03
1037.704	833.71
1037.992	855.18
1038.279	831.22
1038.566	831
1038.853	831
1039.14	831
