Data from tablewood_brown_FLMS001491_002.txt Node
Date: Tue Feb 07 11:09:55 GMT 2017
User: dcchb
Spectrometer: FLMS00149
Trigger mode: 0
Integration Time (sec): 2.000000E-2
Scans to average: 10
Electric dark correction enabled: true
Nonlinearity correction enabled: false
Boxcar width: 0
XAxis mode: Wavelengths
Number of Pixels in Spectrum: 2048
>>>>>Begin Spectral Data<<<<<
341.393	-5.89
341.776	-5.89
342.16	-5.89
342.543	-62.61
342.927	-88.37
343.31	-70.97
343.693	-59
344.077	-67.58
344.46	-72.55
344.843	-40.24
345.226	-39.11
345.61	-30.75
345.993	-42.27
346.376	-9.96
346.759	8.8
347.142	42.7
347.525	45.63
347.908	70.27
348.291	71.4
348.674	94.22
349.057	99.42
349.44	125.18
349.823	149.81
350.206	171.51
350.588	188.23
350.971	206.08
351.354	208.57
351.737	242.69
352.119	265.06
352.502	259.19
352.884	277.94
353.267	265.29
353.65	305.29
354.032	295.12
354.414	310.94
354.797	308.23
355.179	311.39
355.562	313.88
355.944	344.61
356.326	321.56
356.709	344.38
357.091	343.93
357.473	373.31
357.855	336.93
358.238	343.71
358.62	336.7
359.002	356.13
359.384	357.49
359.766	338.73
360.148	338.51
360.53	372.86
360.912	333.76
361.294	362.69
361.676	329.02
362.057	345.06
362.439	359.52
362.821	350.03
363.203	332.18
363.584	340.99
363.966	328.56
364.348	349.81
364.729	329.47
365.111	325.4
365.493	317.72
365.874	321.33
366.256	325.4
366.637	330.37
367.019	305.29
367.4	342.12
367.781	332.63
368.163	323.59
368.544	317.04
368.925	312.07
369.306	330.15
369.688	324.95
370.069	353.65
370.45	339.19
370.831	331.05
371.212	359.3
371.593	352.97
371.974	337.38
372.355	315.91
372.736	334.21
373.117	338.51
373.498	351.39
373.879	336.02
374.26	369.02
374.641	353.65
375.021	322.46
375.402	330.37
375.783	331.95
376.163	368.11
376.544	350.71
376.925	349.36
377.305	351.16
377.686	359.75
378.066	355.23
378.447	362.69
378.827	349.13
379.208	377.38
379.588	369.24
379.968	356.59
380.349	373.54
380.729	376.7
381.109	362.46
381.489	379.64
381.87	386.87
382.25	378.51
382.63	370.15
383.01	360.43
383.39	384.38
383.77	394.55
384.15	369.02
384.53	396.13
384.91	402.46
385.29	390.48
385.67	385.51
386.049	400.2
386.429	385.29
386.809	403.14
387.189	410.37
387.568	410.14
387.948	416.25
388.328	405.85
388.707	401.33
389.087	434.32
389.466	407.43
389.846	418.96
390.225	435.23
390.605	436.58
390.984	416.02
391.363	429.81
391.743	422.35
392.122	443.14
392.501	458.5
392.881	444.95
393.26	467.77
393.639	471.39
394.018	449.69
394.397	484.72
394.776	446.53
395.155	455.34
395.534	442.46
395.913	478.39
396.292	464.83
396.671	485.62
397.05	484.04
397.429	464.83
397.808	491.27
398.186	478.39
398.565	506.87
398.944	501.22
399.323	486.75
399.701	496.47
400.08	499.86
400.458	501.44
400.837	541.44
401.215	508.22
401.594	532.85
401.972	521.55
402.351	534.66
402.729	538.73
403.107	531.27
403.486	565.39
403.864	526.98
404.242	539.18
404.62	558.84
404.999	555.45
405.377	542.8
405.755	567.88
406.133	587.99
406.511	560.42
406.889	587.77
407.267	591.38
407.645	597.48
408.023	582.8
408.401	587.77
408.779	606.98
409.156	608.33
409.534	587.09
409.912	604.26
410.29	650.59
410.667	640.87
411.045	659.18
411.422	647.2
411.8	664.15
412.178	670.93
412.555	669.35
412.933	669.35
413.31	672.28
413.687	677.71
414.065	698.05
414.442	682.23
414.819	688.56
415.197	714.32
415.574	719.06
415.951	754.99
416.328	739.18
416.705	721.55
417.082	730.59
417.46	756.58
417.837	758.84
418.214	756.35
418.591	762.45
418.967	758.16
419.344	758.84
419.721	783.69
420.098	763.81
420.475	764.03
420.852	780.3
421.228	806.74
421.605	808.78
421.982	829.79
422.358	809
422.735	811.94
423.111	816.01
423.488	825.05
423.864	823.02
424.241	838.61
424.617	851.71
424.994	856.46
425.37	867.08
425.746	874.09
426.123	899.4
426.499	869.34
426.875	906.85
427.251	899.85
427.627	946.4
428.003	905.05
428.379	911.6
428.756	926.97
429.132	947.31
429.507	945.72
429.883	958.83
430.259	1002.9
430.635	993.18
431.011	994.08
431.387	1020.98
431.763	1024.59
432.138	1048.55
432.514	1059.17
432.89	1058.72
433.265	1071.82
433.641	1087.19
434.016	1086.96
434.392	1107.53
434.767	1099.84
435.143	1119.5
435.518	1138.26
435.894	1150.24
436.269	1173.06
436.644	1153.63
437.02	1183.91
437.395	1204.47
437.77	1201.76
438.145	1214.42
438.52	1211.48
438.895	1230.01
439.271	1223.68
439.646	1299.61
440.021	1260.52
440.395	1266.85
440.77	1259.61
441.145	1247.41
441.52	1303
441.895	1298.26
442.27	1319.73
442.645	1321.31
443.019	1332.61
443.394	1319.5
443.769	1340.29
444.143	1354.07
444.518	1356.79
444.892	1355.66
445.267	1369.44
445.641	1402.43
446.016	1390.23
446.39	1407.86
446.764	1420.51
447.139	1435.88
447.513	1440.4
447.887	1455.99
448.262	1460.74
448.636	1445.82
449.01	1466.61
449.384	1443.34
449.758	1508.42
450.132	1486.05
450.506	1538.7
450.88	1507.29
451.254	1512.04
451.628	1538.48
452.002	1551.81
452.376	1544.35
452.75	1588.64
453.123	1601.98
453.497	1622.32
453.871	1621.41
454.244	1657.8
454.618	1645.82
454.992	1688.3
455.365	1693.73
455.739	1721.75
456.112	1722.43
456.486	1750.22
456.859	1737.57
457.232	1804.23
457.606	1788.87
457.979	1843.1
458.352	1857.34
458.725	1882.2
459.099	1878.35
459.472	1911.8
459.845	1932.59
460.218	1921.74
460.591	1956.09
460.964	1962.65
461.337	2001.06
461.71	2044.68
462.083	2070.44
462.456	2094.39
462.829	2077.45
463.201	2147.95
463.574	2152.25
463.947	2157.9
464.32	2196.09
464.692	2219.81
465.065	2231.11
465.438	2306.14
465.81	2305.46
466.183	2376.87
466.555	2384.56
466.928	2431.11
467.3	2373.93
467.672	2452.8
468.045	2532.8
468.417	2515.85
468.789	2529.86
469.161	2596.98
469.534	2608.28
469.906	2665
470.278	2703.64
470.65	2731.21
471.022	2782.29
471.394	2820.25
471.766	2857.99
472.138	2885.11
472.51	2950.87
472.882	2984.77
473.253	3036.52
473.625	3096.85
473.997	3175.95
474.369	3205.78
474.74	3237.41
475.112	3332.55
475.484	3363.51
475.855	3455.94
476.227	3466.34
476.598	3556.28
476.97	3657.74
477.341	3754.69
477.713	3800.56
478.084	3756.05
478.455	3913.78
478.827	3941.8
479.198	4067.22
479.569	4108.13
479.94	4204.62
480.311	4301.79
480.682	4375.24
481.053	4479.87
481.424	4546.98
481.795	4545.63
482.166	4685.74
482.537	4804.38
482.908	4868.33
483.279	4915.11
483.65	5024.71
484.021	5150.13
484.391	5171.15
484.762	5276.68
485.133	5343.12
485.503	5361.88
485.874	5514.42
486.244	5547.41
486.615	5652.94
486.985	5748.54
487.356	5838.02
487.726	5917.34
488.097	6014.74
488.467	6024.46
488.837	6177.68
489.207	6229.2
489.578	6369.99
489.948	6392.81
490.318	6541.28
490.688	6572.02
491.058	6663.99
491.428	6685.91
491.798	6771.33
492.168	6938.11
492.538	6965.23
492.908	7018.56
493.278	7134.04
493.648	7132.68
494.017	7227.59
494.387	7359.11
494.757	7398.44
495.126	7469.85
495.496	7500.58
495.866	7582.39
496.235	7712.1
496.605	7754.81
496.974	7762.27
497.344	7874.13
497.713	7891.76
498.082	7976.95
498.452	8066.67
498.821	8076.84
499.19	8188.02
499.559	8250.84
499.928	8284.29
500.298	8357.28
500.667	8409.03
501.036	8409.48
501.405	8504.62
501.774	8525.41
502.143	8574.68
502.512	8665.75
502.88	8728.12
503.249	8790.94
503.618	8838.85
503.987	8882.69
504.356	8955.91
504.724	8989.58
505.093	9081.55
505.462	9111.61
505.83	9182.8
506.199	9262.79
506.567	9410.59
506.936	9373.75
507.304	9566.51
507.672	9542.33
508.041	9619.85
508.409	9660.75
508.777	9807.86
509.145	9863.91
509.514	9872.04
509.882	9993.4
510.25	10034.98
510.618	10046.28
510.986	10179.61
511.354	10324.69
511.722	10316.78
512.09	10480.39
512.458	10522.87
512.826	10605.36
513.193	10666.15
513.561	10687.16
513.929	10750.89
514.297	10904.33
514.664	10985.01
515.032	11076.76
515.4	11165.12
515.767	11194.72
516.135	11240.82
516.502	11269.29
516.869	11460.93
517.237	11511.32
517.604	11541.83
517.972	11665.67
518.339	11732.11
518.706	11836.06
519.073	11842.61
519.44	11932.1
519.808	12095.94
520.175	12150.17
520.542	12313.79
520.909	12416.83
521.276	12479.43
521.643	12594.46
522.009	12727.11
522.376	12792.64
522.743	12919.19
523.11	12996.93
523.477	13083.26
523.843	13196.7
524.21	13417.26
524.577	13481.67
524.943	13529.35
525.31	13626.75
525.676	13758.04
526.043	13835.78
526.409	13963.46
526.776	14029.67
527.142	14125.72
527.508	14240.97
527.874	14339.27
528.241	14482.77
528.607	14479.15
528.973	14742.42
529.339	14715.08
529.705	14820.16
530.071	14914.4
530.437	15011.34
530.803	15234.84
531.169	15245.46
531.535	15259.92
531.901	15228.74
532.267	15408.62
532.632	15461.73
532.998	15488.17
533.364	15711.21
533.73	15756.86
534.095	15872.34
534.461	15878.66
534.826	16034.59
535.192	16078.21
535.557	16136.74
535.923	16103.29
536.288	16260.58
536.653	16313.46
537.019	16367.69
537.384	16502.38
537.749	16576.73
538.114	16478.65
538.479	16747.12
538.845	16692.88
539.21	16623.28
539.575	16873.89
539.94	16867.34
540.305	17001.8
540.67	16940.56
541.034	17015.36
541.399	17058.97
541.764	17183.94
542.129	17201.12
542.494	17316.14
542.858	17325.63
543.223	17407.44
543.587	17538.28
543.952	17547.32
544.316	17645.17
544.681	17583.93
545.045	17765.62
545.41	17827.54
545.774	17783.93
546.138	17860.76
546.503	18037.48
546.867	17930.14
547.231	18251.94
547.595	18207.42
547.959	18311.14
548.324	18249.45
548.688	18415.32
549.052	18460.07
549.416	18522.89
549.779	18583
550.143	18745.03
550.507	18859.83
550.871	18977.11
551.235	18952.26
551.599	19196.32
551.962	19192.7
552.326	19272.47
552.689	19441.06
553.053	19455.52
553.417	19411.45
553.78	19728.73
554.143	19708.85
554.507	19776.64
554.87	19942.96
555.234	20133.69
555.597	20086.01
555.96	20279.9
556.323	20366.46
556.686	20459.33
557.05	20657.97
557.413	20761.7
557.776	20796.05
558.139	20985.65
558.502	21160.11
558.865	21183.84
559.228	21485.07
559.59	21502.25
559.953	21536.37
560.316	21866.08
560.679	21935.68
561.041	22111.49
561.404	22202.34
561.767	22379.51
562.129	22412.96
562.492	22760.29
562.854	22811.82
563.217	22857.01
563.579	23085.48
563.941	23268.53
564.304	23416.55
564.666	23560.72
565.028	23786.48
565.39	23866.03
565.753	24047.49
566.115	24204.77
566.477	24374.94
566.839	24546.01
567.201	24745.32
567.563	24871.42
567.925	25014.7
568.287	25174.24
568.648	25304.41
569.01	25540.11
569.372	25717.5
569.734	25816.03
570.095	26037.95
570.457	26236.13
570.819	26315.68
571.18	26433.19
571.542	26798.38
571.903	26858.94
572.265	27020.52
572.626	27188.88
572.987	27309.32
573.349	27356.55
573.71	27758.58
574.071	27697.34
574.432	28006.26
574.794	28196.53
575.155	28150.88
575.516	28317.89
575.877	28502.06
576.238	28761.49
576.599	28991.54
576.96	29050.52
577.32	29110.86
577.681	29328.25
578.042	29427.01
578.403	29569.38
578.763	29688.24
579.124	29843.72
579.485	29961.46
579.845	30084.39
580.206	30198.51
580.566	30248
580.927	30345.85
581.287	30555.11
581.648	30384.27
582.008	30734.09
582.368	30659.07
582.728	30876.24
583.089	30765.28
583.449	30849.8
583.809	31108.55
584.169	31151.94
584.529	31050.92
584.889	31427.86
585.249	31165.49
585.609	31248.66
585.969	31589.89
586.329	31537.69
586.688	31548.99
587.048	31551.92
587.408	31511.02
587.768	31642.09
588.127	31594.86
588.487	31654.97
588.846	31897
589.206	31746.27
589.565	31800.73
589.925	32021.06
590.284	31948.3
590.643	32099.03
591.003	32087.05
591.362	32127.73
591.721	32131.34
592.08	32222.42
592.44	32309.42
592.799	32391.45
593.158	32359.59
593.517	32295.18
593.876	32395.52
594.235	32248.18
594.593	32306.48
594.952	32507.83
595.311	32401.62
595.67	32468.06
596.029	32695.85
596.387	32738.11
596.746	32732.01
597.104	32576.98
597.463	32568.17
597.822	32738.56
598.18	32573.82
598.538	32510.09
598.897	32771.33
599.255	32530.43
599.613	33026.91
599.972	32875.51
600.33	32975.16
600.688	32841.16
601.046	32993.47
601.404	32974.03
601.762	33105.78
602.12	33121.37
602.478	33119.79
602.836	33222.16
603.194	32985.33
603.552	33072.11
603.91	33019
604.268	33273.24
604.625	33061.49
604.983	33162.28
605.341	33105.33
605.698	33179.23
606.056	33354.82
606.413	33338.77
606.771	33398.43
607.128	33322.27
607.485	33289.96
607.843	33364.08
608.2	33605.2
608.557	33747.57
608.914	33461.48
609.272	33717.52
609.629	33647.46
609.986	33842.94
610.343	33578.31
610.7	33774.92
611.057	33839.77
611.414	33704.86
611.771	33870.28
612.127	33948.7
612.484	33949.38
612.841	34075.7
613.198	33988.24
613.554	33936.72
613.911	34215.36
614.267	34141.46
614.624	34046.77
614.98	34222.14
615.337	34308.91
615.693	34307.11
616.05	34261.01
616.406	34493.99
616.762	34420.32
617.118	34356.6
617.475	34440.66
617.831	34653.31
618.187	34512.3
618.543	34618.96
618.899	34787.55
619.255	34760.88
619.611	34602.69
619.967	34787.09
620.323	34806.08
620.678	34656.7
621.034	34668.9
621.39	34617.15
621.746	34676.36
622.101	35083.13
622.457	34771.5
622.812	34820.99
623.168	34917.49
623.523	34758.62
623.879	34999.07
624.234	34874.55
624.589	34860.09
624.945	34963.59
625.3	35003.13
625.655	34936.02
626.01	34896.7
626.365	34877.71
626.72	34888.79
627.075	34990.93
627.43	34858.05
627.785	34649.7
628.14	34858.05
628.495	34831.16
628.85	34735.34
629.205	34750.03
629.559	34728.56
629.914	34616.93
630.269	34827.54
630.623	34672.29
630.978	34656.25
631.332	34769.24
631.687	34675.46
632.041	34551.17
632.396	34763.82
632.75	34537.83
633.104	34521.11
633.459	34432.75
633.813	34407.89
634.167	34360.21
634.521	34340.33
634.875	34356.6
635.229	34277.5
635.583	34214.91
635.937	34317.95
636.291	34183.49
636.645	34170.39
636.999	34130.39
637.352	34210.39
637.706	34071.18
638.06	34237.28
638.413	34083.61
638.767	34112.76
639.121	33990.73
639.474	33765.65
639.828	33862.6
640.181	33859.66
640.534	33868.02
640.888	33767.69
641.241	33618.08
641.594	33707.12
641.947	33680.23
642.301	33703.51
642.654	33806.1
643.007	33687.46
643.36	33587.8
643.713	33601.81
644.066	33593.45
644.419	33444.53
644.771	33288.83
645.124	33020.59
645.477	32963.19
645.83	32643.65
646.182	32635.51
646.535	32539.92
646.888	32634.61
647.24	32429.42
647.593	32718.67
647.945	32581.95
648.298	32419.02
648.65	32398
649.002	32377.89
649.355	32415.18
649.707	32389.64
650.059	32572.01
650.411	32839.57
650.763	32817.43
651.115	33156.85
651.467	33070.98
651.819	33101.26
652.171	33027.14
652.523	32968.16
652.875	33069.85
653.227	32871.21
653.578	33088.38
653.93	33053.81
654.282	32941.94
654.633	32887.03
654.985	33028.04
655.337	32953.7
655.688	33043.64
656.039	33087.25
656.391	32757.54
656.742	32859.69
657.094	32929.74
657.445	33045.9
657.796	32872.79
658.147	32892
658.498	32794.15
658.849	32851.33
659.2	32883.87
659.551	32662.86
659.902	32903.75
660.253	32775.62
660.604	32853.36
660.955	32671.44
661.306	32920.93
661.656	32799.12
662.007	32808.61
662.358	32764.32
662.708	32858.56
663.059	32850.42
663.409	32676.19
663.76	32918.67
664.11	32846.81
664.461	32793.47
664.811	32845.68
665.161	32871.21
665.511	32606.81
665.862	32785.11
666.212	32772.23
666.562	32887.26
666.912	32791.67
667.262	32775.62
667.612	32748.28
667.962	32627.38
668.312	32576.3
668.662	32883.87
669.011	32732.23
669.361	32627.15
669.711	32684.32
670.06	32470.54
670.41	32551.9
670.76	32560.03
671.109	32571.56
671.459	32588.28
671.808	32635.74
672.157	32557.32
672.507	32332.24
672.856	32445.91
673.205	32390.32
673.554	32557.55
673.904	32294.05
674.253	32424.44
674.602	32324.56
674.951	31917.34
675.3	31710.34
675.649	32316.42
675.998	32353.71
676.346	32115.53
676.695	32283.2
677.044	32100.38
677.393	32145.58
677.741	32115.98
678.09	32049.76
678.438	32005.7
678.787	32115.3
679.135	31983.78
679.484	31707.17
679.832	31783.1
680.181	31728.87
680.529	31776.1
680.877	31790.34
681.225	31628.53
681.573	31867.85
681.922	31669.66
682.27	31567.97
682.618	31593.28
682.966	31473.73
683.314	31582.21
683.661	31404.36
684.009	31242.1
684.357	31334.76
684.705	31145.83
685.053	31188.32
685.4	30956.69
685.748	31012.73
686.095	30800.98
686.443	30780.65
686.79	30690.93
687.138	30744.04
687.485	30833.3
687.832	30658.39
688.18	30731.38
688.527	30462.24
688.874	30450.48
689.221	30328
689.568	30244.39
689.915	30234.9
690.262	30193.54
690.609	30133.43
690.956	30199.87
691.303	29928.01
691.65	29716.27
691.997	29718.98
692.344	29580.45
692.69	29664.06
693.037	29632.2
693.383	29323.96
693.73	29366.67
694.077	29163.96
694.423	29332.77
694.769	29117.19
695.116	28923.07
695.462	28930.07
695.808	28847.81
696.155	28897.53
696.501	28488.5
696.847	28691.21
697.193	28397.66
697.539	28507.94
697.885	28243.31
698.231	28088.74
698.577	28118.12
698.923	28100.94
699.269	27906.37
699.614	27778.46
699.96	27778.01
700.306	27767.39
700.651	27548.87
700.997	27581.18
701.342	27453.95
701.688	27475.2
702.033	27339.38
702.379	27308.42
702.724	27170.12
703.069	27306.16
703.415	26907.07
703.76	26993.63
704.105	26815.78
704.45	26792.05
704.795	26515.67
705.14	26601.55
705.485	26462.79
705.83	26376.69
706.175	26472.51
706.52	26390.93
706.865	26166.53
707.209	26207.66
707.554	26055.8
707.899	26160.2
708.243	26032.07
708.588	25868.23
708.932	25686.99
709.277	25729.25
709.621	25623.94
709.966	25498.3
710.31	25614
710.654	25324.07
710.998	25405.65
711.342	25322.71
711.687	25300.79
712.031	25213.33
712.375	25115.71
712.719	25248.81
713.063	25178.53
713.407	25164.07
713.75	25126.56
714.094	25152.09
714.438	24920.23
714.782	24997.07
715.125	24822.38
715.469	24816.28
715.812	24740.58
716.156	24567.25
716.499	24641.82
716.843	24583.52
717.186	24566.12
717.53	24566.12
717.873	24583.52
718.216	24389.85
718.559	24383.3
718.902	24278.22
719.246	24203.19
719.589	24333.81
719.932	24196.19
720.275	24137.88
720.617	24210.65
720.96	24226.92
721.303	24144.44
721.646	24234.83
721.989	23975.85
722.331	24007.94
722.674	24007.94
723.016	24037.55
723.359	24092.46
723.701	23953.71
724.044	23935.4
724.386	23815.4
724.729	23974.04
725.071	23890.43
725.413	23807.95
725.755	23875.29
726.097	23723.66
726.439	23794.61
726.782	23700.38
727.124	23817.66
727.465	23677.56
727.807	23628.74
728.149	23651.79
728.491	23646.14
728.833	23721.85
729.175	23635.52
729.516	23545.58
729.858	23544.9
730.199	23622.19
730.541	23560.95
730.882	23529.08
731.224	23567.95
731.565	23473.04
731.906	23430.56
732.248	23518.24
732.589	23310.56
732.93	23382.87
733.271	23360.73
733.612	23369.99
733.953	23386.94
734.294	23423.32
734.635	23339.26
734.976	23372.7
735.317	23378.81
735.658	23374.96
735.999	23331.8
736.339	23360.5
736.68	23414.29
737.021	23313.27
737.361	23280.73
737.702	23504.45
738.042	23311.24
738.383	23417
738.723	23543.1
739.063	23322.31
739.404	23404.34
739.744	23301.75
740.084	23291.12
740.424	23294.74
740.764	23279.83
741.104	23491.35
741.444	23297.68
741.784	23247.28
742.124	23326.6
742.464	23362.08
742.804	23351.24
743.143	23246.61
743.483	23252.71
743.823	23154.63
744.162	23173.39
744.502	23271.92
744.841	23137
745.181	23224.69
745.52	23072.83
745.86	23286.15
746.199	23182.65
746.538	23176.78
746.877	23265.14
747.216	23229.43
747.556	23209.55
747.895	23217.91
748.234	23198.47
748.573	23195.08
748.911	23216.1
749.25	23178.81
749.589	23073.28
749.928	23113.05
750.267	23231.24
750.605	23104.69
750.944	23059.04
751.283	22974.52
751.621	23193.73
751.96	22953.96
752.298	23097.46
752.636	23116.67
752.975	22991.47
753.313	22946.95
753.651	23054.52
753.989	22928.42
754.327	22864.47
754.666	22831.93
755.004	22809.78
755.342	22811.59
755.679	22757.35
756.017	22758.94
756.355	22840.74
756.693	22724.36
757.031	22690.01
757.368	22612.05
757.706	22686.62
758.044	22541.31
758.381	22555.33
758.719	22586.74
759.056	22498.15
759.394	22384.48
759.731	22354.43
760.068	22285.95
760.405	22236.01
760.743	22157.82
761.08	22233.53
761.417	22044.15
761.754	22070.82
762.091	21909.01
762.428	21969.58
762.765	21856.81
763.102	21859.07
763.438	21739.53
763.775	21702.47
764.112	21693.65
764.449	21603.03
764.785	21545.86
765.122	21412.76
765.458	21410.72
765.795	21396.03
766.131	21399.88
766.467	21256.38
766.804	21120.56
767.14	21179.77
767.476	21089.6
767.812	20980.68
768.148	20956.5
768.485	20943.84
768.821	20719.89
769.157	20769.61
769.492	20739.1
769.828	20548.82
770.164	20487.58
770.5	20464.53
770.836	20483.29
771.171	20256.18
771.507	20329.17
771.842	20233.35
772.178	20146.35
772.513	20163.07
772.849	20071.32
773.184	19961.95
773.519	19984.09
773.855	19840.37
774.19	19796.98
774.525	19760.6
774.86	19738.45
775.195	19689.41
775.53	19596.08
775.865	19507.27
776.2	19321.74
776.535	19290.78
776.87	19226.37
777.205	19164.23
777.539	19140.95
777.874	19104.57
778.209	18907.74
778.543	18824.12
778.878	18719.95
779.212	18774.86
779.547	18745.48
779.881	18729.89
780.215	18637.24
780.55	18625.71
780.884	18491.48
781.218	18398.82
781.552	18435.89
781.886	18211.94
782.22	18151.82
782.554	18154.76
782.888	17938.27
783.222	18005.84
783.556	17924.03
783.889	17770.82
784.223	17729.24
784.557	17700.31
784.89	17691.27
785.224	17580.54
785.557	17566.98
785.891	17470.49
786.224	17329.47
786.558	17310.94
786.891	17268.01
787.224	17189.36
787.557	17232.98
787.891	17129.25
788.224	17069.82
788.557	16991.18
788.89	16966.55
789.223	17091.51
789.556	16865.98
789.888	16692.65
790.221	16759.32
790.554	16680.9
790.887	16552.32
791.219	16578.08
791.552	16471.19
791.884	16485.2
792.217	16369.05
792.549	16322.49
792.882	16216.28
793.214	16175.38
793.546	16303.74
793.879	16088.6
794.211	15995.27
794.543	16082.05
794.875	16030.3
795.207	16018.77
795.539	15945.78
795.871	15860.59
796.203	15680.7
796.535	15638.67
796.867	15598.9
797.198	15630.99
797.53	15625.11
797.862	15446.81
798.193	15507.83
798.525	15393.25
798.856	15449.3
799.188	15221.28
799.519	15265.12
799.85	15106.71
800.182	15139.25
800.513	15157.1
800.844	14953.72
801.175	15101.96
801.506	15034.62
801.837	14957.78
802.168	14891.57
802.499	14896.54
802.83	14785.13
803.161	14797.79
803.491	14694.51
803.822	14706.49
804.153	14626.72
804.483	14541.3
804.814	14549.89
805.145	14475.99
805.475	14491.81
805.805	14408.87
806.136	14380.17
806.466	14345.6
806.796	14361.19
807.126	14211.82
807.457	14195.32
807.787	14164.36
808.117	14184.47
808.447	14110.35
808.777	14181.53
809.107	13993.97
809.436	14024.48
809.766	13957.13
810.096	13974.08
810.426	13911.48
810.755	13748.1
811.085	13833.97
811.414	13807.98
811.744	13590.81
812.073	13636.24
812.403	13775.44
812.732	13586.97
813.061	13638.72
813.39	13526.18
813.719	13486.64
814.049	13587.43
814.378	13417.49
814.707	13420.2
815.036	13312.18
815.365	13376.81
815.693	13232.86
816.022	13193.09
816.351	13196.48
816.68	13106.76
817.008	13123.71
817.337	13132.97
817.665	13118.06
817.994	13099.3
818.322	13064.73
818.651	13048
818.979	12923.26
819.307	12995.35
819.636	13010.04
819.964	12879.2
820.292	12940.66
820.62	12904.05
820.948	12843.26
821.276	12991.73
821.604	12799.65
821.932	12830.61
822.259	12891.17
822.587	12738.41
822.915	12758.52
823.243	12808.24
823.57	12795.36
823.898	12797.62
824.225	12770.27
824.553	12739.09
824.88	12778.18
825.207	12770.95
825.535	12726.66
825.862	12796.26
826.189	12740.44
826.516	12856.6
826.843	12793.55
827.17	12841.68
827.497	12775.47
827.824	12749.48
828.151	12798.29
828.478	12754.23
828.805	12807.11
829.131	12815.69
829.458	12735.92
829.785	12646.88
830.111	12716.94
830.438	12769.37
830.764	12725.75
831.09	12758.07
831.417	12650.73
831.743	12741.35
832.069	12700.89
832.395	12639.2
832.722	12669.03
833.048	12650.73
833.374	12741.35
833.7	12618.41
834.026	12566.66
834.351	12643.95
834.677	12616.15
835.003	12608.02
835.329	12578.41
835.654	12556.27
835.98	12549.26
836.306	12565.98
836.631	12488.25
836.956	12538.87
837.282	12473.78
837.607	12411.18
837.932	12457.96
838.258	12474.46
838.583	12448.92
838.908	12387.46
839.233	12347.23
839.558	12347.68
839.883	12309.94
840.208	12275.6
840.533	12222.26
840.858	12292.77
841.182	12252.09
841.507	12285.76
841.832	12173.9
842.156	12177.74
842.481	12143.17
842.805	12066.11
843.13	12117.41
843.454	12068.37
843.778	12001.93
844.103	12017.97
844.427	11929.84
844.751	11895.27
845.075	11900.01
845.399	11891.65
845.723	11864.08
846.047	11783.86
846.371	11735.72
846.695	11648.27
847.019	11601.04
847.343	11526.91
847.666	11522.39
847.99	11473.36
848.313	11441.72
848.637	11316.3
848.96	11353.13
849.284	11358.78
849.607	11267.03
849.931	11223.19
850.254	11216.87
850.577	11075.4
850.9	11064.78
851.223	10962.18
851.546	10954.73
851.869	10950.88
852.192	10977.55
852.515	10841.73
852.838	10865.01
853.161	10841.96
853.483	10800.38
853.806	10732.36
854.129	10726.94
854.451	10640.38
854.774	10610.78
855.096	10564.23
855.419	10557.9
855.741	10561.29
856.063	10457.79
856.385	10454.4
856.708	10438.36
857.03	10380.73
857.352	10402.2
857.674	10333.95
857.996	10303.44
858.318	10217.57
858.64	10263.9
858.961	10206.5
859.283	10145.03
859.605	10197.01
859.926	10113.39
860.248	10126.05
860.57	10067.52
860.891	10042.66
861.212	10004.69
861.534	9974.64
861.855	9968.31
862.176	9933.96
862.498	9909.78
862.819	9959.05
863.14	9929.67
863.461	9817.35
863.782	9849.44
864.103	9905.71
864.424	9782.78
864.745	9802.89
865.065	9834.53
865.386	9790.01
865.707	9753.18
866.027	9814.42
866.348	9779.16
866.668	9729.67
866.989	9712.5
867.309	9687.19
867.63	9707.3
867.95	9658.49
868.27	9590.24
868.59	9683.8
868.91	9609.68
869.23	9555.89
869.55	9582.56
869.87	9553.18
870.19	9473.64
870.51	9493.07
870.83	9505.72
871.15	9450.36
871.469	9463.24
871.789	9460.3
872.109	9510.24
872.428	9450.81
872.748	9447.2
873.067	9375.11
873.386	9358.16
873.706	9359.06
874.025	9305.96
874.344	9284.71
874.663	9339.85
874.982	9217.82
875.301	9237.26
875.62	9285.84
875.939	9226.64
876.258	9174.21
876.577	9138.05
876.896	9198.16
877.214	9117.71
877.533	9161.55
877.852	9219.4
878.17	9200.2
878.489	9084.27
878.807	9066.41
879.125	9132.4
879.444	9094.89
879.762	9078.84
880.08	9079.3
880.398	8999.75
880.716	8967.21
881.034	8943.71
881.352	8997.72
881.67	8936.7
881.988	9002.46
882.306	8934.67
882.624	8891.96
882.941	8863.48
883.259	8910.03
883.577	8902.58
883.894	8837.95
884.212	8853.31
884.529	8843.37
884.846	8733.54
885.164	8733.32
885.481	8690.6
885.798	8741.45
886.115	8720.43
886.432	8740.1
886.75	8678.63
887.067	8677.72
887.383	8675.92
887.7	8650.83
888.017	8592.98
888.334	8599.08
888.651	8602.25
888.967	8512.08
889.284	8468.46
889.6	8419.43
889.917	8399.31
890.233	8388.01
890.55	8428.24
890.866	8405.64
891.182	8259.2
891.498	8337.62
891.815	8340.33
892.131	8265.53
892.447	8260.79
892.763	8188.25
893.079	8170.17
893.395	8190.96
893.71	8174.46
894.026	8167.45
894.342	8093.11
894.657	8118.64
894.973	8103.73
895.289	8092.2
895.604	7990.74
895.92	7991.41
896.235	8011.75
896.55	7942.38
896.865	7969.95
897.181	7900.12
897.496	7907.12
897.811	7826.9
898.126	7851.3
898.441	7784.19
898.756	7757.52
899.071	7690.86
899.386	7697.64
899.7	7665.32
900.015	7613.57
900.33	7588.49
900.644	7602.95
900.959	7579.22
901.273	7524.76
901.588	7470.98
901.902	7434.59
902.216	7486.12
902.531	7424.2
902.845	7419
903.159	7364.99
903.473	7374.93
903.787	7287.48
904.101	7189.63
904.415	7261.49
904.729	7202.96
905.042	7173.81
905.356	7100.59
905.67	7164.09
905.984	7174.71
906.297	7130.19
906.611	7040.03
906.924	7043.64
907.237	7083.19
907.551	7013.81
907.864	6943.76
908.177	6989.86
908.491	6936.98
908.804	6898.56
909.117	6870.31
909.43	6880.71
909.743	6833.25
910.056	6771.11
910.368	6749.41
910.681	6706.48
910.994	6678.45
911.307	6700.6
911.619	6673.03
911.932	6603.43
912.244	6602.98
912.557	6621.96
912.869	6517.55
913.181	6502.41
913.494	6503.32
913.806	6465.58
914.118	6466.03
914.43	6387.84
914.742	6410.44
915.054	6330.21
915.366	6316.88
915.678	6335.41
915.99	6276.88
916.302	6283.66
916.613	6182.42
916.925	6212.7
917.236	6190.56
917.548	6140.39
917.859	6177.68
918.171	6094.06
918.482	6092.26
918.794	6091.8
919.105	6086.83
919.416	5993.73
919.727	6003.67
920.038	6006.16
920.349	5974.07
920.66	5897.46
920.971	5899.49
921.282	5892.71
921.593	5868.98
921.903	5777.91
922.214	5790.79
922.525	5751.02
922.835	5739.72
923.146	5703.79
923.456	5723.68
923.767	5626.73
924.077	5718.93
924.387	5673.73
924.697	5618.82
925.008	5601.65
925.318	5557.35
925.628	5560.29
925.938	5596.9
926.248	5475.32
926.558	5448.66
926.867	5476.45
927.177	5435.32
927.487	5391.71
927.796	5361.43
928.106	5353.74
928.416	5380.86
928.725	5366.4
929.034	5318.26
929.344	5325.27
929.653	5302.9
929.962	5255.89
930.271	5211.15
930.581	5160.75
930.89	5123.02
931.199	5094.54
931.508	5118.95
931.817	5135.22
932.125	5052.06
932.434	5052.96
932.743	5035.33
933.051	4987.43
933.36	5007.54
933.669	4964.38
933.977	4942.23
934.286	4909.01
934.594	4871.27
934.902	4870.82
935.21	4838.05
935.519	4828.11
935.827	4826.98
936.135	4829.46
936.443	4786.75
936.751	4750.82
937.059	4751.5
937.367	4699.98
937.674	4742.23
937.982	4713.31
938.29	4690.94
938.597	4661.78
938.905	4626.98
939.213	4595.8
939.52	4593.09
939.827	4608.9
940.135	4569.81
940.442	4546.08
940.749	4561.9
941.056	4527.1
941.363	4482.35
941.67	4475.57
941.977	4371.17
942.284	4388.12
942.591	4414.56
942.898	4340.44
943.205	4353.77
943.511	4329.36
943.818	4282.81
944.125	4305.64
944.431	4307.9
944.738	4234.45
945.044	4244.62
945.35	4218.86
945.657	4162.36
945.963	4184.28
946.269	4208.01
946.575	4151.52
946.881	4157.16
947.187	4140.67
947.493	4125.75
947.799	4047.34
948.105	4108.13
948.41	4025.87
948.716	4061.57
949.022	4037.85
949.327	4029.48
949.633	3969.82
949.938	3956.27
950.244	3953.33
950.549	3926.21
950.854	3921.24
951.16	3937.96
951.465	3875.36
951.77	3864.97
952.075	3816.61
952.38	3824.97
952.685	3840.34
952.99	3782.26
953.294	3772.32
953.599	3809.38
953.904	3730.74
954.209	3677.86
954.513	3737.97
954.818	3717.63
955.122	3686.44
955.426	3684.86
955.731	3635.6
956.035	3646.67
956.339	3643.51
956.643	3601.7
956.948	3600.34
957.252	3594.47
957.556	3600.8
957.86	3519.67
958.163	3528.03
958.467	3529.38
958.771	3487.35
959.075	3482.38
959.378	3497.3
959.682	3481.7
959.985	3487.8
960.289	3394.7
960.592	3429.27
960.896	3396.28
961.199	3407.58
961.502	3384.98
961.805	3399.9
962.108	3347.24
962.411	3330.97
962.714	3301.37
963.017	3315.15
963.32	3291.88
963.623	3277.19
963.926	3302.05
964.228	3281.93
964.531	3199.9
964.833	3211.88
965.136	3217.3
965.438	3208.94
965.741	3187.47
966.043	3185.21
966.345	3147.47
966.648	3143.18
966.95	3144.54
967.252	3123.75
967.554	3142.05
967.856	3098.21
968.158	3045.56
968.46	3042.84
968.761	3054.37
969.063	3057.98
969.365	3018.89
969.666	3023.86
969.968	2979.34
970.269	3024.09
970.571	2994.03
970.872	2986.8
971.174	2955.16
971.475	2919.23
971.776	2911.32
972.077	2902.28
972.378	2867.93
972.679	2890.08
972.98	2841.27
973.281	2859.35
973.582	2862.51
973.883	2810.76
974.183	2822.96
974.484	2844.2
974.785	2787.03
975.085	2787.71
975.386	2766.24
975.686	2755.17
975.986	2749.97
976.287	2741.16
976.587	2697.99
976.887	2692.34
977.187	2700.71
977.487	2689.18
977.787	2681.05
978.087	2644.44
978.387	2651.44
978.687	2641.5
978.987	2634.94
979.286	2622.97
979.586	2607.15
979.885	2594.95
980.185	2605.34
980.484	2566.7
980.784	2562.63
981.083	2606.92
981.382	2551.33
981.682	2528.96
981.981	2530.99
982.28	2547.72
982.579	2496.64
982.878	2506.13
983.177	2471.79
983.475	2469.98
983.774	2440.15
984.073	2461.39
984.372	2459.81
984.67	2415.29
984.969	2447.83
985.267	2406.7
985.566	2421.39
985.864	2405.57
986.162	2406.48
986.461	2372.8
986.759	2339.59
987.057	2329.42
987.355	2324.9
987.653	2322.18
987.951	2302.98
988.249	2297.78
988.547	2302.52
988.844	2270.89
989.142	2241.73
989.44	2259.14
989.737	2227.5
990.035	2276.76
990.332	2201.74
990.63	2262.3
990.927	2196.99
991.224	2224.33
991.521	2203.54
991.819	2192.02
992.116	2203.32
992.413	2157.22
992.71	2145.92
993.006	2164.45
993.303	2146.14
993.6	2139.59
993.897	2106.37
994.193	2117.9
994.49	2101.17
994.787	2069.76
995.083	2055.98
995.379	2076.99
995.676	2034.06
995.972	2046.71
996.268	2039.03
996.565	2014.4
996.861	2015.98
997.157	2033.15
997.453	2011.23
997.749	1996.54
998.044	2009.2
998.34	1973.95
998.636	1956.54
998.932	1980.5
999.227	1956.32
999.523	1905.25
999.818	1956.09
1000.114	1895.3
1000.409	1900.5
1000.704	1884.68
1001	1876.77
1001.295	1895.76
1001.59	1851.01
1001.885	1888.75
1002.18	1828.41
1002.475	1810.11
1002.77	1828.86
1003.065	1816.44
1003.359	1824.8
1003.654	1796.32
1003.949	1799.94
1004.243	1785.93
1004.538	1747.51
1004.832	1762.65
1005.127	1736.44
1005.421	1750.45
1005.715	1722.65
1006.009	1739.15
1006.304	1716.32
1006.598	1691.01
1006.892	1675.87
1007.186	1665.25
1007.48	1647.63
1007.773	1674.07
1008.067	1665.93
1008.361	1622.99
1008.655	1651.24
1008.948	1633.39
1009.242	1613.95
1009.535	1598.59
1009.829	1627.97
1010.122	1614.18
1010.415	1576.89
1010.708	1564.46
1011.001	1562.66
1011.295	1543.45
1011.588	1569.66
1011.881	1542.09
1012.173	1534.86
1012.466	1530.12
1012.759	1514.07
1013.052	1514.75
1013.344	1479.49
1013.637	1470.46
1013.93	1446.05
1014.222	1481.75
1014.514	1473.39
1014.807	1456.22
1015.099	1434.98
1015.391	1442.89
1015.683	1443.79
1015.976	1418.71
1016.268	1421.64
1016.56	1413.28
1016.851	1375.54
1017.143	1350.01
1017.435	1377.35
1017.727	1358.82
1018.018	1366.28
1018.31	1391.59
1018.602	1352.04
1018.893	1346.84
1019.185	1350.23
1019.476	1318.37
1019.767	1325.83
1020.058	1303.91
1020.35	1304.13
1020.641	1272.49
1020.932	1282.21
1021.223	1273.17
1021.514	1275.43
1021.804	1282.21
1022.095	1228.88
1022.386	1224.59
1022.677	1227.75
1022.967	1243.34
1023.258	1223
1023.548	1168.77
1023.839	1216.23
1024.129	1190.69
1024.419	1212.84
1024.709	1182.33
1025	1181.2
1025.29	1180.75
1025.58	1176.9
1025.87	1135.78
1026.16	1147.53
1026.449	1151.59
1026.739	1144.81
1027.029	1127.87
1027.319	1117.02
1027.608	1125.38
1027.898	1115.44
1028.187	1078.15
1028.477	1103.46
1028.766	1077.47
1029.055	1072.5
1029.344	1067.75
1029.634	1055.78
1029.923	1035.89
1030.212	1049.22
1030.501	1062.56
1030.79	1044.93
1031.078	1031.15
1031.367	1009.9
1031.656	1028.89
1031.945	1004.48
1032.233	1028.66
1032.522	1011.48
1032.81	994.54
1033.099	980.98
1033.387	976.23
1033.675	1002.45
1033.963	964.71
1034.251	963.12
1034.54	952.5
1034.828	978.49
1035.116	971.03
1035.403	946.85
1035.691	940.3
1035.979	924.03
1036.267	908.21
1036.554	951.15
1036.842	914.09
1037.129	902.79
1037.417	883.35
1037.704	898.49
1037.992	874.99
1038.279	882.45
1038.566	874.99
1038.853	874.99
1039.14	874.99
