Data from tablewood_brown_FLMS001491_005.txt Node
Date: Tue Feb 07 11:09:56 GMT 2017
User: dcchb
Spectrometer: FLMS00149
Trigger mode: 0
Integration Time (sec): 2.000000E-2
Scans to average: 10
Electric dark correction enabled: true
Nonlinearity correction enabled: false
Boxcar width: 0
XAxis mode: Wavelengths
Number of Pixels in Spectrum: 2048
>>>>>Begin Spectral Data<<<<<
341.393	-22.33
341.776	-22.33
342.16	-22.33
342.543	-47.19
342.927	-59.39
343.31	-89.22
343.693	-57.13
344.077	-60.75
344.46	-63.91
344.843	-60.75
345.226	-45.83
345.61	-33.4
345.993	-24.82
346.376	17.44
346.759	7.27
347.142	32.58
347.525	28.97
347.908	65.35
348.291	63.54
348.674	98.8
349.057	121.85
349.44	143.32
349.823	154.39
350.206	158
350.588	188.51
350.971	228.96
351.354	247.95
351.737	241.84
352.119	244.78
352.502	258.79
352.884	272.35
353.267	282.29
353.65	303.54
354.032	294.72
354.414	331.33
354.797	322.97
355.179	332.91
355.562	322.07
355.944	345.34
356.326	367.94
356.709	357.55
357.091	357.1
357.473	355.97
357.855	343.08
358.238	346.93
358.62	359.13
359.002	341.95
359.384	336.98
359.766	340.6
360.148	347.38
360.53	347.83
360.912	339.24
361.294	348.96
361.676	368.62
362.057	340.6
362.439	355.74
362.821	346.25
363.203	341.5
363.584	321.84
363.966	339.47
364.348	332.24
364.729	335.85
365.111	332.69
365.493	321.16
365.874	315.97
366.256	341.05
366.637	339.92
367.019	338.34
367.4	315.51
367.781	333.82
368.163	342.41
368.544	330.2
368.925	335.63
369.306	352.8
369.688	338.56
370.069	317.55
370.45	329.3
370.831	347.38
371.212	341.73
371.593	332.01
371.974	344.67
372.355	349.19
372.736	349.86
373.117	340.6
373.498	336.53
373.879	337.21
374.26	325.23
374.641	347.15
375.021	316.87
375.402	351.22
375.783	365.23
376.163	356.19
376.544	363.2
376.925	371.11
377.305	364.1
377.686	360.94
378.066	362.07
378.447	359.13
378.827	358.68
379.208	344.44
379.588	374.27
379.968	342.86
380.349	372.69
380.729	390.09
381.109	350.77
381.489	369.52
381.87	369.07
382.25	367.26
382.63	390.77
383.01	380.15
383.39	391.22
383.77	388.28
384.15	372.24
384.53	399.81
384.91	370.65
385.29	398.45
385.67	409.07
386.049	394.83
386.429	411.11
386.809	402.52
387.189	400.71
387.568	414.72
387.948	400.03
388.328	414.72
388.707	438.45
389.087	425.12
389.466	426.7
389.846	425.12
390.225	438
390.605	440.26
390.984	438.67
391.363	448.39
391.743	403.87
392.122	423.53
392.501	442.52
392.881	449.07
393.26	468.5
393.639	441.39
394.018	460.6
394.397	462.4
394.776	445
395.155	464.21
395.534	476.64
395.913	453.59
396.292	457.43
396.671	490.2
397.05	494.94
397.429	479.13
397.808	467.37
398.186	517.09
398.565	487.71
398.944	477.09
399.323	518.67
399.701	506.47
400.08	511.67
400.458	493.14
400.837	539.92
401.215	542.18
401.594	517.09
401.972	535.62
402.351	536.53
402.729	531.55
403.107	525.45
403.486	564.77
403.864	545.11
404.242	535.4
404.62	562.51
404.999	560.25
405.377	547.82
405.755	568.84
406.133	592.57
406.511	590.54
406.889	595.05
407.267	597.09
407.645	603.87
408.023	605.22
408.401	593.47
408.779	609.29
409.156	616.3
409.534	637.77
409.912	608.61
410.29	638.22
410.667	644.09
411.045	648.39
411.422	655.84
411.8	654.04
412.178	665.11
412.555	674.15
412.933	647.93
413.31	692.45
413.687	705.11
414.065	715.73
414.442	703.75
414.819	700.59
415.197	711.21
415.574	730.64
415.951	716.86
416.328	743.07
416.705	750.08
417.082	713.47
417.46	733.13
417.837	771.32
418.214	763.86
418.591	762.51
418.967	746.01
419.344	756.41
419.721	793.47
420.098	777.2
420.475	780.36
420.852	800.93
421.228	820.36
421.605	812.22
421.982	799.57
422.358	823.3
422.735	826.01
423.111	793.92
423.488	851.32
423.864	843.86
424.241	837.31
424.617	849.74
424.994	880.25
425.37	871.88
425.746	876.63
426.123	863.97
426.499	896.29
426.875	913.69
427.251	906.01
427.627	916.18
428.003	912.11
428.379	920.02
428.756	928.61
429.132	947.81
429.507	939.68
429.883	967.7
430.259	968.38
430.635	987.14
431.011	1025.55
431.387	1016.96
431.763	1064.2
432.138	1026.91
432.514	1056.96
432.89	1059.45
433.265	1097.87
433.641	1078.43
434.016	1089.73
434.392	1125.21
434.767	1126.11
435.143	1109.84
435.518	1157.3
435.894	1136.51
436.269	1151.2
436.644	1194.36
437.02	1172.89
437.395	1181.25
437.77	1200.46
438.145	1201.82
438.52	1222.16
438.895	1218.77
439.271	1239.11
439.646	1275.49
440.021	1246.11
440.395	1238.2
440.77	1265.09
441.145	1295.83
441.52	1306.45
441.895	1311.19
442.27	1306
442.645	1327.47
443.019	1317.97
443.394	1327.47
443.769	1336.28
444.143	1322.72
444.518	1381.7
444.892	1387.8
445.267	1411.08
445.641	1402.04
446.016	1407.01
446.39	1433.45
446.764	1424.64
447.139	1447.24
447.513	1438.65
447.887	1433.9
448.262	1448.14
448.636	1444.3
449.01	1478.2
449.384	1505.31
449.758	1489.49
450.132	1517.06
450.506	1543.96
450.88	1515.03
451.254	1535.6
451.628	1553
452.002	1540.79
452.376	1554.8
452.75	1558.65
453.123	1609.72
453.497	1608.59
453.871	1611.07
454.244	1647.91
454.618	1661.02
454.992	1677.06
455.365	1682.48
455.739	1737.4
456.112	1741.47
456.486	1762.93
456.859	1753.67
457.232	1791.86
457.606	1813.78
457.979	1834.8
458.352	1863.27
458.725	1866.66
459.099	1891.52
459.472	1911.63
459.845	1926.55
460.218	1929.71
460.591	1971.52
460.964	1989.59
461.337	2020.78
461.71	2061.23
462.083	2073.89
462.456	2111.63
462.829	2097.39
463.201	2125.86
463.574	2163.6
463.947	2168.35
464.32	2235.01
464.692	2233.43
465.065	2249.7
465.438	2303.26
465.81	2317.27
466.183	2340.32
466.555	2384.39
466.928	2447.21
467.3	2420.77
467.672	2460.77
468.045	2494.44
468.417	2504.84
468.789	2549.58
469.161	2579.41
469.534	2620.99
469.906	2679.29
470.278	2713.64
470.65	2719.29
471.022	2821.89
471.394	2848.1
471.766	2840.87
472.138	2901.44
472.51	2974.43
472.882	3026.4
473.253	3074.99
473.625	3123.35
473.997	3157.47
474.369	3172.39
474.74	3239.73
475.112	3307.98
475.484	3385.04
475.855	3467.3
476.227	3499.16
476.598	3606.05
476.97	3648.76
477.341	3707.29
477.713	3745.25
478.084	3809.89
478.455	3895.31
478.827	3943.44
479.198	4046.94
479.569	4089.43
479.94	4209.42
480.311	4264.56
480.682	4360.15
481.053	4460.49
481.424	4534.84
481.795	4629.98
482.166	4685.34
482.537	4759.69
482.908	4845.11
483.279	4900.93
483.65	4986.13
484.021	5132.11
484.391	5214.59
484.762	5215.05
485.133	5246.46
485.503	5391.99
485.874	5493.46
486.244	5541.14
486.615	5662.49
486.985	5759.89
487.356	5836.73
487.726	5865.65
488.097	6017.96
488.467	6027.91
488.837	6118.53
489.207	6288.24
489.578	6335.47
489.948	6418.18
490.318	6499.31
490.688	6525.52
491.058	6636.93
491.428	6718.74
491.798	6777.04
492.168	6962.8
492.538	6923.93
492.908	7081.89
493.278	7161.21
493.648	7109.46
494.017	7281.43
494.387	7327.53
494.757	7402.33
495.126	7449.34
495.496	7540.41
495.866	7556
496.235	7637.58
496.605	7736.56
496.974	7813.17
497.344	7870.8
497.713	7900.85
498.082	8019.04
498.452	8068.76
498.821	8177
499.19	8198.02
499.559	8223.55
499.928	8303.1
500.298	8284.8
500.667	8424
501.036	8421.06
501.405	8552.36
501.774	8528.18
502.143	8652.47
502.512	8721.85
502.88	8750.32
503.249	8774.95
503.618	8875.52
503.987	8880.49
504.356	9039.35
504.724	9035.96
505.093	9102.85
505.462	9140.82
505.83	9186.69
506.199	9178.56
506.567	9330.64
506.936	9434.14
507.304	9560.24
507.672	9566.8
508.041	9668.71
508.409	9621.71
508.777	9879.56
509.145	9876.17
509.514	9910.06
509.882	9993.45
510.25	10007.69
510.618	10110.29
510.986	10122.71
511.354	10254.91
511.722	10383.27
512.09	10421.69
512.458	10463.27
512.826	10558.63
513.193	10676.6
513.561	10689.48
513.929	10780.78
514.297	10928.57
514.664	11053.09
515.032	11051.5
515.4	11213.76
515.767	11218.73
516.135	11362.23
516.502	11321.55
516.869	11514.09
517.237	11514.09
517.604	11562.9
517.972	11692.62
518.339	11738.72
518.706	11782.56
519.073	11905.04
519.44	11971.03
519.808	12129.67
520.175	12098.26
520.542	12351.13
520.909	12387.74
521.276	12451.01
521.643	12567.85
522.009	12736.88
522.376	12751.8
522.743	12912.7
523.11	13059.81
523.477	13188.62
523.843	13254.38
524.21	13391.33
524.577	13403.08
524.943	13580.25
525.31	13578.22
525.676	13761.71
526.043	13811.88
526.409	14003.97
526.776	14133.23
527.142	14144.08
527.508	14170.74
527.874	14384.97
528.241	14535.71
528.607	14504.29
528.973	14685.08
529.339	14650.96
529.705	14828.13
530.071	14955.13
530.437	15045.07
530.803	15123.49
531.169	15258.85
531.535	15172.52
531.901	15259.08
532.267	15342.01
532.632	15424.27
532.998	15487.77
533.364	15605.96
533.73	15788.1
534.095	15825.16
534.461	16032.39
534.826	16100.18
535.192	16051.82
535.557	16205.04
535.923	16157.58
536.288	16205.72
536.653	16278.26
537.019	16358.26
537.384	16429.67
537.749	16592.6
538.114	16529.78
538.479	16626.72
538.845	16704.24
539.21	16674.63
539.575	16732.94
539.94	16859.94
540.305	17034.85
540.67	16947.62
541.034	17036.2
541.399	17149.65
541.764	17205.69
542.129	17274.62
542.494	17347.38
542.858	17356.87
543.223	17388.06
543.587	17522.97
543.952	17515.29
544.316	17580.15
544.681	17640.93
545.045	17809.52
545.41	17812
545.774	17823.75
546.138	17874.37
546.503	17985.33
546.867	17906.69
547.231	18216.96
547.595	18139.9
547.959	18298.77
548.324	18328.37
548.688	18464.87
549.052	18508.71
549.416	18579.67
549.779	18633
550.143	18755.26
550.507	18935.14
550.871	18908.02
551.235	18962.03
551.599	19111.86
551.962	19152.08
552.326	19190.72
552.689	19448.8
553.053	19298.74
553.417	19488.57
553.78	19670.94
554.143	19711.16
554.507	19768.56
554.87	20023.02
555.234	20190.92
555.597	20086.52
555.96	20334.42
556.323	20385.5
556.686	20480.63
557.05	20705.49
557.413	20804.24
557.776	20891.02
558.139	21011.47
558.502	21033.61
558.865	21142.54
559.228	21482.42
559.59	21473.6
559.953	21703.2
560.316	21894.83
560.679	21940.26
561.041	22154.04
561.404	22227.48
561.767	22503.86
562.129	22505.21
562.492	22764.19
562.854	22785.66
563.217	22906.56
563.579	22957.18
563.941	23280.56
564.304	23418.18
564.666	23619.53
565.028	23646.2
565.39	23774.33
565.753	24050.26
566.115	24071.95
566.477	24370.48
566.839	24454.54
567.201	24761.65
567.563	24874.87
567.925	24999.61
568.287	25125.71
568.648	25339.49
569.01	25506.26
569.372	25787.61
569.734	25737.44
570.095	25986.48
570.457	26159.81
570.819	26337.88
571.18	26430.76
571.542	26830.3
571.903	26837.08
572.265	27026.9
572.626	27155.94
572.987	27232.09
573.349	27480.68
573.71	27653.78
574.071	27860.33
574.432	27955.24
574.794	28272.29
575.155	28240.88
575.516	28290.6
575.877	28617.37
576.238	28716.12
576.599	28915.21
576.96	29021.88
577.32	29173.96
577.681	29268.88
578.042	29413.96
578.403	29598.36
578.763	29761.97
579.124	29745.47
579.485	29923.78
579.845	30157.89
580.206	30169.42
580.566	30257.78
580.927	30276.53
581.287	30478.11
581.648	30361.73
582.008	30601.05
582.368	30751.1
582.728	30818.67
583.089	30819.8
583.449	30912
583.809	31135.04
584.169	31106.12
584.529	31108.15
584.889	31351.76
585.249	31249.62
585.609	31277.41
585.969	31545.43
586.329	31457.52
586.688	31587.69
587.048	31561.25
587.408	31522.15
587.768	31577.29
588.127	31696.61
588.487	31665.42
588.846	31954.46
589.206	31714.69
589.565	31837.17
589.925	32001.69
590.284	31967.79
590.643	32088.01
591.003	32069.48
591.362	32262.02
591.721	32045.08
592.08	32156.03
592.44	32305.41
592.799	32302.47
593.158	32257.73
593.517	32406.42
593.876	32354.9
594.235	32268.35
594.593	32393.77
594.952	32457.72
595.311	32571.16
595.67	32596.93
596.029	32688.9
596.387	32715.79
596.746	32722.8
597.104	32718.05
597.463	32676.92
597.822	32755.79
598.18	32608.22
598.538	32539.98
598.897	32859.52
599.255	32648.45
599.613	33168.21
599.972	32856.13
600.33	32949.46
600.688	32692.06
601.046	33003.24
601.404	33085.73
601.762	33065.16
602.12	33291.37
602.478	33254.99
602.836	33228.1
603.194	32969.8
603.552	33130.47
603.91	32912.17
604.268	33265.83
604.625	33127.76
604.983	33248.89
605.341	33138.83
605.698	33240.98
606.056	33317.36
606.413	33272.61
606.771	33431.93
607.128	33445.72
607.485	33240.98
607.843	33490.24
608.2	33609.78
608.557	33755.09
608.914	33497.92
609.272	33687.29
609.629	33677.8
609.986	33734.3
610.343	33630.34
610.7	33861.75
611.057	33813.39
611.414	33766.39
611.771	33917.57
612.127	33936.1
612.484	33913.95
612.841	34052.71
613.198	33940.62
613.554	34063.33
613.911	34212.48
614.267	34193.27
614.624	34135.19
614.98	34140.84
615.337	34365.01
615.693	34270.55
616.05	34306.26
616.406	34544.67
616.762	34431.45
617.118	34337.22
617.475	34412.02
617.831	34594.61
618.187	34607.27
618.543	34547.61
618.899	34916.86
619.255	34792.57
619.611	34693.82
619.967	34879.58
620.323	34794.16
620.678	34830.09
621.034	34647.49
621.39	34767.94
621.746	34733.14
622.101	34982.4
622.457	34716.64
622.812	34892.23
623.168	34958.45
623.523	34861.5
623.879	35032.12
624.234	34664.44
624.589	34826.92
624.945	34858.33
625.3	34949.18
625.655	34856.3
626.01	35014.71
626.365	34837.32
626.72	34946.69
627.075	34865.34
627.43	34855.62
627.785	34839.8
628.14	34850.2
628.495	34848.84
628.85	34819.01
629.205	34685.91
629.559	34809.97
629.914	34754.16
630.269	34657.66
630.623	34743.31
630.978	34642.52
631.332	34790.54
631.687	34761.16
632.041	34635.06
632.396	34687.04
632.75	34605.23
633.104	34702.63
633.459	34490.66
633.813	34432.81
634.167	34386.93
634.521	34319.82
634.875	34439.81
635.229	34374.28
635.583	34238.69
635.937	34235.53
636.291	34142.65
636.645	34278.69
636.999	34018.13
637.352	34175.64
637.706	33953.5
638.06	34149.65
638.413	34009.54
638.767	33999.37
639.121	34030.56
639.474	33784.01
639.828	33837.8
640.181	33921.64
640.534	33885.03
640.888	33731.13
641.241	33601.87
641.594	33739.27
641.947	33897
642.301	33706.95
642.654	33667.86
643.007	33585.37
643.36	33681.87
643.713	33411.82
644.066	33709.44
644.419	33584.7
644.771	33265.83
645.124	33097.7
645.477	32958.72
645.83	32756.47
646.182	32560.99
646.535	32483.71
646.888	32592.63
647.24	32417.5
647.593	32551.95
647.945	32516.93
648.298	32480.54
648.65	32400.32
649.002	32369.36
649.355	32413.2
649.707	32350.6
650.059	32357.61
650.411	32831.5
650.763	32840.76
651.115	33160.3
651.467	33068.1
651.819	33029.68
652.171	32992.4
652.523	32976.58
652.875	33065.84
653.227	32893.41
653.578	33253.63
653.93	33129.11
654.282	33040.3
654.633	32919.4
654.985	32941.55
655.337	33010.93
655.688	33013.41
656.039	33085.73
656.391	32762.12
656.742	32849.35
657.094	32939.52
657.445	33074.65
657.796	32903.81
658.147	32999.85
658.498	32868.78
658.849	32906.52
659.2	32793.3
659.551	32731.61
659.902	32921.21
660.253	32835.34
660.604	32825.17
660.955	32728
661.306	32772.29
661.656	32808.9
662.007	32816.58
662.358	32732.74
662.708	32675.12
663.059	32781.78
663.409	32609.13
663.76	32868.1
664.11	32756.7
664.461	32874.88
664.811	32847.09
665.161	32684.83
665.511	32756.24
665.862	32776.58
666.212	32848.9
666.562	32972.96
666.912	32865.39
667.262	32805.51
667.612	32676.7
667.962	32747.88
668.312	32733.87
668.662	32857.03
669.011	32725.96
669.361	32685.51
669.711	32621.78
670.06	32612.97
670.41	32677.38
670.76	32569.81
671.109	32506.31
671.459	32567.1
671.808	32592.18
672.157	32504.27
672.507	32479.64
672.856	32395.35
673.205	32476.93
673.554	32509.7
673.904	32386.76
674.253	32510.83
674.602	32404.16
674.951	31974.12
675.3	31785.87
675.649	32322.58
675.998	32227.9
676.346	32277.39
676.695	32363.94
677.044	32005.3
677.393	32161
677.741	32220.89
678.09	32083.49
678.438	31880.11
678.787	32066.77
679.135	32034.68
679.484	31893.89
679.832	31999.65
680.181	31835.14
680.529	31912.42
680.877	31750.62
681.225	31657.52
681.573	31790.62
681.922	31638.76
682.27	31559.89
682.618	31599.89
682.966	31528.93
683.314	31559.89
683.661	31333
684.009	31283.29
684.357	31100.24
684.705	31198.32
685.053	31195.15
685.4	31137.75
685.748	31079.68
686.095	31020.24
686.443	30831.1
686.79	30717.2
687.138	30850.3
687.485	30781.15
687.832	30616.64
688.18	30571.22
688.527	30553.14
688.874	30491.67
689.221	30521.73
689.568	30256.87
689.915	30253.48
690.262	30110.21
690.609	30222.75
690.956	30050.1
691.303	29971.68
691.65	29759.26
691.997	29799.26
692.344	29627.51
692.69	29651.01
693.037	29639.26
693.383	29314.07
693.73	29401.53
694.077	29272.49
694.423	29230.23
694.769	29141.65
695.116	29087.19
695.462	29052.84
695.808	28921.77
696.155	28812.39
696.501	28629.35
696.847	28656.01
697.193	28455.34
697.539	28426.19
697.885	28276.81
698.231	28175.12
698.577	28069.13
698.923	28086.54
699.269	27995.69
699.614	27894.68
699.96	27792.76
700.306	27731.74
700.651	27529.94
700.997	27584.85
701.342	27545.31
701.688	27395.03
702.033	27292.43
702.379	27418.76
702.724	27262.38
703.069	27174.47
703.415	26927.24
703.76	26952.33
704.105	26816.74
704.45	26766.12
704.795	26703.3
705.14	26636.63
705.485	26526.12
705.83	26444.77
706.175	26418.1
706.52	26267.15
706.865	26180.37
707.209	26190.77
707.554	25999.58
707.899	26147.83
708.243	25958.91
708.588	25892.02
708.932	25734.51
709.277	25705.13
709.621	25642.98
709.966	25587.84
710.31	25576.32
710.654	25396.66
710.998	25391.01
711.342	25383.1
711.687	25294.29
712.031	25258.59
712.375	25145.37
712.719	25312.82
713.063	25099.27
713.407	25202.32
713.75	25036.22
714.094	25025.15
714.438	24922.1
714.782	24998.48
715.125	24915.77
715.469	24845.26
715.812	24797.81
716.156	24572.28
716.499	24571.15
716.843	24600.98
717.186	24419.06
717.53	24598.27
717.873	24592.16
718.216	24510.81
718.559	24350.59
718.902	24269.69
719.246	24309.01
719.589	24293.41
719.932	24114.44
720.275	24134.32
720.617	24103.36
720.96	24126.64
721.303	24099.97
721.646	24232.4
721.989	24052.52
722.331	24074.44
722.674	24015.46
723.016	24048.9
723.359	24039.41
723.701	24085.06
724.044	23909.02
724.386	23756.71
724.729	23948.11
725.071	23825.63
725.413	23891.39
725.755	23920.09
726.097	23806.65
726.439	23704.28
726.782	23702.92
727.124	23753.09
727.465	23712.87
727.807	23661.34
728.149	23702.02
728.491	23728.46
728.833	23586.09
729.175	23581.8
729.516	23538.18
729.858	23530.72
730.199	23622.25
730.541	23621.34
730.882	23517.62
731.224	23609.59
731.565	23417.28
731.906	23522.59
732.248	23635.81
732.589	23346.32
732.93	23360.11
733.271	23476.71
733.612	23429.71
733.953	23448.24
734.294	23350.84
734.635	23400.56
734.976	23423.38
735.317	23311.75
735.658	23314.46
735.999	23324.63
736.339	23424.06
736.68	23363.72
737.021	23337.96
737.361	23170.51
737.702	23377.51
738.042	23351.52
738.383	23332.54
738.723	23367.79
739.063	23429.93
739.404	23334.34
739.744	23393.55
740.084	23320.79
740.424	23377.05
740.764	23158.98
741.104	23472.87
741.444	23326.21
741.784	23222.48
742.124	23302.03
742.464	23207.79
742.804	23235.59
743.143	23283.5
743.483	23241.47
743.823	23189.49
744.162	23137.74
744.502	23199.88
744.841	23242.6
745.181	23259.09
745.52	23184.74
745.86	23232.88
746.199	23249.15
746.538	23242.37
746.877	23281.46
747.216	23221.35
747.556	23245.53
747.895	23264.97
748.234	23052.77
748.573	23242.82
748.911	23177.29
749.25	23176.83
749.589	23038.76
749.928	23231.75
750.267	23195.14
750.605	23152.65
750.944	23086.44
751.283	23179.77
751.621	23242.82
751.96	23108.36
752.298	23176.83
752.636	23169.6
752.975	23027.23
753.313	22910.17
753.651	23164.41
753.989	22898.42
754.327	22862.72
754.666	22819.78
755.004	22822.27
755.342	22826.11
755.679	22815.04
756.017	22719.22
756.355	22829.5
756.693	22730.74
757.031	22732.55
757.368	22530.98
757.706	22628.15
758.044	22569.62
758.381	22556.74
758.719	22581.37
759.056	22520.13
759.394	22446.46
759.731	22276.52
760.068	22295.28
760.405	22259.34
760.743	22215.28
761.08	22180.7
761.417	22182.28
761.754	22109.07
762.091	22102.96
762.428	21911.33
762.765	21869.98
763.102	21923.99
763.438	21726.25
763.775	21690.77
764.112	21698
764.449	21753.59
764.785	21585.92
765.122	21501.62
765.458	21478.35
765.795	21376.88
766.131	21320.61
766.467	21241.07
766.804	21118.36
767.14	21099.6
767.476	21140.73
767.812	20990.9
768.148	21059.38
768.485	20905.71
768.821	20744.36
769.157	20821.87
769.492	20712.04
769.828	20665.71
770.164	20626.62
770.5	20502.78
770.836	20379.62
771.171	20333.52
771.507	20177.82
771.842	20091.27
772.178	20173.3
772.513	20116.58
772.849	20093.75
773.184	20019.85
773.519	19999.06
773.855	19863.7
774.19	19746.19
774.525	19735.79
774.86	19785.51
775.195	19761.1
775.53	19592.97
775.865	19515.69
776.2	19446.31
776.535	19303.49
776.87	19190.5
777.205	19174
777.539	19048.36
777.874	19101.69
778.209	18931.3
778.543	18904.86
778.878	18802.94
779.212	18844.07
779.547	18670.74
779.881	18781.47
780.215	18560.91
780.55	18582.15
780.884	18451.31
781.218	18418.32
781.552	18392.33
781.886	18308.26
782.22	18217.64
782.554	18080.7
782.888	18151.66
783.222	17895.84
783.556	17910.08
783.889	17847.71
784.223	17679.58
784.557	17688.16
784.89	17793.92
785.224	17583.31
785.557	17475.97
785.891	17531.33
786.224	17486.36
786.558	17332.24
786.891	17257.67
787.224	17188.29
787.557	17141.29
787.891	17118.01
788.224	17097.45
788.557	17066.26
788.89	16959.82
789.223	16937
789.556	16798.02
789.888	16785.14
790.221	16693.84
790.554	16642.54
790.887	16584.92
791.219	16613.84
791.552	16450.23
791.884	16412.94
792.217	16396.67
792.549	16365.49
792.882	16231.48
793.214	16194.64
793.546	16189.45
793.879	16077.59
794.211	16099.05
794.543	16047.08
794.875	15964.82
795.207	16114.19
795.539	15923.92
795.871	15896.8
796.203	15804.15
796.535	15640.99
796.867	15629.46
797.198	15649.35
797.53	15496.36
797.862	15504.95
798.193	15537.03
798.525	15446.19
798.856	15364.61
799.188	15257.95
799.519	15236.25
799.85	15172.52
800.182	15205.07
800.513	15118.97
800.844	14890.5
801.175	15063.6
801.506	15047.78
801.837	14937.28
802.168	15013.43
802.499	14961.46
802.83	14758.52
803.161	14775.25
803.491	14750.16
803.822	14746.1
804.153	14666.78
804.483	14628.81
804.814	14504.29
805.145	14508.14
805.475	14525.76
805.805	14441.02
806.136	14387.46
806.466	14355.37
806.796	14377.52
807.126	14268.82
807.457	14171.2
807.787	14239.67
808.117	14135.49
808.447	14096.17
808.777	14155.15
809.107	14121.7
809.436	13931.65
809.766	14003.06
810.096	13911.54
810.426	13900.92
810.755	13885.78
811.085	13923.74
811.414	13797.42
811.744	13708.16
812.073	13649.63
812.403	13669.97
812.732	13639.68
813.061	13546.58
813.39	13500.93
813.719	13462.06
814.049	13559.46
814.378	13502.51
814.707	13376.87
815.036	13442.63
815.365	13351.78
815.693	13176.87
816.022	13178.23
816.351	13217.77
816.68	13131.22
817.008	13192.92
817.337	13051.22
817.665	13030.43
817.994	13102.52
818.322	13014.62
818.651	13040.83
818.979	12939.14
819.307	13008.06
819.636	12864.56
819.964	12843.55
820.292	12827.5
820.62	12873.15
820.948	12889.42
821.276	12903.21
821.604	12878.35
821.932	12980.94
822.259	12930.32
822.587	12914.96
822.915	12740.05
823.243	12775.98
823.57	12788.86
823.898	12877.22
824.225	12757.22
824.553	12747.28
824.88	12747.05
825.207	12761.06
825.535	12791.34
825.862	12805.81
826.189	12684
826.516	12836.32
826.843	12891.68
827.17	12779.82
827.497	12814.17
827.824	12773.27
828.151	12875.18
828.478	12854.85
828.805	12870.66
829.131	12748.63
829.458	12778.24
829.785	12727.17
830.111	12757.9
830.438	12768.07
830.764	12686.04
831.09	12741.85
831.417	12743.21
831.743	12720.84
832.069	12671.57
832.395	12717
832.722	12679.48
833.048	12706.83
833.374	12652.82
833.7	12581.41
834.026	12587.06
834.351	12692.36
834.677	12635.42
835.003	12700.05
835.329	12573.5
835.654	12560.39
835.98	12514.06
836.306	12508.87
836.631	12544.35
836.956	12493.73
837.282	12495.98
837.607	12453.5
837.932	12395.87
838.258	12429.09
838.583	12375.99
838.908	12366.95
839.233	12381.19
839.558	12306.84
839.883	12262.77
840.208	12267.06
840.533	12314.07
840.858	12278.36
841.182	12254.86
841.507	12235.2
841.832	12213.51
842.156	12173.51
842.481	12171.25
842.805	12081.31
843.13	12035.43
843.454	12031.59
843.778	12043.57
844.103	12034.3
844.427	12001.08
844.751	11973.29
845.075	11891.26
845.399	11884.25
845.723	11825.27
846.047	11819.17
846.371	11730.13
846.695	11687.19
847.019	11658.49
847.343	11500.76
847.666	11506.86
847.99	11446.07
848.313	11452.17
848.637	11318.61
848.96	11285.62
849.284	11331.5
849.607	11226.41
849.931	11286.98
850.254	11119.75
850.577	11048.57
850.9	11013.99
851.223	11080.88
851.546	10984.16
851.869	10911.85
852.192	10967.44
852.515	10901.45
852.838	10779.87
853.161	10829.59
853.483	10783.26
853.806	10687.22
854.129	10665.52
854.451	10669.59
854.774	10559.54
855.096	10554.12
855.419	10588.69
855.741	10480.22
856.063	10449.71
856.385	10418.53
856.708	10410.39
857.03	10367
857.352	10417.85
857.674	10307.57
857.996	10272.54
858.318	10269.38
858.64	10228.47
858.961	10134.69
859.283	10141.02
859.605	10167.23
859.926	10169.94
860.248	10128.82
860.57	10087.46
860.891	10131.08
861.212	10074.13
861.534	10001.14
861.855	9956.84
862.176	9983.96
862.498	10007.24
862.819	9954.13
863.14	9932.21
863.461	9856.96
863.782	9898.09
864.103	9934.92
864.424	9791.88
864.745	9927.46
865.065	9830.07
865.386	9725.44
865.707	9752.78
866.027	9831.42
866.348	9887.92
866.668	9714.14
866.989	9753.68
867.309	9614.48
867.63	9663.97
867.95	9690.41
868.27	9615.83
868.59	9612.67
868.91	9647.25
869.23	9569.06
869.55	9530.64
869.87	9610.41
870.19	9504.43
870.51	9508.49
870.83	9565.67
871.15	9446.8
871.469	9449.96
871.789	9532.67
872.109	9406.57
872.428	9379.91
872.748	9365.22
873.067	9420.59
873.386	9427.59
873.706	9284.32
874.025	9295.39
874.344	9254.71
874.663	9340.14
874.982	9311.66
875.301	9239.35
875.62	9242.29
875.939	9253.13
876.258	9273.02
876.577	9240.48
876.896	9181.72
877.214	9163.42
877.533	9177.43
877.852	9137.66
878.17	9195.73
878.489	9133.36
878.807	9126.81
879.125	9083.42
879.444	9093.36
879.762	9055.62
880.08	9056.3
880.398	9042.97
880.716	9035.06
881.034	9011.1
881.352	8957.55
881.67	9032.12
881.988	8940.15
882.306	8971.78
882.624	8953.93
882.941	8903.76
883.259	8873.48
883.577	8852.46
883.894	8847.95
884.212	8863.09
884.529	8797.55
884.846	8798.46
885.164	8762.75
885.481	8756.42
885.798	8769.76
886.115	8688.63
886.432	8730.66
886.75	8690.89
887.067	8590.32
887.383	8619.02
887.7	8677.33
888.017	8569.99
888.334	8584.45
888.651	8536.77
888.967	8516.65
889.284	8506.94
889.6	8441.18
889.917	8416.54
890.233	8359.6
890.55	8339.26
890.866	8338.35
891.182	8289.77
891.498	8266.49
891.815	8281.41
892.131	8288.41
892.447	8234.63
892.763	8193.27
893.079	8223.78
893.395	8203.89
893.71	8140.85
894.026	8184.23
894.342	8118.02
894.657	8037.12
894.973	8111.69
895.289	8080.28
895.604	8106.72
895.92	8028.98
896.235	7993.96
896.55	7942.88
896.865	7900.85
897.181	7976.1
897.496	7869.21
897.811	7889.78
898.126	7824.92
898.441	7819.72
898.756	7754.64
899.071	7785.37
899.386	7691.14
899.7	7657.47
900.015	7647.07
900.33	7558.94
900.644	7585.15
900.959	7584.48
901.273	7540.41
901.588	7513.52
901.902	7425.38
902.216	7458.38
902.531	7461.32
902.845	7375.89
903.159	7367.76
903.473	7376.12
903.787	7303.35
904.101	7264.48
904.415	7311.26
904.729	7190.81
905.042	7229.23
905.356	7164.6
905.67	7110.14
905.984	7148.78
906.297	7099.52
906.611	7035.11
906.924	7036.92
907.237	7011.84
907.551	7053.19
907.864	6996.92
908.177	6948.79
908.491	6945.85
908.804	6905.4
909.117	6912.4
909.43	6849.13
909.743	6822.46
910.056	6813.87
910.368	6704.95
910.681	6718.51
910.994	6689.13
911.307	6724.84
911.619	6649.59
911.932	6709.24
912.244	6585.18
912.557	6593.32
912.869	6538.85
913.181	6527.1
913.494	6492.75
913.806	6458.18
914.118	6468.35
914.43	6390.61
914.742	6358.75
915.054	6391.74
915.366	6358.75
915.678	6320.78
915.99	6322.59
916.302	6205.75
916.613	6225.87
916.925	6215.25
917.236	6241.91
917.548	6127.11
917.859	6190.39
918.171	6104.06
918.482	6158.52
918.794	6105.64
919.105	6086.44
919.416	6023.39
919.727	5980.22
920.038	5995.36
920.349	5945.2
920.66	5855.26
920.971	5925.54
921.282	5892.09
921.593	5862.26
921.903	5823.17
922.214	5750.4
922.525	5748.37
922.835	5770.96
923.146	5688.03
923.456	5707.69
923.767	5667.69
924.077	5683.73
924.387	5625.21
924.697	5564.42
925.008	5572.55
925.318	5595.38
925.628	5551.08
925.938	5540.91
926.248	5486.23
926.558	5503.63
926.867	5444.87
927.177	5431.09
927.487	5426.79
927.796	5361.26
928.106	5366.23
928.416	5363.52
928.725	5324.65
929.034	5321.03
929.344	5269.73
929.653	5269.51
929.962	5210.07
930.271	5152.22
930.581	5170.98
930.89	5111.77
931.199	5103.19
931.508	5127.14
931.817	5097.08
932.125	5033.36
932.434	5107.7
932.743	5012.57
933.051	5044.88
933.36	5010.76
933.669	4995.62
933.977	4908.16
934.286	4955.62
934.594	4895.51
934.902	4839.24
935.21	4856.19
935.519	4824.55
935.827	4834.49
936.135	4849.18
936.443	4801.5
936.751	4818.45
937.059	4730.09
937.367	4715.62
937.674	4741.61
937.982	4653.03
938.29	4673.59
938.597	4700.03
938.905	4596.08
939.213	4632.01
939.52	4608.51
939.827	4572.13
940.135	4568.96
940.442	4524.67
940.749	4556.76
941.056	4481.96
941.363	4463.65
941.67	4443.32
941.977	4412.36
942.284	4371.23
942.591	4386.37
942.898	4410.77
943.205	4375.75
943.511	4330.78
943.818	4333.04
944.125	4293.94
944.431	4270.89
944.738	4286.48
945.044	4283.55
945.35	4254.17
945.657	4265.92
945.963	4173.27
946.269	4178.92
946.575	4158.8
946.881	4148.18
947.187	4132.82
947.493	4105.02
947.799	4063.66
948.105	4019.15
948.41	4047.62
948.716	4072.93
949.022	4027.06
949.327	3987.51
949.633	3985.47
949.938	3978.47
950.244	3957.68
950.549	3978.47
950.854	3908.41
951.16	3902.76
951.465	3879.49
951.77	3860.05
952.075	3893.05
952.38	3866.16
952.685	3809.43
952.99	3779.38
953.294	3758.81
953.599	3778.93
953.904	3731.7
954.209	3668.42
954.513	3716.33
954.818	3683.11
955.122	3700.51
955.426	3645.6
955.731	3637.01
956.035	3618.7
956.339	3651.02
956.643	3667.74
956.948	3570.8
957.252	3607.18
957.556	3561.3
957.86	3565.15
958.163	3587.97
958.467	3550.46
958.771	3496.9
959.075	3526.28
959.378	3462.78
959.682	3471.59
959.985	3426.39
960.289	3451.25
960.592	3444.02
960.896	3373.29
961.199	3408.77
961.502	3409.67
961.805	3392.72
962.108	3336
962.411	3340.29
962.714	3338.94
963.017	3308.66
963.32	3318.15
963.623	3259.84
963.926	3275.21
964.228	3225.27
964.531	3259.17
964.833	3227.53
965.136	3245.38
965.438	3183.01
965.741	3177.36
966.043	3183.91
966.345	3146.4
966.648	3155.44
966.95	3126.29
967.252	3147.3
967.554	3127.19
967.856	3089.9
968.158	3078.15
968.46	3071.83
968.761	3083.13
969.063	3048.55
969.365	3027.99
969.666	3028.66
969.968	3012.17
970.269	2957.93
970.571	2997.25
970.872	2955.9
971.174	2949.12
971.475	2908.89
971.776	2885.84
972.077	2879.97
972.378	2915.45
972.679	2881.55
972.98	2868.44
973.281	2840.65
973.582	2819.86
973.883	2820.08
974.183	2827.54
974.484	2800.87
974.785	2784.38
975.085	2791.38
975.386	2775.79
975.686	2793.19
975.986	2750.48
976.287	2738.95
976.587	2682.01
976.887	2736.47
977.187	2717.26
977.487	2687.43
977.787	2667.54
978.087	2668.45
978.387	2646.53
978.687	2646.53
978.987	2619.18
979.286	2607.88
979.586	2609.69
979.885	2570.82
980.185	2559.07
980.484	2598.17
980.784	2565.62
981.083	2567.43
981.382	2557.49
981.682	2540.31
981.981	2504.38
982.28	2498.96
982.579	2483.14
982.878	2488.56
983.177	2464.38
983.475	2463.93
983.774	2445.4
984.073	2463.93
984.372	2437.94
984.67	2453.09
984.969	2446.08
985.267	2434.33
985.566	2388.45
985.864	2376.93
986.162	2383.26
986.461	2356.36
986.759	2372.18
987.057	2358.85
987.355	2363.37
987.653	2352.07
987.951	2337.38
988.249	2290.38
988.547	2315.46
988.844	2274.33
989.142	2293.77
989.44	2292.64
989.737	2255.8
990.035	2249.93
990.332	2257.16
990.63	2214.45
990.927	2226.88
991.224	2196.82
991.521	2199.31
991.819	2171.96
992.116	2189.59
992.413	2179.65
992.71	2154.34
993.006	2158.4
993.303	2116.6
993.6	2132.19
993.897	2107.11
994.193	2104.39
994.49	2135.13
994.787	2070.95
995.083	2064.85
995.379	2067.33
995.676	2063.26
995.972	2045.64
996.268	2075.69
996.565	2047.67
996.861	2040.21
997.157	2010.38
997.453	2009.71
997.749	2032.08
998.044	1973.78
998.34	1945.3
998.636	1939.2
998.932	1933.1
999.227	1943.27
999.523	1950.5
999.818	1932.19
1000.114	1909.37
1000.409	1905.98
1000.704	1889.94
1001	1888.35
1001.295	1850.16
1001.59	1894.23
1001.885	1856.49
1002.18	1845.64
1002.475	1878.41
1002.77	1835.02
1003.065	1819.66
1003.359	1832.54
1003.654	1807.9
1003.949	1785.08
1004.243	1773.78
1004.538	1755.7
1004.832	1753.22
1005.127	1745.08
1005.421	1735.82
1005.715	1747.34
1006.009	1741.69
1006.304	1731.75
1006.598	1690.62
1006.892	1696.72
1007.186	1689.94
1007.48	1660.11
1007.773	1670.05
1008.067	1686.78
1008.361	1678.19
1008.655	1624.63
1008.948	1628.25
1009.242	1618.53
1009.535	1604.07
1009.829	1599.55
1010.122	1589.38
1010.415	1599.55
1010.708	1596.16
1011.001	1583.28
1011.295	1566.1
1011.588	1565.65
1011.881	1563.17
1012.173	1523.84
1012.466	1533.56
1012.759	1512.09
1013.052	1524.97
1013.344	1479.33
1013.637	1494.69
1013.93	1483.39
1014.222	1488.59
1014.514	1477.74
1014.807	1457.41
1015.099	1438.2
1015.391	1467.12
1015.683	1429.38
1015.976	1437.74
1016.268	1444.07
1016.56	1407.01
1016.851	1371.98
1017.143	1369.5
1017.435	1384.86
1017.727	1351.65
1018.018	1385.77
1018.31	1375.37
1018.602	1356.84
1018.893	1332.21
1019.185	1352.1
1019.476	1325.21
1019.767	1315.49
1020.058	1290.4
1020.35	1287.47
1020.641	1298.54
1020.932	1288.6
1021.223	1279.1
1021.514	1261.93
1021.804	1244.3
1022.095	1242.72
1022.386	1242.27
1022.677	1241.37
1022.967	1236.17
1023.258	1230.29
1023.548	1209.73
1023.839	1221.93
1024.129	1210.63
1024.419	1215.15
1024.709	1211.08
1025	1166.11
1025.29	1176.51
1025.58	1184.19
1025.87	1151.42
1026.16	1151.88
1026.449	1149.39
1026.739	1135.38
1027.029	1170.18
1027.319	1138.32
1027.608	1132.22
1027.898	1121.59
1028.187	1089.05
1028.477	1109.17
1028.766	1106.91
1029.055	1078.43
1029.344	1072.56
1029.634	1083.86
1029.923	1059.68
1030.212	1041.37
1030.501	1032.33
1030.79	1039.79
1031.078	1022.16
1031.367	1053.12
1031.656	1016.51
1031.945	991.2
1032.233	1009.73
1032.522	990.3
1032.81	977.87
1033.099	981.71
1033.387	978.1
1033.675	980.81
1033.963	972.45
1034.251	969.06
1034.54	972.45
1034.828	936.29
1035.116	954.14
1035.403	955.05
1035.691	917.31
1035.979	938.1
1036.267	934.26
1036.554	911.43
1036.842	928.15
1037.129	908.72
1037.417	917.98
1037.704	898.78
1037.992	875.5
1038.279	890.87
1038.566	875.27
1038.853	875.27
1039.14	875.27
