Data from tablewood_dark_bookshelf_FLMS001491_00043.txt Node
Date: Wed Feb 08 14:14:48 GMT 2017
User: dcchb
Spectrometer: FLMS00149
Trigger mode: 0
Integration Time (sec): 2.000000E-2
Scans to average: 10
Electric dark correction enabled: true
Nonlinearity correction enabled: false
Boxcar width: 0
XAxis mode: Wavelengths
Number of Pixels in Spectrum: 2048
>>>>>Begin Spectral Data<<<<<
341.393	-10.69
341.776	-10.69
342.16	-10.69
342.543	-47.53
342.927	-75.77
343.31	-54.08
343.693	-61.09
344.077	-44.82
344.46	-68.09
344.843	-60.63
345.226	-46.62
345.61	-28.77
345.993	-15.21
346.376	-20.86
346.759	2.42
347.142	14.84
347.525	61.17
347.908	43.77
348.291	69.08
348.674	91.68
349.057	117.21
349.44	119.47
349.823	135.97
350.206	157.44
350.588	195.4
350.971	209.19
351.354	199.25
351.737	238.57
352.119	228.85
352.502	243.54
352.884	256.87
353.267	263.2
353.65	266.82
354.032	262.3
354.414	293.26
354.797	285.8
355.179	300.71
355.562	299.58
355.944	313.14
356.326	337.55
356.709	330.99
357.091	327.6
357.473	326.7
357.855	330.77
358.238	326.02
358.62	312.92
359.002	340.94
359.384	322.41
359.766	322.63
360.148	331.22
360.53	340.71
360.912	335.51
361.294	330.77
361.676	319.24
362.057	335.74
362.439	307.04
362.821	293.71
363.203	336.87
363.584	319.69
363.966	312.92
364.348	303.65
364.729	312.24
365.111	333.48
365.493	324.67
365.874	302.97
366.256	296.42
366.637	315.85
367.019	309.98
367.4	316.76
367.781	310.2
368.163	320.37
368.544	323.54
368.925	307.27
369.306	316.76
369.688	312.01
370.069	300.49
370.45	300.49
370.831	300.94
371.212	311.33
371.593	303.2
371.974	315.63
372.355	315.4
372.736	319.92
373.117	314.5
373.498	319.47
373.879	316.76
374.26	298.23
374.641	336.87
375.021	312.24
375.402	314.5
375.783	333.71
376.163	319.47
376.544	325.57
376.925	315.63
377.305	306.36
377.686	328.28
378.066	319.47
378.447	329.64
378.827	348.17
379.208	328.06
379.588	337.77
379.968	325.12
380.349	356.53
380.729	341.39
381.109	345.91
381.489	330.32
381.87	339.58
382.25	328.73
382.63	350.43
383.01	355.17
383.39	340.03
383.77	342.29
384.15	356.76
384.53	354.95
384.91	361.05
385.29	368.51
385.67	351.33
386.049	372.57
386.429	353.37
386.809	348.39
387.189	348.17
387.568	349.98
387.948	341.39
388.328	364.44
388.707	367.15
389.087	379.81
389.466	368.96
389.846	369.86
390.225	367.6
390.605	360.82
390.984	374.16
391.363	377.32
391.743	366.7
392.122	351.33
392.501	351.56
392.881	384.33
393.26	373.7
393.639	385.68
394.018	380.26
394.397	393.59
394.776	388.62
395.155	389.98
395.534	405.12
395.913	383.2
396.292	392.24
396.671	409.64
397.05	394.72
397.429	422.29
397.808	384.33
398.186	417.77
398.565	420.94
398.944	419.58
399.323	412.12
399.701	413.48
400.08	396.53
400.458	406.7
400.837	413.7
401.215	418.22
401.594	417.55
401.972	418.9
402.351	438.11
402.729	403.76
403.107	432.91
403.486	441.95
403.864	424.78
404.242	427.71
404.62	434.49
404.999	435.85
405.377	450.09
405.755	437.88
406.133	445.79
406.511	435.4
406.889	459.8
407.267	466.58
407.645	450.54
408.023	487.15
408.401	467.94
408.779	458
409.156	465
409.534	476.53
409.912	481.5
410.29	497.54
410.667	497.77
411.045	479.92
411.422	489.63
411.8	512.91
412.178	496.64
412.555	511.55
412.933	524.21
413.31	525.11
413.687	519.24
414.065	516.98
414.442	521.27
414.819	511.1
415.197	509.29
415.574	553.36
415.951	549.52
416.328	556.3
416.705	565.56
417.082	532.34
417.46	534.38
417.837	555.62
418.214	551.1
418.591	574.6
418.967	559.69
419.344	566.24
419.721	578.9
420.098	589.29
420.475	594.04
420.852	605.11
421.228	595.39
421.605	603.53
421.982	612.57
422.358	622.06
422.735	600.14
423.111	612.57
423.488	623.87
423.864	627.03
424.241	624.77
424.617	650.53
424.994	643.3
425.37	634.71
425.746	663.87
426.123	663.19
426.499	651.21
426.875	643.3
427.251	668.16
427.627	687.37
428.003	688.27
428.379	700.02
428.756	679.23
429.132	716.07
429.507	706.35
429.883	705.67
430.259	714.49
430.635	719.68
431.011	725.79
431.387	761.72
431.763	748.16
432.138	746.12
432.514	771.66
432.89	769.4
433.265	760.36
433.641	764.88
434.016	772.34
434.392	802.85
434.767	786.8
435.143	798.1
435.518	824.54
435.894	816.86
436.269	845.56
436.644	832.9
437.02	848.04
437.395	852.79
437.77	852.56
438.145	866.35
438.52	859.57
438.895	871.32
439.271	876.74
439.646	921.94
440.021	895.05
440.395	908.61
440.77	914.48
441.145	917.65
441.52	919.23
441.895	918.1
442.27	935.95
442.645	937.53
443.019	945.89
443.394	921.26
443.769	957.87
444.143	961.26
444.518	963.29
444.892	972.11
445.267	989.96
445.641	967.36
446.016	961.71
446.39	996.97
446.764	1012.11
447.139	1010.52
447.513	995.84
447.887	1017.53
448.262	1006.91
448.636	1026.34
449.01	1031.77
449.384	1048.72
449.758	1051.65
450.132	1067.7
450.506	1064.31
450.88	1063.86
451.254	1093.23
451.628	1100.47
452.002	1111.09
452.376	1096.17
452.75	1127.36
453.123	1123.06
453.497	1131.2
453.871	1147.7
454.244	1149.5
454.618	1166.9
454.992	1185.66
455.365	1190.63
455.739	1198.09
456.112	1215.94
456.486	1249.39
456.859	1234.7
457.232	1260.01
457.606	1263.17
457.979	1274.25
458.352	1295.71
458.725	1303.4
459.099	1338.43
459.472	1330.52
459.845	1375.94
460.218	1359.89
460.591	1381.14
460.964	1387.01
461.337	1406.45
461.71	1434.47
462.083	1443.28
462.456	1431.76
462.829	1455.94
463.201	1502.94
463.574	1459.1
463.947	1500.68
464.32	1521.92
464.692	1534.58
465.065	1574.35
465.438	1596.27
465.81	1593.56
466.183	1604.41
466.555	1634.46
466.928	1652.09
467.3	1667.46
467.672	1660.22
468.045	1684.86
468.417	1726.44
468.789	1714.46
469.161	1774.8
469.534	1738.87
469.906	1806.66
470.278	1813.67
470.65	1841.91
471.022	1890.05
471.394	1906.09
471.766	1899.09
472.138	1958.07
472.51	1948.13
472.882	2002.36
473.253	2010.95
473.625	2078.52
473.997	2105.18
474.369	2080.33
474.74	2125.52
475.112	2159.87
475.484	2222.7
475.855	2195.8
476.227	2224.5
476.598	2317.16
476.97	2290.72
477.341	2349.92
477.713	2413.88
478.084	2449.81
478.455	2488.68
478.827	2499.52
479.198	2549.47
479.569	2560.77
479.94	2634.44
480.311	2641.67
480.682	2701.1
481.053	2730.25
481.424	2774.32
481.795	2793.53
482.166	2863.58
482.537	2859.52
482.908	2970.47
483.279	2950.13
483.65	3036.46
484.021	3056.57
484.391	3082.11
484.762	3131.82
485.133	3180.64
485.503	3224.7
485.874	3310.35
486.244	3320.75
486.615	3332.5
486.985	3392.38
487.356	3485.49
487.726	3479.16
488.097	3561.87
488.467	3612.26
488.837	3608.42
489.207	3656.56
489.578	3715.99
489.948	3778.81
490.318	3818.81
490.688	3848.87
491.058	3880.05
491.428	3962.31
491.798	4006.15
492.168	4054.06
492.538	4070.1
492.908	4071.91
493.278	4148.07
493.648	4175.19
494.017	4210.21
494.387	4249.54
494.757	4283.66
495.126	4313.04
495.496	4357.78
495.866	4415.63
496.235	4452.02
496.605	4455.41
496.974	4441.62
497.344	4583.31
497.713	4585.57
498.082	4604.33
498.452	4652.69
498.821	4707.38
499.19	4701.5
499.559	4714.83
499.928	4780.59
500.298	4842.51
500.667	4844.55
501.036	4853.14
501.405	4976.75
501.774	4959.8
502.143	4969.97
502.512	4960.7
502.88	5048.16
503.249	5064.65
503.618	5094.48
503.987	5116.41
504.356	5190.75
504.724	5180.58
505.093	5269.85
505.462	5222.39
505.83	5280.92
506.199	5292.67
506.567	5374.7
506.936	5389.17
507.304	5441.82
507.672	5473.23
508.041	5496.06
508.409	5543.96
508.777	5615.37
509.145	5649.5
509.514	5647.92
509.882	5684.53
510.25	5667.58
510.618	5781.47
510.986	5797.74
511.354	5809.49
511.722	5906.89
512.09	5976.04
512.458	5952.09
512.826	6035.48
513.193	6011.07
513.561	6063.27
513.929	6108.92
514.297	6183.72
514.664	6185.76
515.032	6185.53
515.4	6270.72
515.767	6339.88
516.135	6386.2
516.502	6355.69
516.869	6490.61
517.237	6481.57
517.604	6469.59
517.972	6547.78
518.339	6582.13
518.706	6602.24
519.073	6652.86
519.44	6663.03
519.808	6801.11
520.175	6784.38
520.542	6865.29
520.909	6953.87
521.276	6943.48
521.643	7009.69
522.009	7080.42
522.376	7127.2
522.743	7156.13
523.11	7232.28
523.477	7316.35
523.843	7403.35
524.21	7455.78
524.577	7448.55
524.943	7561.31
525.31	7569.22
525.676	7661.87
526.043	7698.71
526.409	7832.49
526.776	7836.56
527.142	7859.16
527.508	7912.26
527.874	7943.45
528.241	8066.84
528.607	8071.58
528.973	8201.97
529.339	8129.66
529.705	8209.43
530.071	8325.81
530.437	8282.2
530.803	8392.7
531.169	8424.34
531.535	8340.5
531.901	8427.96
532.267	8515.86
532.632	8573.26
532.998	8537.56
533.364	8610.1
533.73	8663.43
534.095	8744.78
534.461	8809.64
534.826	8825.46
535.192	8862.3
535.557	8864.33
535.923	8935.29
536.288	9019.35
536.653	9023.87
537.019	8980.26
537.384	9090.99
537.749	9115.4
538.114	9101.84
538.479	9133.25
538.845	9216.41
539.21	9194.04
539.575	9218.44
539.94	9263.19
540.305	9289.63
540.67	9379.34
541.034	9328.95
541.399	9395.39
541.764	9347.03
542.129	9506.12
542.494	9494.82
542.858	9476.29
543.223	9561.03
543.587	9556.97
543.952	9576.85
544.316	9668.38
544.681	9646
545.045	9685.55
545.41	9750.18
545.774	9839.67
546.138	9881.93
546.503	9870.4
546.867	9895.26
547.231	9927.13
547.595	9959.44
547.959	9945.88
548.324	9948.59
548.688	10039.21
549.052	10078.76
549.416	10144.07
549.779	10096.39
550.143	10168.02
550.507	10255.7
550.871	10219.55
551.235	10208.02
551.599	10349.94
551.962	10404.18
552.326	10378.41
552.689	10483.95
553.053	10424.51
553.417	10449.6
553.78	10643.27
554.143	10537.96
554.507	10631.29
554.87	10619.99
555.234	10768.23
555.597	10763.26
555.96	10760.55
556.323	10806.88
556.686	10873.32
557.05	10957.61
557.413	10970.49
557.776	10972.3
558.139	11018.4
558.502	11179.07
558.865	11075.34
559.228	11174.32
559.59	11170.26
559.953	11240.76
560.316	11419.52
560.679	11366.41
561.041	11435.33
561.404	11530.93
561.767	11581.09
562.129	11611.6
562.492	11751.71
562.854	11714.42
563.217	11717.59
563.579	11846.17
563.941	11924.81
564.304	11963.46
564.666	12022.66
565.028	12016.56
565.39	12094.3
565.753	12151.7
566.115	12217.46
566.477	12396.44
566.839	12353.28
567.201	12398.93
567.563	12405.48
567.925	12554.4
568.287	12482.31
568.648	12595.53
569.01	12642.31
569.372	12738.13
569.734	12812.93
570.095	12832.81
570.457	12918.46
570.819	12882.53
571.18	12908.06
571.542	13004.11
571.903	13038.23
572.265	13122.07
572.626	13121.84
572.987	13214.72
573.349	13293.59
573.71	13318
574.071	13393.02
574.432	13406.13
574.794	13514.38
575.155	13523.19
575.516	13446.58
575.877	13585.33
576.238	13631.66
576.599	13639.8
576.96	13646.12
577.32	13651.32
577.681	13825.33
578.042	13754.14
578.403	13906.68
578.763	13903.07
579.124	13907.81
579.485	13910.07
579.845	14060.12
580.206	14010.41
580.566	14063.29
580.927	14046.57
581.287	14154.13
581.648	14171.53
582.008	14283.85
582.368	14288.59
582.728	14264.87
583.089	14337.41
583.449	14352.55
583.809	14360.91
584.169	14365.43
584.529	14437.97
584.889	14549.6
585.249	14395.94
585.609	14439.78
585.969	14494.69
586.329	14459.89
586.688	14518.64
587.048	14548.02
587.408	14571.3
587.768	14536.95
588.127	14536.72
588.487	14512.77
588.846	14675.93
589.206	14616.72
589.565	14697.4
589.925	14714.8
590.284	14664.4
590.643	14804.96
591.003	14830.27
591.362	14833.44
591.721	14763.38
592.08	14800.22
592.44	14779.43
592.799	14874.11
593.158	14832.99
593.517	14909.14
593.876	14992.98
594.235	14919.76
594.593	15011.96
594.952	14990.5
595.311	14978.07
595.67	14983.04
596.029	15153.66
596.387	15096.48
596.746	15152.98
597.104	15094.9
597.463	15105.97
597.822	15104.84
598.18	15143.03
598.538	15116.59
598.897	15261.9
599.255	15152.3
599.613	15418.51
599.972	15267.32
600.33	15328.79
600.688	15278.85
601.046	15438.62
601.404	15410.37
601.762	15401.78
602.12	15524.27
602.478	15490.6
602.836	15594.55
603.194	15526.07
603.552	15515.68
603.91	15400.88
604.268	15499.86
604.625	15468.68
604.983	15557.26
605.341	15512.06
605.698	15634.77
606.056	15671.38
606.413	15567.88
606.771	15707.09
607.128	15774.43
607.485	15649.46
607.843	15742.11
608.2	15865.73
608.557	15809.46
608.914	15785.05
609.272	15912.73
609.629	15903.01
609.986	15993.18
610.343	15968.32
610.7	16045.61
611.057	16018.27
611.414	15990.47
611.771	16036.57
612.127	16108.66
612.484	16117.7
612.841	16167.87
613.198	16146.62
613.554	16187.53
613.911	16127.87
614.267	16190.24
614.624	16206.28
614.98	16172.84
615.337	16246.28
615.693	16241.31
616.05	16210.35
616.406	16351.36
616.762	16307.98
617.118	16301.65
617.475	16271.82
617.831	16347.52
618.187	16368.54
618.543	16341.19
618.899	16546.84
619.255	16403.34
619.611	16489.67
619.967	16441.76
620.323	16432.49
620.678	16336.22
621.034	16474.75
621.39	16506.61
621.746	16412.15
622.101	16690.56
622.457	16404.02
622.812	16541.42
623.168	16535.77
623.523	16535.54
623.879	16576.89
624.234	16507.52
624.589	16545.48
624.945	16541.64
625.3	16573.28
625.655	16496.22
626.01	16576.89
626.365	16631.36
626.72	16547.97
627.075	16612.6
627.43	16592.04
627.785	16534.64
628.14	16563.56
628.495	16561.3
628.85	16607.63
629.205	16461.64
629.559	16522.21
629.914	16514.3
630.269	16481.08
630.623	16473.39
630.978	16496.67
631.332	16527.63
631.687	16527.86
632.041	16418.03
632.396	16476.56
632.75	16498.25
633.104	16432.49
633.459	16379.84
633.813	16446.28
634.167	16382.78
634.521	16324.92
634.875	16443.56
635.229	16381.65
635.583	16253.97
635.937	16237.24
636.291	16289.44
636.645	16369.22
636.999	16333.06
637.352	16250.8
637.706	16181.65
638.06	16227.53
638.413	16263.68
638.767	16136.68
639.121	16207.64
639.474	16019.4
639.828	16083.35
640.181	16106.4
640.534	16120.18
640.888	15984.82
641.241	16038.15
641.594	16076.57
641.947	16072.5
642.301	16066.4
642.654	16072.05
643.007	16013.07
643.36	16041.32
643.713	16054.2
644.066	16004.25
644.419	15975.78
644.771	15906.18
645.124	15769.46
645.477	15673.87
645.83	15625.73
646.182	15593.64
646.535	15369.92
646.888	15387.77
647.24	15301.22
647.593	15330.83
647.945	15335.35
648.298	15363.82
648.65	15204.73
649.002	15246.31
649.355	15378.96
649.707	15346.19
650.059	15412.41
650.411	15669.8
650.763	15588.67
651.115	15769.46
651.467	15788.89
651.819	15703.47
652.171	15727.2
652.523	15567.43
652.875	15656.92
653.227	15617.82
653.578	15630.25
653.93	15664.83
654.282	15599.07
654.633	15640.65
654.985	15531.5
655.337	15611.27
655.688	15466.87
656.039	15617.6
656.391	15536.02
656.742	15499.86
657.094	15506.41
657.445	15613.3
657.796	15582.34
658.147	15458.05
658.498	15560.2
658.849	15568.11
659.2	15565.62
659.551	15479.97
659.902	15555.23
660.253	15464.61
660.604	15623.7
660.955	15487.21
661.306	15561.78
661.656	15463.48
662.007	15553.42
662.358	15568.56
662.708	15553.64
663.059	15533.76
663.409	15373.08
663.76	15582.34
664.11	15490.6
664.461	15543.7
664.811	15498.5
665.161	15531.05
665.511	15481.1
665.862	15472.29
666.212	15533.98
666.562	15511.39
666.912	15498.5
667.262	15419.18
667.612	15477.94
667.962	15529.92
668.312	15491.27
668.662	15483.36
669.011	15471.84
669.361	15477.04
669.711	15508.22
670.06	15454.21
670.41	15425.96
670.76	15378.06
671.109	15480.65
671.459	15463.03
671.808	15377.6
672.157	15460.31
672.507	15344.16
672.856	15386.64
673.205	15420.09
673.554	15439.75
673.904	15378.06
674.253	15432.97
674.602	15363.37
674.951	15130.15
675.3	15036.14
675.649	15334.22
675.998	15392.52
676.346	15311.39
676.695	15393.42
677.044	15263.26
677.393	15282.47
677.741	15296.48
678.09	15308.68
678.438	15287.89
678.787	15241.56
679.135	15261.67
679.484	15167.67
679.832	15271.62
680.181	15174.9
680.529	15166.31
680.877	15098.06
681.225	15118.18
681.573	15197.5
681.922	15090.61
682.27	15056.48
682.618	15061.68
682.966	15009.48
683.314	15099.19
683.661	14987.56
684.009	14920.44
684.357	14918.63
684.705	14951.17
685.053	14891.52
685.4	14867.34
685.748	14755.25
686.095	14782.14
686.443	14724.51
686.79	14695.81
687.138	14733.33
687.485	14735.36
687.832	14635.25
688.18	14676.83
688.527	14582.82
688.874	14601.58
689.221	14502.37
689.568	14566.78
689.915	14505.31
690.262	14546.89
690.609	14459.21
690.956	14401.81
691.303	14357.74
691.65	14279.1
691.997	14352.09
692.344	14207.01
692.69	14247.92
693.037	14242.72
693.383	14095.38
693.73	14203.17
694.077	14154.81
694.423	14128.37
694.769	13992.56
695.116	13941.48
695.462	13959.11
695.808	13910.75
696.155	14015.38
696.501	13822.39
696.847	13859.68
697.193	13746.01
697.539	13837.98
697.885	13662.85
698.231	13592.57
698.577	13654.03
698.923	13602.28
699.269	13561.15
699.614	13509.86
699.96	13559.35
700.306	13548.27
700.651	13478.67
700.997	13396.41
701.342	13411.78
701.688	13329.75
702.033	13274.38
702.379	13274.38
702.724	13273.48
703.069	13280.03
703.415	13046.14
703.76	13081.17
704.105	13082.07
704.45	13077.78
704.795	12934.5
705.14	12947.39
705.485	12935.63
705.83	12812.7
706.175	12890.66
706.52	12849.99
706.865	12799.14
707.209	12913.26
707.554	12769.09
707.899	12768.86
708.243	12732.93
708.588	12752.14
708.932	12704.45
709.277	12715.98
709.621	12708.97
709.966	12540.84
710.31	12637.34
710.654	12518.47
710.998	12547.62
711.342	12467.85
711.687	12473.5
712.031	12474.4
712.375	12423.11
712.719	12422.43
713.063	12434.4
713.407	12395.99
713.75	12328.19
714.094	12275.31
714.438	12263.79
714.782	12334.75
715.125	12249.32
715.469	12299.49
715.812	12219.04
716.156	12172.26
716.499	12113.96
716.843	12176.78
717.186	12102.21
717.53	12171.59
717.873	12167.52
718.216	12131.59
718.559	12085.71
718.902	12032.83
719.246	12051.59
719.589	11940.18
719.932	11946.51
720.275	11903.12
720.617	11973.85
720.96	11918.49
721.303	11999.61
721.646	11899.96
721.989	11871.26
722.331	11901.09
722.674	11872.16
723.016	11912.61
723.359	11890.46
723.701	11861.76
724.044	11832.84
724.386	11676.91
724.729	11788.32
725.071	11843.69
725.413	11786.29
725.755	11850.24
726.097	11686.63
726.439	11667.65
726.782	11699.28
727.124	11732.73
727.465	11623.35
727.807	11709
728.149	11574.31
728.491	11575.9
728.833	11644.82
729.175	11608.66
729.516	11612.28
729.858	11558.27
730.199	11633.97
730.541	11521.89
730.882	11543.13
731.224	11554.2
731.565	11600.53
731.906	11549.46
732.248	11481.21
732.589	11451.61
732.93	11434.88
733.271	11508.1
733.612	11532.28
733.953	11549.91
734.294	11453.87
734.635	11467.88
734.976	11472.85
735.317	11431.04
735.658	11411.61
735.999	11414.54
736.339	11447.09
736.68	11416.35
737.021	11410.7
737.361	11282.34
737.702	11381.55
738.042	11385.62
738.383	11394.43
738.723	11376.81
739.063	11340.42
739.404	11338.16
739.744	11365.51
740.084	11289.12
740.424	11323.93
740.764	11297.26
741.104	11348.78
741.444	11331.16
741.784	11272.18
742.124	11397.14
742.464	11289.12
742.804	11286.41
743.143	11253.87
743.483	11262.23
743.823	11197.38
744.162	11205.06
744.502	11177.04
744.841	11210.48
745.181	11203.93
745.52	11123.25
745.86	11183.59
746.199	11128.68
746.538	11174.55
746.877	11177.04
747.216	11218.39
747.556	11175.23
747.895	11117.38
748.234	11140.2
748.573	11071.05
748.911	11046.64
749.25	11175.68
749.589	11098.17
749.928	11091.84
750.267	11084.38
750.605	11067.89
750.944	10998.96
751.283	11005.97
751.621	11023.59
751.96	10998.96
752.298	11005.06
752.636	11008.91
752.975	10988.79
753.313	10932.98
753.651	10984.5
753.989	10902.69
754.327	10880.1
754.666	10874.22
755.004	10900.43
755.342	10902.47
755.679	10900.21
756.017	10790.15
756.355	10846.65
756.693	10818.18
757.031	10810.27
757.368	10715.81
757.706	10718.52
758.044	10672.87
758.381	10636.03
758.719	10619.76
759.056	10655.69
759.394	10683.72
759.731	10598.29
760.068	10634.68
760.405	10565.08
760.743	10505.42
761.08	10500.67
761.417	10458.41
761.754	10544.06
762.091	10496.6
762.428	10461.35
762.765	10359.43
763.102	10435.36
763.438	10318.98
763.775	10311.52
764.112	10306.1
764.449	10350.84
764.785	10207.57
765.122	10088.7
765.458	10109.72
765.795	10058.87
766.131	10103.62
766.467	10060.46
766.804	9970.74
767.14	10010.06
767.476	9970.29
767.812	9973.9
768.148	9968.48
768.485	9897.52
768.821	9816.85
769.157	9777.75
769.492	9781.59
769.828	9806.68
770.164	9677.87
770.5	9631.31
770.836	9634.7
771.171	9591.32
771.507	9530.3
771.842	9467.7
772.178	9542.96
772.513	9505.89
772.849	9417.53
773.184	9387.48
773.519	9449.85
773.855	9321.04
774.19	9294.83
774.525	9215.28
774.86	9261.61
775.195	9216.64
775.53	9204.89
775.865	9192.23
776.2	9066.36
776.535	9053.48
776.87	8982.29
777.205	8965.12
777.539	8980.26
777.874	8980.94
778.209	8920.82
778.543	8889.19
778.878	8881.05
779.212	8832.69
779.547	8808.51
779.881	8855.06
780.215	8688.29
780.55	8722.19
780.884	8639.93
781.218	8631.57
781.552	8656.65
781.886	8610.1
782.22	8536.65
782.554	8514.73
782.888	8512.47
783.222	8386.15
783.556	8408.3
783.889	8438.8
784.223	8336.43
784.557	8266.15
784.89	8324.46
785.224	8277.45
785.557	8218.24
785.891	8180.51
786.224	8182.99
786.558	8142.31
786.891	8126.27
787.224	8091.47
787.557	8026.84
787.891	7990.45
788.224	8027.06
788.557	7982.54
788.89	7974.63
789.223	7940.74
789.556	7889.21
789.888	7845.37
790.221	7896.44
790.554	7784.81
790.887	7744.81
791.219	7800.63
791.552	7749.56
791.884	7728.99
792.217	7664.13
792.549	7648.99
792.882	7608.09
793.214	7523.8
793.546	7575.1
793.879	7533.06
794.211	7503.23
794.543	7524.25
794.875	7435.21
795.207	7468.66
795.539	7426.17
795.871	7427.76
796.203	7390.7
796.535	7331.04
796.867	7328.55
797.198	7290.81
797.53	7285.39
797.862	7207.2
798.193	7223.24
798.525	7156.58
798.856	7192.73
799.188	7102.79
799.519	7077.48
799.85	7032.06
800.182	7007.65
800.513	6995.45
800.844	6977.37
801.175	7049.01
801.506	7038.39
801.837	7005.85
802.168	6894.66
802.499	6910.93
802.83	6867.32
803.161	6896.92
803.491	6780.32
803.822	6886.53
804.153	6861.22
804.483	6792.29
804.814	6757.04
805.145	6763.14
805.475	6785.29
805.805	6713.2
806.136	6745.74
806.466	6705.74
806.796	6703.26
807.126	6632.98
807.457	6633.43
807.787	6574.22
808.117	6552.75
808.447	6585.52
808.777	6578.51
809.107	6500.32
809.436	6537.61
809.766	6534.22
810.096	6528.12
810.426	6438.86
810.755	6456.93
811.085	6449.93
811.414	6461.45
811.744	6358.63
812.073	6320.22
812.403	6338.97
812.732	6341.46
813.061	6325.41
813.39	6246.54
813.719	6210.16
814.049	6277.96
814.378	6276.37
814.707	6248.58
815.036	6172.42
815.365	6176.04
815.693	6147.34
816.022	6205.42
816.351	6148.24
816.68	6105.76
817.008	6168.13
817.337	6091.07
817.665	6059.88
817.994	6078.64
818.322	6089.94
818.651	6026.21
818.979	6025.99
819.307	6042.93
819.636	6023.95
819.964	5951.64
820.292	6023.73
820.62	6011.52
820.948	5977.17
821.276	5974.24
821.604	5944.86
821.932	5999.09
822.259	5987.12
822.587	5909.15
822.915	5968.36
823.243	5970.17
823.57	5988.47
823.898	5962.48
824.225	5937.4
824.553	5929.27
824.88	5951.41
825.207	5985.53
825.535	5970.39
825.862	5953.67
826.189	5938.76
826.516	5948.02
826.843	5996.38
827.17	5942.37
827.497	5929.27
827.824	5931.52
828.151	5977.63
828.478	5926.1
828.805	5949.6
829.131	5922.49
829.458	5940.11
829.785	5889.72
830.111	5906.89
830.438	5930.62
830.764	5935.14
831.09	5915.48
831.417	5873.67
831.743	5883.84
832.069	5905.76
832.395	5827.12
832.722	5924.97
833.048	5898.76
833.374	5883.16
833.7	5855.14
834.026	5848.36
834.351	5883.84
834.677	5813.56
835.003	5853.79
835.329	5802.94
835.654	5857.18
835.98	5786.67
836.306	5769.5
836.631	5813.79
836.956	5819.44
837.282	5824.41
837.607	5776.73
837.932	5763.39
838.258	5736.5
838.583	5815.14
838.908	5757.07
839.233	5683.85
839.558	5717.52
839.883	5722.94
840.208	5640.01
840.533	5675.49
840.858	5671.64
841.182	5652.66
841.507	5677.52
841.832	5639.33
842.156	5643.4
842.481	5613.57
842.805	5560.91
843.13	5564.08
843.454	5555.26
843.778	5530.86
844.103	5560.91
844.427	5505.77
844.751	5520.91
845.075	5491.08
845.399	5512.1
845.723	5476.17
846.047	5536.28
846.371	5430.3
846.695	5473.01
847.019	5395.04
847.343	5363.18
847.666	5347.36
847.99	5335.38
848.313	5314.82
848.637	5311.43
848.96	5253.58
849.284	5302.84
849.607	5225.55
849.931	5237.31
850.254	5146.01
850.577	5150.75
850.9	5165.44
851.223	5128.61
851.546	5100.81
851.869	5139.91
852.192	5127.93
852.515	5076.63
852.838	5058.1
853.161	5024.66
853.483	4984.88
853.806	5002.96
854.129	4986.92
854.451	4949.4
854.774	4926.58
855.096	4899.01
855.419	4913.47
855.741	4921.38
856.063	4879.58
856.385	4878.45
856.708	4905.79
857.03	4801.84
857.352	4826.7
857.674	4880.25
857.996	4808.62
858.318	4777.66
858.64	4787.6
858.961	4786.24
859.283	4791.67
859.605	4771.33
859.926	4719.58
860.248	4746.92
860.57	4728.62
860.891	4709.64
861.212	4665.12
861.534	4672.35
861.855	4668.06
862.176	4644.78
862.498	4647.94
862.819	4664.67
863.14	4616.08
863.461	4609.98
863.782	4627.6
864.103	4623.76
864.424	4555.29
864.745	4601.39
865.065	4616.53
865.386	4551.67
865.707	4564.56
866.027	4571.56
866.348	4573.14
866.668	4635.51
866.989	4579.7
867.309	4518.45
867.63	4532.24
867.95	4501.73
868.27	4475.52
868.59	4494.73
868.91	4519.81
869.23	4499.02
869.55	4408.63
869.87	4500.15
870.19	4510.55
870.51	4479.59
870.83	4519.36
871.15	4433.03
871.469	4497.21
871.789	4453.37
872.109	4447.95
872.428	4431.23
872.748	4429.64
873.067	4431
873.386	4407.05
873.706	4419.02
874.025	4379.25
874.344	4365.69
874.663	4393.49
874.982	4389.87
875.301	4361.62
875.62	4377.89
875.939	4340.83
876.258	4347.16
876.577	4371.79
876.896	4385.8
877.214	4308.06
877.533	4340.38
877.852	4307.16
878.17	4311.23
878.489	4281.62
878.807	4342.64
879.125	4302.42
879.444	4303.77
879.762	4292.7
880.08	4262.42
880.398	4309.87
880.716	4272.81
881.034	4249.76
881.352	4240.27
881.67	4218.58
881.988	4228.52
882.306	4245.47
882.624	4195.53
882.941	4223.55
883.259	4245.47
883.577	4210.44
883.894	4190.1
884.212	4200.95
884.529	4162.08
884.846	4190.33
885.164	4099.93
885.481	4118.47
885.798	4161.63
886.115	4119.14
886.432	4116.66
886.75	4112.82
887.067	4116.43
887.383	4104.68
887.7	4119.37
888.017	4088.18
888.334	4127.96
888.651	4087.73
888.967	4078.24
889.284	4073.04
889.6	4027.17
889.917	4019.03
890.233	4022.65
890.55	4013.61
890.866	3992.82
891.182	3963.67
891.498	3974.29
891.815	4006.6
892.131	3921.18
892.447	3928.41
892.763	3901.75
893.079	3904.91
893.395	3923.67
893.71	3892.48
894.026	3906.04
894.342	3878.25
894.657	3863.78
894.973	3817.23
895.289	3849.32
895.604	3841.41
895.92	3796.21
896.235	3819.49
896.55	3805.71
896.865	3778.59
897.181	3836.21
897.496	3779.49
897.811	3797.57
898.126	3760.28
898.441	3730.23
898.756	3725.48
899.071	3700.85
899.386	3715.54
899.7	3682.77
900.015	3645.71
900.33	3686.16
900.644	3665.37
900.959	3661.75
901.273	3647.29
901.588	3603.9
901.902	3594.41
902.216	3610.91
902.531	3578.59
902.845	3600.29
903.159	3605.94
903.473	3596.44
903.787	3532.72
904.101	3586.95
904.415	3534.07
904.729	3534.53
905.042	3519.61
905.356	3510.57
905.67	3484.58
905.984	3499.05
906.297	3473.28
906.611	3464.7
906.924	3461.76
907.237	3463.57
907.551	3410.46
907.864	3416.34
908.177	3390.35
908.491	3367.75
908.804	3348.32
909.117	3321.88
909.43	3376.79
909.743	3364.59
910.056	3336.11
910.368	3324.59
910.681	3297.02
910.994	3279.62
911.307	3278.26
911.619	3280.07
911.932	3294.08
912.244	3255.21
912.557	3250.92
912.869	3197.59
913.181	3198.94
913.494	3209.11
913.806	3167.76
914.118	3173.63
914.43	3181.99
914.742	3166.85
915.054	3136.8
915.366	3114.88
915.678	3151.94
915.99	3144.71
916.302	3097.93
916.613	3134.54
916.925	3115.33
917.236	3079.62
917.548	3081.43
917.859	3037.36
918.171	3023.13
918.482	3065.16
918.794	3015.67
919.105	3046.4
919.416	3009.12
919.727	2961.21
920.038	2968.89
920.349	2949.91
920.66	2950.59
920.971	2925.28
921.282	2923.02
921.593	2938.84
921.903	2919.17
922.214	2873.53
922.525	2893.64
922.835	2873.07
923.146	2882.57
923.456	2879.4
923.767	2829.91
924.077	2863.58
924.387	2808.9
924.697	2808.9
925.008	2806.41
925.318	2814.54
925.628	2793.3
925.938	2815.67
926.248	2778.84
926.558	2756.47
926.867	2750.14
927.177	2725.06
927.487	2728.9
927.796	2725.28
928.106	2683.7
928.416	2717.82
928.725	2696.81
929.034	2670.14
929.344	2671.72
929.653	2685.28
929.962	2663.59
930.271	2660.65
930.581	2633.08
930.89	2615.68
931.199	2598.51
931.508	2600.54
931.817	2611.39
932.125	2555.34
932.434	2591.95
932.743	2562.57
933.051	2552.4
933.36	2558.51
933.669	2525.29
933.977	2552.86
934.286	2539.75
934.594	2532.52
934.902	2541.78
935.21	2532.74
935.519	2477.38
935.827	2463.82
936.135	2458.4
936.443	2432.86
936.751	2450.49
937.059	2439.19
937.367	2431.05
937.674	2442.58
937.982	2428.79
938.29	2429.92
938.597	2418.4
938.905	2411.17
939.213	2369.81
939.52	2351.73
939.827	2380.88
940.135	2339.08
940.442	2334.33
940.749	2363.48
941.056	2359.64
941.363	2309.7
941.67	2280.55
941.977	2259.31
942.284	2259.98
942.591	2270.15
942.898	2255.69
943.205	2242.13
943.511	2250.27
943.818	2253.88
944.125	2242.81
944.431	2211.85
944.738	2247.78
945.044	2214.56
945.35	2198.29
945.657	2212.07
945.963	2203.49
946.269	2206.88
946.575	2194.45
946.881	2156.48
947.187	2169.82
947.493	2154
947.799	2130.49
948.105	2133.66
948.41	2130.49
948.716	2104.05
949.022	2092.76
949.327	2138.86
949.633	2114.9
949.938	2088.91
950.244	2131.17
950.549	2098.63
950.854	2067.67
951.16	2065.19
951.465	2037.84
951.77	2053.66
952.075	2059.76
952.38	2037.62
952.685	2006.2
952.99	2033.1
953.294	2036.71
953.599	2019.09
953.904	2024.96
954.209	1992.19
954.513	1972.76
954.818	1980.67
955.122	1993.78
955.426	1972.31
955.731	1955.58
956.035	1947.9
956.339	1919.65
956.643	1927.56
956.948	1937.28
957.252	1904.29
957.556	1878.07
957.86	1910.16
958.163	1929.37
958.467	1888.92
958.771	1882.59
959.075	1883.27
959.378	1881.69
959.682	1892.08
959.985	1869.48
960.289	1832.2
960.592	1869.03
960.896	1855.25
961.199	1831.29
961.502	1822.03
961.805	1822.71
962.108	1788.58
962.411	1807.79
962.714	1793.78
963.017	1792.88
963.32	1826.55
963.623	1787.9
963.926	1804.4
964.228	1781.58
964.531	1769.15
964.833	1749.49
965.136	1751.52
965.438	1754.69
965.741	1729.38
966.043	1717.17
966.345	1739.77
966.648	1707.91
966.95	1728.7
967.252	1705.87
967.554	1723.27
967.856	1710.39
968.158	1675.59
968.46	1707.68
968.761	1673.11
969.063	1657.29
969.365	1657.06
969.666	1660.9
969.968	1648.25
970.269	1689.6
970.571	1668.59
970.872	1625.65
971.174	1651.86
971.475	1623.84
971.776	1620.23
972.077	1634.46
972.378	1608.93
972.679	1592.88
972.98	1604.18
973.281	1603.5
973.582	1594.01
973.883	1576.16
974.183	1580.23
974.484	1565.99
974.785	1570.74
975.085	1556.05
975.386	1556.05
975.686	1565.99
975.986	1516.95
976.287	1541.36
976.587	1530.51
976.887	1529.15
977.187	1519.21
977.487	1519.21
977.787	1519.89
978.087	1508.36
978.387	1469.95
978.687	1492.32
978.987	1516.95
979.286	1476.05
979.586	1461.81
979.885	1512.43
980.185	1470.17
980.484	1472.66
980.784	1472.89
981.083	1450.06
981.382	1450.96
981.682	1448.03
981.981	1423.39
982.28	1443.96
982.579	1403.28
982.878	1420.91
983.177	1432.21
983.475	1407.58
983.774	1408.48
984.073	1397.18
984.372	1386.11
984.67	1421.59
984.969	1398.08
985.267	1387.69
985.566	1394.02
985.864	1354.92
986.162	1370.74
986.461	1364.19
986.759	1370.51
987.057	1334.81
987.355	1349.5
987.653	1354.02
987.951	1345.2
988.249	1331.19
988.547	1342.04
988.844	1300.69
989.142	1291.87
989.44	1302.04
989.737	1310.4
990.035	1332.32
990.332	1306.11
990.63	1288.94
990.927	1286.22
991.224	1277.41
991.521	1286.9
991.819	1268.6
992.116	1279.22
992.413	1272.66
992.71	1255.94
993.006	1238.99
993.303	1268.14
993.6	1243.29
993.897	1245.55
994.193	1263.62
994.49	1229.95
994.787	1243.74
995.083	1232.44
995.379	1198.54
995.676	1223.63
995.972	1192.67
996.268	1201.25
996.565	1175.49
996.861	1205.1
997.157	1173.68
997.453	1183.4
997.749	1193.57
998.044	1172.78
998.34	1177.53
998.636	1149.96
998.932	1176.4
999.227	1159.45
999.523	1124.65
999.818	1147.24
1000.114	1156.28
1000.409	1137.07
1000.704	1149.96
1001	1129.84
1001.295	1125.1
1001.59	1102.5
1001.885	1119.9
1002.18	1114.48
1002.475	1085.78
1002.77	1088.49
1003.065	1105.44
1003.359	1107.24
1003.654	1081.26
1003.949	1067.92
1004.243	1067.02
1004.538	1078.55
1004.832	1053.69
1005.127	1053.01
1005.421	1038.32
1005.715	1051.88
1006.009	1058.21
1006.304	1033.12
1006.598	1028.83
1006.892	1034.48
1007.186	1024.76
1007.48	1018.21
1007.773	1028.6
1008.067	1022.05
1008.361	1016.17
1008.655	1015.04
1008.948	989.06
1009.242	1002.84
1009.535	982.73
1009.829	1002.39
1010.122	984.54
1010.415	983.63
1010.708	964.65
1011.001	964.65
1011.295	961.26
1011.588	957.42
1011.881	946.57
1012.173	956.51
1012.466	980.24
1012.759	930.07
1013.052	922.62
1013.344	929.62
1013.637	912.9
1013.93	908.38
1014.222	893.69
1014.514	933.01
1014.807	922.39
1015.099	917.65
1015.391	910.87
1015.683	901.6
1015.976	894.82
1016.268	890.3
1016.56	877.65
1016.851	883.3
1017.143	875.39
1017.435	867.48
1017.727	866.35
1018.018	848.49
1018.31	867.93
1018.602	843.3
1018.893	850.98
1019.185	851.43
1019.476	843.52
1019.767	826.8
1020.058	839.91
1020.35	836.07
1020.641	855.05
1020.932	835.61
1021.223	845.78
1021.514	824.54
1021.804	824.09
1022.095	772.56
1022.386	810.3
1022.677	801.26
1022.967	814.6
1023.258	795.39
1023.548	795.16
1023.839	758.33
1024.129	783.19
1024.419	760.59
1024.709	761.27
1025	766.69
1025.29	769.17
1025.58	760.14
1025.87	764.2
1026.16	758.78
1026.449	743.86
1026.739	752.45
1027.029	741.6
1027.319	756.07
1027.608	737.99
1027.898	742.51
1028.187	723.98
1028.477	743.19
1028.766	713.58
1029.055	715.39
1029.344	709.29
1029.634	710.19
1029.923	680.59
1030.212	703.64
1030.501	676.3
1030.79	709.52
1031.078	697.76
1031.367	687.82
1031.656	684.88
1031.945	666.13
1032.233	683.3
1032.522	679.46
1032.81	669.06
1033.099	669.06
1033.387	665.9
1033.675	660.93
1033.963	661.83
1034.251	672.68
1034.54	689.4
1034.828	643.08
1035.116	633.36
1035.403	631.1
1035.691	644.21
1035.979	618.22
1036.267	636.97
1036.554	631.33
1036.842	645.56
1037.129	629.29
1037.417	635.17
1037.704	625.45
1037.992	626.35
1038.279	609.4
1038.566	629.74
1038.853	629.74
1039.14	629.74
