Data from tablewood_dark_bookshelf_FLMS001491_00082.txt Node
Date: Wed Feb 08 14:15:49 GMT 2017
User: dcchb
Spectrometer: FLMS00149
Trigger mode: 0
Integration Time (sec): 2.000000E-2
Scans to average: 10
Electric dark correction enabled: true
Nonlinearity correction enabled: false
Boxcar width: 0
XAxis mode: Wavelengths
Number of Pixels in Spectrum: 2048
>>>>>Begin Spectral Data<<<<<
341.393	-25.83
341.776	-25.83
342.16	-25.83
342.543	-54.53
342.927	-81.65
343.31	-69.9
343.693	-89.56
344.077	-45.27
344.46	-65.83
344.843	-49.11
345.226	-18.38
345.61	-38.94
345.993	-17.7
346.376	17.33
346.759	16.65
347.142	13.71
347.525	50.32
347.908	51.45
348.291	76.99
348.674	74.05
349.057	94.16
349.44	118.8
349.823	140.72
350.206	161.51
350.588	190.21
350.971	197.66
351.354	221.39
351.737	234.05
352.119	243.76
352.502	266.36
352.884	268.85
353.267	253.26
353.65	270.88
354.032	288.96
354.414	291.22
354.797	304.55
355.179	325.8
355.562	309.3
355.944	314.95
356.326	321.28
356.709	330.77
357.091	365.34
357.473	340.49
357.855	341.39
358.238	329.19
358.62	327.6
359.002	342.07
359.384	335.29
359.766	318.34
360.148	335.29
360.53	331.22
360.912	328.28
361.294	348.39
361.676	364.21
362.057	311.33
362.439	331.45
362.821	314.95
363.203	326.47
363.584	336.42
363.966	335.74
364.348	320.37
364.729	320.82
365.111	315.63
365.493	317.89
365.874	321.5
366.256	319.24
366.637	303.65
367.019	318.34
367.4	335.06
367.781	321.95
368.163	336.42
368.544	312.24
368.925	298.68
369.306	305.46
369.688	323.54
370.069	310.88
370.45	324.21
370.831	315.18
371.212	318.57
371.593	325.57
371.974	350.2
372.355	307.72
372.736	332.8
373.117	332.8
373.498	346.81
373.879	330.09
374.26	331.45
374.641	327.15
375.021	331.45
375.402	342.52
375.783	350.2
376.163	347.26
376.544	342.52
376.925	344.1
377.305	335.97
377.686	370.77
378.066	348.85
378.447	370.54
378.827	338.23
379.208	337.32
379.588	347.49
379.968	354.72
380.349	345.91
380.729	375.06
381.109	344.33
381.489	364.44
381.87	369.41
382.25	361.5
382.63	380.48
383.01	356.3
383.39	361.05
383.77	354.5
384.15	381.84
384.53	370.54
384.91	397.66
385.29	398.34
385.67	399.47
386.049	370.32
386.429	397.43
386.809	388.85
387.189	394.5
387.568	406.02
387.948	378.68
388.328	399.69
388.707	384.1
389.087	400.37
389.466	406.7
389.846	422.07
390.225	410.09
390.605	416.19
390.984	443.53
391.363	415.74
391.743	409.41
392.122	433.59
392.501	420.03
392.881	427.49
393.26	401.95
393.639	439.01
394.018	432.46
394.397	441.27
394.776	411.22
395.155	432.23
395.534	448.51
395.913	439.69
396.292	453.02
396.671	476.08
397.05	437.21
397.429	464.1
397.808	458.9
398.186	472.23
398.565	474.72
398.944	462.29
399.323	472.01
399.701	464.32
400.08	482.18
400.458	489.86
400.837	478.79
401.215	488.5
401.594	481.27
401.972	479.92
402.351	499.35
402.729	493.48
403.107	495.06
403.486	509.97
403.864	502.97
404.242	514.72
404.62	521.05
404.999	527.37
405.377	531.67
405.755	523.08
406.133	515.62
406.511	541.61
406.889	541.16
407.267	541.16
407.645	544.32
408.023	559.46
408.401	563.53
408.779	593.59
409.156	558.56
409.534	592
409.912	549.07
410.29	561.04
410.667	587.03
411.045	593.81
411.422	590.87
411.8	603.53
412.178	605.11
412.555	601.27
412.933	645.56
413.31	626.35
413.687	636.52
414.065	641.04
414.442	662.51
414.819	632.23
415.197	648.05
415.574	660.48
415.951	663.87
416.328	674.49
416.705	697.54
417.082	674.26
417.46	679.69
417.837	685.11
418.214	695.73
418.591	700.7
418.967	700.93
419.344	716.29
419.721	718.55
420.098	705.22
420.475	714.94
420.852	731.21
421.228	731.66
421.605	742.06
421.982	738.44
422.358	754.71
422.735	756.97
423.111	774.37
423.488	786.58
423.864	790.64
424.241	805.78
424.617	806.01
424.994	802.62
425.37	789.06
425.746	819.57
426.123	823.18
426.499	810.53
426.875	804.2
427.251	831.09
427.627	837.2
428.003	858.44
428.379	868.83
428.756	875.84
429.132	880.81
429.507	866.57
429.883	927.81
430.259	909.28
430.635	922.84
431.011	935.95
431.387	958.32
431.763	958.77
432.138	963.29
432.514	994.03
432.89	981.15
433.265	1002.16
433.641	1009.17
434.016	1012.33
434.392	1024.31
434.767	1056.85
435.143	1047.13
435.518	1042.39
435.894	1053.46
436.269	1062.5
436.644	1085.32
437.02	1100.69
437.395	1095.72
437.77	1112.22
438.145	1109.5
438.52	1133.91
438.895	1155.38
439.271	1143.4
439.646	1178.43
440.021	1155.83
440.395	1186.11
440.77	1181.82
441.145	1187.02
441.52	1183.63
441.895	1210.52
442.27	1228.37
442.645	1218.43
443.019	1259.78
443.394	1252.33
443.769	1247.81
444.143	1265.66
444.518	1245.55
444.892	1249.16
445.267	1262.04
445.641	1289.16
446.016	1287.35
446.39	1269.73
446.764	1312.66
447.139	1332.55
447.513	1300.23
447.887	1307.24
448.262	1339.56
448.636	1324.87
449.01	1361.48
449.384	1379.78
449.758	1366.9
450.132	1384.53
450.506	1389.5
450.88	1426.78
451.254	1396.95
451.628	1418.65
452.002	1443.51
452.376	1476.95
452.75	1482.38
453.123	1453.45
453.497	1499.1
453.871	1512.88
454.244	1525.09
454.618	1514.47
454.992	1563.28
455.365	1604.41
455.739	1619.1
456.112	1628.36
456.486	1624.97
456.859	1638.98
457.232	1672.65
457.606	1685.31
457.979	1678.98
458.352	1738.64
458.725	1734.35
459.099	1780
459.472	1779.54
459.845	1778.64
460.218	1816.83
460.591	1845.76
460.964	1851.18
461.337	1884.63
461.71	1909.48
462.083	1934.57
462.456	1943.16
462.829	1966.88
463.201	1961.23
463.574	1977.96
463.947	2009.14
464.32	2071.74
464.692	2085.52
465.065	2091.17
465.438	2128.24
465.81	2152.42
466.183	2165.07
466.555	2199.65
466.928	2200.78
467.3	2233.32
467.672	2267.21
468.045	2312.64
468.417	2273.54
468.789	2319.64
469.161	2369.81
469.534	2403.03
469.906	2462.69
470.278	2429.02
470.65	2483.71
471.022	2527.77
471.394	2569.81
471.766	2591.05
472.138	2635.11
472.51	2665.85
472.882	2722.12
473.253	2739.52
473.625	2793.08
473.997	2812.06
474.369	2800.99
474.74	2851.38
475.112	2938.16
475.484	2967.99
475.855	3031.49
476.227	3067.65
476.598	3096.35
476.97	3124.82
477.341	3189.68
477.713	3260.63
478.084	3266.96
478.455	3389.67
478.827	3385.38
479.198	3488.2
479.569	3498.82
479.94	3610
480.311	3656.56
480.682	3647.97
481.053	3743.11
481.424	3798.7
481.795	3873.5
482.166	3917.57
482.537	3951.01
482.908	4041.41
483.279	4084.34
483.65	4157.33
484.021	4217.45
484.391	4267.61
484.762	4269.65
485.133	4349.42
485.503	4399.81
485.874	4473.71
486.244	4569.98
486.615	4612.01
486.985	4675.06
487.356	4712.8
487.726	4755.28
488.097	4906.47
488.467	4922.96
488.837	4989.18
489.207	5049.06
489.578	5089.74
489.948	5174.03
490.318	5233.24
490.688	5270.75
491.058	5361.37
491.428	5399.11
491.798	5463.97
492.168	5569.27
492.538	5639.78
492.908	5618.99
493.278	5702.38
493.648	5732.43
494.017	5801.58
494.387	5856.95
494.757	5887.91
495.126	5955.7
495.496	5999.77
495.866	6001.13
496.235	6076.61
496.605	6170.61
496.974	6220.56
497.344	6301.46
497.713	6266.88
498.082	6343.27
498.452	6368.8
498.821	6451.96
499.19	6467.33
499.559	6552.98
499.928	6567.67
500.298	6618.51
500.667	6654.44
501.036	6674.56
501.405	6725.4
501.774	6698.06
502.143	6818.73
502.512	6935.79
502.88	6902.35
503.249	6921.33
503.618	6987.77
503.987	6995.23
504.356	7136.69
504.724	7117.93
505.093	7162.9
505.462	7211.27
505.83	7300.98
506.199	7300.75
506.567	7434.76
506.936	7451.71
507.304	7486.51
507.672	7626.62
508.041	7575.32
508.409	7682.67
508.777	7712.04
509.145	7717.01
509.514	7790.68
509.882	7853.06
510.25	7894.86
510.618	7944.35
510.986	7956.33
511.354	8062.54
511.722	8151.13
512.09	8184.35
512.458	8186.61
512.826	8309.32
513.193	8347.73
513.561	8354.96
513.929	8416.43
514.297	8476.54
514.664	8630.44
515.032	8627.73
515.4	8674.05
515.767	8717.67
516.135	8732.13
516.502	8743.65
516.869	8908.17
517.237	8954.95
517.604	8950.2
517.972	9081.72
518.339	9164.21
518.706	9070.88
519.073	9173.7
519.44	9296.41
519.808	9393.35
520.175	9446.23
520.542	9484.2
520.909	9542.73
521.276	9585.89
521.643	9713.8
522.009	9757.41
522.376	9811.2
522.743	9844.87
523.11	9950.18
523.477	10046.67
523.843	10146.56
524.21	10259.09
524.577	10339.54
524.943	10327.12
525.31	10464.74
525.676	10496.38
526.043	10614.34
526.409	10658.63
526.776	10776.14
527.142	10836.03
527.508	10896.14
527.874	10927.33
528.241	11033.76
528.607	11048
528.973	11167.77
529.339	11218.17
529.705	11323.93
530.071	11443.24
530.437	11410.02
530.803	11511.49
531.169	11546.52
531.535	11593.3
531.901	11634.65
532.267	11697.47
532.632	11809.79
532.998	11860.18
533.364	11883.01
533.73	11909.67
534.095	11985.83
534.461	12070.57
534.826	12182.66
535.192	12203.22
535.557	12351.02
535.923	12308.98
536.288	12381.75
536.653	12459.71
537.019	12428.53
537.384	12503.1
537.749	12536.77
538.114	12584.23
538.479	12583.78
538.845	12674.4
539.21	12683.21
539.575	12694.06
539.94	12752.81
540.305	12912.13
540.67	12913.94
541.034	12916.2
541.399	13010.43
541.764	13085.24
542.129	13056.31
542.494	13128.62
542.858	13190.09
543.223	13234.38
543.587	13241.39
543.952	13232.8
544.316	13323.87
544.681	13268.51
545.045	13390.54
545.41	13510.76
545.774	13540.59
546.138	13532.45
546.503	13605.22
546.867	13581.27
547.231	13835.05
547.595	13765.9
547.959	13781.04
548.324	13813.13
548.688	13867.36
549.052	13881.37
549.416	14013.35
549.779	13974.25
550.143	14071.88
550.507	14160.69
550.871	14119.78
551.235	14199.78
551.599	14223.06
551.962	14338.76
552.326	14432.09
552.689	14489.49
553.053	14404.52
553.417	14552.99
553.78	14691.52
554.143	14617.85
554.507	14765.19
554.87	14744.85
555.234	14875.7
555.597	14853.1
555.96	14898.52
556.323	15031.62
556.686	15009.93
557.05	15104.62
557.413	15150.27
557.776	15279.75
558.139	15349.36
558.502	15373.08
558.865	15466.64
559.228	15535.79
559.59	15496.02
559.953	15624.6
560.316	15840.87
560.679	15786.86
561.041	15843.35
561.404	15912.96
561.767	16092.16
562.129	16068.21
562.492	16132.16
562.854	16267.98
563.217	16295.77
563.579	16355.88
563.941	16501.64
564.304	16550.91
564.666	16674.75
565.028	16721.75
565.39	16837.23
565.753	16808.98
566.115	16977.79
566.477	17017.34
566.839	17077.67
567.201	17168.97
567.563	17287.16
567.925	17329.87
568.287	17253.26
568.648	17465.01
569.01	17490.99
569.372	17691.89
569.734	17610.09
570.095	17690.99
570.457	17786.13
570.819	17927.14
571.18	17897.99
571.542	17909.51
571.903	18156.74
572.265	18109.51
572.626	18189.96
572.987	18264.31
573.349	18433.57
573.71	18401.71
574.071	18512.66
574.432	18555.15
574.794	18653.68
575.155	18613.68
575.516	18624.52
575.877	18747.46
576.238	18776.61
576.599	18897.74
576.96	18939.77
577.32	18845.31
577.681	19086.43
578.042	19083.04
578.403	19190.16
578.763	19068.13
579.124	19263.15
579.485	19289.37
579.845	19439.87
580.206	19306.54
580.566	19314.45
580.927	19427.22
581.287	19551.51
581.648	19524.16
582.008	19561.67
582.368	19537.95
582.728	19588.34
583.089	19558.51
583.449	19625.85
583.809	19707.21
584.169	19730.71
584.529	19694.55
584.889	19751.05
585.249	19609.81
585.609	19617.27
585.969	19981.32
586.329	19882.8
586.688	20020.87
587.048	19983.81
587.408	19923.7
587.768	19986.52
588.127	20034.2
588.487	20001.44
588.846	20108.33
589.206	20025.62
589.565	20015.67
589.925	20201.21
590.284	20114.2
590.643	20140.42
591.003	20242.56
591.362	20236.91
591.721	20179.29
592.08	20237.14
592.44	20261.54
592.799	20289.57
593.158	20256.35
593.517	20294.09
593.876	20308.32
594.235	20288.21
594.593	20355.55
594.952	20587.64
595.311	20455.21
595.67	20504.25
596.029	20572.27
596.387	20638.48
596.746	20639.61
597.104	20514.19
597.463	20643.23
597.822	20676.67
598.18	20569.78
598.538	20577.02
598.897	20744.02
599.255	20515.32
599.613	20925.93
599.972	20796.67
600.33	20855.65
600.688	20770.46
601.046	20857.46
601.404	20869.44
601.762	20946.95
602.12	20974.97
602.478	21056.55
602.836	20952.15
603.194	20967.29
603.552	20993.28
603.91	20972.49
604.268	21070.34
604.625	21102.43
604.983	21151.69
605.341	21087.96
605.698	21087.28
606.056	21252.25
606.413	21227.17
606.771	21255.42
607.128	21283.21
607.485	21232.82
607.843	21250.22
608.2	21254.51
608.557	21498.57
608.914	21455.86
609.272	21481.62
609.629	21541.28
609.986	21584.45
610.343	21508.97
610.7	21688.62
611.057	21589.87
611.414	21730.88
611.771	21648.17
612.127	21847.49
612.484	21769.98
612.841	21882.52
613.198	21751.67
613.554	21782.63
613.911	21885.68
614.267	21950.54
614.624	21934.72
614.98	21986.02
615.337	22116.18
615.693	21938.11
616.05	22034.83
616.406	22111.44
616.762	22046.36
617.118	22070.54
617.475	22032.57
617.831	22216.52
618.187	22192.57
618.543	22210.87
618.899	22340.13
619.255	22283.19
619.611	22232.34
619.967	22348.27
620.323	22280.25
620.678	22221.49
621.034	22228.05
621.39	22220.36
621.746	22266.91
622.101	22439.11
622.457	22201.15
622.812	22408.83
623.168	22428.94
623.523	22409.96
623.879	22517.3
624.234	22351.66
624.589	22488.6
624.945	22363.64
625.3	22513.01
625.655	22411.32
626.01	22418.77
626.365	22409.96
626.72	22513.46
627.075	22411.32
627.43	22329.96
627.785	22392.56
628.14	22334.94
628.495	22438.66
628.85	22333.81
629.205	22242.73
629.559	22386.46
629.914	22335.16
630.269	22230.98
630.623	22186.46
630.978	22172.23
631.332	22317.08
631.687	22282.73
632.041	22230.31
632.396	22172
632.75	22128.61
633.104	22096.52
633.459	22068.05
633.813	22120.93
634.167	22067.15
634.521	22145.79
634.875	22126.13
635.229	22062.17
635.583	21885.68
635.937	21899.47
636.291	21915.96
636.645	21890.43
636.999	21913.93
637.352	21914.61
637.706	21829.41
638.06	21965
638.413	21863.99
638.767	21776.76
639.121	21755.06
639.474	21701.51
639.828	21693.14
640.181	21720.94
640.534	21803.65
640.888	21658.57
641.241	21527.5
641.594	21682.52
641.947	21638.68
642.301	21588.51
642.654	21612.69
643.007	21663.54
643.36	21573.83
643.713	21586.03
644.066	21569.31
644.419	21563.43
644.771	21239.14
645.124	21148.3
645.477	21127.51
645.83	21005.48
646.182	20858.59
646.535	20719.16
646.888	20702.44
647.24	20677.13
647.593	20767.74
647.945	20704.24
648.298	20653.4
648.65	20604.36
649.002	20522.33
649.355	20699.95
649.707	20767.74
650.059	20864.47
650.411	21003.9
650.763	21081.41
651.115	21315.3
651.467	21224.23
651.819	21219.48
652.171	21089.09
652.523	21093.39
652.875	21097.45
653.227	20912.15
653.578	21058.36
653.93	21032.14
654.282	20927.97
654.633	20865.14
654.985	20949.66
655.337	20997.57
655.688	20823.79
656.039	20959.15
656.391	20876.89
656.742	20843
657.094	20861.3
657.445	20877.35
657.796	20941.75
658.147	20818.59
658.498	20765.94
658.849	20935.65
659.2	20816.33
659.551	20800.96
659.902	20830.34
660.253	20777.46
660.604	20915.09
660.955	20734.98
661.306	20749.44
661.656	20805.03
662.007	20831.02
662.358	20806.84
662.708	20737.69
663.059	20725.71
663.409	20680.29
663.76	20728.88
664.11	20755.99
664.461	20725.03
664.811	20799.61
665.161	20792.15
665.511	20681.19
665.862	20733.17
666.212	20800.06
666.562	20808.65
666.912	20609.11
667.262	20650.46
667.612	20608.65
667.962	20613.17
668.312	20746.28
668.662	20831.92
669.011	20653.4
669.361	20705.6
669.711	20668.99
670.06	20619.05
670.41	20610.01
670.76	20580.63
671.109	20651.59
671.459	20626.05
671.808	20512.38
672.157	20602.33
672.507	20513.97
672.856	20623.57
673.205	20567.07
673.554	20657.47
673.904	20499.05
674.253	20589.22
674.602	20605.72
674.951	20158.04
675.3	20187.65
675.649	20492.95
675.998	20445.04
676.346	20452.72
676.695	20572.04
677.044	20358.26
677.393	20508.09
677.741	20424.7
678.09	20313.29
678.438	20196.69
678.787	20277.81
679.135	20459.28
679.484	20275.55
679.832	20332.5
680.181	20213.18
680.529	20224.48
680.877	20197.36
681.225	20191.71
681.573	20225.61
681.922	20134.54
682.27	20109.91
682.618	20112.62
682.966	20066.97
683.314	19996.01
683.661	19947.43
684.009	19895.23
684.357	19887.77
684.705	19944.72
685.053	19958.05
685.4	19727.32
685.748	19775.45
686.095	19708.79
686.443	19729.13
686.79	19676.7
687.138	19657.94
687.485	19673.08
687.832	19580.66
688.18	19524.39
688.527	19555.12
688.874	19539.98
689.221	19470.38
689.568	19434.45
689.915	19375.24
690.262	19330.49
690.609	19356.93
690.956	19191.74
691.303	19257.05
691.65	19113.55
691.997	19178.41
692.344	18970.73
692.69	18984.29
693.037	19028.13
693.383	18816.84
693.73	18923.95
694.077	18751.98
694.423	18900.9
694.769	18767.12
695.116	18687.35
695.462	18701.58
695.808	18561.93
696.155	18671.98
696.501	18474.92
696.847	18443.96
697.193	18294.59
697.539	18354.93
697.885	18283.06
698.231	18241.48
698.577	18226.34
698.923	18217.53
699.269	18082.39
699.614	18005.11
699.96	17959.01
700.306	17989.06
700.651	17901.61
700.997	17883.53
701.342	17785.45
701.688	17752.23
702.033	17753.13
702.379	17789.29
702.724	17585.46
703.069	17707.03
703.415	17515.85
703.76	17665.45
704.105	17508.4
704.45	17413.26
704.795	17400.6
705.14	17339.81
705.485	17318.34
705.83	17324.9
706.175	17409.42
706.52	17175.52
706.865	17188.63
707.209	17176.2
707.554	17119.03
707.899	17167.16
708.243	17011.01
708.588	16971.23
708.932	16835.42
709.277	16784.8
709.621	16890.56
709.966	16722.43
710.31	16774.63
710.654	16676.1
710.998	16714.52
711.342	16669.32
711.687	16565.14
712.031	16688.76
712.375	16461.87
712.719	16568.99
713.063	16531.92
713.407	16570.12
713.75	16413.06
714.094	16432.94
714.438	16392.04
714.782	16394.98
715.125	16392.72
715.469	16416.45
715.812	16188.66
716.156	16131.93
716.499	16185.72
716.843	16209.45
717.186	16181.88
717.53	16169
717.873	16210.35
718.216	16069.34
718.559	16067.53
718.902	16003.12
719.246	16011.94
719.589	15977.36
719.932	15897.36
720.275	15949.57
720.617	15933.52
720.96	15887.65
721.303	15940.3
721.646	15892.84
721.989	15935.33
722.331	15850.36
722.674	15776.24
723.016	15780.31
723.359	15786.86
723.701	15761.32
724.044	15718.61
724.386	15651.04
724.729	15671.61
725.071	15620.31
725.413	15644.26
725.755	15651.04
726.097	15556.81
726.439	15453.76
726.782	15472.52
727.124	15503.02
727.465	15431.84
727.807	15397.49
728.149	15429.58
728.491	15417.6
728.833	15411.73
729.175	15314.33
729.516	15359.3
729.858	15372.18
730.199	15357.72
730.541	15304.84
730.882	15318.17
731.224	15333.76
731.565	15190.26
731.906	15218.29
732.248	15274.78
732.589	15209.7
732.93	15219.87
733.271	15207.44
733.612	15169.02
733.953	15143.26
734.294	15081.57
734.635	15098.29
734.976	15153.66
735.317	15123.15
735.658	15033.88
735.999	15065.52
736.339	14982.36
736.68	15076.6
737.021	15004.73
737.361	14871.63
737.702	15074.34
738.042	14930.84
738.383	14915.47
738.723	14982.13
739.063	14916.83
739.404	14917.5
739.744	14834.12
740.084	14787.79
740.424	14877.5
740.764	14839.77
741.104	14888.13
741.444	14792.99
741.784	14699.43
742.124	14877.5
742.464	14840.67
742.804	14726.32
743.143	14785.3
743.483	14801.35
743.823	14744.63
744.162	14717.06
744.502	14674.57
744.841	14639.54
745.181	14661.69
745.52	14579.21
745.86	14680.67
746.199	14623.27
746.538	14578.98
746.877	14609.04
747.216	14670.96
747.556	14590.05
747.895	14534.46
748.234	14507.34
748.573	14462.37
748.911	14486.78
749.25	14341.02
749.589	14364.07
749.928	14447.69
750.267	14446.78
750.605	14426.67
750.944	14359.33
751.283	14319.33
751.621	14280.68
751.96	14277.75
752.298	14285.43
752.636	14288.14
752.975	14252.66
753.313	14211.08
753.651	14280.23
753.989	14135.83
754.327	14123.63
754.666	14045.89
755.004	14109.61
755.342	14080.01
755.679	14052.44
756.017	14010.18
756.355	13972.67
756.693	14003.18
757.031	14021.03
757.368	13838.89
757.706	13836.4
758.044	13802.28
758.381	13888.6
758.719	13700.36
759.056	13714.37
759.394	13646.8
759.731	13613.13
760.068	13614.71
760.405	13596.63
760.743	13492.23
761.08	13535.62
761.417	13503.08
761.754	13434.83
762.091	13325.91
762.428	13321.61
762.765	13278
763.102	13408.16
763.438	13228.96
763.775	13230.99
764.112	13139.02
764.449	13195.51
764.785	13107.83
765.122	13044.56
765.458	13071.68
765.795	13001.62
766.131	13005.24
766.467	12932.7
766.804	12845.69
767.14	12906.26
767.476	12784
767.812	12746.71
768.148	12737
768.485	12643.66
768.821	12552.37
769.157	12589.43
769.492	12475.08
769.828	12500.17
770.164	12352.6
770.5	12422.65
770.836	12395.08
771.171	12224.24
771.507	12298.14
771.842	12198.03
772.178	12215.88
772.513	12131.14
772.849	12153.28
773.184	12056.11
773.519	12067.86
773.855	11987.64
774.19	11910.58
774.525	11927.3
774.86	11868.09
775.195	11906.06
775.53	11822.22
775.865	11762.56
776.2	11696.35
776.535	11597.59
776.87	11569.79
777.205	11555.11
777.539	11543.58
777.874	11506.97
778.209	11404.6
778.543	11397.6
778.878	11332.74
779.212	11329.35
779.547	11230.59
779.881	11264.49
780.215	11195.57
780.55	11212.52
780.884	11144.04
781.218	11095.46
781.552	11031.96
781.886	10981.34
782.22	10997.83
782.554	10904.05
782.888	10820.66
783.222	10814.79
783.556	10765.3
783.889	10744.05
784.223	10704.05
784.557	10573.44
784.89	10698.63
785.224	10600.33
785.557	10552.42
785.891	10471.52
786.224	10527.79
786.558	10504.74
786.891	10331.18
787.224	10392.88
787.557	10347.68
787.891	10357.17
788.224	10292.77
788.557	10260.22
788.89	10271.52
789.223	10199.44
789.556	10167.35
789.888	10159.66
790.221	9991.76
790.554	9940.46
790.887	10014.58
791.219	9947.46
791.552	9918.76
791.884	9918.09
792.217	9808.26
792.549	9813.23
792.882	9807.81
793.214	9708.37
793.546	9749.5
793.879	9702.95
794.211	9566.46
794.543	9613.46
794.875	9622.05
795.207	9654.14
795.539	9507.25
795.871	9462.51
796.203	9438.1
796.535	9392
796.867	9425.44
797.198	9355.84
797.53	9326.01
797.862	9273.81
798.193	9321.27
798.525	9234.04
798.856	9250.76
799.188	9119.01
799.519	9091.22
799.85	9142.06
800.182	9070.43
800.513	9078.56
800.844	9022.97
801.175	9113.81
801.506	9023.87
801.837	8943.88
802.168	8923.54
802.499	8962.86
802.83	8851.22
803.161	8817.78
803.491	8843.54
803.822	8878.79
804.153	8811.9
804.483	8694.39
804.814	8752.24
805.145	8655.75
805.475	8676.54
805.805	8612.81
806.136	8604
806.466	8615.52
806.796	8614.39
807.126	8535.52
807.457	8504.79
807.787	8482.42
808.117	8482.19
808.447	8473.38
808.777	8495.07
809.107	8481.97
809.436	8364.91
809.766	8382.53
810.096	8287.62
810.426	8237
810.755	8250.11
811.085	8284.01
811.414	8254.18
811.744	8243.78
812.073	8189.09
812.403	8225.48
812.732	8156.78
813.061	8152.26
813.39	8115.65
813.719	8008.76
814.049	8070.45
814.378	8062.77
814.707	8004.69
815.036	7930.57
815.365	7965.82
815.693	7881.98
816.022	7865.49
816.351	7847.63
816.68	7861.87
817.008	7881.76
817.337	7803.57
817.665	7776.9
817.994	7835.2
818.322	7735.32
818.651	7715.88
818.979	7707.75
819.307	7780.06
819.636	7705.72
819.964	7687.18
820.292	7698.03
820.62	7713.17
820.948	7674.98
821.276	7722.66
821.604	7683.8
821.932	7697.35
822.259	7679.05
822.587	7711.14
822.915	7698.94
823.243	7686.51
823.57	7684.02
823.898	7634.3
824.225	7583.91
824.553	7646.96
824.88	7642.21
825.207	7634.08
825.535	7584.81
825.862	7677.02
826.189	7604.7
826.516	7604.25
826.843	7642.44
827.17	7607.19
827.497	7648.32
827.824	7661.42
828.151	7659.84
828.478	7587.75
828.805	7656.68
829.131	7528.09
829.458	7579.62
829.785	7584.14
830.111	7577.36
830.438	7611.25
830.764	7549.56
831.09	7606.06
831.417	7525.16
831.743	7612.84
832.069	7583.68
832.395	7532.84
832.722	7553.86
833.048	7558.15
833.374	7568.09
833.7	7550.01
834.026	7547.53
834.351	7550.24
834.677	7534.42
835.003	7536.91
835.329	7563.35
835.654	7530.13
835.98	7455.78
836.306	7501.88
836.631	7390.02
836.956	7400.19
837.282	7493.07
837.607	7454.2
837.932	7376.68
838.258	7356.35
838.583	7368.1
838.908	7323.13
839.233	7422.33
839.558	7315.9
839.883	7256.46
840.208	7279.51
840.533	7261.66
840.858	7306.63
841.182	7311.6
841.507	7296.69
841.832	7208.55
842.156	7223.02
842.481	7195.22
842.805	7213.98
843.13	7149.35
843.454	7158.61
843.778	7154.09
844.103	7140.53
844.427	7122.23
844.751	7094.88
845.075	7075.45
845.399	7054.89
845.723	6971.72
846.047	7032.29
846.371	6960.65
846.695	6954.55
847.019	6893.99
847.343	6809.24
847.666	6839.52
847.99	6845.4
848.313	6796.13
848.637	6794.1
848.96	6775.8
849.284	6818.73
849.607	6716.36
849.931	6634.78
850.254	6607.67
850.577	6648.79
850.9	6599.76
851.223	6613.77
851.546	6547.78
851.869	6472.98
852.192	6539.42
852.515	6520.89
852.838	6522.47
853.161	6461.45
853.483	6403.15
853.806	6416.03
854.129	6417.39
854.451	6345.98
854.774	6325.86
855.096	6329.48
855.419	6313.89
855.741	6274.34
856.063	6261.01
856.385	6305.75
856.708	6227.11
857.03	6214.91
857.352	6256.94
857.674	6168.58
857.996	6112.09
858.318	6098.07
858.64	6117.06
858.961	6092.65
859.283	6126.55
859.605	6070.05
859.926	6075.93
860.248	6077.74
860.57	6035.25
860.891	6078.64
861.212	5975.14
861.534	6004.52
861.855	5988.7
862.176	6007.68
862.498	5986.66
862.819	5945.54
863.14	5916.38
863.461	5914.8
863.782	5936.27
864.103	5965.87
864.424	5853.33
864.745	5925.88
865.065	5863.05
865.386	5863.5
865.707	5874.13
866.027	5856.95
866.348	5857.4
866.668	5847.01
866.989	5835.71
867.309	5767.01
867.63	5750.74
867.95	5776.5
868.27	5790.06
868.59	5743.51
868.91	5810.4
869.23	5767.01
869.55	5731.08
869.87	5747.35
870.19	5718.2
870.51	5753
870.83	5685.88
871.15	5682.72
871.469	5716.84
871.789	5747.57
872.109	5674.58
872.428	5647.46
872.748	5664.64
873.067	5684.07
873.386	5628.93
873.706	5669.38
874.025	5639.1
874.344	5588.03
874.663	5613.79
874.982	5614.25
875.301	5596.17
875.62	5588.93
875.939	5561.37
876.258	5546.45
876.577	5523.17
876.896	5511.42
877.214	5529.28
877.533	5473.01
877.852	5541.03
878.17	5545.77
878.489	5519.78
878.807	5523.17
879.125	5544.64
879.444	5467.13
879.762	5406.57
880.08	5468.26
880.398	5473.23
880.716	5494.7
881.034	5481.59
881.352	5449.5
881.67	5467.36
881.988	5426.23
882.306	5382.39
882.624	5373.35
882.941	5374.25
883.259	5355.27
883.577	5338.32
883.894	5374.93
884.212	5353.46
884.529	5347.59
884.846	5310.75
885.164	5311.65
885.481	5302.61
885.798	5344.65
886.115	5247.93
886.432	5268.72
886.75	5257.64
887.067	5213.35
887.383	5193.69
887.7	5221.94
888.017	5179.68
888.334	5187.36
888.651	5163.86
888.967	5192.79
889.284	5091.55
889.6	5066.01
889.917	5128.83
890.233	5162.73
890.55	5096.52
890.866	5071.66
891.182	5033.02
891.498	5049.51
891.815	5033.92
892.131	5012
892.447	5044.54
892.763	5014.03
893.079	4987.82
893.395	4919.57
893.71	4964.54
894.026	4987.59
894.342	4966.58
894.657	4876.19
894.973	4905.34
895.289	4891.55
895.604	4881.38
895.92	4872.57
896.235	4823.31
896.55	4851.1
896.865	4811.33
897.181	4818.56
897.496	4805.45
897.811	4781.05
898.126	4812.46
898.441	4736.08
898.756	4732.69
899.071	4708.73
899.386	4690.88
899.7	4682.74
900.015	4678.45
900.33	4661.73
900.644	4693.82
900.959	4684.33
901.273	4644.33
901.588	4612.92
901.902	4629.41
902.216	4621.28
902.531	4563.2
902.845	4573.59
903.159	4554.84
903.473	4508.74
903.787	4491.79
904.101	4468.74
904.415	4451.34
904.729	4434.62
905.042	4484.11
905.356	4462.86
905.67	4390.77
905.984	4456.08
906.297	4359.59
906.611	4374.28
906.924	4328.4
907.237	4343.09
907.551	4322.75
907.864	4289.08
908.177	4274.85
908.491	4275.07
908.804	4264
909.117	4213.15
909.43	4203.21
909.743	4239.59
910.056	4216.32
910.368	4213.83
910.681	4161.18
910.994	4147.84
911.307	4168.86
911.619	4108.97
911.932	4134.96
912.244	4116.21
912.557	4116.88
912.869	4082.08
913.181	4017.68
913.494	4057.45
913.806	4000.5
914.118	3991.01
914.43	3937
914.742	3925.25
915.054	3943.33
915.366	3951.69
915.678	3934.97
915.99	3880.28
916.302	3908.53
916.613	3865.14
916.925	3885.48
917.236	3861.3
917.548	3849.09
917.859	3865.82
918.171	3821.98
918.482	3850.45
918.794	3783.56
919.105	3779.94
919.416	3795.76
919.727	3745.82
920.038	3759.38
920.349	3684.58
920.66	3725.26
920.971	3710.11
921.282	3694.07
921.593	3688.65
921.903	3666.5
922.214	3616.33
922.525	3639.83
922.835	3595.54
923.146	3588.31
923.456	3602.32
923.767	3605.48
924.077	3566.16
924.387	3573.39
924.697	3524.58
925.008	3524.81
925.318	3514.41
925.628	3521.64
925.938	3490.91
926.248	3484.58
926.558	3444.13
926.867	3450.91
927.177	3422.21
927.487	3417.01
927.796	3363.91
928.106	3398.71
928.416	3373.85
928.725	3370.46
929.034	3348.99
929.344	3342.21
929.653	3331.82
929.962	3276.23
930.271	3309.22
930.581	3324.14
930.89	3284.81
931.199	3265.38
931.508	3237.81
931.817	3237.13
932.125	3251.6
932.434	3214.53
932.743	3180.86
933.051	3169.56
933.36	3164.37
933.669	3160.3
933.977	3134.31
934.286	3143.35
934.594	3132.28
934.902	3104.93
935.21	3112.39
935.519	3119.17
935.827	3099.51
936.135	3076.46
936.443	3041.88
936.751	3013.18
937.059	3027.19
937.367	3030.81
937.674	3022.22
937.982	2997.36
938.29	2969.79
938.597	2997.59
938.905	2975.9
939.213	2960.08
939.52	2961.89
939.827	2929.34
940.135	2915.11
940.442	2866.97
940.749	2925.5
941.056	2892.73
941.363	2876.24
941.67	2873.53
941.977	2840.31
942.284	2809.8
942.591	2839.63
942.898	2832.17
943.205	2795.79
943.511	2807.99
943.818	2803.47
944.125	2722.8
944.431	2778.16
944.738	2747.88
945.044	2760.08
945.35	2720.08
945.657	2715.56
945.963	2724.6
946.269	2669.24
946.575	2683.25
946.881	2671.27
947.187	2692.74
947.493	2652.74
947.799	2648.22
948.105	2690.25
948.41	2633.53
948.716	2627.66
949.022	2603.25
949.327	2609.13
949.633	2582.01
949.938	2549.47
950.244	2599.64
950.549	2542.01
950.854	2522.12
951.16	2529.13
951.465	2517.38
951.77	2532.97
952.075	2488.68
952.38	2520.32
952.685	2493.2
952.99	2454.33
953.294	2467.89
953.599	2462.24
953.904	2481.22
954.209	2452.97
954.513	2442.8
954.818	2436.25
955.122	2433.99
955.426	2429.02
955.731	2380.21
956.035	2412.97
956.339	2414.33
956.643	2388.12
956.948	2372.75
957.252	2325.52
957.556	2359.42
957.86	2333.88
958.163	2345.86
958.467	2330.26
958.771	2308.8
959.075	2332.75
959.378	2290.04
959.682	2333.43
959.985	2287.78
960.289	2241.9
960.592	2221.57
960.896	2262.92
961.199	2263.37
961.502	2256.37
961.805	2230.83
962.108	2218.85
962.411	2201
962.714	2211.62
963.017	2209.36
963.32	2183.15
963.623	2185.63
963.926	2194
964.228	2162.36
964.531	2147.22
964.833	2143.6
965.136	2151.51
965.438	2128.01
965.741	2118.29
966.043	2121.46
966.345	2095.47
966.648	2089.59
966.95	2077.84
967.252	2079.2
967.554	2065.41
967.856	2085.98
968.158	2043.72
968.46	2008.92
968.761	2036.26
969.063	2051.63
969.365	2034.9
969.666	2018.41
969.968	1961.23
970.269	2022.25
970.571	2008.01
970.872	1997.17
971.174	1928.92
971.475	1980.67
971.776	1964.62
972.077	1957.17
972.378	1981.8
972.679	1958.97
972.98	1952.87
973.281	1947.67
973.582	1923.27
973.883	1916.72
974.183	1916.49
974.484	1905.42
974.785	1902.03
975.085	1877.85
975.386	1897.28
975.686	1851.41
975.986	1843.27
976.287	1840.56
976.587	1859.77
976.887	1828.58
977.187	1870.16
977.487	1837.4
977.787	1798.07
978.087	1804.85
978.387	1825.42
978.687	1815.25
978.987	1808.02
979.286	1790.39
979.586	1785.87
979.885	1775.48
980.185	1762.59
980.484	1739.54
980.784	1746.78
981.083	1749.26
981.382	1732.54
981.682	1738.41
981.981	1743.61
982.28	1722.37
982.579	1708.13
982.878	1702.71
983.177	1701.35
983.475	1693.67
983.774	1693.67
984.073	1698.19
984.372	1681.47
984.67	1672.43
984.969	1670.62
985.267	1691.18
985.566	1663.61
985.864	1624.97
986.162	1645.54
986.461	1629.27
986.759	1610.96
987.057	1629.49
987.355	1620.9
987.653	1617.74
987.951	1581.13
988.249	1596.05
988.547	1578.87
988.844	1612.77
989.142	1583.62
989.44	1540
989.737	1589.27
990.035	1585.42
990.332	1536.16
990.63	1540.23
990.927	1543.84
991.224	1531.19
991.521	1545.65
991.819	1490.29
992.116	1525.54
992.413	1478.76
992.71	1500
993.006	1494.13
993.303	1450.74
993.6	1490.29
993.897	1473.11
994.193	1457.52
994.49	1494.58
994.787	1467.01
995.083	1431.3
995.379	1428.14
995.676	1399.44
995.972	1447.12
996.268	1422.26
996.565	1408.25
996.861	1407.12
997.157	1422.04
997.453	1380.23
997.749	1405.09
998.044	1408.71
998.34	1389.95
998.636	1374.13
998.932	1343.62
999.227	1376.39
999.523	1372.77
999.818	1341.36
1000.114	1350.18
1000.409	1325.77
1000.704	1325.54
1001	1331.19
1001.295	1302.27
1001.59	1315.15
1001.885	1312.44
1002.18	1308.14
1002.475	1307.92
1002.77	1298.88
1003.065	1290.97
1003.359	1278.77
1003.654	1263.4
1003.949	1278.09
1004.243	1271.08
1004.538	1240.35
1004.832	1239.9
1005.127	1248.94
1005.421	1205.77
1005.715	1211.2
1006.009	1212.55
1006.304	1225.66
1006.598	1218.88
1006.892	1206.68
1007.186	1208.94
1007.48	1179.11
1007.773	1185.89
1008.067	1186.34
1008.361	1177.07
1008.655	1175.04
1008.948	1171.88
1009.242	1178.66
1009.535	1134.36
1009.829	1146.34
1010.122	1159.45
1010.415	1149.05
1010.708	1135.72
1011.001	1139.33
1011.295	1108.37
1011.588	1117.64
1011.881	1111.09
1012.173	1105.66
1012.466	1095.72
1012.759	1084.65
1013.052	1100.92
1013.344	1091.43
1013.637	1070.18
1013.93	1068.83
1014.222	1073.35
1014.514	1081.03
1014.807	1053.69
1015.099	1063.86
1015.391	1011.88
1015.683	1040.13
1015.976	1039.45
1016.268	1027.92
1016.56	994.48
1016.851	1018.89
1017.143	1019.34
1017.435	1031.99
1017.727	991.99
1018.018	991.09
1018.31	994.03
1018.602	993.35
1018.893	986.34
1019.185	955.16
1019.476	977.3
1019.767	962.84
1020.058	954.03
1020.35	956.29
1020.641	961.26
1020.932	935.95
1021.223	963.29
1021.514	935.95
1021.804	927.81
1022.095	937.31
1022.386	890.3
1022.677	928.49
1022.967	903.86
1023.258	890.53
1023.548	904.31
1023.839	884.88
1024.129	894.6
1024.419	867.93
1024.709	879.45
1025	886.69
1025.29	871.54
1025.58	858.21
1025.87	860.25
1026.16	852.79
1026.449	866.12
1026.739	839
1027.029	842.62
1027.319	836.52
1027.608	848.49
1027.898	836.52
1028.187	803.98
1028.477	799.68
1028.766	822.05
1029.055	812.79
1029.344	808.95
1029.634	795.16
1029.923	813.24
1030.212	812.56
1030.501	798.55
1030.79	815.95
1031.078	764.2
1031.367	774.37
1031.656	782.28
1031.945	784.99
1032.233	770.3
1032.522	773.02
1032.81	779.34
1033.099	745.22
1033.387	736.86
1033.675	749.97
1033.963	734.37
1034.251	750.87
1034.54	748.84
1034.828	712.68
1035.116	722.17
1035.403	733.24
1035.691	737.31
1035.979	718.78
1036.267	723.53
1036.554	727.59
1036.842	709.74
1037.129	713.13
1037.417	710.42
1037.704	702.96
1037.992	688.5
1038.279	677.88
1038.566	677.43
1038.853	677.43
1039.14	677.43
