Data from tablewood_brown_FLMS001491_044.txt Node
Date: Tue Feb 07 11:10:30 GMT 2017
User: dcchb
Spectrometer: FLMS00149
Trigger mode: 0
Integration Time (sec): 2.000000E-2
Scans to average: 10
Electric dark correction enabled: true
Nonlinearity correction enabled: false
Boxcar width: 0
XAxis mode: Wavelengths
Number of Pixels in Spectrum: 2048
>>>>>Begin Spectral Data<<<<<
341.393	-12.26
341.776	-12.26
342.16	-12.26
342.543	-56.1
342.927	-53.39
343.31	-38.47
343.693	-86.16
344.077	-62.43
344.46	-65.37
344.843	-62.2
345.226	-63.11
345.61	-24.69
345.993	-28.3
346.376	-15.65
346.759	4.69
347.142	37.68
347.525	59.6
347.908	58.47
348.291	85.82
348.674	82.43
349.057	117.68
349.44	130.79
349.823	151.13
350.206	168.75
350.588	197.68
350.971	224.34
351.354	219.6
351.737	235.19
352.119	258.47
352.502	272.7
352.884	275.19
353.267	278.58
353.65	308.18
354.032	302.08
354.414	298.92
354.797	316.09
355.179	345.02
355.562	319.26
355.944	325.81
356.326	328.3
356.709	335.75
357.091	344.34
357.473	339.14
357.855	327.62
358.238	325.58
358.62	344.57
359.002	345.92
359.384	346.83
359.766	349.31
360.148	340.5
360.53	335.3
360.912	339.37
361.294	335.75
361.676	344.34
362.057	351.57
362.439	362.42
362.821	329.65
363.203	332.14
363.584	347.28
363.966	344.12
364.348	338.47
364.729	335.98
365.111	332.14
365.493	325.58
365.874	332.36
366.256	338.24
366.637	330.78
367.019	332.36
367.4	333.49
367.781	345.02
368.163	333.49
368.544	319.71
368.925	327.17
369.306	312.03
369.688	324.91
370.069	316.55
370.45	318.81
370.831	333.27
371.212	319.03
371.593	335.53
371.974	329.88
372.355	335.53
372.736	326.94
373.117	346.83
373.498	335.75
373.879	333.95
374.26	311.12
374.641	328.52
375.021	330.33
375.402	347.28
375.783	333.49
376.163	330.78
376.544	333.04
376.925	348.86
377.305	328.52
377.686	385.92
378.066	324.91
378.447	360.61
378.827	363.55
379.208	348.86
379.588	352.02
379.968	376.66
380.349	360.61
380.729	363.32
381.109	376.66
381.489	359.26
381.87	370.56
382.25	373.72
382.63	379.82
383.01	380.72
383.39	363.1
383.77	374.4
384.15	392.93
384.53	367.62
384.91	369.65
385.29	402.42
385.67	375.75
386.049	383.44
386.429	387.96
386.809	392.93
387.189	395.87
387.568	380.27
387.948	395.19
388.328	402.42
388.707	406.94
389.087	402.87
389.466	395.19
389.846	401.97
390.225	406.03
390.605	397.22
390.984	418.01
391.363	418.01
391.743	398.58
392.122	420.5
392.501	420.5
392.881	421.4
393.26	417.11
393.639	432.7
394.018	449.42
394.397	438.35
394.776	437.22
395.155	417.79
395.534	446.94
395.913	454.39
396.292	446.71
396.671	450.1
397.05	456.65
397.429	461.17
397.808	486.48
398.186	481.06
398.565	474.73
398.944	484.45
399.323	491.23
399.701	478.12
400.08	475.64
400.458	483.55
400.837	474.06
401.215	512.92
401.594	489.87
401.972	495.52
402.351	513.6
402.729	506.82
403.107	513.15
403.486	510.89
403.864	506.37
404.242	502.3
404.62	490.1
404.999	541.17
405.377	509.08
405.755	522.19
406.133	521.51
406.511	525.81
406.889	550.66
407.267	553.6
407.645	539.59
408.023	545.01
408.401	563.54
408.779	568.29
409.156	587.27
409.534	584.79
409.912	586.82
410.29	612.36
410.667	614.62
411.045	583.43
411.422	599.93
411.8	609.87
412.178	619.36
412.555	616.65
412.933	630.21
413.31	621.62
413.687	622.07
414.065	635.63
414.442	615.07
414.819	640.6
415.197	651.45
415.574	656.42
415.951	666.59
416.328	647.16
416.705	672.24
417.082	671.56
417.46	685.58
417.837	680.83
418.214	694.39
418.591	703.2
418.967	695.29
419.344	699.13
419.721	702.75
420.098	732.13
420.475	740.26
420.852	727.83
421.228	731.9
421.605	735.97
421.982	748.17
422.358	748.62
422.735	740.26
423.111	762.18
423.488	750.43
423.864	759.7
424.241	775.97
424.617	784.56
424.994	783.43
425.37	760.38
425.746	780.71
426.123	822.75
426.499	807.61
426.875	799.24
427.251	816.87
427.627	825.68
428.003	835.85
428.379	857.77
428.756	854.38
429.132	857.77
429.507	871.33
429.883	889.41
430.259	888.73
430.635	889.19
431.011	893.03
431.387	916.76
431.763	918.11
432.138	940.71
432.514	936.42
432.89	954.49
433.265	938.68
433.641	975.74
434.016	975.74
434.392	1008.05
434.767	978
435.143	1006.24
435.518	1017.09
435.894	1016.64
436.269	1039.69
436.644	1020.48
437.02	1047.15
437.395	1037.2
437.77	1085.79
438.145	1078.79
438.52	1089.63
438.895	1088.28
439.271	1106.58
439.646	1129.63
440.021	1127.82
440.395	1128.95
440.77	1135.73
441.145	1142.51
441.52	1170.08
441.895	1158.11
442.27	1164.88
442.645	1193.58
443.019	1177.09
443.394	1197.2
443.769	1192
444.143	1197.65
444.518	1221.38
444.892	1218.89
445.267	1216.18
445.641	1254.15
446.016	1251.44
446.39	1257.54
446.764	1279.68
447.139	1238.78
447.513	1283.07
447.887	1262.74
448.262	1300.25
448.636	1315.16
449.01	1286.69
449.384	1330.98
449.758	1314.49
450.132	1323.3
450.506	1357.65
450.88	1342.06
451.254	1360.13
451.628	1362.62
452.002	1363.52
452.376	1397.42
452.75	1395.61
453.123	1410.98
453.497	1425.22
453.871	1433.13
454.244	1461.83
454.618	1483.75
454.992	1504.54
455.365	1488.94
455.739	1522.62
456.112	1532.11
456.486	1550.86
456.859	1599.22
457.232	1583.4
457.606	1570.3
457.979	1611.65
458.352	1662.05
458.725	1642.61
459.099	1672.89
459.472	1674.93
459.845	1721.71
460.218	1711.08
460.591	1705.21
460.964	1734.36
461.337	1784.98
461.71	1823.62
462.083	1802.16
462.456	1849.84
462.829	1853.45
463.201	1876.28
463.574	1868.59
463.947	1897.97
464.32	1916.5
464.692	1984.75
465.065	1946.56
465.438	2044.64
465.81	2077.85
466.183	2051.87
466.555	2089.61
466.928	2098.65
467.3	2129.15
467.672	2147.68
468.045	2212.09
468.417	2223.16
468.789	2249.15
469.161	2294.8
469.534	2275.59
469.906	2381.58
470.278	2388.36
470.65	2437.39
471.022	2483.72
471.394	2537.5
471.766	2554.9
472.138	2566.2
472.51	2638.74
472.882	2694.34
473.253	2681.91
473.625	2737.95
473.997	2819.53
474.369	2847.55
474.74	2877.61
475.112	2952.41
475.484	2988.57
475.855	3065.17
476.227	3130.48
476.598	3184.27
476.97	3165.51
477.341	3321.66
477.713	3375.9
478.084	3417.03
478.455	3461.77
478.827	3521.88
479.198	3662.45
479.569	3697.7
479.94	3784.93
480.311	3793.74
480.682	3878.49
481.053	3999.39
481.424	4101.3
481.795	4162.09
482.166	4217.46
482.537	4246.16
482.908	4346.72
483.279	4378.81
483.65	4469.66
484.021	4588.98
484.391	4658.13
484.762	4719.14
485.133	4790.1
485.503	4875.97
485.874	4953.71
486.244	5034.84
486.615	5150.77
486.985	5170.2
487.356	5283.65
487.726	5355.96
488.097	5414.72
488.467	5485.9
488.837	5573.36
489.207	5676.18
489.578	5748.04
489.948	5757.98
490.318	5824.88
490.688	5924.31
491.058	6019.67
491.428	6072.78
491.798	6117.3
492.168	6210.63
492.538	6254.92
492.908	6360.68
493.278	6461.02
493.648	6467.8
494.017	6523.39
494.387	6642.03
494.757	6668.47
495.126	6711.41
495.496	6835.92
495.866	6857.39
496.235	6918.41
496.605	6995.01
496.974	7017.39
497.344	7088.12
497.713	7086.99
498.082	7247.66
498.452	7327.89
498.821	7311.16
499.19	7325.17
499.559	7432.06
499.928	7449.47
500.298	7569.01
500.667	7618.5
501.036	7661.21
501.405	7670.48
501.774	7781.66
502.143	7778.04
502.512	7877.7
502.88	7900.53
503.249	7966.06
503.618	8058.71
503.987	8011.71
504.356	8156.34
504.724	8190.24
505.093	8175.77
505.462	8307.52
505.83	8333.74
506.199	8411.02
506.567	8541.64
506.936	8560.4
507.304	8644.24
507.672	8764.01
508.041	8749.77
508.409	8801.97
508.777	8902.31
509.145	8922.65
509.514	8969.65
509.882	9071.12
510.25	9063.66
510.618	9276.54
510.986	9234.73
511.354	9388.4
511.722	9440.6
512.09	9513.59
512.458	9528.51
512.826	9624.32
513.193	9670.42
513.561	9742.96
513.929	9852.34
514.297	9912.45
514.664	10062.73
515.032	10004.2
515.4	10142.28
515.767	10229.51
516.135	10250.3
516.502	10222.27
516.869	10464.08
517.237	10525.77
517.604	10524.19
517.972	10654.13
518.339	10769.15
518.706	10734.8
519.073	10848.25
519.44	11001.24
519.808	11118.07
520.175	11124.85
520.542	11302.92
520.909	11351.51
521.276	11349.48
521.643	11491.62
522.009	11600.09
522.376	11684.16
522.743	11689.58
523.11	11985.84
523.477	12060.64
523.843	12058.16
524.21	12282.56
524.577	12374.08
524.943	12385.38
525.31	12488.2
525.676	12571.59
526.043	12653.62
526.409	12773.39
526.776	12934.07
527.142	12964.12
527.508	13026.95
527.874	13142.87
528.241	13195.75
528.607	13212.7
528.973	13414.73
529.339	13382.87
529.705	13548.51
530.071	13697.44
530.437	13686.36
530.803	13872.8
531.169	13936.3
531.535	13838.45
531.901	14005.9
532.267	14041.61
532.632	14209.29
532.998	14300.81
533.364	14360.02
533.73	14451.31
534.095	14504.42
534.461	14608.6
534.826	14617.64
535.192	14646.56
535.557	14771.31
535.923	14774.02
536.288	14809.95
536.653	14964.3
537.019	14834.81
537.384	14999.1
537.749	15102.6
538.114	15170.17
538.479	15179.66
538.845	15284.51
539.21	15240.22
539.575	15396.15
539.94	15478.41
540.305	15559.53
540.67	15508.69
541.034	15598.18
541.399	15703.94
541.764	15761.34
542.129	15796.14
542.494	15828.91
542.858	15895.34
543.223	15992.74
543.587	16080.65
543.952	16031.84
544.316	16042.46
544.681	16137.15
545.045	16263.02
545.41	16282
545.774	16302.11
546.138	16423.69
546.503	16427.53
546.867	16362.45
547.231	16604.93
547.595	16646.96
547.959	16665.04
548.324	16830.24
548.688	16799.73
549.052	16863.91
549.416	17017.35
549.779	17006.73
550.143	17210.56
550.507	17337.34
550.871	17333.73
551.235	17318.13
551.599	17549.09
551.962	17630.44
552.326	17644
552.689	17779.59
553.053	17699.82
553.417	17854.16
553.78	18151.1
554.143	18129.18
554.507	18173.7
554.87	18303.64
555.234	18518.55
555.597	18416.18
555.96	18617.76
556.323	18723.07
556.686	18819.11
557.05	18989.95
557.413	19032.44
557.776	19112.89
558.139	19361.92
558.502	19356.5
558.865	19388.36
559.228	19653.89
559.59	19739.54
559.953	19863.83
560.316	20031.73
560.679	20109.47
561.041	20293.2
561.404	20421.33
561.767	20612.51
562.129	20634.66
562.492	20850.24
562.854	20887.98
563.217	20964.36
563.579	21190.8
563.941	21294.98
564.304	21486.38
564.666	21774.74
565.028	21776.09
565.39	21980.83
565.753	22167.27
566.115	22241.39
566.477	22426.25
566.839	22509.63
567.201	22819.46
567.563	22863.98
567.925	23119.11
568.287	23228.94
568.648	23300.57
569.01	23499.66
569.372	23782.14
569.734	23799.77
570.095	23920.67
570.457	24109.37
570.819	24319.3
571.18	24396.14
571.542	24634.78
571.903	24622.57
572.265	24799.97
572.626	25044.48
572.987	25154.54
573.349	25317.92
573.71	25533.28
574.071	25639.04
574.432	25805.37
574.794	26086.94
575.155	26262.98
575.516	26256.88
575.877	26498.68
576.238	26548.17
576.599	26709.52
576.96	26726.7
577.32	26935.51
577.681	27054.15
578.042	27248.49
578.403	27201.26
578.763	27239
579.124	27423.18
579.485	27612.78
579.845	27820.45
580.206	27657.07
580.566	27888.48
580.927	27971.86
581.287	28183.84
581.648	28137.51
582.008	28392.19
582.368	28310.61
582.728	28574.79
583.089	28626.54
583.449	28633.09
583.809	28722.13
584.169	28784.05
584.529	28732.3
584.889	29072.17
585.249	28921.44
585.609	28807.77
585.969	29128.22
586.329	29124.38
586.688	29179.06
587.048	29142.23
587.408	29227.65
587.768	29169.35
588.127	29230.36
588.487	29255.45
588.846	29588.54
589.206	29274.2
589.565	29372.5
589.925	29523.01
590.284	29560.75
590.643	29696.79
591.003	29569.79
591.362	29788.99
591.721	29734.53
592.08	29789.89
592.44	29879.84
592.799	29836
593.158	29772.49
593.517	29701.54
593.876	29818.59
594.235	29818.59
594.593	29792.61
594.952	30000.28
595.311	29795.32
595.67	30001.41
596.029	30135.87
596.387	30044.35
596.746	30280.28
597.104	30252.48
597.463	30238.92
597.822	30181.52
598.18	30214.06
598.538	30174.52
598.897	30256.32
599.255	30055.88
599.613	30415.87
599.972	30349.65
600.33	30524.56
600.688	30309.66
601.046	30534.28
601.404	30546.48
601.762	30467.84
602.12	30615.41
602.478	30730.43
602.836	30705.8
603.194	30582.64
603.552	30579.7
603.91	30428.3
604.268	30574.73
604.625	30439.6
604.983	30617.67
605.341	30606.14
605.698	30734.05
606.056	30928.17
606.413	30959.13
606.771	30886.81
607.128	30877.1
607.485	30790.77
607.843	30873.26
608.2	31096.75
608.557	31161.38
608.914	31099.24
609.272	31235.73
609.629	31137.88
609.986	31291.78
610.343	31193.93
610.7	31418.78
611.057	31299.01
611.414	31351.89
611.771	31347.59
612.127	31511.43
612.484	31482.28
612.841	31609.73
613.198	31451.77
613.554	31571.54
613.911	31706
614.267	31625.1
614.624	31662.61
614.98	31683.86
615.337	31919.1
615.693	31754.81
616.05	31758.88
616.406	31881.37
616.762	31790.52
617.118	31742.39
617.475	31866.45
617.831	31910.29
618.187	31935.37
618.543	32086.33
618.899	32236.16
619.255	32135.6
619.611	32101.7
619.967	32224.86
620.323	32277.06
620.678	32132.66
621.034	32109.61
621.39	32013.11
621.746	32037.29
622.101	32394.12
622.457	32118.42
622.812	32062.6
623.168	32164.97
623.523	32298.08
623.879	32406.1
624.234	32177.18
624.589	32383.5
624.945	32320
625.3	32460.33
625.655	32302.6
626.01	32402.03
626.365	32405.87
626.72	32325.2
627.075	32307.12
627.43	32219.44
627.785	32148.02
628.14	32250.62
628.495	32316.83
628.85	32310.28
629.205	32185.09
629.559	32368.58
629.914	32084.98
630.269	32316.16
630.623	32180.11
630.978	32157.52
631.332	32197.97
631.687	32238.42
632.041	32018.31
632.396	32119.55
632.75	31871.2
633.104	31916.84
633.459	31858.31
633.813	31762.27
634.167	31923.17
634.521	31906.22
634.875	31983.06
635.229	31861.7
635.583	31739.45
635.937	31760.69
636.291	31741.48
636.645	31757.98
636.999	31694.7
637.352	31725.66
637.706	31491.54
638.06	31552.79
638.413	31622.39
638.767	31501.04
639.121	31464.43
639.474	31350.31
639.828	31335.84
640.181	31370.87
640.534	31303.98
640.888	31299.46
641.241	31194.38
641.594	31277.54
641.947	31247.26
642.301	31328.61
642.654	31279.57
643.007	31240.03
643.36	31148.28
643.713	31212
644.066	31240.48
644.419	31013.14
644.771	30734.73
645.124	30545.36
645.477	30523.43
645.83	30313.04
646.182	30164.57
646.535	30121.41
646.888	30142.43
647.24	30045.48
647.593	30212.93
647.945	30115.54
648.298	30084.12
648.65	29911.93
649.002	29978.82
649.355	29973.39
649.707	30032.6
650.059	30064.01
650.411	30497.22
650.763	30550.33
651.115	30810.21
651.467	30556.43
651.819	30635.75
652.171	30544.45
652.523	30454.96
652.875	30519.14
653.227	30514.85
653.578	30589.2
653.93	30673.04
654.282	30452.02
654.633	30425.81
654.985	30507.16
655.337	30502.19
655.688	30544.23
656.039	30607.5
656.391	30341.97
656.742	30386.94
657.094	30367.73
657.445	30619.48
657.796	30514.85
658.147	30369.99
658.498	30439.82
658.849	30420.61
659.2	30357.34
659.551	30313.95
659.902	30635.3
660.253	30461.06
660.604	30331.58
660.955	30241.86
661.306	30410.22
661.656	30409.99
662.007	30389.88
662.358	30433.04
662.708	30318.92
663.059	30454.51
663.409	30227.62
663.76	30469.42
664.11	30507.16
664.461	30256.55
664.811	30386.49
665.161	30331.58
665.511	30155.31
665.862	30398.47
666.212	30401.4
666.562	30473.72
666.912	30373.61
667.262	30409.54
667.612	30266.49
667.962	30412.25
668.312	30336.1
668.662	30380.16
669.011	30266.72
669.361	30373.38
669.711	30253.61
670.06	30183.56
670.41	30152.37
670.76	30069.44
671.109	30182.65
671.459	30109.66
671.808	30093.16
672.157	30218.58
672.507	29889.78
672.856	30036.67
673.205	29965.94
673.554	30154.18
673.904	29735.21
674.253	30135.65
674.602	29965.48
674.951	29470.58
675.3	29480.3
675.649	29916.9
675.998	29878.03
676.346	29823.34
676.695	29940.17
677.044	29664.25
677.393	29794.19
677.741	29804.58
678.09	29846.16
678.438	29600.97
678.787	29720.52
679.135	29744.25
679.484	29558.94
679.832	29613.63
680.181	29457.7
680.529	29561.43
680.877	29372.05
681.225	29411.83
681.573	29460.19
681.922	29294.09
682.27	29234.43
682.618	29260.19
682.966	29139.29
683.314	29262
683.661	29015.23
684.009	29023.14
684.357	28928.45
684.705	28887.09
685.053	28887.77
685.4	28893.87
685.748	28666.31
686.095	28679.42
686.443	28568.01
686.79	28437.16
687.138	28564.39
687.485	28570.49
687.832	28402.59
688.18	28447.56
688.527	28278.97
688.874	28393.77
689.221	28196.04
689.568	28061.58
689.915	27953.56
690.262	28016.83
690.609	27885.76
690.956	27860.23
691.303	27814.13
691.65	27710.18
691.997	27545.21
692.344	27419.34
692.69	27435.61
693.037	27408.94
693.383	27240.81
693.73	27234.26
694.077	27101.83
694.423	27105.45
694.769	26940.7
695.116	26918.56
695.462	26825.45
695.808	26726.02
696.155	26753.82
696.501	26518.12
696.847	26565.12
697.193	26285.13
697.539	26502.52
697.885	26160.16
698.231	26165.36
698.577	26095.53
698.923	26064.79
699.269	25928.75
699.614	25889.21
699.96	25746.16
700.306	25692.83
700.651	25575.32
700.997	25502.32
701.342	25434.75
701.688	25384.59
702.033	25335.77
702.379	25351.14
702.724	25112.5
703.069	25225.49
703.415	24873.64
703.76	24854.88
704.105	24989.34
704.45	24825.73
704.795	24683.81
705.14	24532.63
705.485	24586.64
705.83	24503.48
706.175	24438.62
706.52	24490.82
706.865	24278.63
707.209	24230.27
707.554	24277.5
707.899	24283.82
708.243	23986.66
708.588	24015.13
708.932	23817.4
709.277	23903.27
709.621	23872.76
709.966	23813.78
710.31	23845.42
710.654	23641.58
710.998	23542.83
711.342	23563.84
711.687	23482.26
712.031	23445.43
712.375	23374.24
712.719	23410.4
713.063	23353.68
713.407	23437.29
713.75	23277.75
714.094	23263.74
714.438	23245.89
714.782	23177.41
715.125	22995.27
715.469	23075.04
715.812	23093.35
716.156	22881.15
716.499	22938.78
716.843	22953.92
717.186	22853.81
717.53	22871.43
717.873	22844.31
718.216	22799.8
718.559	22652.46
718.902	22586.69
719.246	22709.4
719.589	22556.19
719.932	22507.83
720.275	22485
720.617	22475.06
720.96	22507.37
721.303	22487.94
721.646	22374.27
721.989	22260.6
722.331	22410.43
722.674	22296.08
723.016	22306.02
723.359	22291.56
723.701	22310.77
724.044	22339.24
724.386	22079.81
724.729	22280.49
725.071	22226.48
725.413	22230.32
725.755	22215.86
726.097	22058.57
726.439	21974.28
726.782	22086.37
727.124	22161.85
727.465	21973.6
727.807	22008.4
728.149	21974.05
728.491	22052.47
728.833	22081.17
729.175	21937.22
729.516	21882.08
729.858	21890.89
730.199	21924.56
730.541	21937.9
730.882	21799.37
731.224	21972.7
731.565	21705.59
731.906	21827.62
732.248	21863.55
732.589	21776.09
732.93	21787.62
733.271	21670.11
733.612	21767.51
733.953	21825.36
734.294	21794.62
734.635	21646.83
734.976	21678.02
735.317	21622.88
735.658	21732.25
735.999	21704.23
736.339	21618.13
736.68	21744.46
737.021	21688.19
737.361	21611.8
737.702	21828.75
738.042	21702.88
738.383	21678.92
738.723	21682.54
739.063	21602.77
739.404	21713.72
739.744	21715.08
740.084	21625.36
740.424	21581.3
740.764	21654.29
741.104	21652.93
741.444	21533.84
741.784	21565.93
742.124	21626.27
742.464	21626.72
742.804	21497.01
743.143	21595.99
743.483	21520.06
743.823	21489.1
744.162	21495.2
744.502	21585.82
744.841	21478.93
745.181	21651.8
745.52	21398.25
745.86	21537
746.199	21450.23
746.538	21522.54
746.877	21575.2
747.216	21647.51
747.556	21596.89
747.895	21583.33
748.234	21455.2
748.573	21443.22
748.911	21525.48
749.25	21517.57
749.589	21360.51
749.928	21374.3
750.267	21466.05
750.605	21418.82
750.944	21370
751.283	21230.57
751.621	21384.92
751.96	21250.46
752.298	21248.65
752.636	21314.64
752.975	21220.85
753.313	21151.93
753.651	21286.39
753.989	21159.39
754.327	21184.47
754.666	21081.42
755.004	21174.08
755.342	21168.43
755.679	21119.39
756.017	20974.53
756.355	21033.74
756.693	20948.77
757.031	20979.5
757.368	20908.32
757.706	20826.29
758.044	20861.99
758.381	20746.97
758.719	20713.75
759.056	20791.04
759.394	20732.96
759.731	20532.06
760.068	20477.6
760.405	20430.14
760.743	20427.2
761.08	20471.27
761.417	20362.12
761.754	20331.39
762.091	20287.77
762.428	20132.3
762.765	20182.01
763.102	20176.36
763.438	20037.38
763.775	19941.34
764.112	19952.41
764.449	19976.14
764.785	19813.66
765.122	19802.59
765.458	19787.67
765.795	19780.89
766.131	19553.55
766.467	19616.83
766.804	19488.47
767.14	19398.98
767.476	19495.48
767.812	19327.57
768.148	19369.15
768.485	19304.97
768.821	19163.73
769.157	19131.42
769.492	19080.8
769.828	19004.64
770.164	18858.2
770.5	18872.22
770.836	18915.83
771.171	18727.59
771.507	18780.47
771.842	18555.39
772.178	18652.56
772.513	18494.37
772.849	18448.5
773.184	18294.15
773.519	18343.19
773.855	18338.22
774.19	18208.05
774.525	18184.1
774.86	18168.51
775.195	18183.65
775.53	17938.68
775.865	17849.42
776.2	17814.62
776.535	17679.25
776.87	17731.23
777.205	17594.74
777.539	17505.47
777.874	17546.15
778.209	17422.76
778.543	17520.16
778.878	17284.23
779.212	17233.39
779.547	17129.66
779.881	17286.95
780.215	17081.53
780.55	17132.37
780.884	17032.72
781.218	16938.03
781.552	16878.6
781.886	16792.95
782.22	16701.43
782.554	16678.6
782.888	16476.57
783.222	16566.51
783.556	16473.18
783.889	16449.91
784.223	16245.39
784.557	16378.72
784.89	16272.96
785.224	16186.18
785.557	16156.35
785.891	16008.56
786.224	16051.05
786.558	16082.46
786.891	15895.34
787.224	15832.52
787.557	15737.16
787.891	15702.81
788.224	15688.57
788.557	15610.38
788.89	15686.76
789.223	15607.22
789.556	15458.52
789.888	15463.49
790.221	15456.49
790.554	15270.5
790.887	15307.56
791.219	15155.93
791.552	15230.73
791.884	15176.27
792.217	15071.64
792.549	15033.9
792.882	14960.23
793.214	14877.07
793.546	14866.67
793.879	14880.46
794.211	14771.98
794.543	14705.09
794.875	14739.22
795.207	14679.56
795.539	14561.37
795.871	14664.87
796.203	14474.14
796.535	14446.8
796.867	14348.27
797.198	14477.08
797.53	14278.89
797.862	14271.43
798.193	14259.68
798.525	14127.26
798.856	14250.19
799.188	13987.37
799.519	13946.24
799.85	13971.1
800.182	13969.07
800.513	13978.78
800.844	13813.59
801.175	13875.74
801.506	13769.07
801.837	13765.01
802.168	13682.3
802.499	13609.08
802.83	13656.76
803.161	13540.38
803.491	13541.73
803.822	13530.89
804.153	13531.34
804.483	13350.1
804.814	13387.61
805.145	13347.62
805.475	13343.1
805.805	13230.33
806.136	13221.97
806.466	13269.65
806.796	13231.69
807.126	13092.03
807.457	13064.91
807.787	13118.47
808.117	12974.52
808.447	12901.3
808.777	13012.26
809.107	12846.16
809.436	12918.7
809.766	12844.13
810.096	12836.67
810.426	12753.28
810.755	12699.5
811.085	12718.71
811.414	12755.09
811.744	12544.92
812.073	12565.26
812.403	12618.37
812.732	12456.57
813.061	12504.25
813.39	12511.48
813.719	12410.01
814.049	12409.79
814.378	12363.01
814.707	12333.4
815.036	12377.02
815.365	12305.38
815.693	12184.71
816.022	12156.23
816.351	12153.52
816.68	12071.49
817.008	12103.81
817.337	11994.43
817.665	11989.91
817.994	12054.99
818.322	12009.8
818.651	11893.64
818.979	11854.77
819.307	12055.22
819.636	11938.61
819.964	11836.92
820.292	11913.08
820.62	11834.66
820.948	11797.83
821.276	11855.23
821.604	11840.08
821.932	11866.75
822.259	11764.61
822.587	11800.76
822.915	11771.61
823.243	11837.37
823.57	11761.67
823.898	11821.1
824.225	11761.67
824.553	11772.06
824.88	11789.46
825.207	11769.8
825.535	11755.34
825.862	11762.12
826.189	11786.53
826.516	11750.59
826.843	11789.01
827.17	11761.44
827.497	11833.76
827.824	11755.34
828.151	11763.25
828.478	11723.25
828.805	11757.15
829.131	11705.4
829.458	11697.26
829.785	11686.19
830.111	11615.91
830.438	11786.53
830.764	11749.24
831.09	11682.8
831.417	11648
831.743	11667.21
832.069	11701.1
832.395	11603.03
832.722	11721.44
833.048	11685.06
833.374	11636.93
833.7	11487.1
834.026	11625.85
834.351	11640.77
834.677	11649.58
835.003	11669.69
835.329	11667.66
835.654	11575.68
835.98	11564.16
836.306	11607.55
836.631	11475.35
836.956	11525.74
837.282	11496.36
837.607	11408.01
837.932	11473.54
838.258	11488.23
838.583	11503.82
838.908	11318.52
839.233	11347.89
839.558	11352.87
839.883	11308.35
840.208	11296.37
840.533	11334.11
840.858	11286.88
841.182	11270.83
841.507	11291.4
841.832	11165.3
842.156	11220.21
842.481	11233.09
842.805	11194.23
843.13	11176.15
843.454	11072.42
843.778	11094.12
844.103	11054.34
844.427	11059.31
844.751	11034.46
845.075	10958.75
845.399	10924.18
845.723	10967.11
846.047	10918.75
846.371	10827.68
846.695	10826.1
847.019	10728.7
847.343	10726.22
847.666	10685.76
847.99	10633.34
848.313	10542.94
848.637	10549.72
848.96	10493.45
849.284	10480.8
849.607	10468.59
849.931	10350.18
850.254	10299.79
850.577	10306.11
850.9	10194.48
851.223	10229.28
851.546	10163.52
851.869	10088.49
852.192	10166
852.515	10030.19
852.838	10032.45
853.161	9996.52
853.483	9943.64
853.806	9902.73
854.129	9887.59
854.451	9808.95
854.774	9792.23
855.096	9806.47
855.419	9770.99
855.741	9695.28
856.063	9636.3
856.385	9651.67
856.708	9624.55
857.03	9555.62
857.352	9594.72
857.674	9554.95
857.996	9530.99
858.318	9432.24
858.64	9441.05
858.961	9458.68
859.283	9369.87
859.605	9347.72
859.926	9392.46
860.248	9345.46
860.57	9347.04
860.891	9280.83
861.212	9268.63
861.534	9243.32
861.855	9161.28
862.176	9252.58
862.498	9203.54
862.819	9160.38
863.14	9127.84
863.461	9118.57
863.782	9065.47
864.103	9122.42
864.424	9111.34
864.745	9096.88
865.065	9036.09
865.386	9029.76
865.707	9026.37
866.027	9040.38
866.348	8970.33
866.668	9018.01
866.989	8958.8
867.309	8940.5
867.63	8908.18
867.95	8888.07
868.27	8810.33
868.59	8895.98
868.91	8856.21
869.23	8827.28
869.55	8803.1
869.87	8846.04
870.19	8864.12
870.51	8885.81
870.83	8770.11
871.15	8786.83
871.469	8801.75
871.789	8738.24
872.109	8760.62
872.428	8694.86
872.748	8737.11
873.067	8717.45
873.386	8703.9
873.706	8667.74
874.025	8681.3
874.344	8664.8
874.663	8603.79
874.982	8622.09
875.301	8613.73
875.62	8528.31
875.939	8557.91
876.258	8622.09
876.577	8525.82
876.896	8522.66
877.214	8555.65
877.533	8508.42
877.852	8488.99
878.17	8428.87
878.489	8463.68
878.807	8378.93
879.125	8423.45
879.444	8448.53
879.762	8361.31
880.08	8363.11
880.398	8312.72
880.716	8392.04
881.034	8333.51
881.352	8372.15
881.67	8278.14
881.988	8277.47
882.306	8302.32
882.624	8324.02
882.941	8227.3
883.259	8212.61
883.577	8148.88
883.894	8170.8
884.212	8144.14
884.529	8067.98
884.846	8054.42
885.164	8080.18
885.481	8075.89
885.798	8083.8
886.115	8065.95
886.432	7987.53
886.75	8017.13
887.067	8015.1
887.383	7951.37
887.7	8000.41
888.017	7927.87
888.334	7926.97
888.651	7877.48
888.967	7891.04
889.284	7847.42
889.6	7840.19
889.917	7736.01
890.233	7796.35
890.55	7782.34
890.866	7754.54
891.182	7710.02
891.498	7660.08
891.815	7678.39
892.131	7676.58
892.447	7630.03
892.763	7598.16
893.079	7589.35
893.395	7583.92
893.71	7522.01
894.026	7522.46
894.342	7496.92
894.657	7473.87
894.973	7457.15
895.289	7425.51
895.604	7373.53
895.92	7372.41
896.235	7289.92
896.55	7287.89
896.865	7258.28
897.181	7229.36
897.496	7303.03
897.811	7293.99
898.126	7237.04
898.441	7169.02
898.756	7121.11
899.071	7100.1
899.386	7145.52
899.7	7042.47
900.015	7016.93
900.33	7006.09
900.644	6964.73
900.959	6978.07
901.273	6947.56
901.588	6906.43
901.902	6908.24
902.216	6858.29
902.531	6861.46
902.845	6865.75
903.159	6808.13
903.473	6752.76
903.787	6765.87
904.101	6726.32
904.415	6732.87
904.729	6711.41
905.042	6656.72
905.356	6655.59
905.67	6641.58
905.984	6640.9
906.297	6629.15
906.611	6537.4
906.924	6515.25
907.237	6540.79
907.551	6523.39
907.864	6447.91
908.177	6462.6
908.491	6442.49
908.804	6385.76
909.117	6372.21
909.43	6336.05
909.743	6266.22
910.056	6276.16
910.368	6242.04
910.681	6205.66
910.994	6224.19
911.307	6168.14
911.619	6143.51
911.932	6202.04
912.244	6097.18
912.557	6111.87
912.869	6088.6
913.181	6067.13
913.494	6020.12
913.806	5960.24
914.118	5977.19
914.43	5933.57
914.742	5916.4
915.054	5901.94
915.366	5894.7
915.678	5914.36
915.99	5872.56
916.302	5796.85
916.613	5761.15
916.925	5763.86
917.236	5745.56
917.548	5722.5
917.859	5736.97
918.171	5673.01
918.482	5636.41
918.794	5585.56
919.105	5624.43
919.416	5526.35
919.727	5588.72
920.038	5569.06
920.349	5481.61
920.66	5494.71
920.971	5448.61
921.282	5424.43
921.593	5383.08
921.903	5366.13
922.214	5383.53
922.525	5333.59
922.835	5345.57
923.146	5304.21
923.456	5287.71
923.767	5248.62
924.077	5273.93
924.387	5281.61
924.697	5183.54
925.008	5192.58
925.318	5179.92
925.628	5096.53
925.938	5091.34
926.248	5058.79
926.558	5109.19
926.867	5073.26
927.177	5053.14
927.487	4987.61
927.796	4936.76
928.106	4929.08
928.416	4942.86
928.725	4938.12
929.034	4925.92
929.344	4902.87
929.653	4890.21
929.962	4845.01
930.271	4812.47
930.581	4775.86
930.89	4749.88
931.199	4756.88
931.508	4733.15
931.817	4744.45
932.125	4746.26
932.434	4676.43
932.743	4644.12
933.051	4637.79
933.36	4598.92
933.669	4552.82
933.977	4563.89
934.286	4593.5
934.594	4530.22
934.902	4530.45
935.21	4511.69
935.519	4476.44
935.827	4479.15
936.135	4470.79
936.443	4439.37
936.751	4424.01
937.059	4369.77
937.367	4359.38
937.674	4364.12
937.982	4346.72
938.29	4283.22
938.597	4296.1
938.905	4279.15
939.213	4243
939.52	4254.52
939.827	4264.92
940.135	4242.54
940.442	4191.25
940.749	4179.72
941.056	4190.34
941.363	4149.21
941.67	4104.02
941.977	4104.02
942.284	4084.58
942.591	4110.12
942.898	4055.43
943.205	4100.85
943.511	4016.79
943.818	4042.32
944.125	3984.7
944.431	4028.31
944.738	3990.57
945.044	3926.17
945.35	3886.39
945.657	3925.26
945.963	3941.31
946.269	3858.15
946.575	3880.07
946.881	3856.34
947.187	3841.88
947.493	3810.46
947.799	3773.86
948.105	3786.28
948.41	3754.42
948.716	3709.9
949.022	3727.98
949.327	3756.23
949.633	3687.98
949.938	3722.11
950.244	3685.72
950.549	3647.53
950.854	3654.31
951.16	3626.06
951.465	3585.84
951.77	3597.59
952.075	3584.26
952.38	3618.38
952.685	3556.01
952.99	3554.65
953.294	3526.86
953.599	3482.56
953.904	3452.73
954.209	3499.74
954.513	3443.47
954.818	3460.42
955.122	3459.51
955.426	3407.31
955.731	3438.72
956.035	3367.76
956.339	3380.65
956.643	3324.38
956.948	3338.39
957.252	3321.44
957.556	3352.4
957.86	3315.79
958.163	3299.74
958.467	3230.14
958.771	3262.68
959.075	3210.03
959.378	3205.51
959.682	3226.98
959.985	3214.32
960.289	3199.41
960.592	3148.79
960.896	3137.71
961.199	3202.57
961.502	3136.36
961.805	3150.37
962.108	3082.57
962.411	3095.68
962.714	3064.95
963.017	3056.81
963.32	3076.25
963.623	3026.53
963.926	3056.36
964.228	3064.04
964.531	3022.01
964.833	3008
965.136	2976.14
965.438	2973.42
965.741	2981.11
966.043	2943.59
966.345	2975.91
966.648	2909.25
966.95	2930.94
967.252	2877.83
967.554	2901.11
967.856	2865.18
968.158	2832.41
968.46	2869.25
968.761	2826.08
969.063	2817.27
969.365	2791.51
969.666	2811.85
969.968	2755.35
970.269	2754
970.571	2793.32
970.872	2726.43
971.174	2719.65
971.475	2736.37
971.776	2692.75
972.077	2706.31
972.378	2678.74
972.679	2707.44
972.98	2660.66
973.281	2647.78
973.582	2658.63
973.883	2639.2
974.183	2624.28
974.484	2628.12
974.785	2636.71
975.085	2594.68
975.386	2585.19
975.686	2569.82
975.986	2565.53
976.287	2559.42
976.587	2527.11
976.887	2482.36
977.187	2557.39
977.487	2492.76
977.787	2464.29
978.087	2482.82
978.387	2502.48
978.687	2471.74
978.987	2451.4
979.286	2455.92
979.586	2438.07
979.885	2405.3
980.185	2411.86
980.484	2381.8
980.784	2429.48
981.083	2375.02
981.382	2374.12
981.682	2368.24
981.981	2380.22
982.28	2348.13
982.579	2325.31
982.878	2314.68
983.177	2321.69
983.475	2280.34
983.774	2273.78
984.073	2248.25
984.372	2266.32
984.67	2244.18
984.969	2277.85
985.267	2233.56
985.566	2211.86
985.864	2210.28
986.162	2233.11
986.461	2242.82
986.759	2194.69
987.057	2201.92
987.355	2178.87
987.653	2171.19
987.951	2165.99
988.249	2163.95
988.547	2140.9
988.844	2128.25
989.142	2142.03
989.44	2079.21
989.737	2084.86
990.035	2095.71
990.332	2094.8
990.63	2059.55
990.927	2045.31
991.224	2069.49
991.521	2055.93
991.819	2032.43
992.116	2040.12
992.413	1978.65
992.71	2009.61
993.006	1991.3
993.303	1989.04
993.6	2002.83
993.897	2000.79
994.193	1957.18
994.49	1961.02
994.787	1975.26
995.083	1935.03
995.379	1937.07
995.676	1890.97
995.972	1953.79
996.268	1914.7
996.565	1892.32
996.861	1886.9
997.157	1883.96
997.453	1888.71
997.749	1881.25
998.044	1840.12
998.34	1881.48
998.636	1836.05
998.932	1836.51
999.227	1814.13
999.523	1796.73
999.818	1810.29
1000.114	1770.52
1000.409	1774.59
1000.704	1756.73
1001	1793.34
1001.295	1763.96
1001.59	1744.76
1001.885	1745.21
1002.18	1734.59
1002.475	1730.97
1002.77	1708.83
1003.065	1680.13
1003.359	1652.56
1003.654	1669.28
1003.949	1665.66
1004.243	1673.57
1004.538	1674.25
1004.832	1684.19
1005.127	1639.45
1005.421	1639.45
1005.715	1622.27
1006.009	1590.64
1006.304	1598.32
1006.598	1572.78
1006.892	1597.87
1007.186	1573.24
1007.48	1569.17
1007.773	1552.9
1008.067	1551.09
1008.361	1530.3
1008.655	1537.76
1008.948	1504.54
1009.242	1513.58
1009.535	1502.28
1009.829	1508.15
1010.122	1475.61
1010.415	1498.89
1010.708	1503.18
1011.001	1464.99
1011.295	1442.84
1011.588	1441.26
1011.881	1473.13
1012.173	1419.79
1012.466	1433.8
1012.759	1422.5
1013.052	1410.98
1013.344	1419.34
1013.637	1393.81
1013.93	1374.6
1014.222	1364.43
1014.514	1392.68
1014.807	1355.16
1015.099	1338.67
1015.391	1361.49
1015.683	1359.23
1015.976	1341.38
1016.268	1330.3
1016.56	1312.23
1016.851	1320.13
1017.143	1301.38
1017.435	1324.2
1017.727	1285.56
1018.018	1292.34
1018.31	1255.73
1018.602	1266.12
1018.893	1253.7
1019.185	1248.5
1019.476	1261.83
1019.767	1243.98
1020.058	1229.29
1020.35	1231.1
1020.641	1213.47
1020.932	1227.93
1021.223	1201.49
1021.514	1198.33
1021.804	1158.56
1022.095	1183.42
1022.386	1168.95
1022.677	1149.97
1022.967	1148.16
1023.258	1139.12
1023.548	1149.07
1023.839	1152
1024.129	1125.34
1024.419	1107.94
1024.709	1118.11
1025	1107.03
1025.29	1079.69
1025.58	1100.25
1025.87	1099.12
1026.16	1098.67
1026.449	1072.46
1026.739	1067.71
1027.029	1072.46
1027.319	1054.15
1027.608	1052.12
1027.898	1034.04
1028.187	1028.17
1028.477	1027.49
1028.766	1009.41
1029.055	997.66
1029.344	1030.2
1029.634	1013.48
1029.923	1005.79
1030.212	992.01
1030.501	990.65
1030.79	988.62
1031.078	962.86
1031.367	988.84
1031.656	998.79
1031.945	942.74
1032.233	975.74
1032.522	957.88
1032.81	930.09
1033.099	926.02
1033.387	951.1
1033.675	927.83
1033.963	930.54
1034.251	880.15
1034.54	948.17
1034.828	888.51
1035.116	886.7
1035.403	878.11
1035.691	895.06
1035.979	900.94
1036.267	883.31
1036.554	863.65
1036.842	869.53
1037.129	864.33
1037.417	844.67
1037.704	864.33
1037.992	858.23
1038.279	857.32
1038.566	842.18
1038.853	842.18
1039.14	842.18
