Data from tablewood_brown_FLMS001491_085.txt Node
Date: Tue Feb 07 11:11:08 GMT 2017
User: dcchb
Spectrometer: FLMS00149
Trigger mode: 0
Integration Time (sec): 2.000000E-2
Scans to average: 10
Electric dark correction enabled: true
Nonlinearity correction enabled: false
Boxcar width: 0
XAxis mode: Wavelengths
Number of Pixels in Spectrum: 2048
>>>>>Begin Spectral Data<<<<<
341.393	-9.18
341.776	-9.18
342.16	-9.18
342.543	-71.78
342.927	-71.1
343.31	-71.78
343.693	-92.79
344.077	-70.42
344.46	-54.6
344.843	-34.49
345.226	-40.14
345.61	-40.37
345.993	-17.99
346.376	-2.85
346.759	10.03
347.142	18.62
347.525	45.73
347.908	78.95
348.291	88.44
348.674	75.56
349.057	108.1
349.44	139.06
349.823	136.58
350.206	160.98
350.588	203.92
350.971	194.88
351.354	212.28
351.737	224.71
352.119	262.68
352.502	277.59
352.884	277.82
353.267	258.84
353.65	275.56
354.032	294.77
354.414	314.65
354.797	312.39
355.179	311.49
355.562	319.85
355.944	330.47
356.326	348.55
356.709	367.08
357.091	331.6
357.473	315.56
357.855	338.38
358.238	319.85
358.62	343.8
359.002	343.13
359.384	335.67
359.766	336.35
360.148	346.97
360.53	332.96
360.912	342.67
361.294	342.22
361.676	342.67
362.057	341.32
362.439	330.02
362.821	325.95
363.203	338.15
363.584	320.75
363.966	331.83
364.348	336.57
364.729	347.87
365.111	332.28
365.493	316.01
365.874	327.53
366.256	322.34
366.637	318.04
367.019	317.36
367.4	310.59
367.781	333.86
368.163	320.53
368.544	301.09
368.925	318.49
369.306	318.95
369.688	349
370.069	329.57
370.45	310.81
370.831	331.6
371.212	327.99
371.593	310.36
371.974	337.25
372.355	305.84
372.736	334.54
373.117	307.65
373.498	322.56
373.879	326.4
374.26	343.8
374.641	308.1
375.021	320.08
375.402	335.9
375.783	334.31
376.163	341.09
376.544	340.19
376.925	337.93
377.305	315.78
377.686	357.59
378.066	322.11
378.447	345.84
378.827	347.87
379.208	347.19
379.588	320.08
379.968	352.84
380.349	354.88
380.729	356.91
381.109	361.21
381.489	358.95
381.87	363.24
382.25	370.92
382.63	378.15
383.01	362.34
383.39	377.25
383.77	356.69
384.15	365.05
384.53	356.23
384.91	358.04
385.29	380.87
385.67	367.76
386.049	369.79
386.429	380.41
386.809	400.53
387.189	376.57
387.568	398.72
387.948	406.63
388.328	391.71
388.707	397.14
389.087	395.1
389.466	404.14
389.846	408.44
390.225	386.74
390.605	417.25
390.984	420.41
391.363	435.1
391.743	404.37
392.122	429
392.501	425.61
392.881	438.04
393.26	429.23
393.639	437.36
394.018	446.17
394.397	442.33
394.776	439.62
395.155	452.5
395.534	447.76
395.913	455.21
396.292	474.2
396.671	466.51
397.05	453.41
397.429	457.47
397.808	458.38
398.186	470.81
398.565	466.51
398.944	464.93
399.323	471.94
399.701	473.07
400.08	489.11
400.458	510.58
400.837	488.89
401.215	499.96
401.594	506.74
401.972	510.13
402.351	505.16
402.729	537.25
403.107	510.13
403.486	506.96
403.864	536.34
404.242	514.87
404.62	510.13
404.999	540.18
405.377	541.31
405.755	546.74
406.133	558.04
406.511	546.06
406.889	559.39
407.267	560.07
407.645	574.53
408.023	576.34
408.401	586.74
408.779	585.38
409.156	591.03
409.534	605.04
409.912	588.54
410.29	604.14
410.667	621.99
411.045	617.47
411.422	625.38
411.8	626.28
412.178	622.67
412.555	655.89
412.933	626.28
413.31	632.38
413.687	636
414.065	663.8
414.442	663.12
414.819	660.41
415.197	658.82
415.574	670.8
415.951	698.6
416.328	699.28
416.705	694.98
417.082	692.27
417.46	704.25
417.837	739.95
418.214	714.87
418.591	718.48
418.967	719.16
419.344	743.34
419.721	751.93
420.098	758.03
420.475	735.43
420.852	777.01
421.228	745.15
421.605	744.47
421.982	770.91
422.358	772.72
422.735	800.29
423.111	779.5
423.488	784.92
423.864	794.41
424.241	808.2
424.617	824.02
424.994	818.14
425.37	822.89
425.746	834.19
426.123	836.67
426.499	852.27
426.875	847.52
427.251	837.35
427.627	875.32
428.003	908.31
428.379	880.74
428.756	890.46
429.132	912.6
429.507	904.47
429.883	917.35
430.259	927.07
430.635	963.45
431.011	941.98
431.387	977.01
431.763	963.9
432.138	989.21
432.514	989.44
432.89	963.22
433.265	1007.06
433.641	1015.65
434.016	1052.71
434.392	1065.59
434.767	1052.49
435.143	1045.93
435.518	1091.13
435.894	1103.56
436.269	1093.39
436.644	1111.24
437.02	1140.39
437.395	1154.4
437.77	1169.32
438.145	1134.07
438.52	1172.71
438.895	1183.33
439.271	1207.74
439.646	1183.78
440.021	1211.58
440.395	1247.06
440.77	1233.95
441.145	1232.14
441.52	1249.77
441.895	1252.26
442.27	1297.9
442.645	1284.57
443.019	1313.04
443.394	1288.86
443.769	1304.91
444.143	1312.82
444.518	1327.73
444.892	1337.45
445.267	1328.41
445.641	1342.65
446.016	1332.03
446.39	1366.15
446.764	1378.58
447.139	1374.74
447.513	1344.46
447.887	1374.96
448.262	1391.69
448.636	1404.57
449.01	1419.48
449.384	1435.08
449.758	1434.4
450.132	1445.02
450.506	1442.76
450.88	1461.97
451.254	1484.79
451.628	1494.06
452.002	1470.55
452.376	1490.67
452.75	1538.35
453.123	1532.47
453.497	1568.41
453.871	1586.71
454.244	1617.9
454.618	1604.56
454.992	1670.1
455.365	1642.53
455.739	1675.75
456.112	1664.45
456.486	1674.62
456.859	1711.45
457.232	1751.45
457.606	1721.85
457.979	1743.09
458.352	1795.29
458.725	1832.13
459.099	1833.03
459.472	1867.38
459.845	1854.5
460.218	1906.7
460.591	1908.51
460.964	1922.97
461.337	1984.44
461.71	2020.6
462.083	1972.69
462.456	2012.46
462.829	2036.42
463.201	2051.56
463.574	2083.19
463.947	2086.81
464.32	2144.66
464.692	2185.11
465.065	2188.73
465.438	2218.33
465.81	2234.15
466.183	2288.16
466.555	2317.99
466.928	2318.44
467.3	2332
467.672	2404.54
468.045	2486.35
468.417	2442.73
468.789	2481.15
469.161	2532.45
469.534	2563.41
469.906	2642.05
470.278	2637.08
470.65	2641.15
471.022	2684.99
471.394	2805.89
471.766	2830.29
472.138	2874.13
472.51	2909.61
472.882	2936.05
473.253	2976.28
473.625	3082.26
473.997	3124.07
474.369	3180.79
474.74	3188.7
475.112	3225.76
475.484	3339.43
475.855	3384.4
476.227	3439.09
476.598	3511.18
476.97	3574.23
477.341	3674.34
477.713	3723.6
478.084	3737.61
478.455	3891.51
478.827	3937.38
479.198	4006.08
479.569	4068.68
479.94	4192.52
480.311	4227.32
480.682	4294.21
481.053	4397.03
481.424	4447.65
481.795	4573.75
482.166	4643.35
482.537	4766.97
482.908	4811.26
483.279	4883.35
483.65	4952.95
484.021	5062.32
484.391	5154.53
484.762	5225.03
485.133	5279.72
485.503	5337.35
485.874	5488.98
486.244	5542.54
486.615	5638.81
486.985	5685.58
487.356	5820.72
487.726	5910.66
488.097	6023.88
488.467	6065.46
488.837	6175.06
489.207	6219.13
489.578	6346.58
489.948	6385.45
490.318	6476.98
490.688	6503.42
491.058	6629.51
491.428	6767.14
491.798	6805.78
492.168	6914.25
492.538	6968.72
492.908	7048.26
493.278	7191.99
493.648	7155.6
494.017	7312.66
494.387	7354.47
494.757	7386.78
495.126	7542.71
495.496	7607.12
495.866	7587.23
496.235	7685.76
496.605	7754.01
496.974	7820.67
497.344	7891.63
497.713	7953.55
498.082	8017.05
498.452	8120.1
498.821	8110.38
499.19	8178.17
499.559	8289.81
499.928	8373.88
500.298	8397.83
500.667	8495
501.036	8420.2
501.405	8578.39
501.774	8586.53
502.143	8727.31
502.512	8702.68
502.88	8829.68
503.249	8833.07
503.618	8899.96
503.987	8963.92
504.356	9033.07
504.724	9067.19
505.093	9134.31
505.462	9211.59
505.83	9316.9
506.199	9373.4
506.567	9450.68
506.936	9383.11
507.304	9600.74
507.672	9651.81
508.041	9679.6
508.409	9789.43
508.777	9846.83
509.145	9945.13
509.514	9945.59
509.882	10039.59
510.25	10074.85
510.618	10249.53
510.986	10199.36
511.354	10334.95
511.722	10451.79
512.09	10558.23
512.458	10569.3
512.826	10684.32
513.193	10733.14
513.561	10835.73
513.929	10886.58
514.297	11002.96
514.664	11123.63
515.032	11122.5
515.4	11263.29
515.767	11270.52
516.135	11304.42
516.502	11280.69
516.869	11630.51
517.237	11601.14
517.604	11596.62
517.972	11843.39
518.339	11926.32
518.706	11926.1
519.073	12044.51
519.44	12077.51
519.808	12279.08
520.175	12282.47
520.542	12405.18
520.909	12429.14
521.276	12626.42
521.643	12690.82
522.009	12773.99
522.376	12883.59
522.743	13010.14
523.11	13074.32
523.477	13189.57
523.843	13305.27
524.21	13524.25
524.577	13672.49
524.943	13709.1
525.31	13753.4
525.676	13933.96
526.043	14035.2
526.409	14099.15
526.776	14244.91
527.142	14329.43
527.508	14324.23
527.874	14465.02
528.241	14622.98
528.607	14659.36
528.973	14760.6
529.339	14843.76
529.705	15028.62
530.071	15168.27
530.437	15203.98
530.803	15325.33
531.169	15309.96
531.535	15373.01
531.901	15420.92
532.267	15582.05
532.632	15690.07
532.998	15639.9
533.364	15788.82
533.73	15757.41
534.095	15962.15
534.461	16025.2
534.826	16229.04
535.192	16225.87
535.557	16376.38
535.923	16328.02
536.288	16500.89
536.653	16419.99
537.019	16524.62
537.384	16567.78
537.749	16661.12
538.114	16775.01
538.479	16719.42
538.845	16869.25
539.21	16955.57
539.575	16962.12
539.94	17091.61
540.305	17183.14
540.67	17116.02
541.034	17160.76
541.399	17328.89
541.764	17316.47
542.129	17380.19
542.494	17391.49
542.858	17537.7
543.223	17497.03
543.587	17643.69
543.952	17666.74
544.316	17841.42
544.681	17816.57
545.045	17939.73
545.41	18013.85
545.774	18019.05
546.138	18043.23
546.503	18057.01
546.867	18181.3
547.231	18308.76
547.595	18349.21
547.959	18552.14
548.324	18444.35
548.688	18533.38
549.052	18581.97
549.416	18665.36
549.779	18703.77
550.143	18757.11
550.507	18896.31
550.871	19036.42
551.235	18919.81
551.599	19278
551.962	19179.24
552.326	19439.35
552.689	19531.32
553.053	19428.5
553.417	19628.95
553.78	19760.7
554.143	19770.64
554.507	19944.42
554.87	20077.07
555.234	20321.81
555.597	20228.71
555.96	20399.1
556.323	20436.84
556.686	20480
557.05	20717.05
557.413	20952.53
557.776	20952.08
558.139	21109.59
558.502	21127.89
558.865	21374.21
559.228	21556.81
559.59	21723.81
559.953	21773.75
560.316	22030.69
560.679	21983.24
561.041	22305.03
561.404	22412.15
561.767	22453.73
562.129	22539.83
562.492	22975.07
562.854	22888.75
563.217	22972.14
563.579	23165.35
563.941	23401.96
564.304	23585.91
564.666	23770.53
565.028	23712.46
565.39	23917.87
565.753	24143.18
566.115	24256.62
566.477	24504.98
566.839	24641.47
567.201	24912.42
567.563	24836.04
567.925	25123.72
568.287	25166.43
568.648	25326.2
569.01	25644.61
569.372	25830.14
569.734	25830.59
570.095	25999.4
570.457	26274.2
570.819	26332.95
571.18	26546.73
571.542	26762.09
571.903	26936.33
572.265	27019.26
572.626	27195.53
572.987	27355.52
573.349	27461.96
573.71	27634.16
574.071	27828.73
574.432	28057.43
574.794	28370.41
575.155	28445.21
575.516	28380.36
575.877	28532.89
576.238	28758.42
576.599	28881.59
576.96	29116.61
577.32	29051.52
577.681	29186.44
578.042	29438.63
578.403	29536.48
578.763	29719.53
579.124	29753.2
579.485	29944.61
579.845	30154.09
580.206	30152.96
580.566	30184.38
580.927	30384.37
581.287	30424.6
581.648	30413.3
582.008	30714.53
582.368	30717.92
582.728	30892.61
583.089	30781.42
583.449	31028.42
583.809	30927.18
584.169	31028.2
584.529	31089.66
584.889	31314.52
585.249	31272.93
585.609	31122.43
585.969	31334.85
586.329	31429.54
586.688	31446.49
587.048	31562.87
587.408	31549.76
587.768	31528.3
588.127	31619.59
588.487	31514.74
588.846	31791.34
589.206	31695.3
589.565	31808.97
589.925	31797.67
590.284	31755.41
590.643	31916.99
591.003	32002.18
591.362	32180.71
591.721	32135.74
592.08	32091.67
592.44	32202.63
592.799	32162.63
593.158	32160.14
593.517	32095.51
593.876	32242.17
594.235	32175.51
594.593	32286.02
594.952	32346.8
595.311	32128.73
595.67	32380.93
596.029	32628.38
596.387	32528.04
596.746	32706.8
597.104	32489.17
597.463	32572.11
597.822	32511.55
598.18	32672.9
598.538	32464.09
598.897	32742.27
599.255	32510.19
599.613	32895.27
599.972	32767.81
600.33	32923.51
600.688	32716.96
601.046	32935.72
601.404	33033.11
601.762	32998.77
602.12	33089.61
602.478	33090.74
602.836	33193.34
603.194	32947.02
603.552	33051.19
603.91	32930.07
604.268	33176.16
604.625	32992.44
604.983	33109.04
605.341	33034.24
605.698	33176.84
606.056	33178.42
606.413	33298.87
606.771	33252.09
607.128	33286.22
607.485	33247.35
607.843	33382.71
608.2	33610.95
608.557	33588.35
608.914	33469.04
609.272	33576.6
609.629	33607.34
609.986	33812.08
610.343	33624.51
610.7	33850.49
611.057	33785.41
611.414	33833.32
611.771	33798.52
612.127	33949.7
612.484	33791.51
612.841	34021.56
613.198	33883.71
613.554	33928.46
613.911	34125.74
614.267	34180.43
614.624	34101.79
614.98	34109.02
615.337	34352.85
615.693	34253.42
616.05	34218.39
616.406	34408.67
616.762	34281.9
617.118	34311.72
617.475	34353.76
617.831	34429.24
618.187	34455.9
618.543	34547.65
618.899	34676.46
619.255	34709.45
619.611	34560.31
619.967	34647.31
620.323	34798.27
620.678	34589.91
621.034	34534.54
621.39	34570.25
621.746	34538.39
622.101	34999.39
622.457	34570.48
622.812	34600.08
623.168	34867.87
623.523	34849.79
623.879	34969.79
624.234	34808.21
624.589	34829.23
624.945	34888.66
625.3	34924.36
625.655	34842.78
626.01	35038.49
626.365	34826.51
626.72	34928.21
627.075	34852.28
627.43	34700.42
627.785	34661.77
628.14	34781.09
628.495	34734.54
628.85	34718.27
629.205	34677.14
629.559	34951.71
629.914	34602.56
630.269	34762.11
630.623	34608.44
630.978	34620.87
631.332	34860.86
631.687	34774.99
632.041	34677.82
632.396	34545.62
632.75	34546.52
633.104	34615.9
633.459	34345.17
633.813	34382.01
634.167	34346.75
634.521	34407.99
634.875	34449.57
635.229	34376.36
635.583	34304.72
635.937	34233.31
636.291	34213.42
636.645	34139.07
636.999	34294.55
637.352	34202.58
637.706	33947.89
638.06	34073.99
638.413	34017.27
638.767	33963.03
639.121	33863.6
639.474	33797.61
639.828	33810.5
640.181	33812.98
640.534	33788.12
640.888	33813.66
641.241	33534.57
641.594	33626.09
641.947	33761
642.301	33534.8
642.654	33595.13
643.007	33601.01
643.36	33497.96
643.713	33629.03
644.066	33599.65
644.419	33465.42
644.771	33253.45
645.124	33134.35
645.477	32988.37
645.83	32662.95
646.182	32656.18
646.535	32528.95
646.888	32644.65
647.24	32451.43
647.593	32556.06
647.945	32432.9
648.298	32368.27
648.65	32187.04
649.002	32243.98
649.355	32332.79
649.707	32248.28
650.059	32401.49
650.411	32927.13
650.763	32945.89
651.115	33288.7
651.467	33207.57
651.819	33099.1
652.171	32934.13
652.523	32985.66
652.875	32993.57
653.227	32892.78
653.578	33137.29
653.93	32977.97
654.282	32836.28
654.633	32754.48
654.985	32947.24
655.337	32921.03
655.688	32959.67
656.039	32990.63
656.391	32738.66
656.742	32878.99
657.094	32829.05
657.445	32885.1
657.796	32893.68
658.147	32774.14
658.498	32846.23
658.849	32850.52
659.2	32739.56
659.551	32807.58
659.902	32865.66
660.253	32893.91
660.604	32880.12
660.955	32677.19
661.306	32845.32
661.656	32800.58
662.007	32770.07
662.358	32719.9
662.708	32821.14
663.059	32603.97
663.409	32540.02
663.76	32731.2
664.11	32720.58
664.461	32646.91
664.811	32764.87
665.161	32803.06
665.511	32536.63
665.862	32754.93
666.212	32681.94
666.562	32634.71
666.912	32646.01
667.262	32618.89
667.612	32736.4
667.962	32583.63
668.312	32470.19
668.662	32713.12
669.011	32548.38
669.361	32615.95
669.711	32561.94
670.06	32553.81
670.41	32581.83
670.76	32331.44
671.109	32525.11
671.459	32596.06
671.808	32420.25
672.157	32420.02
672.507	32335.05
672.856	32321.95
673.205	32358.78
673.554	32448.72
673.904	32337.09
674.253	32477.65
674.602	32320.82
674.951	31924.22
675.3	31805.12
675.649	32403.98
675.998	32190.65
676.346	32232.01
676.695	32176.19
677.044	31957.21
677.393	32153.36
677.741	32101.16
678.09	31978.9
678.438	31925.8
678.787	32036.3
679.135	31932.8
679.484	31786.37
679.832	31912.01
680.181	31584.79
680.529	31681.51
680.877	31678.8
681.225	31555.87
681.573	31729.87
681.922	31675.86
682.27	31468.41
682.618	31470.44
682.966	31366.72
683.314	31354.51
683.661	31237.23
684.009	31021.64
684.357	31136.67
684.705	31100.28
685.053	31196.78
685.4	31052.15
685.748	30911.14
686.095	30864.36
686.443	30670.92
686.79	30664.36
687.138	30695.32
687.485	30625.04
687.832	30597.47
688.18	30581.65
688.527	30391.38
688.874	30430.7
689.221	30313.19
689.568	30296.24
689.915	30245.62
690.262	30159.52
690.609	29987.32
690.956	30106.19
691.303	30017.6
691.65	29770.6
691.997	29802.46
692.344	29565.64
692.69	29469.59
693.037	29564.28
693.383	29136.04
693.73	29514.79
694.077	29170.39
694.423	29171.07
694.769	28993.45
695.116	29142.37
695.462	28947.8
695.808	28915.93
696.155	28865.99
696.501	28699.67
696.847	28636.85
697.193	28433.69
697.539	28596.85
697.885	28280.7
698.231	28185.11
698.577	28188.27
698.923	28136.97
699.269	28026.47
699.614	27888.84
699.96	27787.15
700.306	27802.52
700.651	27659.24
700.997	27544.22
701.342	27574.73
701.688	27398.23
702.033	27288.41
702.379	27326.37
702.724	27164.34
703.069	27247.96
703.415	26871.69
703.76	26828.31
704.105	26939.72
704.45	26767.29
704.795	26595.09
705.14	26634.41
705.485	26567.3
705.83	26384.25
706.175	26481.42
706.52	26314.2
706.865	26161.43
707.209	26149
707.554	26033.07
707.899	26231.26
708.243	26052.06
708.588	25929.35
708.932	25709.47
709.277	25815.9
709.621	25857.26
709.966	25669.47
710.31	25646.87
710.654	25508.57
710.998	25450.49
711.342	25454.78
711.687	25426.08
712.031	25252.53
712.375	25163.94
712.719	25187.67
713.063	25149.71
713.407	25222.47
713.75	24981.12
714.094	25055.47
714.438	24994
714.782	24889.83
715.125	24817.29
715.469	24944.06
715.812	24841.92
716.156	24708.59
716.499	24786.33
716.843	24678.31
717.186	24615.93
717.53	24567.57
717.873	24622.04
718.216	24567.12
718.559	24532.77
718.902	24347.24
719.246	24402.61
719.589	24172.33
719.932	24277.86
720.275	24224.08
720.617	24107.93
720.96	24264.31
721.303	24059.79
721.646	24169.84
721.989	24020.24
722.331	24034.48
722.674	23981.6
723.016	24078.55
723.359	23929.17
723.701	24145.44
724.044	23951.32
724.386	23843.75
724.729	23954.94
725.071	23848.72
725.413	23909.96
725.755	23841.94
726.097	23864.09
726.439	23721.27
726.782	23759.69
727.124	23883.3
727.465	23769.4
727.807	23792.23
728.149	23626.13
728.491	23650.76
728.833	23714.72
729.175	23643.53
729.516	23503.87
729.858	23637.66
730.199	23694.38
730.541	23553.59
730.882	23524.21
731.224	23671.33
731.565	23567.83
731.906	23536.42
732.248	23509.52
732.589	23399.47
732.93	23415.51
733.271	23419.81
733.612	23433.37
733.953	23472.46
734.294	23446.02
734.635	23415.51
734.976	23505.46
735.317	23338.91
735.658	23377.78
735.999	23424.1
736.339	23359.47
736.68	23452.58
737.021	23364.67
737.361	23223.88
737.702	23477.43
738.042	23397.66
738.383	23335.29
738.723	23383.2
739.063	23298.46
739.404	23248.51
739.744	23259.81
740.084	23142.08
740.424	23197.21
740.764	23189.98
741.104	23277.89
741.444	23298.68
741.784	23117.89
742.124	23258.68
742.464	23203.32
742.804	23140.04
743.143	23186.37
743.483	23290.09
743.823	23113.15
744.162	23138.01
744.502	23074.28
744.841	22982.76
745.181	23177.55
745.52	23084.9
745.86	23104.56
746.199	23078.35
746.538	23170.1
746.877	23166.26
747.216	23113.83
747.556	23058.69
747.895	23103.21
748.234	22980.72
748.573	23039.03
748.911	22950.89
749.25	23021.85
749.589	22973.49
749.928	22934.4
750.267	23089.42
750.605	22967.39
750.944	22875.19
751.283	22883.1
751.621	22965.58
751.96	22948.18
752.298	22820.73
752.636	22873.61
752.975	22829.77
753.313	22773.72
753.651	22864.12
753.989	22681.07
754.327	22530.11
754.666	22526.5
755.004	22610.56
755.342	22571.69
755.679	22479.04
756.017	22430.68
756.355	22539.38
756.693	22392.04
757.031	22378.48
757.368	22398.14
757.706	22321.31
758.044	22325.83
758.381	22314.75
758.719	22240.4
759.056	22176.45
759.394	22178.48
759.731	22061.65
760.068	22034.31
760.405	21985.27
760.743	21856.91
761.08	21954.99
761.417	21926.51
761.754	21777.37
762.091	21740.3
762.428	21633.19
762.765	21524.72
763.102	21518.84
763.438	21448.79
763.775	21424.61
764.112	21471.16
764.449	21379.86
764.785	21244.72
765.122	21140.32
765.458	21102.35
765.795	21073.43
766.131	21072.3
766.467	20963.6
766.804	20936.94
767.14	20878.18
767.476	20896.71
767.812	20813.55
768.148	20772.65
768.485	20532.43
768.821	20510.51
769.157	20506.89
769.492	20426.44
769.828	20415.59
770.164	20233.9
770.5	20228.93
770.836	20217.63
771.171	20032.55
771.507	20068.71
771.842	19812.45
772.178	19813.58
772.513	19855.61
772.849	19745.33
773.184	19600.7
773.519	19707.59
773.855	19532
774.19	19436.18
774.525	19391.21
774.86	19350.76
775.195	19366.58
775.53	19271.44
775.865	19196.19
776.2	19110.54
776.535	18851.79
776.87	18996.2
777.205	18892.02
777.539	18790.33
777.874	18807.5
778.209	18618.58
778.543	18545.59
778.878	18409.09
779.212	18551.01
779.547	18390.11
779.881	18387.4
780.215	18314.63
780.55	18296.78
780.884	18141.98
781.218	18125.48
781.552	18098.82
781.886	17917.13
782.22	17795.1
782.554	17831.25
782.888	17705.16
783.222	17657.7
783.556	17522.79
783.889	17579.28
784.223	17456.8
784.557	17344.71
784.89	17475.11
785.224	17296.35
785.557	17231.95
785.891	17189.24
786.224	17162.12
786.558	17206.41
786.891	16973.88
787.224	16947.21
787.557	16905.63
787.891	16876.03
788.224	16821.11
788.557	16838.51
788.89	16711.28
789.223	16658.63
789.556	16572.08
789.888	16487.56
790.221	16463.61
790.554	16325.76
790.887	16400.11
791.219	16336.38
791.552	16256.83
791.884	16198.75
792.217	16114.01
792.549	16097.97
792.882	15936.39
793.214	15892.55
793.546	15891.42
793.879	15865.88
794.211	15784.53
794.543	15777.3
794.875	15694.59
795.207	15752.44
795.539	15693.01
795.871	15670.63
796.203	15546.79
796.535	15416.18
796.867	15389.51
797.198	15361.71
797.53	15246.69
797.862	15258.67
798.193	15266.58
798.525	15159.46
798.856	15205.56
799.188	15057.77
799.519	14901.61
799.85	14869.3
800.182	14874.27
800.513	14838.34
800.844	14751.11
801.175	14728.51
801.506	14780.94
801.837	14721.51
802.168	14635.41
802.499	14564.45
802.83	14564.67
803.161	14450.1
803.491	14508.4
803.822	14524.45
804.153	14398.12
804.483	14288.97
804.814	14225.47
805.145	14218.02
805.475	14286.26
805.805	14098.47
806.136	14254.17
806.466	14024.8
806.796	14099.6
807.126	13991.81
807.457	13917.68
807.787	13967.4
808.117	13900.28
808.447	13862.77
808.777	13837.69
809.107	13712.72
809.436	13778.03
809.766	13704.36
810.096	13709.33
810.426	13619.84
810.755	13597.24
811.085	13587.75
811.414	13599.5
811.744	13449.67
812.073	13445.15
812.403	13424.82
812.732	13309.34
813.061	13345.95
813.39	13217.14
813.719	13234.99
814.049	13393.18
814.378	13322.67
814.707	13218.95
815.036	13265.72
815.365	13108.89
815.693	13018.5
816.022	13008.78
816.351	13025.05
816.68	12975.11
817.008	12992.96
817.337	12889.69
817.665	12914.77
817.994	12918.84
818.322	12824.83
818.651	12778.73
818.979	12693.54
819.307	12767.66
819.636	12717.49
819.964	12661.45
820.292	12575.12
820.62	12722.01
820.948	12610.37
821.276	12741.9
821.604	12563.37
821.932	12631.17
822.259	12636.36
822.587	12576.7
822.915	12593.65
823.243	12613.54
823.57	12562.01
823.898	12560.88
824.225	12461
824.553	12464.39
824.88	12458.97
825.207	12589.81
825.535	12562.92
825.862	12569.02
826.189	12579.64
826.516	12486.54
826.843	12590.04
827.17	12571.73
827.497	12536.93
827.824	12552.75
828.151	12581.22
828.478	12517.5
828.805	12619.19
829.131	12529.25
829.458	12536.7
829.785	12475.24
830.111	12524.28
830.438	12568.34
830.764	12469.81
831.09	12529.02
831.417	12489.7
831.743	12468.23
832.069	12485.18
832.395	12417.61
832.722	12522.92
833.048	12540.32
833.374	12487.89
833.7	12400.44
834.026	12483.82
834.351	12407.89
834.677	12493.77
835.003	12458.51
835.329	12408.12
835.654	12342.59
835.98	12337.16
836.306	12354.34
836.631	12319.31
836.956	12394.79
837.282	12328.57
837.607	12261.23
837.932	12197.5
838.258	12160.67
838.583	12231.4
838.908	12146.21
839.233	12174.45
839.558	12183.72
839.883	12009.49
840.208	12033.44
840.533	12107.79
840.858	12017.17
841.182	12060.11
841.507	12042.03
841.832	11971.3
842.156	11954.8
842.481	11910.73
842.805	11894.01
843.13	11849.72
843.454	11814.69
843.778	11776.05
844.103	11750.28
844.427	11736.95
844.751	11751.19
845.075	11677.97
845.399	11652.21
845.723	11626.67
846.047	11658.99
846.371	11498.09
846.695	11472.33
847.019	11451.08
847.343	11417.86
847.666	11294.48
847.99	11228.04
848.313	11329.73
848.637	11169.06
848.96	11149.17
849.284	11114.59
849.607	11085.44
849.931	11064.43
850.254	10971.55
850.577	10895.62
850.9	10789.18
851.223	10922.06
851.546	10772.91
851.869	10710.09
852.192	10794.6
852.515	10685.91
852.838	10619.01
853.161	10648.17
853.483	10569.98
853.806	10531.79
854.129	10559.13
854.451	10492.46
854.774	10385.35
855.096	10374.95
855.419	10428.51
855.741	10344.67
856.063	10257.44
856.385	10287.05
856.708	10281.62
857.03	10200.49
857.352	10224
857.674	10177.22
857.996	10110.33
858.318	10081.18
858.64	10075.75
858.961	10095.41
859.283	9993.27
859.605	9990.78
859.926	9998.92
860.248	9999.14
860.57	9887.28
860.891	9934.51
861.212	9886.6
861.534	9798.7
861.855	9831.46
862.176	9807.74
862.498	9849.32
862.819	9798.02
863.14	9766.83
863.461	9725.7
863.782	9675.76
864.103	9667.85
864.424	9657.68
864.745	9647.51
865.065	9594.86
865.386	9602.32
865.707	9581.3
866.027	9571.13
866.348	9527.07
866.668	9601.87
866.989	9467.41
867.309	9551.7
867.63	9497.01
867.95	9462.43
868.27	9420.18
868.59	9423.34
868.91	9382.66
869.23	9413.62
869.55	9327.98
869.87	9422.44
870.19	9364.36
870.51	9380.18
870.83	9339.05
871.15	9337.92
871.469	9262.21
871.789	9340.4
872.109	9292.5
872.428	9247.75
872.748	9251.37
873.067	9241.88
873.386	9256.34
873.706	9210.24
874.025	9144.25
874.344	9162.33
874.663	9173.4
874.982	9166.62
875.301	9166.17
875.62	9112.39
875.939	9122.56
876.258	9109.9
876.577	9012.5
876.896	9069.9
877.214	9040.53
877.533	9035.33
877.852	9000.07
878.17	8991.49
878.489	8951.49
878.807	8979.96
879.125	8937.25
879.444	8972.28
879.762	8958.72
880.08	8933.86
880.398	8875.11
880.716	8902.22
881.034	8837.14
881.352	8850.25
881.67	8850.02
881.988	8782.68
882.306	8771.83
882.624	8780.64
882.941	8784.49
883.259	8690.93
883.577	8672.63
883.894	8709.01
884.212	8705.39
884.529	8693.19
884.846	8650.7
885.164	8640.31
885.481	8600.99
885.798	8563.93
886.115	8546.53
886.432	8577.71
886.75	8452.97
887.067	8483.48
887.383	8525.28
887.7	8506.3
888.017	8431.28
888.334	8368
888.651	8305.86
888.967	8413.87
889.284	8361.45
889.6	8333.88
889.917	8269.92
890.233	8275.8
890.55	8248.68
890.866	8226.99
891.182	8176.82
891.498	8182.92
891.815	8135.69
892.131	8144.28
892.447	8095.92
892.763	8033.55
893.079	8065.41
893.395	8034.68
893.71	7945.64
894.026	8018.4
894.342	7957.16
894.657	7874.45
894.973	7940.67
895.289	7960.33
895.604	7852.99
895.92	7867.45
896.235	7804.17
896.55	7818.41
896.865	7772.54
897.181	7768.02
897.496	7724.18
897.811	7684.63
898.126	7607.79
898.441	7627
898.756	7622.71
899.071	7558.08
899.386	7601.69
899.7	7473.56
900.015	7563.73
900.33	7414.13
900.644	7375.71
900.959	7480.79
901.273	7361.25
901.588	7340
901.902	7381.36
902.216	7278.76
902.531	7280.8
902.845	7273.34
903.159	7202.61
903.473	7161.03
903.787	7146.34
904.101	7206
904.415	7125.77
904.729	7050.29
905.042	7056.62
905.356	7089.39
905.67	7016.62
905.984	7073.12
906.297	6992.67
906.611	6893.69
906.924	7000.13
907.237	6958.32
907.551	6844.65
907.864	6834.71
908.177	6815.5
908.491	6793.8
908.804	6815.5
909.117	6808.49
909.43	6787.93
909.743	6671.32
910.056	6722.17
910.368	6612.11
910.681	6590.42
910.994	6650.76
911.307	6572.79
911.619	6507.94
911.932	6519.69
912.244	6512
912.557	6500.7
912.869	6443.76
913.181	6420.93
913.494	6377.09
913.806	6329.41
914.118	6379.8
914.43	6278.79
914.742	6305.68
915.054	6279.47
915.366	6252.58
915.678	6192.01
915.99	6178.91
916.302	6149.75
916.613	6122.18
916.925	6112.24
917.236	6122.18
917.548	6063.43
917.859	6020.04
918.171	5984.79
918.482	5971
918.794	5914.73
919.105	5940.72
919.416	5905.69
919.727	5888.97
920.038	5869.31
920.349	5796.54
920.66	5845.58
920.971	5802.19
921.282	5783.44
921.593	5715.64
921.903	5730.33
922.214	5700.95
922.525	5646.49
922.835	5637
923.146	5597.23
923.456	5590.9
923.767	5580.05
924.077	5565.81
924.387	5537.34
924.697	5493.05
925.008	5442.88
925.318	5484.23
925.628	5404.01
925.938	5424.12
926.248	5365.37
926.558	5377.8
926.867	5347.51
927.177	5356.33
927.487	5271.58
927.796	5229.33
928.106	5251.25
928.416	5271.36
928.725	5218.7
929.034	5210.8
929.344	5205.6
929.653	5180.06
929.962	5133.51
930.271	5078.6
930.581	5098.48
930.89	5064.36
931.199	5018.71
931.508	5043.12
931.817	4946.62
932.125	4985.72
932.434	5001.76
932.743	4959.95
933.051	4914.53
933.36	4906.4
933.669	4869.56
933.977	4872.95
934.286	4781.2
934.594	4844.25
934.902	4764.25
935.21	4716.34
935.519	4774.2
935.827	4752.95
936.135	4716.34
936.443	4631.83
936.751	4630.25
937.059	4632.51
937.367	4649.91
937.674	4613.07
937.982	4639.96
938.29	4577.59
938.597	4556.35
938.905	4505.05
939.213	4536.01
939.52	4525.62
939.827	4506.18
940.135	4431.83
940.442	4414.66
940.749	4430.48
941.056	4453.08
941.363	4350.03
941.67	4376.92
941.977	4343.02
942.284	4343.7
942.591	4310.71
942.898	4289.46
943.205	4270.93
943.511	4259.86
943.818	4257.6
944.125	4233.42
944.431	4211.27
944.738	4201.56
945.044	4181.44
945.35	4181.67
945.657	4147.77
945.963	4121.33
946.269	4113.65
946.575	4074.1
946.881	4055.57
947.187	4030.71
947.493	4027.1
947.799	4070.26
948.105	4001.11
948.41	3962.92
948.716	3974.67
949.022	3934.67
949.327	3948.91
949.633	3913.65
949.938	3911.17
950.244	3884.28
950.549	3884.28
950.854	3860.1
951.16	3845.86
951.465	3805.86
951.77	3808.12
952.075	3785.75
952.38	3806.31
952.685	3762.92
952.99	3713.89
953.294	3712.3
953.599	3715.69
953.904	3701.23
954.209	3625.53
954.513	3638.41
954.818	3607.22
955.122	3567.22
955.426	3604.96
955.731	3608.35
956.035	3555.92
956.339	3585.75
956.643	3550.95
956.948	3542.82
957.252	3545.08
957.556	3500.33
957.86	3460.11
958.163	3430.5
958.467	3473.67
958.771	3463.72
959.075	3466.89
959.378	3414.91
959.682	3390.5
959.985	3409.94
960.289	3357.28
960.592	3374.69
960.896	3351.18
961.199	3336.72
961.502	3348.02
961.805	3301.01
962.108	3267.12
962.411	3265.99
962.714	3270.28
963.017	3226.21
963.32	3270.28
963.623	3240
963.926	3215.14
964.228	3158.65
964.531	3174.01
964.833	3154.35
965.136	3174.01
965.438	3143.28
965.741	3143.96
966.043	3113.9
966.345	3084.98
966.648	3095.82
966.95	3079.33
967.252	3049.27
967.554	3038.42
967.856	3067.57
968.158	3020.8
968.46	3003.17
968.761	2972.89
969.063	2996.16
969.365	2995.94
969.666	2920.23
969.968	2919.78
970.269	2923.17
970.571	2912.1
970.872	2879.78
971.174	2870.29
971.475	2857.41
971.776	2854.92
972.077	2812.89
972.378	2826
972.679	2808.82
972.98	2820.12
973.281	2822.61
973.582	2767.92
973.883	2773.12
974.183	2752.33
974.484	2740.58
974.785	2751.88
975.085	2715.27
975.386	2703.29
975.686	2717.75
975.986	2690.86
976.287	2706.91
976.587	2669.62
976.887	2673.69
977.187	2676.85
977.487	2633.69
977.787	2626.23
978.087	2626.23
978.387	2598.66
978.687	2574.71
978.987	2566.34
979.286	2576.06
979.586	2570.64
979.885	2547.36
980.185	2525.22
980.484	2551.66
980.784	2503.97
981.083	2555.05
981.382	2518.66
981.682	2469.4
981.981	2452
982.28	2445.22
982.579	2455.84
982.878	2461.26
983.177	2441.15
983.475	2461.71
983.774	2409.06
984.073	2408.61
984.372	2373.13
984.67	2397.54
984.969	2394.15
985.267	2356.86
985.566	2369.74
985.864	2342.4
986.162	2352.79
986.461	2346.01
986.759	2294.71
987.057	2273.25
987.355	2294.94
987.653	2272.34
987.951	2271.89
988.249	2249.97
988.547	2239.8
988.844	2216.52
989.142	2237.99
989.44	2183.08
989.737	2200.93
990.035	2193.25
990.332	2209.29
990.63	2184.66
990.927	2193.25
991.224	2170.42
991.521	2170.2
991.819	2128.16
992.116	2139.24
992.413	2134.72
992.71	2123.64
993.006	2089.97
993.303	2085
993.6	2077.09
993.897	2085.68
994.193	2057.43
994.49	2050.43
994.787	2051.1
995.083	2023.76
995.379	2022.63
995.676	1990.99
995.972	2006.36
996.268	1995.51
996.565	1971.33
996.861	1971.78
997.157	1986.25
997.453	1932.92
997.749	1940.6
998.044	1946.47
998.34	1935.18
998.636	1951.9
998.932	1927.27
999.227	1909.41
999.523	1921.16
999.818	1876.87
1000.114	1905.8
1000.409	1873.93
1000.704	1822.18
1001	1855.63
1001.295	1814.27
1001.59	1824.67
1001.885	1832.35
1002.18	1797.78
1002.475	1791.68
1002.77	1826.7
1003.065	1762.75
1003.359	1738.8
1003.654	1782.64
1003.949	1759.81
1004.243	1711
1004.538	1708.29
1004.832	1729.53
1005.127	1705.12
1005.421	1713.03
1005.715	1691.11
1006.009	1674.39
1006.304	1683.2
1006.598	1649.53
1006.892	1653.83
1007.186	1614.73
1007.48	1649.53
1007.773	1638.69
1008.067	1594.17
1008.361	1605.92
1008.655	1584.22
1008.948	1590.78
1009.242	1589.65
1009.535	1567.05
1009.829	1588.52
1010.122	1564.34
1010.415	1543.55
1010.708	1557.56
1011.001	1544.9
1011.295	1508.52
1011.588	1540.61
1011.881	1515.53
1012.173	1494.06
1012.466	1524.79
1012.759	1508.07
1013.052	1489.09
1013.344	1442.76
1013.637	1459.03
1013.93	1441.18
1014.222	1466.71
1014.514	1469.42
1014.807	1421.97
1015.099	1447.73
1015.391	1411.57
1015.683	1404.12
1015.976	1416.32
1016.268	1390.1
1016.56	1379.71
1016.851	1379.71
1017.143	1341.52
1017.435	1344
1017.727	1336.55
1018.018	1342.87
1018.31	1343.55
1018.602	1323.67
1018.893	1330.9
1019.185	1331.12
1019.476	1315.08
1019.767	1307.62
1020.058	1287.28
1020.35	1278.47
1020.641	1278.02
1020.932	1267.17
1021.223	1249.32
1021.514	1229.2
1021.804	1215.65
1022.095	1205.93
1022.386	1219.04
1022.677	1212.26
1022.967	1202.09
1023.258	1207.06
1023.548	1170.22
1023.839	1136.55
1024.129	1181.97
1024.419	1162.31
1024.709	1186.72
1025	1161.64
1025.29	1162.54
1025.58	1132.26
1025.87	1149.21
1026.16	1146.72
1026.449	1091.36
1026.739	1127.06
1027.029	1086.16
1027.319	1083.45
1027.608	1087.06
1027.898	1072.82
1028.187	1097.68
1028.477	1070.11
1028.766	1068.08
1029.055	1040.51
1029.344	1058.59
1029.634	1048.19
1029.923	1010.91
1030.212	1032.15
1030.501	1004.35
1030.79	1021.98
1031.078	1016.33
1031.367	1005.93
1031.656	995.76
1031.945	990.79
1032.233	975.88
1032.522	971.58
1032.81	991.25
1033.099	983.79
1033.387	977.01
1033.675	957.35
1033.963	957.35
1034.251	958.25
1034.54	935.2
1034.828	942.43
1035.116	919.38
1035.403	918.03
1035.691	899.5
1035.979	901.53
1036.267	920.29
1036.554	905.82
1036.842	881.64
1037.129	879.16
1037.417	894.3
1037.704	874.64
1037.992	865.37
1038.279	870.12
1038.566	861.98
1038.853	861.98
1039.14	861.98
