Data from tablewood_dark_bookshelf_FLMS001491_00078.txt Node
Date: Wed Feb 08 14:15:37 GMT 2017
User: dcchb
Spectrometer: FLMS00149
Trigger mode: 0
Integration Time (sec): 2.000000E-2
Scans to average: 10
Electric dark correction enabled: true
Nonlinearity correction enabled: false
Boxcar width: 0
XAxis mode: Wavelengths
Number of Pixels in Spectrum: 2048
>>>>>Begin Spectral Data<<<<<
341.393	-26.28
341.776	-26.28
342.16	-26.28
342.543	-58.37
342.927	-75.1
343.31	-71.93
343.693	-67.64
344.077	-36.68
344.46	-73.97
344.843	-75.1
345.226	-59.73
345.61	-28.09
345.993	-19.28
346.376	1.74
346.759	22.08
347.142	27.27
347.525	51.91
347.908	54.17
348.291	67.05
348.674	96.88
349.057	111.34
349.44	117.89
349.823	147.72
350.206	157.44
350.588	164.67
350.971	202.41
351.354	230.66
351.737	248.96
352.119	243.76
352.502	246.7
352.884	245.57
353.267	263.2
353.65	278.34
354.032	306.14
354.414	305.68
354.797	306.36
355.179	311.79
355.562	325.8
355.944	325.8
356.326	328.51
356.709	326.25
357.091	326.93
357.473	355.4
357.855	330.09
358.238	318.79
358.62	355.17
359.002	329.64
359.384	337.1
359.766	342.07
360.148	344.1
360.53	341.39
360.912	338.68
361.294	328.28
361.676	336.19
362.057	338
362.439	330.32
362.821	330.77
363.203	327.15
363.584	341.39
363.966	339.58
364.348	347.49
364.729	330.32
365.111	329.86
365.493	326.02
365.874	333.71
366.256	326.47
366.637	305.91
367.019	309.3
367.4	305.46
367.781	305.68
368.163	314.05
368.544	312.24
368.925	322.86
369.306	324.21
369.688	300.49
370.069	320.6
370.45	312.92
370.831	312.92
371.212	336.19
371.593	336.19
371.974	329.19
372.355	306.59
372.736	323.54
373.117	326.47
373.498	328.73
373.879	339.13
374.26	339.13
374.641	331.45
375.021	326.93
375.402	330.32
375.783	330.09
376.163	364.44
376.544	344.55
376.925	333.93
377.305	350.65
377.686	349.52
378.066	352.91
378.447	351.11
378.827	362.86
379.208	341.39
379.588	357.21
379.968	378
380.349	358.34
380.729	345.01
381.109	370.54
381.489	345.23
381.87	366.02
382.25	375.74
382.63	375.51
383.01	380.48
383.39	381.39
383.77	389.75
384.15	366.02
384.53	385.91
384.91	362.63
385.29	387.04
385.67	389.3
386.049	393.14
386.429	396.76
386.809	382.29
387.189	376.19
387.568	384.33
387.948	387.49
388.328	378.45
388.707	398.79
389.087	406.25
389.466	406.02
389.846	432.01
390.225	412.8
390.605	420.03
390.984	406.7
391.363	409.41
391.743	414.16
392.122	435.4
392.501	419.35
392.881	443.31
393.26	441.5
393.639	434.49
394.018	459.8
394.397	459.8
394.776	433.14
395.155	444.44
395.534	433.59
395.913	447.6
396.292	446.25
396.671	457.32
397.05	481.72
397.429	460.26
397.808	478.11
398.186	485.57
398.565	466.13
398.944	461.84
399.323	473.59
399.701	485.11
400.08	465.45
400.458	510.88
400.837	508.84
401.215	460.26
401.594	500.03
401.972	498.67
402.351	480.59
402.729	491.89
403.107	511.1
403.486	514.72
403.864	531.44
404.242	521.5
404.62	501.61
404.999	533.02
405.377	552.46
405.755	525.57
406.133	526.92
406.511	528.96
406.889	548.62
407.267	567.15
407.645	533.02
408.023	542.74
408.401	559.91
408.779	565.11
409.156	572.34
409.534	561.5
409.912	582.06
410.29	593.13
410.667	605.11
411.045	600.59
411.422	613.92
411.8	608.95
412.178	618.9
412.555	619.57
412.933	611.89
413.31	629.29
413.687	648.27
414.065	627.26
414.442	657.31
414.819	650.31
415.197	643.98
415.574	664.32
415.951	683.3
416.328	662.51
416.705	665.67
417.082	691.89
417.46	716.52
417.837	700.25
418.214	670.42
418.591	714.03
418.967	726.92
419.344	682.4
419.721	714.49
420.098	702.51
420.475	720.59
420.852	737.76
421.228	734.15
421.605	752.9
421.982	759.46
422.358	757.42
422.735	756.97
423.111	762.62
423.488	770.98
423.864	801.94
424.241	796.29
424.617	794.03
424.994	807.14
425.37	827.03
425.746	799.23
426.123	814.6
426.499	828.16
426.875	834.48
427.251	861.83
427.627	856.18
428.003	861.38
428.379	873.13
428.756	873.35
429.132	885.1
429.507	881.26
429.883	916.29
430.259	928.72
430.635	928.04
431.011	949.96
431.387	952.22
431.763	959.45
432.138	938.44
432.514	979.56
432.89	960.36
433.265	997.19
433.641	1014.14
434.016	1020.24
434.392	1035.16
434.767	1025.21
435.143	1050.3
435.518	1045.1
435.894	1065.66
436.269	1067.7
436.644	1057.08
437.02	1090.97
437.395	1089.84
437.77	1100.92
438.145	1110.86
438.52	1119.67
438.895	1144.53
439.271	1164.87
439.646	1174.59
440.021	1188.37
440.395	1184.76
440.77	1180.69
441.145	1199.45
441.52	1205.77
441.895	1203.29
442.27	1194.25
442.645	1202.61
443.019	1253.91
443.394	1221.82
443.769	1247.35
444.143	1207.81
444.518	1251.65
444.892	1236.73
445.267	1259.56
445.641	1273.57
446.016	1304.75
446.39	1290.74
446.764	1299.78
447.139	1278.77
447.513	1304.98
447.887	1342.94
448.262	1332.78
448.636	1326.9
449.01	1333.91
449.384	1377.29
449.758	1348.37
450.132	1396.05
450.506	1361.48
450.88	1410.06
451.254	1388.37
451.628	1433.11
452.002	1439.89
452.376	1459.78
452.75	1454.35
453.123	1491.19
453.497	1469.95
453.871	1505.65
454.244	1543.17
454.618	1514.92
454.992	1553.79
455.365	1552.66
455.739	1593.33
456.112	1635.37
456.486	1622.71
456.859	1619.1
457.232	1642.37
457.606	1646.21
457.979	1681.02
458.352	1697.29
458.725	1735.93
459.099	1742.48
459.472	1780.22
459.845	1770.5
460.218	1754.91
460.591	1827.68
460.964	1826.77
461.337	1860.9
461.71	1868.58
462.083	1904.74
462.456	1939.77
462.829	1923.72
463.201	1968.47
463.574	1982.25
463.947	1964.85
464.32	2038.97
464.692	2034.23
465.065	2028.35
465.438	2092.3
465.81	2113.77
466.183	2113.77
466.555	2156.48
466.928	2161.91
467.3	2212.75
467.672	2244.16
468.045	2248.68
468.417	2267.21
468.789	2262.92
469.161	2316.03
469.534	2379.75
469.906	2385.18
470.278	2404.16
470.65	2434.89
471.022	2495.23
471.394	2524.16
471.766	2532.29
472.138	2571.16
472.51	2638.05
472.882	2660.65
473.253	2700.2
473.625	2698.62
473.997	2753.3
474.369	2768.67
474.74	2818.39
475.112	2836.69
475.484	2907.42
475.855	2974.31
476.227	2975.67
476.598	3049.57
476.97	3087.98
477.341	3165.95
477.713	3156.46
478.084	3184.7
478.455	3299.73
478.827	3328.2
479.198	3412.95
479.569	3388.99
479.94	3510.57
480.311	3535.66
480.682	3598.48
481.053	3684.8
481.424	3719.38
481.795	3782.43
482.166	3825.37
482.537	3877.57
482.908	3962.31
483.279	3964.8
483.65	4031.91
484.021	4119.14
484.391	4118.47
484.762	4205.24
485.133	4228.29
485.503	4323.88
485.874	4409.98
486.244	4442.75
486.615	4461.28
486.985	4536.76
487.356	4618.11
487.726	4701.95
488.097	4769.75
488.467	4785.11
488.837	4919.35
489.207	4911.21
489.578	5001.61
489.948	5020.36
490.318	5083.64
490.688	5098.55
491.058	5197.98
491.428	5284.08
491.798	5278.21
492.168	5408.6
492.538	5414.02
492.908	5492.89
493.278	5569.73
493.648	5590.06
494.017	5639.56
494.387	5698.54
494.757	5758.87
495.126	5830.96
495.496	5813.56
495.866	5889.72
496.235	5957.51
496.605	6021.24
496.974	5991.64
497.344	6079.32
497.713	6110.96
498.082	6190.28
498.452	6203.83
498.821	6244.51
499.19	6287.67
499.559	6324.06
499.928	6397.73
500.298	6398.86
500.667	6498.06
501.036	6501
501.405	6559.53
501.774	6638.62
502.143	6616.93
502.512	6672.3
502.88	6780.54
503.249	6760.2
503.618	6841.56
503.987	6869.13
504.356	6881.56
504.724	7014.66
505.093	6951.39
505.462	7026.41
505.83	6994.32
506.199	7116.8
506.567	7226.63
506.936	7184.6
507.304	7293.07
507.672	7349.34
508.041	7353.86
508.409	7432.95
508.777	7477.7
509.145	7508.66
509.514	7596.34
509.882	7658.03
510.25	7652.38
510.618	7703.46
510.986	7754.75
511.354	7793.62
511.722	7875.65
512.09	7983.9
512.458	8006.72
512.826	8043.56
513.193	8124.91
513.561	8109.77
513.929	8189.54
514.297	8259.15
514.664	8358.58
515.032	8444
515.4	8457.11
515.767	8481.29
516.135	8568.97
516.502	8512.02
516.869	8706.59
517.237	8743.43
517.604	8679.25
517.972	8840.83
518.339	8845.35
518.706	8939.81
519.073	8928.96
519.44	8993.82
519.808	9168.95
520.175	9168.5
520.542	9225.68
520.909	9310.19
521.276	9280.59
521.643	9502.5
522.009	9526.91
522.376	9604.2
522.743	9579.11
523.11	9726.68
523.477	9825.66
523.843	9850.29
524.21	9953.34
524.577	9974.58
524.943	10090.29
525.31	10159.66
525.676	10329.6
526.043	10394.23
526.409	10426.1
526.776	10515.59
527.142	10506.32
527.508	10604.62
527.874	10656.37
528.241	10757.61
528.607	10766.65
528.973	10920.09
529.339	10909.47
529.705	11054.33
530.071	11085.51
530.437	11144.95
530.803	11279.41
531.169	11277.37
531.535	11327.54
531.901	11367.31
532.267	11433.98
532.632	11541.55
532.998	11529.57
533.364	11581.77
533.73	11671.71
534.095	11723.24
534.461	11749.9
534.826	11899.5
535.192	11979.28
535.557	12027.18
535.923	11987.64
536.288	11994.19
536.653	12113.28
537.019	12122.32
537.384	12187.63
537.749	12224.92
538.114	12319.61
538.479	12254.97
538.845	12456.55
539.21	12394.41
539.575	12471.92
539.94	12560.28
540.305	12621.29
540.67	12624.46
541.034	12688.41
541.399	12766.6
541.764	12728.18
542.129	12808.41
542.494	12901.74
542.858	12827.16
543.223	12984.67
543.587	13007.72
543.952	12999.81
544.316	13176.98
544.681	13131.56
545.045	13137.66
545.41	13201.39
545.774	13329.3
546.138	13316.87
546.503	13405.68
546.867	13404.1
547.231	13596.63
547.595	13565.22
547.959	13598.89
548.324	13615.39
548.688	13645.9
549.052	13751.21
549.416	13747.59
549.779	13781.94
550.143	13800.47
550.507	13940.35
550.871	13984.19
551.235	13998.21
551.599	14054.48
551.962	14141.93
552.326	14197.3
552.689	14230.06
553.053	14191.19
553.417	14314.58
553.78	14523.62
554.143	14451.75
554.507	14441.58
554.87	14626.21
555.234	14707.79
555.597	14687.9
555.96	14744.4
556.323	14836.83
556.686	14877.5
557.05	14988.46
557.413	15031.17
557.776	15138.97
558.139	15220.32
558.502	15187.1
558.865	15142.81
559.228	15305.52
559.59	15435.68
559.953	15396.59
560.316	15581.67
560.679	15649.01
561.041	15716.58
561.404	15748.44
561.767	15950.02
562.129	15816.69
562.492	16018.49
562.854	16062.33
563.217	16178.26
563.579	16137.81
563.941	16339.16
564.304	16436.33
564.666	16420.97
565.028	16565.82
565.39	16609.66
565.753	16692.15
566.115	16733.95
566.477	16941.4
566.839	16971.01
567.201	17144.56
567.563	17075.64
567.925	17210.55
568.287	17271.79
568.648	17315.63
569.01	17475.63
569.372	17596.75
569.734	17532.12
570.095	17676.98
570.457	17766.02
570.819	17817.09
571.18	17836.3
571.542	17984.54
571.903	17974.82
572.265	18053.69
572.626	18190.86
572.987	18194.93
573.349	18269.05
573.71	18333.01
574.071	18434.7
574.432	18509.27
574.794	18662.04
575.155	18578.2
575.516	18790.4
575.877	18753.33
576.238	18886.89
576.599	18951.75
576.96	18952.88
577.32	18950.39
577.681	19049.82
578.042	19110.16
578.403	19214.57
578.763	19087.56
579.124	19345.18
579.485	19220.44
579.845	19402.81
580.206	19408.23
580.566	19506.99
580.927	19418.18
581.287	19601.9
581.648	19551.73
582.008	19724.38
582.368	19638.06
582.728	19725.06
583.089	19717.15
583.449	19822.23
583.809	19855.23
584.169	19921.67
584.529	19855.68
584.889	20019.97
585.249	19894.77
585.609	19852.06
585.969	20112.85
586.329	19992.4
586.688	20082.79
587.048	20015.67
587.408	20137.25
587.768	20122.56
588.127	20163.24
588.487	19996.24
588.846	20289.57
589.206	20207.08
589.565	20237.59
589.925	20309.68
590.284	20290.47
590.643	20334.99
591.003	20474.42
591.362	20529.33
591.721	20486.17
592.08	20466.06
592.44	20585.6
592.799	20632.83
593.158	20560.52
593.517	20556.23
593.876	20564.13
594.235	20666.05
594.593	20643.68
594.952	20696.33
595.311	20666.28
595.67	20800.29
596.029	20907.63
596.387	20956.67
596.746	20976.33
597.104	20961.64
597.463	21027.63
597.822	21026.5
598.18	20950.11
598.538	20869.66
598.897	21239.37
599.255	20942.88
599.613	21355.07
599.972	21203.21
600.33	21294.06
600.688	21202.31
601.046	21322.31
601.404	21355.3
601.762	21360.72
602.12	21456.31
602.478	21426.94
602.836	21465.81
603.194	21421.51
603.552	21377.67
603.91	21476.2
604.268	21544
604.625	21448.63
604.983	21617.21
605.341	21488.18
605.698	21637.33
606.056	21669.64
606.413	21710.32
606.771	21796.42
607.128	21859.69
607.485	21805.01
607.843	21813.14
608.2	21946.92
608.557	21960.93
608.914	21904.21
609.272	22076.86
609.629	21991.89
609.986	22127.94
610.343	21961.16
610.7	22270.76
611.057	22179.69
611.414	22158.89
611.771	22229.4
612.127	22317.99
612.484	22222.62
612.841	22284.99
613.198	22216.52
613.554	22259.01
613.911	22400.24
614.267	22459.68
614.624	22435.05
614.98	22373.35
615.337	22504.87
615.693	22504.2
616.05	22487.93
616.406	22614.93
616.762	22505.33
617.118	22618.32
617.475	22712.78
617.831	22680.01
618.187	22741.93
618.543	22804.3
618.899	22913
619.255	22848.82
619.611	22866.45
619.967	22933.56
620.323	23000
620.678	22823.74
621.034	22865.54
621.39	22856.05
621.746	22826.45
622.101	23083.16
622.457	22820.8
622.812	22986.22
623.168	23016.73
623.523	22965.65
623.879	23089.27
624.234	22916.61
624.589	22901.25
624.945	22946.44
625.3	22953.68
625.655	22994.35
626.01	22988.03
626.365	22869.61
626.72	22913.9
627.075	22904.41
627.43	23016.05
627.785	22869.61
628.14	23000.23
628.495	23076.16
628.85	22937.41
629.205	22941.47
629.559	23131.52
629.914	22964.98
630.269	22934.92
630.623	22962.72
630.978	22899.67
631.332	22900.34
631.687	22887.46
632.041	22947.35
632.396	22882.27
632.75	22775.38
633.104	22830.97
633.459	22797.07
633.813	22748.26
634.167	22725.66
634.521	22755.04
634.875	22768.6
635.229	22778.54
635.583	22649.28
635.937	22615.38
636.291	22532.22
636.645	22586.91
636.999	22526.34
637.352	22616.06
637.706	22488.38
638.06	22629.62
638.413	22462.84
638.767	22468.27
639.121	22465.55
639.474	22263.98
639.828	22299.68
640.181	22403.86
640.534	22336.97
640.888	22367.93
641.241	22179.91
641.594	22290.42
641.947	22314.82
642.301	22218.55
642.654	22215.84
643.007	22254.26
643.36	22149.86
643.713	22099.24
644.066	22172.45
644.419	22044.55
644.771	21995.74
645.124	21833.71
645.477	21688.85
645.83	21641.62
646.182	21491.79
646.535	21471.23
646.888	21513.49
647.24	21302.42
647.593	21423.55
647.945	21513.26
648.298	21293.61
648.65	21241.86
649.002	21133.61
649.355	21294.74
649.707	21215.87
650.059	21366.83
650.411	21652.69
650.763	21520.27
651.115	21929.75
651.467	21778.34
651.819	21819.02
652.171	21689.75
652.523	21702.86
652.875	21694.05
653.227	21689.3
653.578	21829.19
653.93	21667.83
654.282	21544.45
654.633	21543.09
654.985	21645.01
655.337	21618.57
655.688	21624.45
656.039	21694.5
656.391	21460.16
656.742	21555.07
657.094	21511.91
657.445	21678.68
657.796	21527.5
658.147	21538.8
658.498	21555.29
658.849	21591.45
659.2	21581.28
659.551	21428.07
659.902	21581.73
660.253	21454.73
660.604	21594.16
660.955	21498.12
661.306	21594.16
661.656	21511.23
662.007	21512.81
662.358	21486.37
662.708	21528.18
663.059	21404.11
663.409	21383.32
663.76	21531.34
664.11	21499.25
664.461	21412.93
664.811	21506.26
665.161	21494.28
665.511	21415.86
665.862	21397.11
666.212	21567.72
666.562	21476.65
666.912	21468.74
667.262	21443.66
667.612	21398.46
667.962	21457.9
668.312	21482.08
668.662	21636.42
669.011	21419.71
669.361	21381.29
669.711	21374.51
670.06	21337
670.41	21338.8
670.76	21293.61
671.109	21420.38
671.459	21303.78
671.808	21360.05
672.157	21359.14
672.507	21221.74
672.856	21241.86
673.205	21264.23
673.554	21322.08
673.904	21302.19
674.253	21339.26
674.602	21336.09
674.951	20982.2
675.3	20926.84
675.649	21186.26
675.998	21293.83
676.346	21200.5
676.695	21318.46
677.044	21063.78
677.393	21191.46
677.741	21210.67
678.09	21074.63
678.438	21022.65
678.787	21085.25
679.135	21103.78
679.484	21011.81
679.832	21048.19
680.181	20904.01
680.529	20956.89
680.877	21014.52
681.225	20865.37
681.573	21021.07
681.922	20849.55
682.27	20897.91
682.618	20836.44
682.966	20746.28
683.314	20898.59
683.661	20688.42
684.009	20699.72
684.357	20699.27
684.705	20677.8
685.053	20751.02
685.4	20605.26
685.748	20562.55
686.095	20579.5
686.443	20466.96
686.79	20482.33
687.138	20482.1
687.485	20433.74
687.832	20301.32
688.18	20356.23
688.527	20304.71
688.874	20231.94
689.221	20167.53
689.568	20219.51
689.915	20041.44
690.262	20151.04
690.609	20111.72
690.956	19961.21
691.303	19972.51
691.65	19768.45
691.997	19847.09
692.344	19783.59
692.69	19746.08
693.037	19788.79
693.383	19620.66
693.73	19712.18
694.077	19344.05
694.423	19503.82
694.769	19493.43
695.116	19474.45
695.462	19468.57
695.808	19350.61
696.155	19466.76
696.501	19196.49
696.847	19294.11
697.193	19090.73
697.539	19247.11
697.885	18999.88
698.231	18980.45
698.577	18928.47
698.923	18982.03
699.269	18828.13
699.614	18823.16
699.96	18795.82
700.306	18763.96
700.651	18612.77
700.997	18570.97
701.342	18549.5
701.688	18569.84
702.033	18505.88
702.379	18538.2
702.724	18392.89
703.069	18454.59
703.415	18252.1
703.76	18267.92
704.105	18228.15
704.45	18093.01
704.795	18104.31
705.14	18050.08
705.485	18068.61
705.83	17932.57
706.175	18011.66
706.52	17875.39
706.865	17805.11
707.209	17862.51
707.554	17750.88
707.899	17780.7
708.243	17762.85
708.588	17653.02
708.932	17645.34
709.277	17553.82
709.621	17651.89
709.966	17552.46
710.31	17539.58
710.654	17343.88
710.998	17446.7
711.342	17417.55
711.687	17342.75
712.031	17367.61
712.375	17215.75
712.719	17320.15
713.063	17295.75
713.407	17216.65
713.75	17164.22
714.094	17136.43
714.438	17015.08
714.782	17033.15
715.125	16971.46
715.469	17078.8
715.812	16981.86
716.156	16825.02
716.499	16906.83
716.843	16907.73
717.186	16799.71
717.53	16939.82
717.873	16958.35
718.216	16856.66
718.559	16716.78
718.902	16672.94
719.246	16679.49
719.589	16648.08
719.932	16593.17
720.275	16597.01
720.617	16615.54
720.96	16633.62
721.303	16563.56
721.646	16645.59
721.989	16510.68
722.331	16486.73
722.674	16502.09
723.016	16478.14
723.359	16401.08
723.701	16400.4
724.044	16376.67
724.386	16242.67
724.729	16480.4
725.071	16295.09
725.413	16231.82
725.755	16317.69
726.097	16265.04
726.439	16058.94
726.782	16113.4
727.124	16164.48
727.465	16110.47
727.807	16143.91
728.149	16029.79
728.491	16092.39
728.833	16111.14
729.175	16073.86
729.516	15931.71
729.858	16102.1
730.199	15983.92
730.541	15978.27
730.882	16009.23
731.224	16052.84
731.565	15840.64
731.906	15885.39
732.248	15903.69
732.589	15871.83
732.93	15822.79
733.271	15827.31
733.612	15915.22
733.953	15993.86
734.294	15811.49
734.635	15758.39
734.976	15880.19
735.317	15766.52
735.658	15808.78
735.999	15772.17
736.339	15691.49
736.68	15824.82
737.021	15737.14
737.361	15662.34
737.702	15750.48
738.042	15706.18
738.383	15637.71
738.723	15626.41
739.063	15611.04
739.404	15577.82
739.744	15554.32
740.084	15491.5
740.424	15527.43
740.764	15518.62
741.104	15609.91
741.444	15480.43
741.784	15447.21
742.124	15438.62
742.464	15411.73
742.804	15357.49
743.143	15357.04
743.483	15336.48
743.823	15378.96
744.162	15301
744.502	15361.56
744.841	15227.33
745.181	15330.83
745.52	15265.29
745.86	15316.81
746.199	15236.82
746.538	15252.18
746.877	15323.59
747.216	15221.45
747.556	15196.59
747.895	15154.11
748.234	15127.67
748.573	15082.47
748.911	15129.02
749.25	15132.19
749.589	15108.68
749.928	15131.28
750.267	15094
750.605	15032.53
750.944	15012.64
751.283	15032.98
751.621	15013.32
751.96	14963.83
752.298	14980.1
752.636	14921.12
752.975	14842.03
753.313	14797.28
753.651	14915.24
753.989	14719.99
754.327	14783.72
754.666	14676.15
755.004	14694.68
755.342	14641.8
755.679	14612.65
756.017	14602.26
756.355	14677.28
756.693	14542.82
757.031	14599.77
757.368	14593.44
757.706	14575.14
758.044	14497.85
758.381	14421.92
758.719	14368.82
759.056	14400.68
759.394	14382.83
759.731	14295.6
760.068	14358.42
760.405	14227.13
760.743	14148.94
761.08	14192.1
761.417	14080.01
761.754	14102.61
762.091	14021.26
762.428	13965.21
762.765	13888.38
763.102	13873.69
763.438	13828.94
763.775	13766.57
764.112	13863.29
764.449	13799.57
764.785	13717.31
765.122	13638.67
765.458	13581.72
765.795	13564.09
766.131	13593.47
766.467	13462.63
766.804	13472.8
767.14	13388.05
767.476	13449.29
767.812	13345.34
768.148	13321.84
768.485	13259.69
768.821	13181.73
769.157	13209.3
769.492	13162.97
769.828	13082.07
770.164	12909.42
770.5	12892.47
770.836	12995.52
771.171	12856.77
771.507	12847.05
771.842	12735.87
772.178	12706.49
772.513	12635.53
772.849	12612.93
773.184	12601.18
773.519	12566.38
773.855	12565.25
774.19	12513.05
774.525	12451.81
774.86	12512.37
775.195	12420.85
775.53	12343.33
775.865	12266.95
776.2	12217.91
776.535	12159.16
776.87	12127.07
777.205	12110.57
777.539	12045.94
777.874	12068.54
778.209	11968.2
778.543	11866.96
778.878	11805.04
779.212	11844.36
779.547	11759.39
779.881	11820.18
780.215	11668.32
780.55	11691.37
780.884	11641.66
781.218	11553.75
781.552	11607.76
781.886	11455.22
782.22	11386.75
782.554	11438.27
782.888	11258.39
783.222	11262.46
783.556	11251.16
783.889	11109.92
784.223	11207.09
784.557	11129.81
784.89	11133.42
785.224	11068.79
785.557	10978.62
785.891	10980.88
786.224	10979.08
786.558	10912.64
786.891	10821.34
787.224	10750.61
787.557	10725.75
787.891	10724.39
788.224	10698.86
788.557	10695.02
788.89	10622.93
789.223	10610.05
789.556	10484.85
789.888	10520.33
790.221	10472.2
790.554	10411.86
790.887	10421.8
791.219	10333.44
791.552	10317.62
791.884	10283.73
792.217	10202.6
792.549	10222.03
792.882	10153.11
793.214	10093.45
793.546	10133.22
793.879	10033.56
794.211	9982.94
794.543	9955.6
794.875	10009.38
795.207	9996.28
795.539	9928.03
795.871	9873.12
796.203	9796.96
796.535	9778.88
796.867	9769.62
797.198	9772.78
797.53	9787.69
797.862	9665.44
798.193	9699.56
798.525	9584.76
798.856	9618.43
799.188	9505.89
799.519	9516.74
799.85	9383.41
800.182	9389.06
800.513	9442.62
800.844	9326.46
801.175	9374.37
801.506	9407.37
801.837	9288.27
802.168	9315.16
802.499	9237.88
802.83	9196.52
803.161	9200.82
803.491	9154.94
803.822	9152.68
804.153	9165.34
804.483	9059.35
804.814	9020.94
805.145	9016.42
805.475	8985.46
805.805	8955.17
806.136	8994.5
806.466	8959.47
806.796	8915.63
807.126	8782.98
807.457	8831.56
807.787	8796.53
808.117	8763.09
808.447	8785.46
808.777	8731
809.107	8723.54
809.436	8724.67
809.766	8704.79
810.096	8667.72
810.426	8702.98
810.755	8608.74
811.085	8550.67
811.414	8546.82
811.744	8512.93
812.073	8474.51
812.403	8487.62
812.732	8505.24
813.061	8487.62
813.39	8402.19
813.719	8364.23
814.049	8462.31
814.378	8375.3
814.707	8356.32
815.036	8269.32
815.365	8265.93
815.693	8190
816.022	8250.56
816.351	8213.27
816.68	8136.44
817.008	8221.18
817.337	8135.99
817.665	8092.82
817.994	8115.65
818.322	8076.55
818.651	8077.68
818.979	8085.59
819.307	8051.47
819.636	8009.66
819.964	8001.07
820.292	8031.36
820.62	7976.67
820.948	7987.06
821.276	8001.07
821.604	7978.25
821.932	7944.81
822.259	7961.75
822.587	7958.14
822.915	7913.39
823.243	7950.68
823.57	7967.4
823.898	7920.85
824.225	7899.83
824.553	7853.73
824.88	7901.42
825.207	7945.71
825.535	7870.23
825.862	7899.16
826.189	7878.37
826.516	7892.83
826.843	7905.48
827.17	7942.77
827.497	7885.6
827.824	7862.77
828.151	7966.27
828.478	7917.01
828.805	7940.29
829.131	7928.08
829.458	7879.95
829.785	7839.5
830.111	7817.35
830.438	7853.96
830.764	7915.43
831.09	7869.33
831.417	7730.12
831.743	7863.9
832.069	7855.99
832.395	7785.26
832.722	7896.9
833.048	7758.37
833.374	7816.67
833.7	7797.24
834.026	7805.37
834.351	7789.33
834.677	7790.01
835.003	7778.03
835.329	7774.19
835.654	7750.91
835.98	7713.4
836.306	7778.03
836.631	7653.06
836.956	7762.44
837.282	7737.13
837.607	7697.58
837.932	7696.9
838.258	7680.18
838.583	7663.91
838.908	7597.47
839.233	7700.74
839.558	7585.72
839.883	7575.78
840.208	7567.19
840.533	7574.65
840.858	7540.3
841.182	7588.88
841.507	7574.19
841.832	7536
842.156	7481.99
842.481	7500.98
842.805	7461.65
843.13	7447.87
843.454	7449.45
843.778	7429.56
844.103	7378.04
844.427	7338.72
844.751	7317.03
845.075	7341.66
845.399	7273.86
845.723	7257.82
846.047	7233.64
846.371	7236.12
846.695	7234.99
847.019	7176.24
847.343	7139.4
847.666	7096.47
847.99	7045.85
848.313	7060.08
848.637	6991.38
848.96	7040.42
849.284	6980.31
849.607	6970.59
849.931	6945.96
850.254	6877.26
850.577	6871.61
850.9	6799.3
851.223	6776.93
851.546	6782.58
851.869	6769.02
852.192	6764.27
852.515	6706.42
852.838	6675.46
853.161	6616.25
853.483	6646.76
853.806	6646.31
854.129	6546.65
854.451	6490.61
854.774	6509.81
855.096	6575.8
855.419	6542.81
855.741	6529.7
856.063	6501.45
856.385	6480.89
856.708	6453.09
857.03	6396.15
857.352	6462.13
857.674	6410.16
857.996	6387.33
858.318	6346.43
858.64	6304.4
858.961	6282.25
859.283	6242.48
859.605	6266.21
859.926	6292.65
860.248	6257.17
860.57	6272.76
860.891	6208.35
861.212	6246.54
861.534	6171.74
861.855	6171.07
862.176	6206.55
862.498	6152.31
862.819	6141.69
863.14	6145.53
863.461	6141.69
863.782	6081.35
864.103	6127.68
864.424	6057.85
864.745	6106.44
865.065	6031.64
865.386	6048.58
865.707	6072.09
866.027	6041.58
866.348	6008.81
866.668	6044.74
866.989	6017.4
867.309	5941.69
867.63	6017.62
867.95	5947.57
868.27	5903.73
868.59	5942.6
868.91	5916.38
869.23	5941.69
869.55	5859.66
869.87	5926.55
870.19	5894.01
870.51	5935.37
870.83	5916.84
871.15	5823.73
871.469	5893.33
871.789	5892.43
872.109	5885.2
872.428	5806.1
872.748	5905.31
873.067	5833
873.386	5893.56
873.706	5800.23
874.025	5789.38
874.344	5790.74
874.663	5779.21
874.982	5793.9
875.301	5791.42
875.62	5748.48
875.939	5719.55
876.258	5718.65
876.577	5735.6
876.896	5686.33
877.214	5647.46
877.533	5726.11
877.852	5675.94
878.17	5712.55
878.489	5711.42
878.807	5704.64
879.125	5659.89
879.444	5622.83
879.762	5666
880.08	5712.55
880.398	5616.73
880.716	5651.08
881.034	5626.22
881.352	5627.13
881.67	5599.1
881.988	5616.5
882.306	5591.42
882.624	5568.14
882.941	5548.03
883.259	5518.43
883.577	5531.76
883.894	5530.86
884.212	5495.6
884.529	5542.83
884.846	5503.51
885.164	5485.89
885.481	5444.53
885.798	5440.92
886.115	5410.18
886.432	5409.96
886.75	5392.1
887.067	5370.86
887.383	5339.22
887.7	5419.9
888.017	5365.21
888.334	5352.11
888.651	5326.34
888.967	5357.3
889.284	5308.72
889.6	5311.2
889.917	5252.45
890.233	5219.45
890.55	5200.47
890.866	5234.14
891.182	5186.91
891.498	5223.07
891.815	5166.57
892.131	5201.83
892.447	5175.16
892.763	5132.22
893.079	5152.11
893.395	5150.75
893.71	5143.3
894.026	5110.76
894.342	5080.7
894.657	5063.07
894.973	5069.85
895.289	5020.14
895.604	5015.84
895.92	4991.66
896.235	4969.29
896.55	4981.27
896.865	4955.28
897.181	4984.88
897.496	4981.04
897.811	4921.61
898.126	4873.02
898.441	4854.04
898.756	4902.63
899.071	4847.71
899.386	4821.95
899.7	4810.65
900.015	4788.05
900.33	4809.75
900.644	4780.14
900.959	4776.53
901.273	4743.31
901.588	4732.69
901.902	4774.27
902.216	4696.3
902.531	4694.72
902.845	4715.29
903.159	4608.4
903.473	4658.11
903.787	4588.06
904.101	4636.87
904.415	4660.82
904.729	4586.25
905.042	4578.11
905.356	4575.63
905.67	4571.11
905.984	4556.65
906.297	4510.09
906.611	4483.65
906.924	4530.88
907.237	4464.9
907.551	4455.18
907.864	4435.74
908.177	4439.13
908.491	4448.63
908.804	4377.22
909.117	4353.26
909.43	4353.26
909.743	4353.94
910.056	4339.48
910.368	4301.29
910.681	4311
910.994	4276.43
911.307	4273.26
911.619	4194.62
911.932	4200.95
912.244	4228.29
912.557	4236.43
912.869	4229.2
913.181	4153.49
913.494	4165.02
913.806	4145.36
914.118	4153.49
914.43	4134.06
914.742	4115.3
915.054	4049.99
915.366	4087.28
915.678	4052.93
915.99	4073.49
916.302	3983.1
916.613	3983.33
916.925	4028.98
917.236	4011.12
917.548	3972.71
917.859	3981.07
918.171	3958.7
918.482	3907.85
918.794	3908.53
919.105	3932.26
919.416	3823.78
919.727	3871.24
920.038	3862.65
920.349	3823.11
920.66	3802.99
920.971	3832.6
921.282	3815.65
921.593	3768.64
921.903	3707.4
922.214	3751.02
922.525	3769.77
922.835	3732.26
923.146	3710.34
923.456	3670.34
923.767	3687.74
924.077	3673.05
924.387	3674.64
924.697	3648.2
925.008	3608.87
925.318	3601.87
925.628	3599.61
925.938	3596.44
926.248	3574.52
926.558	3557.58
926.867	3559.61
927.177	3491.59
927.487	3500.85
927.796	3475.77
928.106	3456.34
928.416	3472.38
928.725	3491.36
929.034	3424.92
929.344	3457.24
929.653	3413.17
929.962	3428.09
930.271	3412.72
930.581	3351.48
930.89	3370.91
931.199	3330.69
931.508	3384.02
931.817	3334.08
932.125	3360.74
932.434	3302.22
932.743	3295.44
933.051	3302.67
933.36	3257.24
933.669	3212.27
933.977	3195.55
934.286	3252.95
934.594	3177.47
934.902	3209.34
935.21	3157.36
935.519	3180.64
935.827	3145.84
936.135	3163.46
936.443	3139.73
936.751	3130.24
937.059	3126.4
937.367	3095.22
937.674	3107.42
937.982	3066.74
938.29	3061.09
938.597	3085.72
938.905	3033.3
939.213	2999.17
939.52	3005.27
939.827	3013.86
940.135	3035.1
940.442	2988.33
940.749	2998.27
941.056	3026.97
941.363	3003.24
941.67	2967.76
941.977	2923.92
942.284	2911.94
942.591	2920.76
942.898	2886.86
943.205	2887.76
943.511	2842.57
943.818	2882.57
944.125	2876.46
944.431	2861.1
944.738	2822.45
945.044	2831.27
945.35	2828.78
945.657	2795.34
945.963	2793.53
946.269	2764.6
946.575	2774.55
946.881	2758.5
947.187	2730.48
947.493	2757.6
947.799	2699.97
948.105	2680.54
948.41	2697.03
948.716	2698.62
949.022	2694.1
949.327	2676.02
949.633	2650.71
949.938	2650.93
950.244	2624.49
950.549	2628.79
950.854	2616.36
951.16	2586.98
951.465	2577.49
951.77	2596.92
952.075	2570.03
952.38	2549.47
952.685	2554.66
952.99	2535
953.294	2540.43
953.599	2533.87
953.904	2517.15
954.209	2530.26
954.513	2463.37
954.818	2509.02
955.122	2512.86
955.426	2469.92
955.731	2463.14
956.035	2451.62
956.339	2457.72
956.643	2470.6
956.948	2438.74
957.252	2418.17
957.556	2429.47
957.86	2403.93
958.163	2361.68
958.467	2370.04
958.771	2379.3
959.075	2354.67
959.378	2337.72
959.682	2357.16
959.985	2345.18
960.289	2317.16
960.592	2346.76
960.896	2325.07
961.199	2298.17
961.502	2280.55
961.805	2294.78
962.108	2263.15
962.411	2267.21
962.714	2271.28
963.017	2255.24
963.32	2189.93
963.623	2233.32
963.926	2250.04
964.228	2237.61
964.531	2210.49
964.833	2202.81
965.136	2186.31
965.438	2192.19
965.741	2177.73
966.043	2182.24
966.345	2169.82
966.648	2143.6
966.95	2154.67
967.252	2134.11
967.554	2110.83
967.856	2114.68
968.158	2112.64
968.46	2106.09
968.761	2097.28
969.063	2102.25
969.365	2082.59
969.666	2093.66
969.968	2035.58
970.269	2059.54
970.571	2061.12
970.872	2046.66
971.174	2052.53
971.475	2029.48
971.776	2020.44
972.077	2030.84
972.378	1991.97
972.679	1974.11
972.98	1974.79
973.281	1982.93
973.582	1993.1
973.883	1942.48
974.183	1944.96
974.484	1960.33
974.785	1957.62
975.085	1914.23
975.386	1894.34
975.686	1933.89
975.986	1924.85
976.287	1900.9
976.587	1867.22
976.887	1885.08
977.187	1892.31
977.487	1893.44
977.787	1845.53
978.087	1861.58
978.387	1829.03
978.687	1828.58
978.987	1839.88
979.286	1848.24
979.586	1831.75
979.885	1779.77
980.185	1808.7
980.484	1805.31
980.784	1802.37
981.083	1808.92
981.382	1798.98
981.682	1787.9
981.981	1768.47
982.28	1765.53
982.579	1764.63
982.878	1772.76
983.177	1723.95
983.475	1746.78
983.774	1707.91
984.073	1726.89
984.372	1718.98
984.67	1710.62
984.969	1714.46
985.267	1694.12
985.566	1701.13
985.864	1659.32
986.162	1690.28
986.461	1645.99
986.759	1665.2
987.057	1634.46
987.355	1625.65
987.653	1650.73
987.951	1663.61
988.249	1664.97
988.547	1619.1
988.844	1619.32
989.142	1597.85
989.44	1613.67
989.737	1599.44
990.035	1617.29
990.332	1577.97
990.63	1578.87
990.927	1558.98
991.224	1574.13
991.521	1529.61
991.819	1561.47
992.116	1522.6
992.413	1515.37
992.71	1533.22
993.006	1514.92
993.303	1485.09
993.6	1534.13
993.897	1519.44
994.193	1499.1
994.49	1497.52
994.787	1495.03
995.083	1484.18
995.379	1476.95
995.676	1473.56
995.972	1464.75
996.268	1457.52
996.565	1469.72
996.861	1442.15
997.157	1460.46
997.453	1415.49
997.749	1413.9
998.044	1454.35
998.34	1419.78
998.636	1403.28
998.932	1422.04
999.227	1399.89
999.523	1350.4
999.818	1388.82
1000.114	1347.24
1000.409	1349.05
1000.704	1374.36
1001	1367.58
1001.295	1353.11
1001.59	1357.18
1001.885	1321.25
1002.18	1328.03
1002.475	1320.12
1002.77	1316.96
1003.065	1312.21
1003.359	1307.47
1003.654	1301.36
1003.949	1303.85
1004.243	1288.71
1004.538	1301.82
1004.832	1291.87
1005.127	1233.12
1005.421	1261.59
1005.715	1266.79
1006.009	1235.15
1006.304	1221.82
1006.598	1213.68
1006.892	1234.25
1007.186	1204.87
1007.48	1245.09
1007.773	1207.58
1008.067	1195.38
1008.361	1199.67
1008.655	1171.65
1008.948	1179.11
1009.242	1199.22
1009.535	1196.73
1009.829	1160.58
1010.122	1161.25
1010.415	1186.56
1010.708	1150.41
1011.001	1134.36
1011.295	1144.53
1011.588	1131.65
1011.881	1108.6
1012.173	1120.58
1012.466	1112.44
1012.759	1117.64
1013.052	1107.02
1013.344	1086
1013.637	1124.19
1013.93	1062.73
1014.222	1058.88
1014.514	1104.53
1014.807	1041.94
1015.099	1064.08
1015.391	1045.33
1015.683	1080.58
1015.976	1041.03
1016.268	1071.09
1016.56	1032.67
1016.851	1055.95
1017.143	1039.22
1017.435	1030.18
1017.727	1017.3
1018.018	1024.31
1018.31	1019.11
1018.602	998.77
1018.893	1014.37
1019.185	993.35
1019.476	1002.84
1019.767	1011.65
1020.058	981.82
1020.35	1001.48
1020.641	992.45
1020.932	971.88
1021.223	967.59
1021.514	931.2
1021.804	939.11
1022.095	960.13
1022.386	919.23
1022.677	944.09
1022.967	927.36
1023.258	919.23
1023.548	886.01
1023.839	888.72
1024.129	891.88
1024.419	928.72
1024.709	887.82
1025	871.77
1025.29	887.14
1025.58	871.77
1025.87	871.77
1026.16	854.6
1026.449	877.42
1026.739	863.64
1027.029	867.48
1027.319	840.13
1027.608	869.96
1027.898	851.66
1028.187	839.91
1028.477	844.43
1028.766	844.88
1029.055	805.33
1029.344	802.85
1029.634	807.59
1029.923	806.46
1030.212	799.68
1030.501	818.66
1030.79	815.95
1031.078	797.2
1031.367	773.92
1031.656	760.14
1031.945	797.87
1032.233	766.91
1032.522	776.41
1032.81	772.56
1033.099	755.62
1033.387	775.73
1033.675	777.08
1033.963	742.51
1034.251	768.27
1034.54	751.32
1034.828	737.76
1035.116	737.54
1035.403	733.24
1035.691	728.95
1035.979	735.05
1036.267	693.47
1036.554	714.49
1036.842	727.82
1037.129	727.59
1037.417	712.45
1037.704	705.9
1037.992	702.96
1038.279	686.24
1038.566	680.36
1038.853	680.36
1039.14	680.36
