Data from tablewood_dark_bookshelf_FLMS001491_00008.txt Node
Date: Wed Feb 08 14:13:20 GMT 2017
User: dcchb
Spectrometer: FLMS00149
Trigger mode: 0
Integration Time (sec): 2.000000E-2
Scans to average: 10
Electric dark correction enabled: true
Nonlinearity correction enabled: false
Boxcar width: 0
XAxis mode: Wavelengths
Number of Pixels in Spectrum: 2048
>>>>>Begin Spectral Data<<<<<
341.393	-19.51
341.776	-19.51
342.16	-19.51
342.543	-66.28
342.927	-66.51
343.31	-69.22
343.693	-74.87
344.077	-77.36
344.46	-71.26
344.843	-46.17
345.226	-49.11
345.61	-19.96
345.993	-7.75
346.376	3.32
346.759	10.78
347.142	16.65
347.525	47.39
347.908	63.88
348.291	75.18
348.674	85.58
349.057	112.92
349.44	100.72
349.823	149.98
350.206	168.74
350.588	188.85
350.971	193.37
351.354	209.87
351.737	225.91
352.119	251.45
352.502	246.02
352.884	266.59
353.267	273.82
353.65	267.94
354.032	281.96
354.414	310.2
354.797	298.9
355.179	307.49
355.562	309.3
355.944	325.8
356.326	326.7
356.709	330.32
357.091	325.34
357.473	331.22
357.855	330.32
358.238	337.55
358.62	345.68
359.002	331.45
359.384	320.15
359.766	311.56
360.148	345.01
360.53	328.51
360.912	326.47
361.294	319.24
361.676	328.96
362.057	331.67
362.439	330.09
362.821	352.91
363.203	349.75
363.584	326.25
363.966	334.16
364.348	342.97
364.729	300.03
365.111	312.24
365.493	344.1
365.874	314.27
366.256	314.27
366.637	316.53
367.019	302.97
367.4	319.92
367.781	318.11
368.163	342.07
368.544	310.66
368.925	313.59
369.306	307.49
369.688	306.59
370.069	325.57
370.45	294.61
370.831	324.67
371.212	307.04
371.593	321.5
371.974	329.41
372.355	318.57
372.736	327.38
373.117	332.8
373.498	318.57
373.879	339.81
374.26	326.7
374.641	315.85
375.021	334.16
375.402	334.16
375.783	303.65
376.163	341.62
376.544	349.3
376.925	365.12
377.305	366.25
377.686	358.34
378.066	348.62
378.447	318.57
378.827	356.98
379.208	343.65
379.588	341.84
379.968	367.83
380.349	357.43
380.729	363.76
381.109	354.04
381.489	361.95
381.87	342.75
382.25	372.8
382.63	370.99
383.01	384.78
383.39	384.1
383.77	360.15
384.15	368.51
384.53	361.5
384.91	377.32
385.29	390.65
385.67	394.04
386.049	377.55
386.429	387.72
386.809	386.81
387.189	393.82
387.568	382.52
387.948	414.38
388.328	424.1
388.707	389.07
389.087	411.22
389.466	420.26
389.846	406.92
390.225	419.81
390.605	408.05
390.984	430.88
391.363	419.13
391.743	428.17
392.122	418.68
392.501	419.58
392.881	416.87
393.26	430.88
393.639	413.7
394.018	420.03
394.397	438.34
394.776	433.82
395.155	436.3
395.534	450.31
395.913	448.73
396.292	443.08
396.671	426.81
397.05	472.69
397.429	439.47
397.808	466.36
398.186	446.02
398.565	474.72
398.944	467.49
399.323	463.42
399.701	470.88
400.08	496.64
400.458	482.4
400.837	486.02
401.215	480.14
401.594	483.76
401.972	484.21
402.351	489.18
402.729	502.06
403.107	496.64
403.486	499.13
403.864	506.13
404.242	526.24
404.62	507.71
404.999	526.7
405.377	522.18
405.755	520.37
406.133	499.8
406.511	536.64
406.889	524.89
407.267	542.29
407.645	539.12
408.023	564.89
408.401	564.89
408.779	570.08
409.156	584.77
409.534	596.07
409.912	587.71
410.29	589.52
410.667	601.72
411.045	596.98
411.422	587.94
411.8	606.24
412.178	622.96
412.555	636.75
412.933	634.26
413.31	658.9
413.687	641.49
414.065	642.85
414.442	644.43
414.819	659.57
415.197	660.93
415.574	673.58
415.951	667.93
416.328	695.96
416.705	683.08
417.082	701.38
417.46	702.06
417.837	716.07
418.214	693.92
418.591	716.29
418.967	724.88
419.344	716.29
419.721	720.36
420.098	736.86
420.475	711.78
420.852	738.67
421.228	718.33
421.605	747.03
421.982	781.83
422.358	775.73
422.735	797.42
423.111	772.56
423.488	814.6
423.864	783.19
424.241	797.2
424.617	824.31
424.994	805.11
425.37	852.11
425.746	806.69
426.123	843.07
426.499	851.43
426.875	840.59
427.251	879.45
427.627	872.22
428.003	870.19
428.379	897.53
428.756	890.08
429.132	907.02
429.507	925.33
429.883	946.57
430.259	925.1
430.635	948.38
431.011	953.58
431.387	982.05
431.763	965.1
432.138	991.09
432.514	1010.98
432.89	1014.59
433.265	1024.99
433.641	1027.25
434.016	1024.31
434.392	1045.55
434.767	1040.81
435.143	1064.99
435.518	1090.97
435.894	1126
436.269	1117.19
436.644	1122.84
437.02	1138.88
437.395	1152.44
437.77	1151.99
438.145	1170.29
438.52	1194.7
438.895	1159.9
439.271	1188.6
439.646	1182.05
440.021	1209.62
440.395	1199.22
440.77	1208.26
441.145	1230.63
441.52	1247.13
441.895	1253.91
442.27	1268.6
442.645	1253.68
443.019	1274.25
443.394	1261.59
443.769	1272.21
444.143	1293
444.518	1301.14
444.892	1307.47
445.267	1303.85
445.641	1333.45
446.016	1342.72
446.39	1322.83
446.764	1354.02
447.139	1358.99
447.513	1366.67
447.887	1375.94
448.262	1390.4
448.636	1389.27
449.01	1393.11
449.384	1396.5
449.758	1413.9
450.132	1466.78
450.506	1449.16
450.88	1454.35
451.254	1452.32
451.628	1491.87
452.002	1487.57
452.376	1508.59
452.75	1513.56
453.123	1534.13
453.497	1562.6
453.871	1564.63
454.244	1586.55
454.618	1586.55
454.992	1627.46
455.365	1605.54
455.739	1667.91
456.112	1679.89
456.486	1707.46
456.859	1697.74
457.232	1737.96
457.606	1728.25
457.979	1729.6
458.352	1782.71
458.725	1810.5
459.099	1790.16
459.472	1855.93
459.845	1867
460.218	1879.2
460.591	1884.17
460.964	1912.42
461.337	1919.2
461.71	1993.55
462.083	2010.5
462.456	2002.81
462.829	2017.28
463.201	2034
463.574	2092.3
463.947	2103.6
464.32	2124.85
464.692	2131.4
465.065	2163.26
465.438	2184.73
465.81	2228.35
466.183	2270.15
466.555	2318.29
466.928	2315.57
467.3	2315.12
467.672	2364.39
468.045	2394.67
468.417	2427.21
468.789	2430.15
469.161	2468.57
469.534	2472.63
469.906	2559.18
470.278	2538.85
470.65	2603.48
471.022	2644.38
471.394	2689.8
471.766	2681.21
472.138	2738.61
472.51	2796.01
472.882	2803.02
473.253	2828.56
473.625	2883.47
473.997	2948.55
474.369	2983.81
474.74	2984.71
475.112	3070.36
475.484	3113.52
475.855	3140.86
476.227	3187.87
476.598	3278.71
476.97	3296.11
477.341	3370.69
477.713	3386.96
478.084	3424.92
478.455	3504.47
478.827	3569.55
479.198	3664.92
479.569	3658.36
479.94	3722.09
480.311	3762.99
480.682	3843.67
481.053	3918.02
481.424	3965.7
481.795	3994.4
482.166	4052.93
482.537	4121.85
482.908	4238.24
483.279	4269.2
483.65	4316.43
484.021	4393.49
484.391	4442.98
484.762	4537.66
485.133	4542.63
485.503	4602.29
485.874	4722.52
486.244	4758
486.615	4829.86
486.985	4889.07
487.356	4997.09
487.726	5012.23
488.097	5150.08
488.467	5100.13
488.837	5232.11
489.207	5304.2
489.578	5376.06
489.948	5405.89
490.318	5558.65
490.688	5544.64
491.058	5647.69
491.428	5701.02
491.798	5729.5
492.168	5845.65
492.538	5873.22
492.908	5917.51
493.278	6026.66
493.648	5963.16
494.017	6071.86
494.387	6127.68
494.757	6238.86
495.126	6208.58
495.496	6312.76
495.866	6342.36
496.235	6425.07
496.605	6468.23
496.974	6517.27
497.344	6563.15
497.713	6531.74
498.082	6649.7
498.452	6768.34
498.821	6748.45
499.19	6785.51
499.559	6850.14
499.928	6880.43
500.298	6977.6
500.667	7037.26
501.036	7028.67
501.405	7113.41
501.774	7117.71
502.143	7185.28
502.512	7239.06
502.88	7304.37
503.249	7295.56
503.618	7356.12
503.987	7407.87
504.356	7474.76
504.724	7542.56
505.093	7502.33
505.462	7579.39
505.83	7653.97
506.199	7733.29
506.567	7815.54
506.936	7765.15
507.304	7853.73
507.672	7874.75
508.041	7987.29
508.409	8056.89
508.777	8166.72
509.145	8203.33
509.514	8146.61
509.882	8282.42
510.25	8350.9
510.618	8353.38
510.986	8420.72
511.354	8460.05
511.722	8550.44
512.09	8620.49
512.458	8683.09
512.826	8760.83
513.193	8787.27
513.561	8807.83
513.929	8907.72
514.297	8991.56
514.664	9041.95
515.032	9087.37
515.4	9140.48
515.767	9201.72
516.135	9334.83
516.502	9198.33
516.869	9380.25
517.237	9454.37
517.604	9466.8
517.972	9583.18
518.339	9647.59
518.706	9685.1
519.073	9777.98
519.44	9795.38
519.808	9929.39
520.175	9905.43
520.542	10068.37
520.909	10068.82
521.276	10066.78
521.643	10204.18
522.009	10341.13
522.376	10445.08
522.743	10457.73
523.11	10569.59
523.477	10685.3
523.843	10720.1
524.21	10911.28
524.577	10967.55
524.943	10952.18
525.31	11065.4
525.676	11122.12
526.043	11156.47
526.409	11292.74
526.776	11347.2
527.142	11411.38
527.508	11537.93
527.874	11567.99
528.241	11726.85
528.607	11736.34
528.973	11833.74
529.339	11929.33
529.705	11960.74
530.071	12113.96
530.437	12127.29
530.803	12203.68
531.169	12262.21
531.535	12290.68
531.901	12329.55
532.267	12450
532.632	12500.39
532.998	12572.71
533.364	12644.79
533.73	12675.98
534.095	12722.53
534.461	12854.96
534.826	12944.9
535.192	12949.42
535.557	12974.96
535.923	13055.86
536.288	13164.55
536.653	13188.06
537.019	13124.33
537.384	13268.06
537.749	13322.06
538.114	13385.57
538.479	13403.64
538.845	13426.02
539.21	13451.1
539.575	13594.6
539.94	13586.92
540.305	13714.82
540.67	13645.9
541.034	13697.87
541.399	13840.24
541.764	13814.71
542.129	13912.78
542.494	13957.75
542.858	14057.64
543.223	14018.77
543.587	14095.83
543.952	14248.59
544.316	14175.6
544.681	14115.72
545.045	14282.49
545.41	14352.77
545.774	14403.62
546.138	14438.65
546.503	14558.42
546.867	14476.16
547.231	14650.17
547.595	14613.33
547.959	14672.76
548.324	14730.84
548.688	14832.08
549.052	14874.57
549.416	14955.02
549.779	14884.06
550.143	14999.76
550.507	15046.54
550.871	15069.36
551.235	15160.21
551.599	15231.17
551.962	15326.08
552.326	15322.24
552.689	15416.25
553.053	15311.84
553.417	15456.47
553.78	15623.7
554.143	15569.69
554.507	15713.64
554.87	15816.01
555.234	15908.44
555.597	15822.79
555.96	15964.48
556.323	15993.63
556.686	16086.51
557.05	16180.75
557.413	16208.54
557.776	16214.87
558.139	16378.48
558.502	16377.8
558.865	16514.98
559.228	16670.9
559.59	16725.82
559.953	16710.22
560.316	16837
560.679	16912.03
561.041	16917.9
561.404	17023.89
561.767	17122.42
562.129	17184.56
562.492	17308.17
562.854	17263.2
563.217	17288.06
563.579	17505.01
563.941	17619.35
564.304	17708.39
564.666	17843.98
565.028	17919.91
565.39	17908.16
565.753	17951.77
566.115	18118.78
566.477	18116.52
566.839	18168.27
567.201	18396.51
567.563	18394.25
567.925	18485.09
568.287	18548.59
568.648	18656.84
569.01	18712.66
569.372	18812.54
569.734	18822.49
570.095	19012.99
570.457	19038.3
570.819	19116.26
571.18	19143.61
571.542	19256.37
571.903	19271.51
572.265	19407.55
572.626	19445.52
572.987	19574.78
573.349	19557.16
573.71	19758.96
574.071	19712.63
574.432	19816.13
574.794	19885.73
575.155	19986.75
575.516	19933.87
575.877	19983.81
576.238	20237.59
576.599	20269.9
576.96	20197.82
577.32	20327.76
577.681	20317.14
578.042	20380.41
578.403	20410.69
578.763	20591.25
579.124	20518.94
579.485	20661.08
579.845	20788.08
580.206	20820.85
580.566	20805.26
580.927	20905.37
581.287	20904.92
581.648	20881.64
582.008	21059.94
582.368	20953.73
582.728	20973.39
583.089	21061.07
583.449	21153.72
583.809	21193.27
584.169	21191.46
584.529	21108.98
584.889	21346.71
585.249	21253.16
585.609	21230.11
585.969	21443.66
586.329	21440.72
586.688	21428.97
587.048	21460.61
587.408	21332.02
587.768	21362.08
588.127	21431
588.487	21442.76
588.846	21650.43
589.206	21439.59
589.565	21539.48
589.925	21620.83
590.284	21584.22
590.643	21683.2
591.003	21711.9
591.362	21856.53
591.721	21775.63
592.08	21814.5
592.44	21922.29
592.799	22007.03
593.158	21826.25
593.517	21890.65
593.876	21879.58
594.235	21874.38
594.593	21936.75
594.952	22012.01
595.311	21998.45
595.67	22001.84
596.029	22147.14
596.387	22123.42
596.746	22250.87
597.104	22055.17
597.463	22199.8
597.822	22230.76
598.18	22230.53
598.538	22277.99
598.897	22436.4
599.255	22167.03
599.613	22565.66
599.972	22445.67
600.33	22488.83
600.688	22433.01
601.046	22631.88
601.404	22598.43
601.762	22584.42
602.12	22710.74
602.478	22600.24
602.836	22675.27
603.194	22576.51
603.552	22648.15
603.91	22563.63
604.268	22838.2
604.625	22673.01
604.983	22802.49
605.341	22771.99
605.698	22873.9
606.056	23071.19
606.413	22869.61
606.771	23003.39
607.128	22962.94
607.485	22873
607.843	22986.44
608.2	23094.69
608.557	23095.82
608.914	23106.44
609.272	23138.3
609.629	23299.43
609.986	23329.49
610.343	23148.02
610.7	23475.7
611.057	23441.35
611.414	23441.35
611.771	23529.93
612.127	23560.21
612.484	23468.01
612.841	23527.9
613.198	23571.74
613.554	23493.55
613.911	23808.12
614.267	23773.54
614.624	23663.94
614.98	23707.78
615.337	23837.95
615.693	23812.64
616.05	23729.02
616.406	23912.29
616.762	23795.91
617.118	23797.27
617.475	23754.33
617.831	23928.79
618.187	23940.99
618.543	24051.95
618.899	24076.13
619.255	24096.24
619.611	24031.16
619.967	24200.65
620.323	24109.8
620.678	24124.49
621.034	24049.92
621.39	23997.04
621.746	23966.98
622.101	24232.51
622.457	24095.34
622.812	24046.53
623.168	24238.39
623.523	24136.02
623.879	24309.12
624.234	24097.83
624.589	24191.16
624.945	24228.67
625.3	24213.98
625.655	24245.85
626.01	24268.9
626.365	24142.57
626.72	24166.3
627.075	24170.14
627.43	24254.43
627.785	24085.17
628.14	24274.32
628.495	24197.71
628.85	24201.78
629.205	24090.14
629.559	24203.59
629.914	24160.42
630.269	24254.21
630.623	24073.65
630.978	24008.56
631.332	24076.81
631.687	24256.69
632.041	24056.92
632.396	24173.53
632.75	23893.76
633.104	24053.76
633.459	23986.42
633.813	23881.56
634.167	24013.99
634.521	24003.14
634.875	23890.37
635.229	24009.69
635.583	23758.4
635.937	23775.58
636.291	23802.69
636.645	23857.61
636.999	23856.93
637.352	23868.91
637.706	23651.74
638.06	23762.24
638.413	23771.96
638.767	23550.72
639.121	23581.68
639.474	23410.16
639.828	23497.39
640.181	23594.56
640.534	23444.51
640.888	23497.84
641.241	23524.51
641.594	23518.63
641.947	23461.69
642.301	23402.93
642.654	23512.98
643.007	23495.81
643.36	23373.78
643.713	23347.34
644.066	23457.17
644.419	23366.09
644.771	23213.56
645.124	22931.3
645.477	22932.21
645.83	22752.78
646.182	22619
646.535	22619.9
646.888	22610.86
647.24	22478.43
647.593	22635.49
647.945	22560.24
648.298	22473.24
648.65	22469.17
649.002	22327.25
649.355	22371.09
649.707	22513.46
650.059	22517.98
650.411	22781.25
650.763	22825.54
651.115	23042.49
651.467	22907.35
651.819	22874.36
652.171	22920.23
652.523	22765.21
652.875	22921.81
653.227	22765.66
653.578	22929.5
653.93	22767.01
654.282	22773.79
654.633	22716.85
654.985	22733.12
655.337	22760.01
655.688	22694.25
656.039	22711.2
656.391	22556.85
656.742	22622.16
657.094	22569.96
657.445	22828.03
657.796	22702.38
658.147	22640.69
658.498	22619
658.849	22746.9
659.2	22757.07
659.551	22597.08
659.902	22668.71
660.253	22669.62
660.604	22668.94
660.955	22510.3
661.306	22651.54
661.656	22487.93
662.007	22649.05
662.358	22639.79
662.708	22545.1
663.059	22544.42
663.409	22387.36
663.76	22684.53
664.11	22511.88
664.461	22661.93
664.811	22547.13
665.161	22590.3
665.511	22539.45
665.862	22537.19
666.212	22531.77
666.562	22556.62
666.912	22542.16
667.262	22484.76
667.612	22390.53
667.962	22440.47
668.312	22534.7
668.662	22541.71
669.011	22712.78
669.361	22623.97
669.711	22528.38
670.06	22553.69
670.41	22532.22
670.76	22342.39
671.109	22491.99
671.459	22525.44
671.808	22474.59
672.157	22417.87
672.507	22366.12
672.856	22256.97
673.205	22317.76
673.554	22312.34
673.904	22247.48
674.253	22370.64
674.602	22425.78
674.951	22038.45
675.3	21883.2
675.649	22295.16
675.998	22237.54
676.346	22281.38
676.695	22346.91
677.044	22238.89
677.393	22213.13
677.741	22282.06
678.09	22114.38
678.438	22162.06
678.787	22133.13
679.135	22179.91
679.484	22082.96
679.832	22214.26
680.181	21971.33
680.529	22178.78
680.877	22042.29
681.225	21993.25
681.573	22187.59
681.922	22052
682.27	21998.67
682.618	21959.13
682.966	21894.04
683.314	21870.77
683.661	21771.11
684.009	21722.52
684.357	21757.55
684.705	21664.22
685.053	21721.62
685.4	21654.5
685.748	21547.39
686.095	21479.82
686.443	21524.34
686.79	21480.72
687.138	21501.06
687.485	21489.53
687.832	21407.28
688.18	21344.68
688.527	21312.36
688.874	21362.53
689.221	21282.53
689.568	21154.18
689.915	21245.7
690.262	21142.88
690.609	21113.05
690.956	21077.57
691.303	21044.12
691.65	20875.31
691.997	20952.6
692.344	20753.73
692.69	20710.12
693.037	20712.38
693.383	20527.75
693.73	20642.78
694.077	20471.48
694.423	20575.21
694.769	20405.95
695.116	20476.91
695.462	20285.95
695.808	20353.97
696.155	20365.27
696.501	20163.69
696.847	20236.69
697.193	20093.64
697.539	20175.67
697.885	20068.78
698.231	20009.57
698.577	20067.42
698.923	20055
699.269	19869.92
699.614	19773.87
699.96	19744.95
700.306	19819.52
700.651	19639.64
700.997	19620.43
701.342	19622.69
701.688	19560.77
702.033	19347.44
702.379	19426.99
702.724	19425.18
703.069	19409.81
703.415	19205.07
703.76	19196.03
704.105	19252.76
704.45	19123.04
704.795	19069.48
705.14	18940
705.485	19011.86
705.83	18912.2
706.175	18887.57
706.52	18831.98
706.865	18776.16
707.209	18772.77
707.554	18702.49
707.899	18757.4
708.243	18652.32
708.588	18671.53
708.932	18593.34
709.277	18502.49
709.621	18447.58
709.966	18511.76
710.31	18433.57
710.654	18252.33
710.998	18288.04
711.342	18309.28
711.687	18238.09
712.031	18146.8
712.375	18222.95
712.719	18156.51
713.063	18184.08
713.407	18183.18
713.75	18022.28
714.094	18042.17
714.438	17965.78
714.782	18038.55
715.125	17880.59
715.469	17975.05
715.812	17781.61
716.156	17741.84
716.499	17673.81
716.843	17739.12
717.186	17675.85
717.53	17817.77
717.873	17787.94
718.216	17696.87
718.559	17734.83
718.902	17497.1
719.246	17640.6
719.589	17478.79
719.932	17434.73
720.275	17450.77
720.617	17409.19
720.96	17514.27
721.303	17410.32
721.646	17379.59
721.989	17306.82
722.331	17404.9
722.674	17226.14
723.016	17280.38
723.359	17333.71
723.701	17241.74
724.044	17319.7
724.386	17168.52
724.729	17281.06
725.071	17181.85
725.413	17183.43
725.755	17236.09
726.097	17118.12
726.439	16981.63
726.782	16967.17
727.124	17085.58
727.465	16965.13
727.807	16981.4
728.149	16933.5
728.491	16913.16
728.833	16939.15
729.175	16874.97
729.516	16879.71
729.858	16893.72
730.199	16877.68
730.541	16989.31
730.882	16750.68
731.224	16892.59
731.565	16734.18
731.906	16827.96
732.248	16764.91
732.589	16596.78
732.93	16671.36
733.271	16672.94
733.612	16612.6
733.953	16604.69
734.294	16525.37
734.635	16588.65
734.976	16651.24
735.317	16623.22
735.658	16531.02
735.999	16526.27
736.339	16531.47
736.68	16540.51
737.021	16524.47
737.361	16435.66
737.702	16503.68
738.042	16405.37
738.383	16414.87
738.723	16467.52
739.063	16464.58
739.404	16378.03
739.744	16404.02
740.084	16300.29
740.424	16463.68
740.764	16267.98
741.104	16354.08
741.444	16207.86
741.784	16126.06
742.124	16246.51
742.464	16222.1
742.804	16143.23
743.143	16226.4
743.483	16179.39
743.823	16078.83
744.162	16128.09
744.502	16168.32
744.841	16025.5
745.181	16121.09
745.52	16095.33
745.86	16038.6
746.199	15974.88
746.538	16046.29
746.877	16004.03
747.216	16074.53
747.556	15974.65
747.895	15993.63
748.234	15895.78
748.573	15916.57
748.911	15861.43
749.25	15915.22
749.589	15898.04
749.928	15820.98
750.267	15859.17
750.605	15815.56
750.944	15826.41
751.283	15643.81
751.621	15708.89
751.96	15723.36
752.298	15617.37
752.636	15606.3
752.975	15625.73
753.313	15464.16
753.651	15625.28
753.989	15534.44
754.327	15559.75
754.666	15497.83
755.004	15489.69
755.342	15441.56
755.679	15458.51
756.017	15296.7
756.355	15427.32
756.693	15380.99
757.031	15326.76
757.368	15165.18
757.706	15238.17
758.044	15166.99
758.381	15145.07
758.719	15172.41
759.056	15167.67
759.394	15018.97
759.731	14961.8
760.068	14903.72
760.405	14882.02
760.743	14896.94
761.08	14896.03
761.417	14735.59
761.754	14777.85
762.091	14724.29
762.428	14708.02
762.765	14640
763.102	14691.75
763.438	14527.23
763.775	14463.73
764.112	14553.22
764.449	14487.68
764.785	14462.6
765.122	14336.05
765.458	14349.83
765.795	14250.85
766.131	14263.96
766.467	14150.07
766.804	14110.52
767.14	14135.83
767.476	14030.07
767.812	13958.21
768.148	14074.14
768.485	13888.6
768.821	13857.42
769.157	13816.97
769.492	13792.34
769.828	13748.95
770.164	13719.12
770.5	13583.98
770.836	13574.49
771.171	13467.37
771.507	13470.31
771.842	13309.41
772.178	13394.83
772.513	13377.2
772.849	13326.81
773.184	13248.39
773.519	13222.63
773.855	13195.29
774.19	13065.35
774.525	13011.56
774.86	13096.53
775.195	13020.83
775.53	12913.49
775.865	12901.96
776.2	12728.86
776.535	12672.82
776.87	12741.52
777.205	12700.39
777.539	12656.77
777.874	12641.63
778.209	12493.39
778.543	12513.27
778.878	12370.23
779.212	12410.45
779.547	12353.95
779.881	12324.8
780.215	12251.81
780.55	12280.96
780.884	12253.39
781.218	12290
781.552	12107.41
781.886	12093.85
782.22	12043.45
782.554	11967.52
782.888	11747.64
783.222	11826.96
783.556	11753.52
783.889	11747.42
784.223	11703.35
784.557	11557.82
784.89	11680.98
785.224	11617.03
785.557	11515.33
785.891	11550.36
786.224	11473.07
786.558	11436.46
786.891	11388.1
787.224	11355.56
787.557	11297.94
787.891	11271.95
788.224	11306.98
788.557	11204.61
788.89	11178.17
789.223	11116.7
789.556	11161.22
789.888	10969.58
790.221	11040.77
790.554	10962.13
790.887	10876.93
791.219	10901.34
791.552	10801.45
791.884	10712.19
792.217	10777.73
792.549	10709.48
792.882	10653.43
793.214	10632.19
793.546	10653.66
793.879	10523.04
794.211	10491.63
794.543	10496.6
794.875	10445.3
795.207	10519.2
795.539	10410.96
795.871	10452.54
796.203	10292.09
796.535	10275.14
796.867	10238.98
797.198	10185.88
797.53	10242.15
797.862	10159.21
798.193	10105.65
798.525	10143.39
798.856	10130.28
799.188	10073.79
799.519	9988.82
799.85	9970.74
800.182	9928.48
800.513	9925.77
800.844	9839.22
801.175	9925.54
801.506	9837.18
801.837	9775.49
802.168	9758.99
802.499	9718.77
802.83	9656.17
803.161	9657.75
803.491	9639
803.822	9681.93
804.153	9563.52
804.483	9529.4
804.814	9437.65
805.145	9488.95
805.475	9497.98
805.805	9442.84
806.136	9473.8
806.466	9368.72
806.796	9399.23
807.126	9339.12
807.457	9297.76
807.787	9349.29
808.117	9272.23
808.447	9230.87
808.777	9181.83
809.107	9174.15
809.436	9137.32
809.766	9126.7
810.096	9141.61
810.426	9025.91
810.755	9025.23
811.085	9016.87
811.414	9003.53
811.744	8996.75
812.073	8966.47
812.403	8917.44
812.732	8877.44
813.061	8832.24
813.39	8801.96
813.719	8757.89
814.049	8820.49
814.378	8821.17
814.707	8771.45
815.036	8733.26
815.365	8683.32
815.693	8658.01
816.022	8679.93
816.351	8603.32
816.68	8549.08
817.008	8588.86
817.337	8495.75
817.665	8521.74
817.994	8515.86
818.322	8527.39
818.651	8391.12
818.979	8386.83
819.307	8402.87
819.636	8415.98
819.964	8285.14
820.292	8387.73
820.62	8388.41
820.948	8329.2
821.276	8343.44
821.604	8325.13
821.932	8387.73
822.259	8384.57
822.587	8320.39
822.915	8338.92
823.243	8277.9
823.57	8362.87
823.898	8263.89
824.225	8289.88
824.553	8236.77
824.88	8292.14
825.207	8330.11
825.535	8303.21
825.862	8314.51
826.189	8297.11
826.516	8388.41
826.843	8297.34
827.17	8315.42
827.497	8341.4
827.824	8303.67
828.151	8342.76
828.478	8315.87
828.805	8269.77
829.131	8308.86
829.458	8305.93
829.785	8224.8
830.111	8279.71
830.438	8299.6
830.764	8263.44
831.09	8279.71
831.417	8229.77
831.743	8282.42
832.069	8243.78
832.395	8216.89
832.722	8248.07
833.048	8216.21
833.374	8226.83
833.7	8122.2
834.026	8171.69
834.351	8193.16
834.677	8168.53
835.003	8210.56
835.329	8162.43
835.654	8142.54
835.98	8125.14
836.306	8164.46
836.631	8072.26
836.956	8156.55
837.282	8102.32
837.607	8077.23
837.932	8076.55
838.258	8078.14
838.583	8069.32
838.908	7969.21
839.233	8023.67
839.558	7986.61
839.883	8006.72
840.208	7956.56
840.533	7965.14
840.858	7938.7
841.182	7929.66
841.507	7917.91
841.832	7930.57
842.156	7870.68
842.481	7817.8
842.805	7849.21
843.13	7783.45
843.454	7802.21
843.778	7789.56
844.103	7767.86
844.427	7702.33
844.751	7715.21
845.075	7741.87
845.399	7662.55
845.723	7660.29
846.047	7707.75
846.371	7568.09
846.695	7585.49
847.019	7512.27
847.343	7485.38
847.666	7440.64
847.99	7427.08
848.313	7419.4
848.637	7417.14
848.96	7391.6
849.284	7374.65
849.607	7307.76
849.931	7262.79
850.254	7244.71
850.577	7201.1
850.9	7156.13
851.223	7207.42
851.546	7157.48
851.869	7056.92
852.192	7046.52
852.515	7021.44
852.838	7058.27
853.161	7046.52
853.483	6965.4
853.806	6968.79
854.129	6945.28
854.451	6904.38
854.774	6859.41
855.096	6859.86
855.419	6757.94
855.741	6864.61
856.063	6787.1
856.385	6729.47
856.708	6696.48
857.03	6710.49
857.352	6746.42
857.674	6714.1
857.996	6664.39
858.318	6619.87
858.64	6656.48
858.961	6608.57
859.283	6588.91
859.605	6603.82
859.926	6591.62
860.248	6588.46
860.57	6500.32
860.891	6531.96
861.212	6517.95
861.534	6557.72
861.855	6520.66
862.176	6498.52
862.498	6519.31
862.819	6504.62
863.14	6461.45
863.461	6421.68
863.782	6415.35
864.103	6380.78
864.424	6318.86
864.745	6425.3
865.065	6384.62
865.386	6282.93
865.707	6316.6
866.027	6366.77
866.348	6326.54
866.668	6285.87
866.989	6371.74
867.309	6242.25
867.63	6299.65
867.95	6271.18
868.27	6237.28
868.59	6288.8
868.91	6282.48
869.23	6240.9
869.55	6230.95
869.87	6267.34
870.19	6248.13
870.51	6197.96
870.83	6252.42
871.15	6108.7
871.469	6195.92
871.789	6191.63
872.109	6191.41
872.428	6150.73
872.748	6139.43
873.067	6128.58
873.386	6083.84
873.706	6115.25
874.025	6076.83
874.344	6095.59
874.663	6040.45
874.982	6078.41
875.301	6059.66
875.62	6042.48
875.939	6009.49
876.258	6048.81
876.577	6015.36
876.896	6002.48
877.214	5995.93
877.533	5972.88
877.852	5991.41
878.17	5930.62
878.489	5981.24
878.807	5946.89
879.125	5974.24
879.444	5993.22
879.762	5919.77
880.08	5957.51
880.398	5945.31
880.716	5910.73
881.034	5890.4
881.352	5816.5
881.67	5834.35
881.988	5845.65
882.306	5873.67
882.624	5871.41
882.941	5790.51
883.259	5832.32
883.577	5793.9
883.894	5768.82
884.212	5769.04
884.529	5732.89
884.846	5757.52
885.164	5722.72
885.481	5737.63
885.798	5741.25
886.115	5690.18
886.432	5723.62
886.75	5702.15
887.067	5701.25
887.383	5622.15
887.7	5619.89
888.017	5629.16
888.334	5591.87
888.651	5630.74
888.967	5560.24
889.284	5532.44
889.6	5549.39
889.917	5524.08
890.233	5570.4
890.55	5526.56
890.866	5508.26
891.182	5468.94
891.498	5490.63
891.815	5471.65
892.131	5421.26
892.447	5419.45
892.763	5464.87
893.079	5406.11
893.395	5401.6
893.71	5394.14
894.026	5313.69
894.342	5367.92
894.657	5324.76
894.973	5326.79
895.289	5315.72
895.604	5310.75
895.92	5236.4
896.235	5231.43
896.55	5223.07
896.865	5229.85
897.181	5218.1
897.496	5200.7
897.811	5202.73
898.126	5175.39
898.441	5173.13
898.756	5113.69
899.071	5104.88
899.386	5133.81
899.7	5085.22
900.015	5080.93
900.33	5013.13
900.644	4996.41
900.959	5084.99
901.273	5095.39
901.588	5021.27
901.902	4964.54
902.216	4951.21
902.531	4953.7
902.845	4935.62
903.159	4887.03
903.473	4902.63
903.787	4859.46
904.101	4802.97
904.415	4842.74
904.729	4803.19
905.042	4840.48
905.356	4775.62
905.67	4842.06
905.984	4778.33
906.297	4778.33
906.611	4702.4
906.924	4736.3
907.237	4734.49
907.551	4671.9
907.864	4651.78
908.177	4696.08
908.491	4634.16
908.804	4623.08
909.117	4635.51
909.43	4606.81
909.743	4577.21
910.056	4556.42
910.368	4556.87
910.681	4480.72
910.994	4510.32
911.307	4533.14
911.619	4462.18
911.932	4440.72
912.244	4448.63
912.557	4441.62
912.869	4402.53
913.181	4394.62
913.494	4345.8
913.806	4373.37
914.118	4325.01
914.43	4367.27
914.742	4359.36
915.054	4290.21
915.366	4298.12
915.678	4254.28
915.99	4287.95
916.302	4219.93
916.613	4209.08
916.925	4217.45
917.236	4173.38
917.548	4168.86
917.859	4183.1
918.171	4154.4
918.482	4128.41
918.794	4108.52
919.105	4082.31
919.416	4046.38
919.727	4083.89
920.038	4043.66
920.349	4009.99
920.66	3991.24
920.971	4048.41
921.282	3971.8
921.593	3974.29
921.903	3930.9
922.214	3948.07
922.525	3931.58
922.835	3872.14
923.146	3906.49
923.456	3899.26
923.767	3863.56
924.077	3875.31
924.387	3820.17
924.697	3840.51
925.008	3803.45
925.318	3793.28
925.628	3782.65
925.938	3776.55
926.248	3759.83
926.558	3799.6
926.867	3715.54
927.177	3708.76
927.487	3709.89
927.796	3624.69
928.106	3641.87
928.416	3635.99
928.725	3684.13
929.034	3620.17
929.344	3606.16
929.653	3646.61
929.962	3581.98
930.271	3567.75
930.581	3543.11
930.89	3515.54
931.199	3527.29
931.508	3526.39
931.817	3468.99
932.125	3519.84
932.434	3448.65
932.743	3461.08
933.051	3409.78
933.36	3442.55
933.669	3415.21
933.977	3418.37
934.286	3345.38
934.594	3383.12
934.902	3359.62
935.21	3332.27
935.519	3329.56
935.827	3313.97
936.135	3290.01
936.443	3314.87
936.751	3259.96
937.059	3245.27
937.367	3237.13
937.674	3294.98
937.982	3261.76
938.29	3244.36
938.597	3245.72
938.905	3228.77
939.213	3201.88
939.52	3162.78
939.827	3203.01
940.135	3147.42
940.442	3172.28
940.749	3172.05
941.056	3163.01
941.363	3118.27
941.67	3124.59
941.977	3089.34
942.284	3091.37
942.591	3097.02
942.898	3060.64
943.205	3066.06
943.511	3010.02
943.818	3011.6
944.125	2989
944.431	2973.41
944.738	2954.88
945.044	2960.08
945.35	2951.94
945.657	2948.78
945.963	2943.81
946.269	2900.19
946.575	2889.57
946.881	2906.52
947.187	2926.18
947.493	2930.02
947.799	2882.57
948.105	2824.26
948.41	2815.45
948.716	2832.17
949.022	2812.96
949.327	2814.09
949.633	2799.4
949.938	2824.49
950.244	2770.48
950.549	2762.79
950.854	2792.62
951.16	2792.85
951.465	2723.02
951.77	2725.96
952.075	2701.78
952.38	2741.55
952.685	2716.47
952.99	2656.58
953.294	2641.44
953.599	2674.21
953.904	2663.36
954.209	2670.14
954.513	2607.54
954.818	2632.63
955.122	2591.5
955.426	2585.62
955.731	2578.17
956.035	2577.26
956.339	2575.68
956.643	2556.7
956.948	2551.27
957.252	2555.57
957.556	2563.48
957.86	2522.35
958.163	2513.08
958.467	2475.8
958.771	2516.02
959.075	2495.46
959.378	2492.29
959.682	2459.3
959.985	2449.13
960.289	2415.23
960.592	2423.14
960.896	2411.62
961.199	2422.46
961.502	2442.58
961.805	2428.11
962.108	2379.08
962.411	2387.66
962.714	2390.38
963.017	2349.47
963.32	2378.17
963.623	2374.1
963.926	2354.67
964.228	2334.11
964.531	2319.64
964.833	2325.07
965.136	2320.55
965.438	2309.7
965.741	2289.81
966.043	2263.37
966.345	2274.67
966.648	2268.34
966.95	2232.19
967.252	2249.59
967.554	2252.3
967.856	2211.62
968.158	2216.14
968.46	2216.37
968.761	2201.23
969.063	2229.48
969.365	2161.23
969.666	2180.21
969.968	2177.73
970.269	2175.01
970.571	2163.04
970.872	2172.08
971.174	2139.08
971.475	2146.77
971.776	2119.87
972.077	2083.72
972.378	2130.72
972.679	2094.34
972.98	2087.11
973.281	2065.86
973.582	2111.29
973.883	2065.41
974.183	2075.36
974.484	2036.49
974.785	2030.38
975.085	2039.2
975.386	2044.85
975.686	2017.05
975.986	2002.81
976.287	2005.75
976.587	1989.93
976.887	1974.57
977.187	1993.32
977.487	1995.36
977.787	1951.97
978.087	1965.75
978.387	1958.3
978.687	1943.83
978.987	1958.75
979.286	1926.66
979.586	1891.41
979.885	1891.86
980.185	1901.35
980.484	1887.11
980.784	1902.93
981.083	1861.12
981.382	1860.67
981.682	1893.89
981.981	1856.15
982.28	1866.55
982.579	1860.22
982.878	1818.64
983.177	1846.89
983.475	1827.68
983.774	1832.65
984.073	1806.66
984.372	1817.51
984.67	1789.94
984.969	1768.24
985.267	1776.83
985.566	1782.03
985.864	1762.82
986.162	1761.92
986.461	1755.59
986.759	1755.59
987.057	1712.43
987.355	1734.57
987.653	1742.93
987.951	1738.19
988.249	1712.65
988.547	1705.87
988.844	1676.04
989.142	1672.65
989.44	1688.25
989.737	1678.98
990.035	1667.91
990.332	1678.3
990.63	1662.03
990.927	1646.44
991.224	1634.69
991.521	1641.69
991.819	1654.8
992.116	1643.73
992.413	1620
992.71	1633.56
993.006	1590.4
993.303	1590.62
993.6	1611.64
993.897	1617.51
994.193	1551.75
994.49	1567.57
994.787	1547.46
995.083	1553.11
995.379	1544.75
995.676	1532.54
995.972	1546.33
996.268	1536.16
996.565	1544.75
996.861	1497.52
997.157	1497.74
997.453	1515.82
997.749	1510.4
998.044	1474.47
998.34	1492.32
998.636	1481.25
998.932	1459.1
999.227	1475.37
999.523	1476.27
999.818	1432.89
1000.114	1445.77
1000.409	1457.74
1000.704	1449.16
1001	1414.13
1001.295	1435.6
1001.59	1408.93
1001.885	1411.87
1002.18	1401.25
1002.475	1398.54
1002.77	1390.85
1003.065	1364.64
1003.359	1360.12
1003.654	1362.38
1003.949	1354.24
1004.243	1338.65
1004.538	1371.19
1004.832	1368.25
1005.127	1347.69
1005.421	1323.51
1005.715	1308.37
1006.009	1294.13
1006.304	1297.75
1006.598	1286.68
1006.892	1302.72
1007.186	1309.95
1007.48	1297.3
1007.773	1283.74
1008.067	1271.99
1008.361	1247.58
1008.655	1253
1008.948	1226.79
1009.242	1259.56
1009.535	1237.18
1009.829	1227.69
1010.122	1224.08
1010.415	1203.74
1010.708	1215.26
1011.001	1187.69
1011.295	1193.8
1011.588	1224.98
1011.881	1190.41
1012.173	1178.66
1012.466	1154.7
1012.759	1159.45
1013.052	1156.28
1013.344	1170.29
1013.637	1139.11
1013.93	1148.37
1014.222	1148.15
1014.514	1132.78
1014.807	1117.41
1015.099	1142.72
1015.391	1121.03
1015.683	1117.19
1015.976	1099.79
1016.268	1088.04
1016.56	1080.13
1016.851	1069.05
1017.143	1081.48
1017.435	1079.22
1017.727	1091.2
1018.018	1077.42
1018.31	1053.24
1018.602	1045.78
1018.893	1061.14
1019.185	1041.26
1019.476	1016.85
1019.767	1022.28
1020.058	1030.18
1020.35	1032.22
1020.641	1020.69
1020.932	1003.97
1021.223	989.73
1021.514	1000.36
1021.804	989.06
1022.095	975.72
1022.386	968.72
1022.677	971.88
1022.967	977.3
1023.258	960.58
1023.548	963.52
1023.839	966.46
1024.129	958.32
1024.419	933.92
1024.709	914.26
1025	916.06
1025.29	930.75
1025.58	917.87
1025.87	897.31
1026.16	899.57
1026.449	931.43
1026.739	893.24
1027.029	879
1027.319	890.53
1027.608	890.53
1027.898	886.46
1028.187	882.39
1028.477	898.66
1028.766	858.89
1029.055	869.74
1029.344	866.8
1029.634	874.26
1029.923	856.86
1030.212	831.32
1030.501	847.14
1030.79	852.34
1031.078	817.99
1031.367	839.23
1031.656	827.7
1031.945	806.46
1032.233	812.56
1032.522	804.65
1032.81	817.31
1033.099	787.48
1033.387	794.94
1033.675	784.54
1033.963	776.18
1034.251	773.24
1034.54	769.4
1034.828	769.85
1035.116	759.01
1035.403	739.57
1035.691	754.71
1035.979	744.99
1036.267	763.75
1036.554	743.41
1036.842	727.37
1037.129	727.82
1037.417	715.39
1037.704	733.47
1037.992	723.07
1038.279	718.1
1038.566	728.27
1038.853	728.27
1039.14	728.27
