Data from tablewood_brown_FLMS001491_012.txt Node
Date: Tue Feb 07 11:10:04 GMT 2017
User: dcchb
Spectrometer: FLMS00149
Trigger mode: 0
Integration Time (sec): 2.000000E-2
Scans to average: 10
Electric dark correction enabled: true
Nonlinearity correction enabled: false
Boxcar width: 0
XAxis mode: Wavelengths
Number of Pixels in Spectrum: 2048
>>>>>Begin Spectral Data<<<<<
341.393	2.37
341.776	2.37
342.16	2.37
342.543	-65.42
342.927	-85.99
343.31	-51.64
343.693	-66.55
344.077	-52.09
344.46	-65.87
344.843	-55.25
345.226	-40.56
345.61	-36.27
345.993	-36.95
346.376	11.64
346.759	-7.12
347.142	35.59
347.525	19.32
347.908	67.91
348.291	82.37
348.674	89.83
349.057	105.65
349.44	112.2
349.823	142.48
350.206	168.02
350.588	205.31
350.971	218.19
351.354	221.8
351.737	248.92
352.119	249.15
352.502	264.29
352.884	279.88
353.267	282.82
353.65	293.89
354.032	299.77
354.414	306.09
354.797	295.7
355.179	326.43
355.562	317.84
355.944	347
356.326	311.29
356.709	329.14
357.091	329.82
357.473	342.7
357.855	328.92
358.238	346.32
358.62	348.8
359.002	342.02
359.384	350.39
359.766	351.52
360.148	356.71
360.53	344.06
360.912	332.99
361.294	341.8
361.676	339.99
362.057	344.06
362.439	335.7
362.821	349.03
363.203	324.4
363.584	347.45
363.966	330.73
364.348	326.43
364.729	319.2
365.111	337.51
365.493	329.82
365.874	331.86
366.256	346.32
366.637	328.24
367.019	313.78
367.4	344.28
367.781	299.99
368.163	339.31
368.544	307.45
368.925	342.93
369.306	344.74
369.688	327.11
370.069	323.95
370.45	314.68
370.831	325.53
371.212	345.19
371.593	343.61
371.974	323.95
372.355	331.86
372.736	347.67
373.117	334.57
373.498	338.86
373.879	333.21
374.26	307.22
374.641	326.88
375.021	324.62
375.402	327.56
375.783	335.92
376.163	348.13
376.544	349.93
376.925	362.14
377.305	370.5
377.686	326.21
378.066	364.4
378.447	362.36
378.827	363.49
379.208	350.84
379.588	339.31
379.968	360.1
380.349	368.92
380.729	370.72
381.109	365.98
381.489	362.59
381.87	376.6
382.25	368.69
382.63	377.05
383.01	373.44
383.39	363.72
383.77	389.93
384.15	388.58
384.53	390.84
384.91	385.19
385.29	363.27
385.67	383.38
386.049	419.09
386.429	404.85
386.809	382.25
387.189	389.26
387.568	380.89
387.948	411.18
388.328	387.9
388.707	400.33
389.087	402.81
389.466	423.83
389.846	412.53
390.225	417.5
390.605	433.77
390.984	407.56
391.363	416.15
391.743	430.61
392.122	438.97
392.501	420.44
392.881	459.54
393.26	458.86
393.639	451.85
394.018	467.9
394.397	465.41
394.776	443.27
395.155	481.46
395.534	466.77
395.913	450.04
396.292	462.25
396.671	500.21
397.05	474
397.429	498.18
397.808	471.96
398.186	476.71
398.565	496.37
398.944	500.66
399.323	497.05
399.701	493.89
400.08	494.34
400.458	498.63
400.837	523.49
401.215	497.5
401.594	502.92
401.972	496.82
402.351	526.65
402.729	510.38
403.107	520.55
403.486	547.67
403.864	514.22
404.242	519.2
404.62	529.36
404.999	534.56
405.377	543.6
405.755	544.73
406.133	549.7
406.511	562.58
406.889	570.72
407.267	575.47
407.645	563.94
408.023	582.24
408.401	586.09
408.779	609.36
409.156	603.49
409.534	601
409.912	587.67
410.29	618.63
410.667	614.33
411.045	643.26
411.422	640.1
411.8	627.89
412.178	634.67
412.555	647.1
412.933	645.07
413.31	657.04
413.687	673.32
414.065	667.44
414.442	660.89
414.819	678.74
415.197	669.93
415.574	703.6
415.951	693.65
416.328	702.92
416.705	688.46
417.082	689.81
417.46	697.72
417.837	731.62
418.214	727.1
418.591	725.97
418.967	750.38
419.344	727.1
419.721	750.38
420.098	719.87
420.475	768.68
420.852	758.51
421.228	758.29
421.605	760.32
421.982	776.36
422.358	817.72
422.735	791.05
423.111	761.9
423.488	800.54
423.864	816.36
424.241	813.42
424.617	806.65
424.994	813.65
425.37	822.69
425.746	818.17
426.123	846.64
426.499	830.83
426.875	856.14
427.251	851.62
427.627	859.07
428.003	872.18
428.379	890.03
428.756	881.67
429.132	888.9
429.507	912.86
429.883	928
430.259	930.26
430.635	928.45
431.011	921.9
431.387	939.52
431.763	970.71
432.138	986.98
432.514	999.18
432.89	1004.38
433.265	993.76
433.641	1008.45
434.016	1025.17
434.392	1040.76
434.767	1027.2
435.143	1066.98
435.518	1072.85
435.894	1086.64
436.269	1104.26
436.644	1083.25
437.02	1109.01
437.395	1142.46
437.77	1125.51
438.145	1143.13
438.52	1148.56
438.895	1147.2
439.271	1150.82
439.646	1186.07
440.021	1201.89
440.395	1203.02
440.77	1212.51
441.145	1207.76
441.52	1221.55
441.895	1243.02
442.27	1245.5
442.645	1220.65
443.019	1252.96
443.394	1261.55
443.769	1283.92
444.143	1276.46
444.518	1281.89
444.892	1297.03
445.267	1299.51
445.641	1303.58
446.016	1291.38
446.39	1307.2
446.764	1345.61
447.139	1325.95
447.513	1338.61
447.887	1341.32
448.262	1327.31
448.636	1387.2
449.01	1351.04
449.384	1406.86
449.758	1398.27
450.132	1420.19
450.506	1426.97
450.88	1434.88
451.254	1430.81
451.628	1448.66
452.002	1463.35
452.376	1465.61
452.75	1500.86
453.123	1484.14
453.497	1505.84
453.871	1510.81
454.244	1542.22
454.618	1551.03
454.992	1577.25
455.365	1558.49
455.739	1616.79
456.112	1611.37
456.486	1664.02
456.859	1648.88
457.232	1673.74
457.606	1677.58
457.979	1669.67
458.352	1719.16
458.725	1752.84
459.099	1730.01
459.472	1771.82
459.845	1831.25
460.218	1829.44
460.591	1822.66
460.964	1838.71
461.337	1887.3
461.71	1905.83
462.083	1932.49
462.456	1937.69
462.829	1923
463.201	1962.32
463.574	1993.96
463.947	2011.36
464.32	2064.24
464.692	2081.87
465.065	2092.94
465.438	2139.49
465.81	2149.89
466.183	2148.98
466.555	2184.91
466.928	2229.66
467.3	2233.73
467.672	2262.2
468.045	2360.73
468.417	2344.68
468.789	2354.4
469.161	2428.98
469.534	2445.92
469.906	2488.86
470.278	2545.58
470.65	2526.6
471.022	2601.85
471.394	2646.6
471.766	2652.7
472.138	2676.65
472.51	2766.14
472.882	2800.04
473.253	2842.52
473.625	2913.93
473.997	2986.7
474.369	2947.61
474.74	2995.74
475.112	3050.43
475.484	3148.96
475.855	3188.05
476.227	3238.67
476.598	3348.73
476.97	3414.03
477.341	3434.82
477.713	3475.5
478.084	3554.82
478.455	3637.31
478.827	3703.97
479.198	3779.67
479.569	3798.88
479.94	3870.07
480.311	3958.43
480.682	4033
481.053	4136.73
481.424	4242.49
481.795	4272.32
482.166	4344.18
482.537	4390.05
482.908	4528.58
483.279	4588.69
483.65	4687.9
484.021	4775.58
484.391	4777.84
484.762	4853.54
485.133	4873.43
485.503	5003.15
485.874	5119.53
486.244	5152.52
486.615	5237.72
486.985	5290.37
487.356	5466.64
487.726	5485.17
488.097	5599.97
488.467	5604.94
488.837	5756.57
489.207	5781.88
489.578	5895.1
489.948	5955.66
490.318	6060.29
490.688	6056
491.058	6156.56
491.428	6270.91
491.798	6345.93
492.168	6454.18
492.538	6515.65
492.908	6601.97
493.278	6619.15
493.648	6672.03
494.017	6662.08
494.387	6819.37
494.757	6878.35
495.126	6915.41
495.496	6996.77
495.866	6962.19
496.235	7107.04
496.605	7159.47
496.974	7180.04
497.344	7348.17
497.713	7353.37
498.082	7340.03
498.452	7494.83
498.821	7518.33
499.19	7571.44
499.559	7582.96
499.928	7691.66
500.298	7735.05
500.667	7809.17
501.036	7783.41
501.405	7927.81
501.774	7881.71
502.143	7923.29
502.512	8044.87
502.88	8149.5
503.249	8088.04
503.618	8254.81
503.987	8266.56
504.356	8294.81
504.724	8363.96
505.093	8434.92
505.462	8516.05
505.83	8485.54
506.199	8609.38
506.567	8711.75
506.936	8660.9
507.304	8827.23
507.672	8926.21
508.041	8941.35
508.409	8984.96
508.777	9132.98
509.145	9161.68
509.514	9175.46
509.882	9239.64
510.25	9299.76
510.618	9340.21
510.986	9415.46
511.354	9497.72
511.722	9637.83
512.09	9665.62
512.458	9677.6
512.826	9832.62
513.193	9891.83
513.561	9946.07
513.929	10047.98
514.297	10102.67
514.664	10228.77
515.032	10226.06
515.4	10361.2
515.767	10431.93
516.135	10482.55
516.502	10415.43
516.869	10564.81
517.237	10662.88
517.604	10704.01
517.972	10791.02
518.339	10893.84
518.706	10947.17
519.073	10991.24
519.44	11041.4
519.808	11187.62
520.175	11251.34
520.542	11416.54
520.909	11462.18
521.276	11526.59
521.643	11636.19
522.009	11730.88
522.376	11790.09
522.743	11858.33
523.11	12075.95
523.477	12113.01
523.843	12250.64
524.21	12418.77
524.577	12446.11
524.943	12450.63
525.31	12643.17
525.676	12759.55
526.043	12807.46
526.409	12936.95
526.776	12973.11
527.142	13142.59
527.508	13160.44
527.874	13294.9
528.241	13402.7
528.607	13450.38
528.973	13550.04
529.339	13586.42
529.705	13717.04
530.071	13870.93
530.437	13942.57
530.803	14001.1
531.169	14087.43
531.535	14150.25
531.901	14237.25
532.267	14214.88
532.632	14341.2
532.998	14437.7
533.364	14453.07
533.73	14494.2
534.095	14742.32
534.461	14672.04
534.826	14796.56
535.192	14906.84
535.557	14974.63
535.923	14968.08
536.288	15009.44
536.653	15100.28
537.019	15150
537.384	15250.79
537.749	15266.38
538.114	15333.27
538.479	15394.28
538.845	15388.63
539.21	15387.05
539.575	15573.04
539.94	15620.95
540.305	15727.38
540.67	15657.1
541.034	15709.08
541.399	15796.08
541.764	15891.67
542.129	15828.62
542.494	15921.05
542.858	16039.69
543.223	16032.91
543.587	16258.22
543.952	16095.06
544.316	16210.08
544.681	16262.51
545.045	16334.15
545.41	16435.61
545.774	16488.27
546.138	16454.82
546.503	16649.62
546.867	16704.31
547.231	16790.86
547.595	16805.09
547.959	16899.78
548.324	16910.63
548.688	17058.87
549.052	17119.89
549.416	17069.72
549.779	17162.37
550.143	17284.18
550.507	17409.82
550.871	17553.55
551.235	17492.31
551.599	17692.08
551.962	17715.81
552.326	17799.64
552.689	17883.03
553.053	17930.26
553.417	17988.57
553.78	18275.79
554.143	18224.49
554.507	18380.65
554.87	18433.75
555.234	18629.68
555.597	18580.64
555.96	18695.67
556.323	18802.56
556.686	18893.18
557.05	19071.48
557.413	19178.59
557.776	19271.24
558.139	19410.68
558.502	19541.29
558.865	19644.34
559.228	19878.91
559.59	19967.05
559.953	20042.75
560.316	20343.76
560.679	20277.55
561.041	20468.73
561.404	20515.96
561.767	20777.19
562.129	20773.13
562.492	21093.34
562.854	21059.45
563.217	21117.75
563.579	21280.46
563.941	21573.33
564.304	21642.93
564.666	21925.86
565.028	21920.44
565.39	22123.15
565.753	22264.39
566.115	22447.43
566.477	22474.1
566.839	22655.79
567.201	22889.68
567.563	22969.68
567.925	23148.43
568.287	23305.71
568.648	23498.48
569.01	23670
569.372	23917.45
569.734	23785.25
570.095	24089.88
570.457	24331.68
570.819	24407.61
571.18	24540.03
571.542	24756.75
571.903	24894.15
572.265	25107.93
572.626	25214.14
572.987	25454.58
573.349	25638.31
573.71	25812.54
574.071	25891.18
574.432	26008.02
574.794	26274.9
575.155	26316.26
575.516	26374.56
575.877	26517.61
576.238	26683.71
576.599	26856.13
576.96	26998.05
577.32	27133.41
577.681	27403.23
578.042	27395.78
578.403	27601.65
578.763	27565.26
579.124	27760.96
579.485	27894.52
579.845	28066.72
580.206	28038.7
580.566	28071.92
580.927	28218.81
581.287	28408.86
581.648	28373.38
582.008	28513.04
582.368	28523.88
582.728	28736.31
583.089	28635.29
583.449	28757.55
583.809	28954.15
584.169	29082.96
584.529	28975.17
584.889	29260.13
585.249	29151.66
585.609	29132.91
585.969	29351.88
586.329	29328.83
586.688	29429.4
587.048	29404.76
587.408	29342.84
587.768	29520.24
588.127	29466
588.487	29574.02
588.846	29845.66
589.206	29640.24
589.565	29616.74
589.925	29788.93
590.284	29859.67
590.643	29896.5
591.003	29950.96
591.362	30108.93
591.721	29971.08
592.08	30008.36
592.44	30064.86
592.799	30104.41
593.158	30115.71
593.517	30170.85
593.876	30203.84
594.235	30103.95
594.593	30062.83
594.952	30279.77
595.311	30121.58
595.67	30131.07
596.029	30414.23
596.387	30397.05
596.746	30561.34
597.104	30374
597.463	30303.05
597.822	30527.22
598.18	30431.86
598.538	30333.55
598.897	30602.25
599.255	30407
599.613	30790.94
599.972	30670.27
600.33	30635.69
600.688	30594.34
601.046	30743.71
601.404	30799.76
601.762	30737.16
602.12	31010.15
602.478	30888.11
602.836	30892.18
603.194	30764.28
603.552	30878.17
603.91	30895.12
604.268	31056.02
604.625	30912.52
604.983	31144.83
605.341	30884.95
605.698	31068.22
606.056	31113.19
606.413	30976.93
606.771	31245.62
607.128	31149.8
607.485	31089.24
607.843	31124.72
608.2	31289.91
608.557	31349.57
608.914	31152.74
609.272	31420.98
609.629	31330.59
609.986	31472.73
610.343	31302.79
610.7	31617.13
611.057	31595.44
611.414	31494.65
611.771	31535.55
612.127	31561.32
612.484	31630.69
612.841	31680.18
613.198	31711.82
613.554	31645.38
613.911	31943.91
614.267	31778.26
614.624	31838.82
614.98	31972.38
615.337	32011.02
615.693	31961.76
616.05	32040.63
616.406	32063.22
616.762	32073.62
617.118	32042.89
617.475	32072.26
617.831	32221.86
618.187	32096.44
618.543	32239.94
618.899	32415.98
619.255	32255.54
619.611	32263.22
619.967	32363.1
620.323	32452.37
620.678	32253.5
621.034	32251.69
621.39	32247.85
621.746	32271.35
622.101	32653.49
622.457	32408.53
622.812	32335.76
623.168	32623.21
623.523	32557.68
623.879	32510.67
624.234	32390.22
624.589	32589.54
624.945	32445.59
625.3	32483.55
625.655	32543.21
626.01	32529.43
626.365	32488.98
626.72	32520.39
627.075	32444.68
627.43	32499.15
627.785	32317.23
628.14	32485.59
628.495	32539.37
628.85	32474.74
629.205	32287.63
629.559	32525.81
629.914	32311.35
630.269	32301.64
630.623	32181.87
630.978	32197.91
631.332	32223.22
631.687	32253.5
632.041	32220.73
632.396	32211.7
632.75	32107.07
633.104	32072.94
633.459	31962.66
633.813	32070.23
634.167	31926.73
634.521	32041.76
634.875	32028.2
635.229	31929.22
635.583	31812.61
635.937	31757.92
636.291	31712.5
636.645	31903
636.999	31645.16
637.352	31838.15
637.706	31546.85
638.06	31705.72
638.413	31786.62
638.767	31561.09
639.121	31736.68
639.474	31517.02
639.828	31564.03
640.181	31627.3
640.534	31667.75
640.888	31351.38
641.241	31289.01
641.594	31394.54
641.947	31482.22
642.301	31333.3
642.654	31368.1
643.007	31343.92
643.36	31251.04
643.713	31349.12
644.066	31182.12
644.419	31266.86
644.771	30858.06
645.124	30734.9
645.477	30588.91
645.83	30306.43
646.182	30214.69
646.535	30295.81
646.888	30217.62
647.24	30066.22
647.593	30341.01
647.945	30228.7
648.298	29981.7
648.65	30070.28
649.002	30101.47
649.355	30078.87
649.707	30176.04
650.059	30146.89
650.411	30670.49
650.763	30617.84
651.115	30961.78
651.467	30910.71
651.819	30795.01
652.171	30849.25
652.523	30699.87
652.875	30797.95
653.227	30513.89
653.578	30857.15
653.93	30762.02
654.282	30586.88
654.633	30499.2
654.985	30537.16
655.337	30630.95
655.688	30580.1
656.039	30704.16
656.391	30522.93
656.742	30543.04
657.094	30630.04
657.445	30671.62
657.796	30607.22
658.147	30526.99
658.498	30514.56
658.849	30589.82
659.2	30647.44
659.551	30388.24
659.902	30649.02
660.253	30521.34
660.604	30483.83
660.955	30309.6
661.306	30512.98
661.656	30336.94
662.007	30527.22
662.358	30445.19
662.708	30400.22
663.059	30461.23
663.409	30329.03
663.76	30380.33
664.11	30569.48
664.461	30593.43
664.811	30506.2
665.161	30489.03
665.511	30253.1
665.862	30435.7
666.212	30505.98
666.562	30481.57
666.912	30350.5
667.262	30338.75
667.612	30416.71
667.962	30339.88
668.312	30298.07
668.662	30523.83
669.011	30304.4
669.361	30297.4
669.711	30265.98
670.06	30320.9
670.41	30240.9
670.76	30213.78
671.109	30325.87
671.459	30248.58
671.808	30146.66
672.157	30223.27
672.507	29974.92
672.856	30044.29
673.205	30071.41
673.554	30175.82
673.904	30039.55
674.253	30212.65
674.602	30104.63
674.951	29663.74
675.3	29422.62
675.649	29899.44
675.998	30039.78
676.346	29909.16
676.695	30054.46
677.044	29785.54
677.393	29856.5
677.741	29951.87
678.09	29868.93
678.438	29704.19
678.787	29704.87
679.135	29650.63
679.484	29535.16
679.832	29639.79
680.181	29372.9
680.529	29557.3
680.877	29476.17
681.225	29264.88
681.573	29405.89
681.922	29260.81
682.27	29121.16
682.618	29231.43
682.966	29139.01
683.314	29212.23
683.661	29041.38
684.009	28962.52
684.357	28874.61
684.705	28779.02
685.053	29011.33
685.4	28791.9
685.748	28682.3
686.095	28710.09
686.443	28595.52
686.79	28460.16
687.138	28615.63
687.485	28607.95
687.832	28402.98
688.18	28497.67
688.527	28250.44
688.874	28249.54
689.221	28141.07
689.568	28049.09
689.915	27950.79
690.262	27952.6
690.609	27875.54
690.956	27776.11
691.303	27809.55
691.65	27578.6
691.997	27581.08
692.344	27445.27
692.69	27377.25
693.037	27354.65
693.383	27097.03
693.73	27301.99
694.077	27104.03
694.423	27089.12
694.769	26852.97
695.116	26871.72
695.462	26810.71
695.808	26652.75
696.155	26769.8
696.501	26409.36
696.847	26466.54
697.193	26323.49
697.539	26471.06
697.885	26226.99
698.231	26100.44
698.577	26144.06
698.923	26071.29
699.269	25846.89
699.614	25817.74
699.96	25761.02
700.306	25605.32
700.651	25567.12
700.997	25433.12
701.342	25378.88
701.688	25372.1
702.033	25288.94
702.379	25308.83
702.724	25144.08
703.069	25052.79
703.415	24890.08
703.76	24787.71
704.105	24694.83
704.45	24679.92
704.795	24602.4
705.14	24535.06
705.485	24519.02
705.83	24419.81
706.175	24462.29
706.52	24409.41
706.865	24142.98
707.209	24175.07
707.554	24006.71
707.899	24150.89
708.243	23995.41
708.588	23939.37
708.932	23799.49
709.277	23707.51
709.621	23833.84
709.966	23587.06
710.31	23580.51
710.654	23362.21
710.998	23584.13
711.342	23502.77
711.687	23489.44
712.031	23352.49
712.375	23278.37
712.719	23322.44
713.063	23330.35
713.407	23303.23
713.75	23155.44
714.094	23183.23
714.438	23011.94
714.782	23033.63
715.125	23024.37
715.469	22878.61
715.812	22842.9
716.156	22781.66
716.499	22815.33
716.843	22838.16
717.186	22663.47
717.53	22692.62
717.873	22740.08
718.216	22607.88
718.559	22549.58
718.902	22557.49
719.246	22547.77
719.589	22531.95
719.932	22303.71
720.275	22263.48
720.617	22267.32
720.96	22330.6
721.303	22335.8
721.646	22274.78
721.989	22195.24
722.331	22261.22
722.674	22168.12
723.016	22277.27
723.359	22241.56
723.701	22282.69
724.044	22048.12
724.386	21985.07
724.729	22263.48
725.071	22067.78
725.413	22166.99
725.755	22075.24
726.097	21960.67
726.439	21936.49
726.782	21962.25
727.124	22092.87
727.465	21887.45
727.807	21978.97
728.149	21966.09
728.491	21887.45
728.833	21926.09
729.175	21845.41
729.516	21797.96
729.858	21703.27
730.199	21873.66
730.541	21719.77
730.882	21839.99
731.224	21891.06
731.565	21805.42
731.906	21798.86
732.248	21830.95
732.589	21748.24
732.93	21573.33
733.271	21755.93
733.612	21681.58
733.953	21815.36
734.294	21712.76
734.635	21566.55
734.976	21684.51
735.317	21513.45
735.658	21534.01
735.999	21551.41
736.339	21710.95
736.68	21653.55
737.021	21599.77
737.361	21588.92
737.702	21734.68
738.042	21470.51
738.383	21558.87
738.723	21711.63
739.063	21570.62
739.404	21575.82
739.744	21635.02
740.084	21432.32
740.424	21565.87
740.764	21559.09
741.104	21630.73
741.444	21491.98
741.784	21618.98
742.124	21557.51
742.464	21544.41
742.804	21588.47
743.143	21484.97
743.483	21478.42
743.823	21410.4
744.162	21439.1
744.502	21517.97
744.841	21452.43
745.181	21569.72
745.52	21577.62
745.86	21498.76
746.199	21442.49
746.538	21432.77
746.877	21570.17
747.216	21558.42
747.556	21414.01
747.895	21477.29
748.234	21448.81
748.573	21477.29
748.911	21454.92
749.25	21451.3
749.589	21404.97
749.928	21340.34
750.267	21428.25
750.605	21370.85
750.944	21441.58
751.283	21400
751.621	21379.44
751.96	21307.58
752.298	21286.11
752.636	21310.97
752.975	21219.22
753.313	21225.32
753.651	21313
753.989	21155.71
754.327	21089.95
754.666	21053.57
755.004	21080.24
755.342	21163.85
755.679	21152.55
756.017	21005.89
756.355	21129.95
756.693	20951.88
757.031	20993.69
757.368	20923.4
757.706	20891.54
758.044	20797.31
758.381	20779.45
758.719	20717.76
759.056	20724.77
759.394	20723.64
759.731	20489.29
760.068	20610.64
760.405	20546.01
760.743	20410.42
761.08	20522.06
761.417	20444.32
761.754	20398.22
762.091	20360.93
762.428	20197.77
762.765	20159.58
763.102	20251.56
763.438	20179.92
763.775	20016.99
764.112	20073.94
764.449	20029.19
764.785	19942.41
765.122	19874.39
765.458	19773.6
765.795	19702.19
766.131	19784.9
766.467	19668.3
766.804	19603.67
767.14	19474.4
767.476	19541.29
767.812	19390.11
768.148	19474.4
768.485	19284.8
768.821	19235.99
769.157	19161.42
769.492	19141.76
769.828	19122.32
770.164	18938.15
770.5	18894.31
770.836	18951.03
771.171	18900.41
771.507	18736.12
771.842	18650.47
772.178	18641.66
772.513	18631.49
772.849	18563.24
773.184	18462
773.519	18446.86
773.855	18456.35
774.19	18225.4
774.525	18309.46
774.86	18192.4
775.195	18189.01
775.53	18107.43
775.865	17987.89
776.2	17867.89
776.535	17785.86
776.87	17817.95
777.205	17705.86
777.539	17549.71
777.874	17643.94
778.209	17361.24
778.543	17467.22
778.878	17363.95
779.212	17317.85
779.547	17248.92
779.881	17275.59
780.215	17134.8
780.55	17227.68
780.884	17085.77
781.218	16951.53
781.552	16946.56
781.886	16802.16
782.22	16786.79
782.554	16754.47
782.888	16664.31
783.222	16524.88
783.556	16453.92
783.889	16508.15
784.223	16312.23
784.557	16352.68
784.89	16359
785.224	16237.65
785.557	16151.55
785.891	16137.09
786.224	16043.53
786.558	16095.73
786.891	15824.1
787.224	15799.92
787.557	15846.7
787.891	15764.44
788.224	15673.6
788.557	15674.73
788.89	15670.89
789.223	15683.77
789.556	15564.9
789.888	15527.16
790.221	15452.14
790.554	15330.78
790.887	15344.57
791.219	15192.93
791.552	15247.17
791.884	15152.03
792.217	15090.56
792.549	15078.36
792.882	14902.09
793.214	14951.36
793.546	14938.48
793.879	14862.1
794.211	14796.56
794.543	14821.64
794.875	14671.59
795.207	14806.73
795.539	14676.34
795.871	14651.03
796.203	14450.13
796.535	14499.17
796.867	14399.96
797.198	14483.12
797.53	14378.04
797.862	14259.85
798.193	14272.05
798.525	14165.16
798.856	14189.8
799.188	14039.29
799.519	14057.14
799.85	14013.3
800.182	13905.06
800.513	14009.46
800.844	13870.93
801.175	13870.48
801.506	13835.23
801.837	13765.63
802.168	13746.64
802.499	13740.32
802.83	13598.4
803.161	13657.16
803.491	13559.3
803.822	13525.41
804.153	13475.46
804.483	13385.3
804.814	13350.95
805.145	13223.95
805.475	13309.82
805.805	13192.76
806.136	13284.06
806.466	13305.3
806.796	13247.9
807.126	13195.25
807.457	13095.59
807.787	13098.07
808.117	13113.67
808.447	13013.56
808.777	12991.86
809.107	12924.29
809.436	12945.99
809.766	12899.89
810.096	12795.03
810.426	12743.05
810.755	12753.22
811.085	12784.41
811.414	12725.43
811.744	12687.46
812.073	12629.16
812.403	12602.72
812.732	12543.29
813.061	12677.97
813.39	12499.45
813.719	12467.36
814.049	12486.79
814.378	12412.44
814.707	12417.19
815.036	12348.26
815.365	12340.58
815.693	12120.92
816.022	12202.96
816.351	12197.08
816.68	12065.78
817.008	12129.51
817.337	12085.44
817.665	12019.91
817.994	12095.16
818.322	12009.29
818.651	11927.71
818.979	11928.39
819.307	11989.4
819.636	11892.23
819.964	11900.59
820.292	11931.78
820.62	11810.88
820.948	11788.96
821.276	11875.28
821.604	11769.75
821.932	11835.51
822.259	11853.81
822.587	11871.21
822.915	11826.24
823.243	11804.1
823.57	11767.94
823.898	11783.08
824.225	11737.66
824.553	11719.8
824.88	11809.97
825.207	11827.37
825.535	11752.57
825.862	11801.16
826.189	11747.83
826.516	11822.85
826.843	11820.82
827.17	11846.58
827.497	11754.38
827.824	11788.05
828.151	11842.29
828.478	11779.46
828.805	11749.63
829.131	11694.04
829.458	11737.21
829.785	11634.16
830.111	11752.57
830.438	11755.51
830.764	11694.27
831.09	11816.3
831.417	11685
831.743	11767.94
832.069	11572.69
832.395	11640.03
832.722	11643.2
833.048	11690.65
833.374	11722.97
833.7	11573.59
834.026	11666.7
834.351	11599.81
834.677	11618.79
835.003	11622.86
835.329	11574.05
835.654	11532.01
835.98	11511
836.306	11557.1
836.631	11468.29
836.956	11569.98
837.282	11490.43
837.607	11433.94
837.932	11500.6
838.258	11439.13
838.583	11449.98
838.908	11348.29
839.233	11426.48
839.558	11334.5
839.883	11315.3
840.208	11271.46
840.533	11308.29
840.858	11290.89
841.182	11317.1
841.507	11217.45
841.832	11197.33
842.156	11259.25
842.481	11219.93
842.805	11202.3
843.13	11102.19
843.454	11055.19
843.778	11002.99
844.103	11050.67
844.427	11038.01
844.751	10961.41
845.075	11008.19
845.399	10943.1
845.723	10930
846.047	10918.92
846.371	10813.61
846.695	10856.32
847.019	10770.23
847.343	10723.67
847.666	10603.45
847.99	10506.28
848.313	10574.07
848.637	10527.07
848.96	10548.31
849.284	10498.59
849.607	10316.23
849.931	10356.68
850.254	10261.09
850.577	10268.32
850.9	10183.12
851.223	10218.38
851.546	10109
851.869	10031.26
852.192	10182.22
852.515	10071.03
852.838	10044.59
853.161	9952.85
853.483	9934.32
853.806	9831.94
854.129	9902.45
854.451	9810.25
854.774	9797.82
855.096	9676.47
855.419	9675.56
855.741	9687.32
856.063	9662.91
856.385	9617.71
856.708	9599.41
857.03	9609.13
857.352	9535.68
857.674	9531.39
857.996	9478.51
858.318	9445.74
858.64	9489.13
858.961	9424.27
859.283	9437.83
859.605	9310.38
859.926	9389.24
860.248	9347.66
860.57	9306.99
860.891	9329.59
861.212	9250.94
861.534	9228.34
861.855	9185.41
862.176	9258.85
862.498	9198.74
862.819	9223.83
863.14	9152.64
863.461	9157.16
863.782	9107.22
864.103	9108.8
864.424	8988.8
864.745	9085.07
865.065	9077.61
865.386	9029.25
865.707	9014.11
866.027	9037.39
866.348	9004.17
866.668	9022.7
866.989	8903.83
867.309	8893.44
867.63	8892.53
867.95	8924.85
868.27	8869.71
868.59	8925.3
868.91	8854.34
869.23	8779.54
869.55	8809.82
869.87	8787
870.19	8778.87
870.51	8777.06
870.83	8774.8
871.15	8742.71
871.469	8717.62
871.789	8735.02
872.109	8695.25
872.428	8703.16
872.748	8710.17
873.067	8646.89
873.386	8679.66
873.706	8651.86
874.025	8586.55
874.344	8609.38
874.663	8609.83
874.982	8577.97
875.301	8576.61
875.62	8605.99
875.939	8481.02
876.258	8515.6
876.577	8545.43
876.896	8524.41
877.214	8458.65
877.533	8454.13
877.852	8461.13
878.17	8448.03
878.489	8443.28
878.807	8419.1
879.125	8393.79
879.444	8414.58
879.762	8352.21
880.08	8412.77
880.398	8285.77
880.716	8337.29
881.034	8365.54
881.352	8339.33
881.67	8316.96
881.988	8308.37
882.306	8258.43
882.624	8260.69
882.941	8239.9
883.259	8196.73
883.577	8192.21
883.894	8128.49
884.212	8099.56
884.529	8139.33
884.846	8066.12
885.164	8066.34
885.481	8028.15
885.798	8073.8
886.115	7980.24
886.432	7994.03
886.75	7973.01
887.067	8013.69
887.383	7921.03
887.7	7955.84
888.017	7895.5
888.334	7908.15
888.651	7884.88
888.967	7849.4
889.284	7811.66
889.6	7827.25
889.917	7737.31
890.233	7764.88
890.55	7761.72
890.866	7707.93
891.182	7733.47
891.498	7652.57
891.815	7687.82
892.131	7615.28
892.447	7633.58
892.763	7561.27
893.079	7563.3
893.395	7517.2
893.71	7534.15
894.026	7493.48
894.342	7549.74
894.657	7484.44
894.973	7409.64
895.289	7406.02
895.604	7391.78
895.92	7346.59
896.235	7305.23
896.55	7347.26
896.865	7274.72
897.181	7231.11
897.496	7261.17
897.811	7173.94
898.126	7186.82
898.441	7171.9
898.756	7109.98
899.071	7134.39
899.386	7071.79
899.7	6992.25
900.015	7020.72
900.33	6973.94
900.644	6965.58
900.959	6975.3
901.273	6959.25
901.588	6915.41
901.902	6885.81
902.216	6866.15
902.531	6812.82
902.845	6831.57
903.159	6782.99
903.473	6763.78
903.787	6722.42
904.101	6683.1
904.415	6670.22
904.729	6749.09
905.042	6682.2
905.356	6642.2
905.67	6695.53
905.984	6614.85
906.297	6612.37
906.611	6585.7
906.924	6520.17
907.237	6470.9
907.551	6495.99
907.864	6470.45
908.177	6465.93
908.491	6442.66
908.804	6304.35
909.117	6330.57
909.43	6281.3
909.743	6287.63
910.056	6263.68
910.368	6234.07
910.681	6210.57
910.994	6244.69
911.307	6194.98
911.619	6112.72
911.932	6108.65
912.244	6025.94
912.557	6078.15
912.869	6065.26
913.181	6026.4
913.494	6036.34
913.806	5954.76
914.118	5964.93
914.43	5914.99
914.742	6022.33
915.054	5885.38
915.366	5864.59
915.678	5823.24
915.99	5823.69
916.302	5794.08
916.613	5771.94
916.925	5715.44
917.236	5679.96
917.548	5701.66
917.859	5738.95
918.171	5675.9
918.482	5678.61
918.794	5625.5
919.105	5620.08
919.416	5491.95
919.727	5538.72
920.038	5528.78
920.349	5485.62
920.66	5476.58
920.971	5456.92
921.282	5386.64
921.593	5349.12
921.903	5345.28
922.214	5331.95
922.525	5351.84
922.835	5297.15
923.146	5294.66
923.456	5257.83
923.767	5251.05
924.077	5218.96
924.387	5223.48
924.697	5119.75
925.008	5184.84
925.318	5126.98
925.628	5141.9
925.938	5103.71
926.248	5028.46
926.558	5040.21
926.867	5045.18
927.177	5014.44
927.487	4992.98
927.796	4933.09
928.106	4931.73
928.416	4915.01
928.725	4874.34
929.034	4888.35
929.344	4896.93
929.653	4864.62
929.962	4774.22
930.271	4738.75
930.581	4755.47
930.89	4726.32
931.199	4741.46
931.508	4735.81
931.817	4776.03
932.125	4664.4
932.434	4692.64
932.743	4622.82
933.051	4635.7
933.36	4608.58
933.669	4574
933.977	4516.83
934.286	4561.35
934.594	4542.59
934.902	4548.02
935.21	4495.36
935.519	4446.32
935.827	4453.56
936.135	4441.8
936.443	4399.55
936.751	4412.2
937.059	4376.27
937.367	4333.56
937.674	4336.5
937.982	4323.39
938.29	4303.28
938.597	4342.82
938.905	4265.31
939.213	4260.34
939.52	4234.35
939.827	4221.47
940.135	4214.47
940.442	4179.21
940.749	4203.62
941.056	4168.14
941.363	4122.04
941.67	4093.79
941.977	4098.31
942.284	4088.82
942.591	4099.67
942.898	4048.82
943.205	4052.44
943.511	3987.35
943.818	3987.58
944.125	3981.7
944.431	3957.07
944.738	3940.57
945.044	3940.57
945.35	3903.97
945.657	3886.56
945.963	3842.05
946.269	3852.89
946.575	3880.46
946.881	3822.39
947.187	3837.07
947.493	3808.37
947.799	3770.41
948.105	3751.43
948.41	3754.36
948.716	3746
949.022	3762.73
949.327	3683.41
949.633	3674.59
949.938	3640.7
950.244	3655.61
950.549	3652.45
950.854	3619
951.16	3583.52
951.465	3578.55
951.77	3592.56
952.075	3561.15
952.38	3580.58
952.685	3544.2
952.99	3512.11
953.294	3504.65
953.599	3451.77
953.904	3464.65
954.209	3450.87
954.513	3440.7
954.818	3426.01
955.122	3418.33
955.426	3439.34
955.731	3378.33
956.035	3401.38
956.339	3351.66
956.643	3349.4
956.948	3327.48
957.252	3297.88
957.556	3329.97
957.86	3273.7
958.163	3270.99
958.467	3289.07
958.771	3238.9
959.075	3236.19
959.378	3216.07
959.682	3247.94
959.985	3224.21
960.289	3168.39
960.592	3119.35
960.896	3110.77
961.199	3111.9
961.502	3155.28
961.805	3133.82
962.108	3100.82
962.411	3078.9
962.714	3054.95
963.017	3022.63
963.32	3039.36
963.623	3018.34
963.926	3003.65
964.228	3027.6
964.531	3015.85
964.833	2958.68
965.136	2996.19
965.438	2971.11
965.741	2919.13
966.043	2942.41
966.345	2979.7
966.648	2943.31
966.95	2888.62
967.252	2895.4
967.554	2890.66
967.856	2840.04
968.158	2843.88
968.46	2860.83
968.761	2845.69
969.063	2825.12
969.365	2799.14
969.666	2751.45
969.968	2730.89
970.269	2732.47
970.571	2736.54
970.872	2736.99
971.174	2686.6
971.475	2696.54
971.776	2664.45
972.077	2699.48
972.378	2666.26
972.679	2689.08
972.98	2673.26
973.281	2655.86
973.582	2674.62
973.883	2625.58
974.183	2627.84
974.484	2596.2
974.785	2536.32
975.085	2527.73
975.386	2602.53
975.686	2570.89
975.986	2542.87
976.287	2518.01
976.587	2501.74
976.887	2545.13
977.187	2507.39
977.487	2470.56
977.787	2491.35
978.087	2433.95
978.387	2466.49
978.687	2474.17
978.987	2446.38
979.286	2396.43
979.586	2406.15
979.885	2412.03
980.185	2404.34
980.484	2425.36
980.784	2387.62
981.083	2395.98
981.382	2334.97
981.682	2365.7
981.981	2391.69
982.28	2363.89
982.579	2303.33
982.878	2331.13
983.177	2317.11
983.475	2297.68
983.774	2261.3
984.073	2260.17
984.372	2246.61
984.67	2233.73
984.969	2253.84
985.267	2232.6
985.566	2240.51
985.864	2211.35
986.162	2225.59
986.461	2198.7
986.759	2172.71
987.057	2175.87
987.355	2140.4
987.653	2147.85
987.951	2149.44
988.249	2128.87
988.547	2108.98
988.844	2116.44
989.142	2079.83
989.44	2083.45
989.737	2076.89
990.035	2066.95
990.332	2091.36
990.63	2107.85
990.927	2021.53
991.224	2050
991.521	2027.86
991.819	2027.4
992.116	2012.04
992.413	2007.97
992.71	1998.7
993.006	1991.02
993.303	1956.67
993.6	1978.59
993.897	1972.72
994.193	1928.88
994.49	1927.29
994.787	1919.16
995.083	1915.32
995.379	1887.3
995.676	1913.28
995.972	1891.14
996.268	1898.37
996.565	1845.94
996.861	1862.66
997.157	1867.63
997.453	1845.94
997.749	1822.89
998.044	1855.66
998.34	1855.21
998.636	1813.62
998.932	1764.36
999.227	1814.3
999.523	1780.86
999.818	1780.41
1000.114	1788.54
1000.409	1737.47
1000.704	1737.92
1001	1749.67
1001.295	1737.02
1001.59	1717.81
1001.885	1752.84
1002.18	1723.23
1002.475	1707.64
1002.77	1709.45
1003.065	1675.78
1003.359	1688.43
1003.654	1674.42
1003.949	1649.56
1004.243	1638.71
1004.538	1651.59
1004.832	1611.82
1005.127	1619.51
1005.421	1626.96
1005.715	1639.84
1006.009	1616.34
1006.304	1599.62
1006.598	1591.26
1006.892	1570.02
1007.186	1571.82
1007.48	1558.26
1007.773	1553.29
1008.067	1546.74
1008.361	1527.53
1008.655	1524.14
1008.948	1518.27
1009.242	1525.72
1009.535	1484.59
1009.829	1487.98
1010.122	1502.9
1010.415	1480.07
1010.708	1452.96
1011.001	1489.34
1011.295	1464.03
1011.588	1416.57
1011.881	1442.79
1012.173	1432.17
1012.466	1428.55
1012.759	1449.57
1013.052	1410.25
1013.344	1387.2
1013.637	1386.29
1013.93	1374.31
1014.222	1380.19
1014.514	1361.43
1014.807	1353.52
1015.099	1343.81
1015.391	1344.03
1015.683	1348.55
1015.976	1334.77
1016.268	1317.82
1016.56	1342.45
1016.851	1263.13
1017.143	1290.47
1017.435	1272.62
1017.727	1299.51
1018.018	1287.76
1018.31	1294.32
1018.602	1260.19
1018.893	1231.72
1019.185	1212.06
1019.476	1220.87
1019.767	1224.49
1020.058	1229.23
1020.35	1215
1020.641	1204.6
1020.932	1202.57
1021.223	1209.35
1021.514	1185.17
1021.804	1194.66
1022.095	1178.16
1022.386	1153.3
1022.677	1162.79
1022.967	1147.2
1023.258	1116.92
1023.548	1133.19
1023.839	1144.04
1024.129	1122.34
1024.419	1136.13
1024.709	1112.17
1025	1104.04
1025.29	1100.42
1025.58	1096.81
1025.87	1075.11
1026.16	1078.28
1026.449	1077.82
1026.739	1045.28
1027.029	1051.16
1027.319	1055.23
1027.608	1036.92
1027.898	1045.28
1028.187	1030.59
1028.477	1036.7
1028.766	994.89
1029.055	1012.06
1029.344	1001.22
1029.634	1007.09
1029.923	989.01
1030.212	988.79
1030.501	991.5
1030.79	981.33
1031.078	952.86
1031.367	946.53
1031.656	963.93
1031.945	944.04
1032.233	944.95
1032.522	953.53
1032.81	934.1
1033.099	930.03
1033.387	923.25
1033.675	923.25
1033.963	922.57
1034.251	900.2
1034.54	899.07
1034.828	914.89
1035.116	890.94
1035.403	911.95
1035.691	876.93
1035.979	875.8
1036.267	851.39
1036.554	883.25
1036.842	840.32
1037.129	876.25
1037.417	847.55
1037.704	845.74
1037.992	834.89
1038.279	828.11
1038.566	827.66
1038.853	827.66
1039.14	827.66
