Data from tablewood_dark_bookshelf_FLMS001491_00015.txt Node
Date: Wed Feb 08 14:13:43 GMT 2017
User: dcchb
Spectrometer: FLMS00149
Trigger mode: 0
Integration Time (sec): 2.000000E-2
Scans to average: 10
Electric dark correction enabled: true
Nonlinearity correction enabled: false
Boxcar width: 0
XAxis mode: Wavelengths
Number of Pixels in Spectrum: 2048
>>>>>Begin Spectral Data<<<<<
341.393	-19.31
341.776	-19.31
342.16	-19.31
342.543	-76.26
342.927	-69.25
343.31	-70.15
343.693	-75.13
344.077	-38.29
344.46	-64.05
344.843	-41.45
345.226	-41.23
345.61	-28.35
345.993	-30.15
346.376	-0.32
346.759	17.98
347.142	28.37
347.525	53.69
347.908	53.46
348.291	83.51
348.674	52.78
349.057	99.33
349.44	111.08
349.823	163.74
350.206	158.32
350.588	185.66
350.971	209.16
351.354	220.01
351.737	224.53
352.119	213.45
352.502	240.12
352.884	267.69
353.267	290.74
353.65	287.58
354.032	282.38
354.414	290.06
354.797	288.03
355.179	315.15
355.562	311.08
355.944	305.66
356.326	315.15
356.709	319.44
357.091	326.67
357.473	344.52
357.855	334.36
358.238	339.55
358.62	357.18
359.002	353.34
359.384	351.76
359.766	347.69
360.148	335.26
360.53	345.43
360.912	326.9
361.294	322.83
361.676	316.28
362.057	311.76
362.439	328.71
362.821	316.5
363.203	335.71
363.584	336.84
363.966	317.41
364.348	304.53
364.729	326.67
365.111	302.49
365.493	307.92
365.874	315.37
366.256	308.14
366.637	300.68
367.019	315.83
367.4	299.1
367.781	314.47
368.163	316.28
368.544	318.99
368.925	307.24
369.306	309.95
369.688	319.67
370.069	307.92
370.45	325.99
370.831	316.28
371.212	311.98
371.593	320.34
371.974	329.84
372.355	323.51
372.736	306.33
373.117	310.18
373.498	300.01
373.879	313.34
374.26	313.57
374.641	311.08
375.021	316.73
375.402	320.34
375.783	334.36
376.163	325.99
376.544	307.69
376.925	343.39
377.305	356.95
377.686	333.9
378.066	342.27
378.447	326.45
378.827	351.3
379.208	337.75
379.588	333
379.968	361.25
380.349	342.49
380.729	342.72
381.109	340.68
381.489	337.75
381.87	359.67
382.25	347.69
382.63	350.85
383.01	334.13
383.39	355.37
383.77	379.1
384.15	354.92
384.53	355.37
384.91	369.61
385.29	362.38
385.67	366.22
386.049	373.68
386.429	365.32
386.809	377.97
387.189	386.56
387.568	375.48
387.948	385.2
388.328	375.94
388.707	370.74
389.087	382.94
389.466	380.23
389.846	380.68
390.225	377.97
390.605	406.44
390.984	390.4
391.363	376.16
391.743	413.9
392.122	422.26
392.501	403.05
392.881	408.93
393.26	404.86
393.639	414.13
394.018	434.24
394.397	401.7
394.776	423.62
395.155	420.23
395.534	413.22
395.913	418.2
396.292	429.27
396.671	429.04
397.05	433.11
397.429	422.04
397.808	433.11
398.186	435.14
398.565	445.54
398.944	434.69
399.323	449.83
399.701	440.12
400.08	435.82
400.458	447.12
400.837	457.97
401.215	436.5
401.594	465.2
401.972	453
402.351	443.28
402.729	450.51
403.107	472.66
403.486	445.54
403.864	475.14
404.242	464.07
404.62	486.22
404.999	456.84
405.377	493.45
405.755	477.63
406.133	481.7
406.511	490.51
406.889	491.19
407.267	496.39
407.645	490.51
408.023	488.93
408.401	499.55
408.779	477.63
409.156	525.31
409.534	524.41
409.912	522.83
410.29	521.92
410.667	535.93
411.045	540.68
411.422	541.58
411.8	565.76
412.178	553.78
412.555	547.23
412.933	549.49
413.31	551.53
413.687	563.05
414.065	555.82
414.442	558.53
414.819	558.3
415.197	578.87
415.574	617.51
415.951	590.17
416.328	581.58
416.705	616.83
417.082	606.66
417.46	601.24
417.837	605.08
418.214	633.1
418.591	621.13
418.967	622.03
419.344	649.15
419.721	653.22
420.098	638.98
420.475	632.2
420.852	650.96
421.228	635.36
421.605	653.9
421.982	644.4
422.358	633.1
422.735	660.9
423.111	665.42
423.488	681.47
423.864	655.03
424.241	692.09
424.617	694.57
424.994	692.99
425.37	701.13
425.746	726.44
426.123	692.76
426.499	714.23
426.875	743.38
427.251	720.11
427.627	741.8
428.003	757.4
428.379	761.24
428.756	740.9
429.132	764.63
429.507	770.95
429.883	769.15
430.259	790.16
430.635	791.29
431.011	777.96
431.387	790.61
431.763	829.26
432.138	809.37
432.514	806.66
432.89	835.59
433.265	836.49
433.641	862.25
434.016	843.95
434.392	875.13
434.767	881.23
435.143	857.51
435.518	924.4
435.894	905.19
436.269	895.7
436.644	935.02
437.02	951.74
437.395	936.83
437.77	922.59
438.145	972.76
438.52	953.32
438.895	975.69
439.271	967.33
439.646	987.45
440.021	978.41
440.395	984.51
440.77	1002.59
441.145	1002.81
441.52	982.47
441.895	1023.15
442.27	1046.88
442.645	1034.22
443.019	1028.12
443.394	1014.56
443.769	1048.91
444.143	1041.23
444.518	1036.03
444.892	1046.88
445.267	1085.52
445.641	1051.17
446.016	1096.6
446.39	1085.75
446.764	1083.94
447.139	1106.99
447.513	1112.64
447.887	1096.14
448.262	1131.62
448.636	1121.68
449.01	1140.44
449.384	1146.09
449.758	1144.5
450.132	1174.79
450.506	1146.31
450.88	1167.1
451.254	1186.31
451.628	1173.88
452.002	1210.49
452.376	1210.26
452.75	1216.37
453.123	1225.41
453.497	1240.55
453.871	1247.1
454.244	1273.99
454.618	1293.65
454.992	1309.47
455.365	1302.47
455.739	1318.06
456.112	1335.46
456.486	1363.71
456.859	1392.41
457.232	1382.01
457.606	1343.59
457.979	1393.54
458.352	1425.4
458.725	1422.46
459.099	1430.37
459.472	1446.42
459.845	1490.48
460.218	1495.91
460.591	1508.11
460.964	1490.48
461.337	1533.42
461.71	1546.53
462.083	1559.63
462.456	1582.91
462.829	1575.23
463.201	1587.66
463.574	1621.55
463.947	1642.8
464.32	1644.83
464.692	1671.04
465.065	1683.25
465.438	1702.91
465.81	1736.58
466.183	1746.97
466.555	1758.95
466.928	1771.83
467.3	1791.72
467.672	1831.04
468.045	1850.93
468.417	1852.06
468.789	1892.05
469.161	1904.48
469.534	1928.44
469.906	1978.15
470.278	1969.11
470.65	2026.29
471.022	2042.11
471.394	2062.22
471.766	2045.72
472.138	2089.56
472.51	2136.57
472.882	2180.41
473.253	2188.54
473.625	2218.83
473.997	2248.88
474.369	2270.58
474.74	2286.85
475.112	2346.96
475.484	2339.27
475.855	2419.05
476.227	2436.9
476.598	2430.35
476.97	2476.67
477.341	2537.01
477.713	2576.1
478.084	2580.85
478.455	2670.11
478.827	2679.38
479.198	2731.81
479.569	2756.89
479.94	2862.2
480.311	2828.3
480.682	2887.28
481.053	2978.35
481.424	3005.02
481.795	3037.11
482.166	3089.31
482.537	3142.19
482.908	3158.46
483.279	3220.16
483.65	3277.1
484.021	3305.35
484.391	3388.74
484.762	3404.78
485.133	3444.56
485.503	3461.73
485.874	3564.78
486.244	3548.96
486.615	3637.55
486.985	3667.83
487.356	3712.8
487.726	3773.36
488.097	3846.81
488.467	3848.61
488.837	3884.77
489.207	3932
489.578	4021.49
489.948	4066.46
490.318	4094.03
490.688	4075.05
491.058	4192.11
491.428	4214.71
491.798	4278.88
492.168	4327.47
492.538	4393.01
492.908	4417.19
493.278	4498.77
493.648	4471.42
494.017	4567.92
494.387	4552.1
494.757	4567.01
495.126	4647.91
495.496	4681.13
495.866	4685.65
496.235	4761.36
496.605	4757.52
496.974	4861.02
497.344	4851.52
497.713	4908.47
498.082	4937.17
498.452	4925.65
498.821	5011.97
499.19	5011.29
499.559	5079.54
499.928	5155.02
500.298	5173.32
500.667	5182.82
501.036	5165.42
501.405	5231.85
501.774	5242.93
502.143	5323.83
502.512	5332.64
502.88	5377.16
503.249	5356.14
503.618	5422.81
503.987	5475.69
504.356	5515.24
504.724	5531.06
505.093	5530.6
505.462	5585.97
505.83	5644.95
506.199	5666.87
506.567	5737.15
506.936	5726.3
507.304	5812.18
507.672	5853.53
508.041	5843.14
508.409	5943.02
508.777	5942.57
509.145	6056.24
509.514	6050.59
509.882	6091.49
510.25	6068.22
510.618	6110.02
510.986	6164.71
511.354	6272.96
511.722	6289.68
512.09	6345.05
512.458	6296.68
512.826	6404.03
513.193	6458.26
513.561	6481.76
513.929	6533.51
514.297	6564.47
514.664	6597.92
515.032	6679.05
515.4	6704.58
515.767	6767.86
516.135	6754.3
516.502	6778.71
516.869	6930.79
517.237	6892.6
517.604	6930.79
517.972	6959.94
518.339	6992.03
518.706	7033.16
519.073	7117.91
519.44	7171.69
519.808	7206.27
520.175	7258.92
520.542	7328.3
520.909	7362.42
521.276	7407.84
521.643	7475.18
522.009	7543.43
522.376	7542.3
522.743	7650.77
523.11	7730.32
523.477	7814.84
523.843	7862.29
524.21	7903.65
524.577	7957.21
524.943	8027.49
525.31	8080.59
525.676	8146.35
526.043	8138.67
526.409	8233.36
526.776	8337.08
527.142	8380.02
527.508	8404.88
527.874	8519
528.241	8564.65
528.607	8576.17
528.973	8640.8
529.339	8641.71
529.705	8757.64
530.071	8845.54
530.437	8835.15
530.803	8869.95
531.169	8939.55
531.535	8932.55
531.901	8993.56
532.267	9038.53
532.632	9108.81
532.998	9176.38
533.364	9275.82
533.73	9267.68
534.095	9333.89
534.461	9295.48
534.826	9361.46
535.192	9459.54
535.557	9461.12
535.923	9521.68
536.288	9589.93
536.653	9633.55
537.019	9621.57
537.384	9628.8
537.749	9721.91
538.114	9699.99
538.479	9712.19
538.845	9803.71
539.21	9800.77
539.575	9878.29
539.94	9963.71
540.305	9935.91
540.67	9962.13
541.034	10053.65
541.399	10041.67
541.764	10153.08
542.129	10136.81
542.494	10177.94
542.858	10239.86
543.223	10173.19
543.587	10273.3
543.952	10293.19
544.316	10330.25
544.681	10306.3
545.045	10473.75
545.41	10396.46
545.774	10562.56
546.138	10534.54
546.503	10543.58
546.867	10612.5
547.231	10655.89
547.595	10668.32
547.959	10722.78
548.324	10692.05
548.688	10854.53
549.052	10850.69
549.416	10937.01
549.779	10911.93
550.143	10959.16
550.507	11105.37
550.871	11021.08
551.235	11057.92
551.599	11163.45
551.962	11218.14
552.326	11252.71
552.689	11307.63
553.053	11193.96
553.417	11297.91
553.78	11499.71
554.143	11443.44
554.507	11514.85
554.87	11527.06
555.234	11602.99
555.597	11654.74
555.96	11707.62
556.323	11771.79
556.686	11876.2
557.05	11921.85
557.413	11939.93
557.776	11986.03
558.139	12136.98
558.502	12021.51
558.865	12088.85
559.228	12289.07
559.59	12280.48
559.953	12311.44
560.316	12440.7
560.679	12527.93
561.041	12526.8
561.404	12670.3
561.767	12686.12
562.129	12731.32
562.492	12834.37
562.854	12870.75
563.217	12858.77
563.579	12946.23
563.941	13042.04
564.304	13141.93
564.666	13189.61
565.028	13311.19
565.39	13280.46
565.753	13418.31
566.115	13436.84
566.477	13573.56
566.839	13499.89
567.201	13609.26
567.563	13739.2
567.925	13802.7
568.287	13843.38
568.648	13834.79
569.01	13956.37
569.372	14056.93
569.734	14084.05
570.095	14216.7
570.457	14216.93
570.819	14351.39
571.18	14321.78
571.542	14477.94
571.903	14425.28
572.265	14527.2
572.626	14571.95
572.987	14668.67
573.349	14741.89
573.71	14801.77
574.071	14792.28
574.432	14905.05
574.794	14983.24
575.155	15051.48
575.516	14986.85
575.877	15053.52
576.238	15163.34
576.599	15229.11
576.96	15281.76
577.32	15327.63
577.681	15407.18
578.042	15502.77
578.403	15500.51
578.763	15573.95
579.124	15569.44
579.485	15601.52
579.845	15671.13
580.206	15773.27
580.566	15730.56
580.927	15822.08
581.287	15860.73
581.648	15772.37
582.008	15996.09
582.368	16004
582.728	16007.84
583.089	16099.59
583.449	16049.2
583.809	16201.74
584.169	16182.3
584.529	16126.48
584.889	16244.9
585.249	16276.76
585.609	16255.74
585.969	16345.69
586.329	16367.15
586.688	16446.02
587.048	16433.14
587.408	16515.85
587.768	16500.26
588.127	16426.14
588.487	16498.22
588.846	16610.54
589.206	16607.15
589.565	16573.25
589.925	16635.85
590.284	16616.41
590.643	16686.47
591.003	16773.7
591.362	16787.26
591.721	16844.2
592.08	16793.13
592.44	16846.92
592.799	16836.29
593.158	16916.07
593.517	16964.88
593.876	16972.56
594.235	16956.74
594.593	16989.74
594.952	17056.4
595.311	17067.93
595.67	17163.29
596.029	17206
596.387	17168.26
596.746	17296.17
597.104	17212.33
597.463	17181.37
597.822	17337.75
598.18	17313.57
598.538	17404.42
598.897	17347.69
599.255	17369.39
599.613	17500.46
599.972	17402.38
600.33	17518.99
600.688	17488.48
601.046	17495.94
601.404	17649.15
601.762	17690.06
602.12	17676.27
602.478	17718.76
602.836	17770.96
603.194	17703.84
603.552	17749.94
603.91	17659.1
604.268	17867.91
604.625	17782.03
604.983	17949.26
605.341	17835.82
605.698	18002.14
606.056	18046.88
606.413	18085.08
606.771	18022.93
607.128	18162.36
607.485	17996.04
607.843	18052.76
608.2	18150.84
608.557	18332.75
608.914	18205.07
609.272	18355.58
609.629	18453.65
609.986	18336.14
610.343	18385.86
610.7	18489.36
611.057	18429.25
611.414	18429.25
611.771	18542.01
612.127	18496.14
612.484	18604.61
612.841	18601.45
613.198	18559.87
613.554	18602.8
613.911	18735.23
614.267	18699.3
614.624	18612.75
614.98	18688.45
615.337	18827.88
615.693	18717.15
616.05	18852.96
616.406	18979.29
616.762	18826.98
617.118	18777.71
617.475	18816.36
617.831	18917.37
618.187	18903.81
618.543	18949.46
618.899	19129.34
619.255	19020.42
619.611	18979.97
619.967	18986.07
620.323	19197.59
620.678	19156.23
621.034	18923.7
621.39	19077.82
621.746	19084.6
622.101	19294.99
622.457	19106.29
622.812	19209.11
623.168	19261.99
623.523	19276.23
623.879	19326.85
624.234	19266.29
624.589	19297.02
624.945	19303.57
625.3	19263.35
625.655	19288.43
626.01	19297.02
626.365	19243.91
626.72	19217.93
627.075	19127.99
627.43	19288.66
627.785	19117.59
628.14	19317.36
628.495	19212.05
628.85	19224.25
629.205	19092.28
629.559	19244.82
629.914	19156.23
630.269	19167.31
630.623	19171.15
630.978	19170.47
631.332	19168.21
631.687	19219.51
632.041	19050.47
632.396	19132.05
632.75	19068.55
633.104	19168.89
633.459	19009.12
633.813	18977.26
634.167	19068.33
634.521	19076.91
634.875	19069.23
635.229	19067.42
635.583	18918.27
635.937	18972.51
636.291	18952.85
636.645	18996.01
636.999	18865.39
637.352	18960.53
637.706	18815
638.06	18915.56
638.413	18885.73
638.767	18885.51
639.121	18838.73
639.474	18713.08
639.828	18828.56
640.181	18771.38
640.534	18846.41
640.888	18752.85
641.241	18707.66
641.594	18719.41
641.947	18746.3
642.301	18691.84
642.654	18710.6
643.007	18783.59
643.36	18647.09
643.713	18639.86
644.066	18810.48
644.419	18573.42
644.771	18481.22
645.124	18286.43
645.477	18282.13
645.83	18210.95
646.182	18128.46
646.535	18014.34
646.888	17996.72
647.24	17870.62
647.593	18027.45
647.945	18087.11
648.298	17943.38
648.65	17963.5
649.002	17876.04
649.355	17921.69
649.707	17806.21
650.059	18079.43
650.411	18208.01
650.763	18254.56
651.115	18447.33
651.467	18410.04
651.819	18412.75
652.171	18385.41
652.523	18296.82
652.875	18375.24
653.227	18225.18
653.578	18345.18
653.93	18267.67
654.282	18222.02
654.633	18198.74
654.985	18209.82
655.337	18248.91
655.688	18233.55
656.039	18315.8
656.391	18194.45
656.742	18192.42
657.094	18222.25
657.445	18275.13
657.796	18267.9
658.147	18249.59
658.498	18326.65
658.849	18191.97
659.2	18256.6
659.551	18072.19
659.902	18149.48
660.253	18238.29
660.604	18274.22
660.955	18238.74
661.306	18179.76
661.656	18095.24
662.007	18172.08
662.358	18166.66
662.708	18145.41
663.059	18211.17
663.409	18043.27
663.76	18154.23
664.11	18208.01
664.461	18182.93
664.811	18123.72
665.161	18153.32
665.511	18078.52
665.862	18054.79
666.212	18187.9
666.562	18263.83
666.912	18134.79
667.262	18126.88
667.612	18163.49
667.962	18157.84
668.312	18054.57
668.662	18152.87
669.011	18160.55
669.361	18082.59
669.711	18140.22
670.06	18111.97
670.41	18131.4
670.76	18141.12
671.109	18185.64
671.459	18074.68
671.808	18040.1
672.157	18083.49
672.507	17976.6
672.856	18083.49
673.205	18064.96
673.554	18172.76
673.904	18028.13
674.253	18156.71
674.602	18083.95
674.951	17797.4
675.3	17744.52
675.649	18070.39
675.998	18063.61
676.346	18030.84
676.695	18004.85
677.044	17975.02
677.393	17898.19
677.741	18028.13
678.09	17980.45
678.438	17941.58
678.787	17912.2
679.135	17993.78
679.484	17923.27
679.832	17921.69
680.181	17905.87
680.529	17949.26
680.877	17828.58
681.225	17836.72
681.573	18052.99
681.922	17781.13
682.27	17809.83
682.618	17678.76
682.966	17718.76
683.314	17740
683.661	17711.98
684.009	17620
684.357	17645.99
684.705	17596.73
685.053	17620.91
685.4	17669.72
685.748	17493.68
686.095	17562.38
686.443	17482.15
686.79	17460.01
687.138	17452.32
687.485	17565.54
687.832	17440.12
688.18	17496.62
688.527	17303.85
688.874	17302.5
689.221	17267.92
689.568	17271.76
689.915	17307.24
690.262	17270.41
690.609	17222.05
690.956	17113.35
691.303	17068.6
691.65	17052.79
691.997	16992
692.344	16937.31
692.69	17013.69
693.037	16915.39
693.383	16857.31
693.73	16859.34
694.077	16770.99
694.423	16722.4
694.769	16677.2
695.116	16702.51
695.462	16755.17
695.808	16645.34
696.155	16694.6
696.501	16630.65
696.847	16556.3
697.193	16479.92
697.539	16487.38
697.885	16411
698.231	16332.13
698.577	16396.31
698.923	16275.41
699.269	16255.07
699.614	16168.74
699.96	16209.87
700.306	16224.79
700.651	16068.41
700.997	16032.47
701.342	16059.82
701.688	16024.56
702.033	15996.99
702.379	15990.89
702.724	15881.29
703.069	15951.35
703.415	15780.96
703.76	15790.9
704.105	15828.41
704.45	15761.29
704.795	15753.16
705.14	15657.79
705.485	15688.75
705.83	15550.23
706.175	15651.24
706.52	15592.26
706.865	15489.44
707.209	15381.87
707.554	15403.34
707.899	15495.09
708.243	15443.56
708.588	15498.02
708.932	15228.43
709.277	15297.13
709.621	15334.41
709.966	15239.05
710.31	15252.83
710.654	15143.46
710.998	15203.34
711.342	15178.71
711.687	15190.46
712.031	15002.67
712.375	15003.12
712.719	15062.33
713.063	15002.22
713.407	15015.55
713.75	14944.82
714.094	14974.65
714.438	14919.51
714.782	14932.39
715.125	14917.47
715.469	14854.43
715.812	14769
716.156	14711.15
716.499	14693.75
716.843	14703.24
717.186	14628.67
717.53	14756.35
717.873	14718.61
718.216	14748.21
718.559	14652.17
718.902	14524.26
719.246	14598.84
719.589	14559.97
719.932	14498.73
720.275	14567.43
720.617	14486.75
720.96	14494.21
721.303	14480.88
721.646	14490.37
721.989	14340.09
722.331	14439.97
722.674	14405.17
723.016	14349.35
723.359	14270.94
723.701	14335.57
724.044	14406.98
724.386	14276.36
724.729	14341.44
725.071	14228.45
725.413	14299.19
725.755	14318.85
726.097	14215.8
726.439	14132.41
726.782	14179.64
727.124	14207.89
727.465	14103.26
727.807	14131.73
728.149	14096.71
728.491	14089.93
728.833	14057.61
729.175	14119.76
729.516	13976.03
729.858	14065.29
730.199	14053.09
730.541	13978.97
730.882	14111.17
731.224	14075.46
731.565	14014.67
731.906	14038.85
732.248	14017.61
732.589	13985.97
732.93	13910.27
733.271	13929.03
733.612	13935.81
733.953	14005.86
734.294	13849.03
734.635	13874.11
734.976	13875.47
735.317	13843.6
735.658	13847.22
735.999	13851.06
736.339	13789.82
736.68	13881.12
737.021	13701.24
737.361	13739.2
737.702	13885.86
738.042	13851.06
738.383	13703.72
738.723	13784.17
739.063	13732.42
739.404	13774.45
739.744	13588.7
740.084	13702.82
740.424	13625.53
740.764	13585.08
741.104	13748.69
741.444	13597.06
741.784	13528.13
742.124	13557.28
742.464	13610.16
742.804	13515.48
743.143	13530.62
743.483	13595.93
743.823	13486.55
744.162	13528.58
744.502	13478.64
744.841	13437.29
745.181	13472.77
745.52	13394.13
745.86	13440.68
746.199	13369.95
746.538	13315.48
746.877	13480
747.216	13421.7
747.556	13363.84
747.895	13365.2
748.234	13223.96
748.573	13301.02
748.911	13354.58
749.25	13323.84
749.589	13245.43
749.928	13282.26
750.267	13300.34
750.605	13249.72
750.944	13186.67
751.283	13133.12
751.621	13147.35
751.96	13086.34
752.298	13084.3
752.636	13082.27
752.975	13033.23
753.313	12982.84
753.651	13035.72
753.989	12899.45
754.327	12988.49
754.666	12837.76
755.004	12922.5
755.342	12888.6
755.679	12890.64
756.017	12795.04
756.355	12866.23
756.693	12751.66
757.031	12765.67
757.368	12714.6
757.706	12767.48
758.044	12623.98
758.381	12695.84
758.719	12662.62
759.056	12607.25
759.394	12541.94
759.731	12427.6
760.068	12512.11
760.405	12403.42
760.743	12372.68
761.08	12403.19
761.417	12320.03
761.754	12268.73
762.091	12288.84
762.428	12213.82
762.765	12207.94
763.102	12223.31
763.438	12173.14
763.775	12167.94
764.112	12074.84
764.449	12038.45
764.785	11970.43
765.122	11946.25
765.458	11945.12
765.795	11795.98
766.131	11863.09
766.467	11796.65
766.804	11743.55
767.14	11612.25
767.476	11744.9
767.812	11658.13
768.148	11669.42
768.485	11595.98
768.821	11592.59
769.157	11478.02
769.492	11501.97
769.828	11536.32
770.164	11332.71
770.5	11338.81
770.836	11373.16
771.171	11285.25
771.507	11255.88
771.842	11127.29
772.178	11114.64
772.513	11090.91
772.849	11042.55
773.184	11015.66
773.519	11018.37
773.855	10921.42
774.19	10938.82
774.525	10921.65
774.86	10797.58
775.195	10849.79
775.53	10852.72
775.865	10766.4
776.2	10660.86
776.535	10598.72
776.87	10591.26
777.205	10602.79
777.539	10452.73
777.874	10542.9
778.209	10500.42
778.543	10485.05
778.878	10393.53
779.212	10321.44
779.547	10233.08
779.881	10314.21
780.215	10194.66
780.55	10226.98
780.884	10120.99
781.218	10153.31
781.552	10148.33
781.886	10114.44
782.22	10053.42
782.554	9989.69
782.888	9882.81
783.222	9883.48
783.556	9814.33
783.889	9721.68
784.223	9705.63
784.557	9697.05
784.89	9727.1
785.224	9663.83
785.557	9626.54
785.891	9622.02
786.224	9510.84
786.558	9584.73
786.891	9449.82
787.224	9444.85
787.557	9415.47
787.891	9400.11
788.224	9350.39
788.557	9418.64
788.89	9323.5
789.223	9237.4
789.556	9221.35
789.888	9241.24
790.221	9141.13
790.554	9097.06
790.887	9098.87
791.219	9030.85
791.552	8945.43
791.884	9024.07
792.217	8965.99
792.549	8914.24
792.882	8810.06
793.214	8826.11
793.546	8859.1
793.879	8782.72
794.211	8718.32
794.543	8766.22
794.875	8704.08
795.207	8729.16
795.539	8677.64
795.871	8638.77
796.203	8590.18
796.535	8520.81
796.867	8530.52
797.198	8495.5
797.53	8532.56
797.862	8462.96
798.193	8427.7
798.525	8354.48
798.856	8362.39
799.188	8337.08
799.519	8301.38
799.85	8287.14
800.182	8278.78
800.513	8267.48
800.844	8146.13
801.175	8234.94
801.506	8172.12
801.837	8201.04
802.168	8127.6
802.499	8072.46
802.83	8053.02
803.161	8003.53
803.491	8077.2
803.822	8015.96
804.153	7920.37
804.483	7928.05
804.814	7850.54
805.145	7890.54
805.475	7832.46
805.805	7776.42
806.136	7816.87
806.466	7820.94
806.796	7797.44
807.126	7732.81
807.457	7694.61
807.787	7704.11
808.117	7591.11
808.447	7682.41
808.777	7641.73
809.107	7630.21
809.436	7568.29
809.766	7565.13
810.096	7524.45
810.426	7515.86
810.755	7548.4
811.085	7464.11
811.414	7442.87
811.744	7455.98
812.073	7351.12
812.403	7381.4
812.732	7365.36
813.061	7352.48
813.39	7304.12
813.719	7287.17
814.049	7340.05
814.378	7250.78
814.707	7249.65
815.036	7333.72
815.365	7231.12
815.693	7161.29
816.022	7199.71
816.351	7112.71
816.68	7135.76
817.008	7130.79
817.337	7085.36
817.665	7035.2
817.994	7017.57
818.322	7036.78
818.651	6968.53
818.979	7004.24
819.307	7070.9
819.636	6973.73
819.964	6952.71
820.292	6914.97
820.62	6966.95
820.948	6990.9
821.276	6860.51
821.604	6926.27
821.932	6920.4
822.259	6938.48
822.587	6899.83
822.915	6894.41
823.243	6877.69
823.57	6894.18
823.898	6919.27
824.225	6942.32
824.553	6879.49
824.88	6917.91
825.207	6905.26
825.535	6915.65
825.862	6857.8
826.189	6893.05
826.516	6868.65
826.843	6958.59
827.17	6969.66
827.497	6856.67
827.824	6890.57
828.151	6905.71
828.478	6893.05
828.805	6902.32
829.131	6862.09
829.458	6827.07
829.785	6808.99
830.111	6814.86
830.438	6879.49
830.764	6845.6
831.09	6918.14
831.417	6783
831.743	6835.2
832.069	6844.47
832.395	6782.1
832.722	6839.04
833.048	6798.82
833.374	6793.39
833.7	6758.59
834.026	6791.13
834.351	6813.96
834.677	6819.38
835.003	6763.34
835.329	6804.92
835.654	6776.45
835.98	6703.45
836.306	6749.33
836.631	6720.18
836.956	6741.64
837.282	6724.92
837.607	6714.3
837.932	6641.53
838.258	6696
838.583	6630.01
838.908	6652.83
839.233	6659.61
839.558	6586.85
839.883	6584.36
840.208	6596.34
840.533	6606.73
840.858	6606.28
841.182	6543.01
841.507	6521.54
841.832	6500.3
842.156	6521.99
842.481	6532.16
842.805	6472.5
843.13	6444.7
843.454	6496
843.778	6454.19
844.103	6413.07
844.427	6399.28
844.751	6387.08
845.075	6425.27
845.399	6380.75
845.723	6293.75
846.047	6332.39
846.371	6267.53
846.695	6302.79
847.019	6277.02
847.343	6235.67
847.666	6162
847.99	6161.77
848.313	6139.4
848.637	6084.03
848.96	6086.75
849.284	6070.02
849.607	6075.45
849.931	6002.23
850.254	6063.02
850.577	5941.89
850.9	5940.31
851.223	5920.65
851.546	5950.48
851.869	5906.41
852.192	5922.01
852.515	5837.04
852.838	5867.09
853.161	5774.44
853.483	5792.52
853.806	5756.13
854.129	5785.74
854.451	5771.27
854.774	5689.92
855.096	5733.08
855.419	5694.21
855.741	5716.14
856.063	5690.15
856.385	5665.97
856.708	5680.66
857.03	5609.25
857.352	5647.89
857.674	5621.22
857.996	5588.91
858.318	5536.93
858.64	5586.65
858.961	5526.99
859.283	5491.28
859.605	5480.43
859.926	5453.32
860.248	5499.19
860.57	5412.41
860.891	5451.28
861.212	5411.28
861.534	5427.56
861.855	5424.17
862.176	5419.19
862.498	5403.37
862.819	5423.04
863.14	5399.99
863.461	5363.6
863.782	5350.49
864.103	5346.2
864.424	5310.04
864.745	5328.8
865.065	5344.85
865.386	5321.57
865.707	5340.55
866.027	5330.38
866.348	5285.64
866.668	5277.95
866.989	5312.76
867.309	5245.64
867.63	5218.52
867.95	5204.96
868.27	5206.77
868.59	5208.13
868.91	5201.12
869.23	5246.09
869.55	5193.21
869.87	5230.72
870.19	5165.19
870.51	5178.97
870.83	5167
871.15	5138.3
871.469	5131.29
871.789	5166.32
872.109	5119.31
872.428	5097.39
872.748	5150.95
873.067	5135.13
873.386	5135.36
873.706	5125.87
874.025	5081.8
874.344	5036.83
874.663	5078.86
874.982	5097.39
875.301	5064.17
875.62	5082.25
875.939	5032.76
876.258	5002.26
876.577	5007.68
876.896	5015.59
877.214	5023.05
877.533	5012.88
877.852	4987.79
878.17	4977.17
878.489	5000.22
878.807	5012.88
879.125	4995.48
879.444	4934.46
879.762	4926.78
880.08	5015.81
880.398	4934.01
880.716	4945.53
881.034	4874.35
881.352	4928.59
881.67	4940.34
881.988	4936.04
882.306	4901.69
882.624	4893.56
882.941	4868.93
883.259	4855.37
883.577	4874.35
883.894	4886.1
884.212	4786.22
884.529	4851.98
884.846	4804.52
885.164	4795.48
885.481	4814.24
885.798	4829.38
886.115	4789.15
886.432	4806.33
886.75	4760.23
887.067	4785.76
887.383	4727.91
887.7	4775.14
888.017	4766.78
888.334	4706.67
888.651	4691.53
888.967	4676.16
889.284	4715.03
889.6	4645.43
889.917	4617.86
890.233	4651.3
890.55	4622.83
890.866	4628.48
891.182	4614.92
891.498	4605.66
891.815	4609.72
892.131	4557.3
892.447	4571.31
892.763	4554.81
893.079	4574.7
893.395	4588.48
893.71	4453.57
894.026	4506.22
894.342	4467.81
894.657	4470.74
894.973	4457.64
895.289	4474.81
895.604	4426.45
895.92	4424.42
896.235	4399.11
896.55	4425.55
896.865	4421.48
897.181	4367.7
897.496	4360.46
897.811	4331.31
898.126	4305.55
898.441	4322.95
898.756	4304.65
899.071	4311.43
899.386	4283.63
899.7	4282.5
900.015	4217.87
900.33	4255.16
900.644	4246.57
900.959	4274.37
901.273	4204.54
901.588	4228.49
901.902	4207.47
902.216	4185.78
902.531	4157.08
902.845	4154.14
903.159	4115.27
903.473	4145.33
903.787	4105.33
904.101	4083.64
904.415	4069.4
904.729	4067.82
905.042	4063.75
905.356	4044.09
905.67	4016.07
905.984	4044.54
906.297	4005.67
906.611	4014.71
906.924	4001.15
907.237	3970.42
907.551	3944.43
907.864	3935.62
908.177	3913.47
908.491	3946.92
908.804	3928.84
909.117	3965.22
909.43	3820.37
909.743	3845.22
910.056	3831.21
910.368	3837.09
910.681	3824.43
910.994	3831.21
911.307	3819.01
911.619	3747.15
911.932	3786.47
912.244	3750.31
912.557	3757.32
912.869	3762.29
913.181	3708.73
913.494	3701.05
913.806	3705.11
914.118	3668.96
914.43	3667.38
914.742	3654.95
915.054	3601.61
915.366	3666.92
915.678	3617.43
915.99	3593.7
916.302	3564.1
916.613	3577.21
916.925	3568.39
917.236	3574.95
917.548	3576.76
917.859	3536.08
918.171	3539.7
918.482	3535.63
918.794	3516.64
919.105	3510.32
919.416	3450.88
919.727	3443.65
920.038	3465.12
920.349	3424.22
920.66	3412.92
920.971	3477.32
921.282	3433.71
921.593	3369.3
921.903	3372.47
922.214	3361.17
922.525	3347.16
922.835	3322.98
923.146	3318.01
923.456	3318.68
923.767	3325.46
924.077	3304.67
924.387	3295.18
924.697	3234.84
925.008	3232.81
925.318	3271.23
925.628	3254.5
925.938	3223.32
926.248	3252.47
926.558	3183.77
926.867	3161.85
927.177	3184.9
927.487	3167.28
927.796	3136.99
928.106	3128.41
928.416	3111.01
928.725	3114.4
929.034	3104.23
929.344	3091.35
929.653	3086.15
929.962	3066.26
930.271	3082.76
930.581	3011.57
930.89	2998.47
931.199	3012.7
931.508	2994.4
931.817	3030.33
932.125	3005.02
932.434	2956.43
932.743	2993.27
933.051	2956.43
933.36	2909.43
933.669	2907.85
933.977	2948.75
934.286	2905.81
934.594	2944
934.902	2899.26
935.21	2888.64
935.519	2869.43
935.827	2841.63
936.135	2826.27
936.443	2795.99
936.751	2847.74
937.059	2820.17
937.367	2821.97
937.674	2784.91
937.982	2802.09
938.29	2776.33
938.597	2774.29
938.905	2746.04
939.213	2690.45
939.52	2724.8
939.827	2741.3
940.135	2736.1
940.442	2707.63
940.749	2726.61
941.056	2707.63
941.363	2668.31
941.67	2698.36
941.977	2668.31
942.284	2649.32
942.591	2664.92
942.898	2639.83
943.205	2668.08
943.511	2644.58
943.818	2636.89
944.125	2621.53
944.431	2607.74
944.738	2612.71
945.044	2575.2
945.35	2554.64
945.657	2539.5
945.963	2531.81
946.269	2545.6
946.575	2539.72
946.881	2530.91
947.187	2487.07
947.493	2536.56
947.799	2481.19
948.105	2502.43
948.41	2464.24
948.716	2460.4
949.022	2424.24
949.327	2440.06
949.633	2443.23
949.938	2433.06
950.244	2399.39
950.549	2406.84
950.854	2412.04
951.16	2372.49
951.465	2389.67
951.77	2331.37
952.075	2389.22
952.38	2367.3
952.685	2373.62
952.99	2363.23
953.294	2338.6
953.599	2318.48
953.904	2317.35
954.209	2320.74
954.513	2284.59
954.818	2260.63
955.122	2282.33
955.426	2297.69
955.731	2276.45
956.035	2238.26
956.339	2242.55
956.643	2242.33
956.948	2221.31
957.252	2186.74
957.556	2209.33
957.86	2219.73
958.163	2208.2
958.467	2184.93
958.771	2158.04
959.075	2164.59
959.378	2160.07
959.682	2165.95
959.985	2122.56
960.289	2110.13
960.592	2123.46
960.896	2117.13
961.199	2120.98
961.502	2129.79
961.805	2130.92
962.108	2101.54
962.411	2110.58
962.714	2074.65
963.017	2069.45
963.32	2045.72
963.623	2067.42
963.926	2048.43
964.228	2045.05
964.531	2047.98
964.833	2015.89
965.136	2026.97
965.438	2014.54
965.741	2047.53
966.043	2022.9
966.345	1982.9
966.648	1979.06
966.95	1956.69
967.252	1956.01
967.554	1944.71
967.856	1939.29
968.158	1950.13
968.46	1947.19
968.761	1926.18
969.063	1918.72
969.365	1915.11
969.666	1934.77
969.968	1905.16
970.269	1906.29
970.571	1921.43
970.872	1889.34
971.174	1848.89
971.475	1870.59
971.776	1894.99
972.077	1883.24
972.378	1833.07
972.679	1851.6
972.98	1843.02
973.281	1829.68
973.582	1799.4
973.883	1817.93
974.183	1830.36
974.484	1824.71
974.785	1796.01
975.085	1780.87
975.386	1779.29
975.686	1776.35
975.986	1785.16
976.287	1796.46
976.587	1747.65
976.887	1747.88
977.187	1759.18
977.487	1758.95
977.787	1756.24
978.087	1735.22
978.387	1721.66
978.687	1734.54
978.987	1719.18
979.286	1679.86
979.586	1703.81
979.885	1697.71
980.185	1672.85
980.484	1656.58
980.784	1696.81
981.083	1680.76
981.382	1673.76
981.682	1653.87
981.981	1655.22
982.28	1632.63
982.579	1618.62
982.878	1644.15
983.177	1628.56
983.475	1610.48
983.774	1587.88
984.073	1594.44
984.372	1557.6
984.67	1590.37
984.969	1571.61
985.267	1579.07
985.566	1554.89
985.864	1590.59
986.162	1559.18
986.461	1553.08
986.759	1559.86
987.057	1536.81
987.355	1572.29
987.653	1537.26
987.951	1544.27
988.249	1490.48
988.547	1515.57
988.844	1481.44
989.142	1505.4
989.44	1492.97
989.737	1489.13
990.035	1518.51
990.332	1473.53
990.63	1447.77
990.927	1459.3
991.224	1447.77
991.521	1476.7
991.819	1454.55
992.116	1464.04
992.413	1424.95
992.71	1433.08
993.006	1425.85
993.303	1400.99
993.6	1420.2
993.897	1401.22
994.193	1394.21
994.49	1412.07
994.787	1397.83
995.083	1425.4
995.379	1394.21
995.676	1375.68
995.972	1368.9
996.268	1396.02
996.565	1360.77
996.861	1356.7
997.157	1365.06
997.453	1347.66
997.749	1301.56
998.044	1310.15
998.34	1331.17
998.636	1339.98
998.932	1339.3
999.227	1327.55
999.523	1329.81
999.818	1287.1
1000.114	1284.16
1000.409	1274.67
1000.704	1283.03
1001	1272.64
1001.295	1262.01
1001.59	1275.8
1001.885	1284.16
1002.18	1256.37
1002.475	1255.46
1002.77	1217.95
1003.065	1232.86
1003.359	1244.61
1003.654	1245.74
1003.949	1218.4
1004.243	1215.69
1004.538	1206.42
1004.832	1177.5
1005.127	1203.94
1005.421	1214.56
1005.715	1168.23
1006.009	1177.5
1006.304	1178.85
1006.598	1153.32
1006.892	1172.75
1007.186	1163.71
1007.48	1154
1007.773	1139.31
1008.067	1159.64
1008.361	1125.97
1008.655	1129.59
1008.948	1141.57
1009.242	1124.62
1009.535	1114.9
1009.829	1126.2
1010.122	1097.5
1010.415	1066.09
1010.708	1063.38
1011.001	1118.52
1011.295	1092.53
1011.588	1073.77
1011.881	1069.7
1012.173	1057.27
1012.466	1055.92
1012.759	1050.72
1013.052	1040.78
1013.344	1059.08
1013.637	1046.43
1013.93	1036.94
1014.222	1020.89
1014.514	1036.71
1014.807	1034.45
1015.099	1044.62
1015.391	1014.56
1015.683	1015.92
1015.976	989.93
1016.268	989.25
1016.56	967.11
1016.851	964.4
1017.143	994.68
1017.435	980.89
1017.727	970.95
1018.018	978.41
1018.31	965.75
1018.602	951.74
1018.893	961.91
1019.185	948.58
1019.476	918.97
1019.767	926.88
1020.058	939.31
1020.35	923.49
1020.641	918.07
1020.932	919.42
1021.223	913.1
1021.514	902.25
1021.804	907
1022.095	885.3
1022.386	899.31
1022.677	901.57
1022.967	893.89
1023.258	896.83
1023.548	881.69
1023.839	837.62
1024.129	858.41
1024.419	824.29
1024.709	839.88
1025	861.12
1025.29	862.93
1025.58	845.08
1025.87	833.1
1026.16	832.2
1026.449	824.96
1026.739	831.52
1027.029	815.47
1027.319	823.38
1027.608	814.34
1027.898	817.05
1028.187	798.3
1028.477	809.6
1028.766	801.01
1029.055	776.38
1029.344	765.98
1029.634	788.81
1029.923	788.58
1030.212	762.14
1030.501	761.01
1030.79	762.82
1031.078	761.01
1031.367	766.89
1031.656	766.66
1031.945	732.76
1032.233	726.21
1032.522	721.69
1032.81	749.03
1033.099	752.65
1033.387	708.58
1033.675	721.01
1033.963	709.04
1034.251	723.72
1034.54	719.2
1034.828	703.39
1035.116	709.26
1035.403	709.26
1035.691	704.29
1035.979	712.2
1036.267	706.78
1036.554	685.76
1036.842	680.34
1037.129	685.98
1037.417	664.97
1037.704	690.5
1037.992	667.68
1038.279	675.36
1038.566	660.67
1038.853	660.67
1039.14	660.67
