Data from tablewood_dark_bookshelf_FLMS001491_00062.txt Node
Date: Wed Feb 08 14:15:22 GMT 2017
User: dcchb
Spectrometer: FLMS00149
Trigger mode: 0
Integration Time (sec): 2.000000E-2
Scans to average: 10
Electric dark correction enabled: true
Nonlinearity correction enabled: false
Boxcar width: 0
XAxis mode: Wavelengths
Number of Pixels in Spectrum: 2048
>>>>>Begin Spectral Data<<<<<
341.393	-2.01
341.776	-2.01
342.16	-2.01
342.543	-69.12
342.927	-44.49
343.31	-54.89
343.693	-76.81
344.077	-48.78
344.46	-57.6
344.843	-44.72
345.226	-31.84
345.61	-34.55
345.993	-17.37
346.376	-11.27
346.759	1.84
347.142	20.14
347.525	33.02
347.908	60.37
348.291	72.79
348.674	99.01
349.057	90.65
349.44	134.49
349.823	143.08
350.206	154.6
350.588	197.09
350.971	218.1
351.354	223.3
351.737	247.48
352.119	236.41
352.502	243.41
352.884	266.24
353.267	264.43
353.65	287.25
354.032	290.19
354.414	305.78
354.797	301.26
355.179	331.54
355.562	320.02
355.944	332.67
356.326	308.95
356.709	349.17
357.091	340.81
357.473	342.17
357.855	353.69
358.238	315.73
358.62	298.55
359.002	343.75
359.384	343.52
359.766	347.14
360.148	342.39
360.53	318.89
360.912	319.79
361.294	314.82
361.676	329.51
362.057	332.67
362.439	318.66
362.821	326.12
363.203	330.87
363.584	321.6
363.966	324.31
364.348	306.69
364.729	312.79
365.111	322.51
365.493	334.93
365.874	318.44
366.256	301.49
366.637	308.95
367.019	319.79
367.4	316.4
367.781	287.7
368.163	314.82
368.544	313.69
368.925	307.14
369.306	310.3
369.688	306.01
370.069	312.56
370.45	330.19
370.831	312.11
371.212	306.23
371.593	332.67
371.974	318.44
372.355	308.27
372.736	320.25
373.117	316.63
373.498	322.28
373.879	333.35
374.26	320.7
374.641	322.96
375.021	317.08
375.402	353.01
375.783	322.73
376.163	315.5
376.544	332.22
376.925	329.96
377.305	333.13
377.686	315.5
378.066	314.14
378.447	323.18
378.827	343.97
379.208	346.46
379.588	330.87
379.968	355.95
380.349	351.21
380.729	338.78
381.109	350.53
381.489	329.96
381.87	338.1
382.25	338.55
382.63	355.27
383.01	350.08
383.39	355.27
383.77	350.53
384.15	369.51
384.53	372.22
384.91	366.57
385.29	340.36
385.67	349.4
386.049	351.21
386.429	372.9
386.809	382.84
387.189	364.31
387.568	359.57
387.948	376.06
388.328	363.18
388.707	381.71
389.087	379.45
389.466	381.04
389.846	353.92
390.225	384.88
390.605	391.66
390.984	386.01
391.363	365.89
391.743	389.17
392.122	397.08
392.501	395.5
392.881	397.08
393.26	416.97
393.639	409.73
394.018	407.48
394.397	407.25
394.776	399.11
395.155	410.86
395.534	401.83
395.913	402.5
396.292	430.3
396.671	416.97
397.05	423.52
397.429	407.02
397.808	417.87
398.186	410.64
398.565	400.02
398.944	442.28
399.323	421.71
399.701	429.85
400.08	440.02
400.458	418.32
400.837	452.22
401.215	442.28
401.594	437.98
401.972	421.94
402.351	436.63
402.729	456.29
403.107	452.22
403.486	457.64
403.864	456.06
404.242	462.16
404.62	456.51
404.999	473.01
405.377	455.84
405.755	475.72
406.133	462.84
406.511	478.89
406.889	494.7
407.267	485.44
407.645	501.48
408.023	491.31
408.401	507.59
408.779	490.18
409.156	510.07
409.534	505.33
409.912	515.49
410.29	521.14
410.667	497.42
411.045	529.96
411.422	527.47
411.8	523.63
412.178	528.6
412.555	531.99
412.933	548.94
413.31	550.75
413.687	560.92
414.065	582.39
414.442	542.61
414.819	570.41
415.197	562.27
415.574	579.9
415.951	582.61
416.328	588.26
416.705	601.14
417.082	604.31
417.46	592.33
417.837	580.35
418.214	602.05
418.591	586
418.967	619.45
419.344	631.88
419.721	622.38
420.098	623.74
420.475	615.15
420.852	630.07
421.228	648.6
421.605	646.34
421.982	650.41
422.358	660.35
422.735	668.49
423.111	663.06
423.488	659.67
423.864	681.82
424.241	669.84
424.617	668.71
424.994	698.31
425.37	680.24
425.746	703.29
426.123	693.8
426.499	689.73
426.875	700.12
427.251	722.5
427.627	728.14
428.003	729.73
428.379	718.43
428.756	753.91
429.132	732.21
429.507	759.78
429.883	762.49
430.259	773.79
430.635	792.32
431.011	811.76
431.387	774.7
431.763	829.16
432.138	799.33
432.514	817.18
432.89	801.36
433.265	836.84
433.641	861.02
434.016	861.7
434.392	866.9
434.767	851.98
435.143	865.54
435.518	884.3
435.894	901.7
436.269	892.89
436.644	926.56
437.02	913.45
437.395	927.24
437.77	953
438.145	948.7
438.52	945.99
438.895	954.13
439.271	965.88
439.646	974.01
440.021	951.64
440.395	972.88
440.77	990.28
441.145	978.76
441.52	1001.13
441.895	1020.57
442.27	1037.97
442.645	1002.26
443.019	1044.97
443.394	1024.41
443.769	1046.55
444.143	1053.56
444.518	1047.91
444.892	1064.18
445.267	1065.76
445.641	1063.96
446.016	1076.38
446.39	1083.84
446.764	1084.52
447.139	1080
447.513	1072.54
447.887	1095.14
448.262	1113.45
448.636	1127
449.01	1144.86
449.384	1150.28
449.758	1139.66
450.132	1173.78
450.506	1136.72
450.88	1175.36
451.254	1156.16
451.628	1181.01
452.002	1179.21
452.376	1197.74
452.75	1195.48
453.123	1248.36
453.497	1242.93
453.871	1235.48
454.244	1280.9
454.618	1275.47
454.992	1308.69
455.365	1295.81
455.739	1320.67
456.112	1327.22
456.486	1339.65
456.859	1350.28
457.232	1391.63
457.606	1348.02
457.979	1386.66
458.352	1421.01
458.725	1446.77
459.099	1449.48
459.472	1442.25
459.845	1479.76
460.218	1505.75
460.591	1492.42
460.964	1514.56
461.337	1523.6
461.71	1570.16
462.083	1550.5
462.456	1596.37
462.829	1585.07
463.201	1624.39
463.574	1637.95
463.947	1629.36
464.32	1661
464.692	1698.97
465.065	1714.56
465.438	1723.6
465.81	1735.35
466.183	1745.29
466.555	1791.17
466.928	1800.43
467.3	1807.44
467.672	1816.03
468.045	1843.14
468.417	1862.35
468.789	1883.82
469.161	1904.61
469.534	1933.76
469.906	1990.03
470.278	2025.51
470.65	2008.11
471.022	2040.65
471.394	2035
471.766	2070.03
472.138	2108
472.51	2160.42
472.882	2201.55
473.253	2197.26
473.625	2249.69
473.997	2250.14
474.369	2271.61
474.74	2308.44
475.112	2370.14
475.484	2369.46
475.855	2448.33
476.227	2452.62
476.598	2504.6
476.97	2545.05
477.341	2583.46
477.713	2579.85
478.084	2660.3
478.455	2684.48
478.827	2725.61
479.198	2796.34
479.569	2807.19
479.94	2884.47
480.311	2887.64
480.682	2964.7
481.053	3023.68
481.424	3037.01
481.795	3075.43
482.166	3113.84
482.537	3181.19
482.908	3253.28
483.279	3266.61
483.65	3340.28
484.021	3371.47
484.391	3454.63
484.762	3463.44
485.133	3487.85
485.503	3511.12
485.874	3601.52
486.244	3656.43
486.615	3709.99
486.985	3763.32
487.356	3824.56
487.726	3862.3
488.097	3925.57
488.467	3890.55
488.837	3993.82
489.207	4032.01
489.578	4068.4
489.948	4141.39
490.318	4160.14
490.688	4234.49
491.058	4267.26
491.428	4340.25
491.798	4384.55
492.168	4456.63
492.538	4525.56
492.908	4476.52
493.278	4613.92
493.648	4593.81
494.017	4642.84
494.387	4691.88
494.757	4745.67
495.126	4803.97
495.496	4822.5
495.866	4821.6
496.235	4909.28
496.605	4907.47
496.974	4968.94
497.344	4975.04
497.713	4992.67
498.082	5012.1
498.452	5126.9
498.821	5157.63
499.19	5130.51
499.559	5177.97
499.928	5249.16
500.298	5281.25
500.667	5348.59
501.036	5328.93
501.405	5363.96
501.774	5457.51
502.143	5403.73
502.512	5482.14
502.88	5567.34
503.249	5560.33
503.618	5579.99
503.987	5596.27
504.356	5664.96
504.724	5677.17
505.093	5716.49
505.462	5721.23
505.83	5839.65
506.199	5832.42
506.567	5919.87
506.936	5909.48
507.304	5991.28
507.672	6017.5
508.041	6088.68
508.409	6110.83
508.777	6201.67
509.145	6198.06
509.514	6158.06
509.882	6266.53
510.25	6310.14
510.618	6367.54
510.986	6401.22
511.354	6464.72
511.722	6525.28
512.09	6503.81
512.458	6549.23
512.826	6599.63
513.193	6663.81
513.561	6614.77
513.929	6729.12
514.297	6836.68
514.664	6847.53
515.032	6874.2
515.4	6941.99
515.767	6972.05
516.135	6989.45
516.502	6976.79
516.869	7107.41
517.237	7146.06
517.604	7126.85
517.972	7271.93
518.339	7333.62
518.706	7291.81
519.073	7348.08
519.44	7378.82
519.808	7514.41
520.175	7536.55
520.542	7617.91
520.909	7681.86
521.276	7678.02
521.643	7739.94
522.009	7818.35
522.376	7853.16
522.743	7943.77
523.11	7984
523.477	8087.5
523.843	8071.91
524.21	8261.96
524.577	8259.25
524.943	8290.66
525.31	8328.62
525.676	8394.84
526.043	8453.59
526.409	8535.4
526.776	8632.12
527.142	8607.49
527.508	8749.63
527.874	8829.85
528.241	8854.48
528.607	8862.17
528.973	9001.6
529.339	8989.17
529.705	9010.86
530.071	9121.6
530.437	9196.85
530.803	9294.25
531.169	9269.62
531.535	9243.85
531.901	9341.48
532.267	9368.37
532.632	9450.18
532.998	9511.19
533.364	9553
533.73	9581.25
534.095	9661.02
534.461	9724.29
534.826	9758.42
535.192	9764.52
535.557	9783.73
535.923	9832.76
536.288	9952.08
536.653	9957.73
537.019	9963.16
537.384	10020.1
537.749	10033.66
538.114	10130.61
538.479	10143.26
538.845	10270.94
539.21	10135.13
539.575	10258.29
539.94	10253.54
540.305	10363.37
540.67	10391.39
541.034	10422.58
541.399	10471.84
541.764	10429.13
542.129	10491.28
542.494	10560.65
542.858	10556.59
543.223	10592.29
543.587	10703.7
543.952	10683.36
544.316	10694.89
544.681	10768.11
545.045	10846.52
545.41	10897.14
545.774	10926.29
546.138	10877.26
546.503	10947.76
546.867	10955.67
547.231	11091.26
547.595	11043.58
547.959	11152.5
548.324	11116.57
548.688	11143.92
549.052	11229.11
549.416	11270.24
549.779	11301.65
550.143	11332.16
550.507	11317.02
550.871	11393.63
551.235	11407.41
551.599	11507.75
551.962	11480.18
552.326	11581.19
552.689	11688.53
553.053	11645.37
553.417	11749.55
553.78	11838.36
554.143	11742.54
554.507	11831.58
554.87	11946.38
555.234	11966.04
555.597	11982.54
555.96	12033.84
556.323	12127.62
556.686	12150.67
557.05	12286.03
557.413	12268.63
557.776	12279.03
558.139	12373.04
558.502	12476.76
558.865	12506.59
559.228	12551.34
559.59	12633.82
559.953	12733.48
560.316	12741.61
560.679	12786.13
561.041	12896.64
561.404	12945.45
561.767	13050.76
562.129	13001.72
562.492	13108.16
562.854	13130.98
563.217	13145.67
563.579	13220.92
563.941	13240.13
564.304	13355.84
564.666	13392.67
565.028	13508.83
565.39	13598.31
565.753	13560.8
566.115	13705.66
566.477	13814.13
566.839	13751.31
567.201	13824.98
567.563	13930.28
567.925	14063.84
568.287	13995.14
568.648	14046.66
569.01	14168.24
569.372	14320.1
569.734	14239.88
570.095	14403.49
570.457	14419.54
570.819	14568.91
571.18	14499.31
571.542	14633.99
571.903	14719.42
572.265	14686.2
572.626	14740.43
572.987	14891.61
573.349	14862.69
573.71	14984.49
574.071	15065.62
574.432	14987.43
574.794	15245.5
575.155	15160.76
575.516	15212.28
575.877	15271.27
576.238	15305.16
576.599	15352.62
576.96	15412.96
577.32	15444.59
577.681	15578.6
578.042	15655.44
578.403	15635.32
578.763	15651.14
579.124	15691.82
579.485	15803.23
579.845	15847.75
580.206	15815.43
580.566	15785.15
580.927	15915.54
581.287	16030.57
581.648	15884.36
582.008	16079.15
582.368	16034.86
582.728	16144.46
583.089	16130.9
583.449	16238.02
583.809	16179.94
584.169	16257.45
584.529	16266.04
584.889	16365.93
585.249	16294.52
585.609	16254.52
585.969	16335.64
586.329	16376.55
586.688	16388.07
587.048	16531.8
587.408	16384.46
587.768	16420.84
588.127	16537.67
588.487	16451.12
588.846	16591.23
589.206	16512.59
589.565	16601.4
589.925	16601.17
590.284	16560.27
590.643	16633.94
591.003	16743.77
591.362	16735.63
591.721	16820.6
592.08	16787.38
592.44	16871.9
592.799	16843.65
593.158	16817.21
593.517	16801.62
593.876	16875.97
594.235	16967.04
594.593	16967.94
594.952	17053.14
595.311	16933.14
595.67	17066.47
596.029	17227.15
596.387	17075.51
596.746	17174.27
597.104	17044.78
597.463	17103.53
597.822	17196.86
598.18	17183.98
598.538	17152.12
598.897	17309.63
599.255	17157.09
599.613	17434.15
599.972	17381.94
600.33	17434.82
600.688	17444.09
601.046	17431.43
601.404	17452.9
601.762	17480.02
602.12	17634.14
602.478	17596.85
602.836	17567.93
603.194	17475.73
603.552	17605.44
603.91	17588.27
604.268	17691.77
604.625	17617.42
604.983	17693.8
605.341	17554.37
605.698	17737.41
606.056	17853.57
606.413	17822.16
606.771	17875.04
607.128	17913
607.485	17754.14
607.843	17792.1
608.2	18000.23
608.557	18028.03
608.914	17983.96
609.272	18061.47
609.629	18118.2
609.986	18089.27
610.343	18082.49
610.7	18254.69
611.057	18173.79
611.414	18138.31
611.771	18201.58
612.127	18345.76
612.484	18294.01
612.841	18414.23
613.198	18208.82
613.554	18223.5
613.911	18414.23
614.267	18410.17
614.624	18338.76
614.98	18359.09
615.337	18552.53
615.693	18490.62
616.05	18553.66
616.406	18590.27
616.762	18597.28
617.118	18500.11
617.475	18575.59
617.831	18604.28
618.187	18559.31
618.543	18595.25
618.899	18679.76
619.255	18646.09
619.611	18697.62
619.967	18743.72
620.323	18769.93
620.678	18889.25
621.034	18725.86
621.39	18701.46
621.746	18768.8
622.101	18886.99
622.457	18797.27
622.812	18820.32
623.168	18798.18
623.523	18900.32
623.879	18978.74
624.234	18830.04
624.589	18880.89
624.945	18817.39
625.3	18911.4
625.655	18909.14
626.01	18776.48
626.365	18859.42
626.72	18870.49
627.075	18895.8
627.43	18966.08
627.785	18821.45
628.14	18859.19
628.495	18890.38
628.85	18816.48
629.205	18813.32
629.559	18883.83
629.914	18870.27
630.269	18846.99
630.623	18781.91
630.978	18878.4
631.332	18868.68
631.687	18876.59
632.041	18831.85
632.396	18784.62
632.75	18752.98
633.104	18761.12
633.459	18716.6
633.813	18716.15
634.167	18669.37
634.521	18670.95
634.875	18729.93
635.229	18659.88
635.583	18651.97
635.937	18581.23
636.291	18520.45
636.645	18608.8
636.999	18547.56
637.352	18622.59
637.706	18491.75
638.06	18601.35
638.413	18428.7
638.767	18621.91
639.121	18538.75
639.474	18382.14
639.828	18310.06
640.181	18418.53
640.534	18360
640.888	18379.88
641.241	18288.13
641.594	18315.25
641.947	18411.3
642.301	18240
642.654	18284.07
643.007	18335.37
643.36	18238.64
643.713	18236.38
644.066	18275.48
644.419	18209.04
644.771	18124.52
645.124	18017.63
645.477	17953.45
645.83	17788.49
646.182	17787.13
646.535	17707.59
646.888	17724.53
647.24	17552.11
647.593	17690.86
647.945	17641.6
648.298	17577.42
648.65	17486.35
649.002	17442.96
649.355	17554.37
649.707	17550.98
650.059	17634.14
650.411	17916.39
650.763	17824.19
651.115	18006.33
651.467	17957.3
651.819	17977.18
652.171	17950.97
652.523	17926.56
652.875	17888.6
653.227	17739.9
653.578	17860.12
653.93	17873.46
654.282	17815.61
654.633	17800.01
654.985	17769.05
655.337	17779
655.688	17853.8
656.039	17981.93
656.391	17815.83
656.742	17786.91
657.094	17759.56
657.445	17846.79
657.796	17763.63
658.147	17743.29
658.498	17748.04
658.849	17822.61
659.2	17798.2
659.551	17659.9
659.902	17802.27
660.253	17855.38
660.604	17725.66
660.955	17684.99
661.306	17871.65
661.656	17757.53
662.007	17775.61
662.358	17670.98
662.708	17744.19
663.059	17778.09
663.409	17663.29
663.76	17776.74
664.11	17691.09
664.461	17693.57
664.811	17732.9
665.161	17742.16
665.511	17737.64
665.862	17689.96
666.212	17748.49
666.562	17635.04
666.912	17692.44
667.262	17627.14
667.612	17738.32
667.962	17703.29
668.312	17663.97
668.662	17762.05
669.011	17744.19
669.361	17724.08
669.711	17696.51
670.06	17692.22
670.41	17642.73
670.76	17710.07
671.109	17699.9
671.459	17612.22
671.808	17496.74
672.157	17683.63
672.507	17615.84
672.856	17601.83
673.205	17583.52
673.554	17687.25
673.904	17680.02
674.253	17642.05
674.602	17670.75
674.951	17429.85
675.3	17313.7
675.649	17544.88
675.998	17464.65
676.346	17585.78
676.695	17602.5
677.044	17421.04
677.393	17506.46
677.741	17563.41
678.09	17503.75
678.438	17396.63
678.787	17513.24
679.135	17478.66
679.484	17348.72
679.832	17460.81
680.181	17406.12
680.529	17434.37
680.877	17319.57
681.225	17416.97
681.573	17511.88
681.922	17260.37
682.27	17267.6
682.618	17279.8
682.966	17100.82
683.314	17334.94
683.661	17186.02
684.009	17130.43
684.357	17091.78
684.705	17092.69
685.053	17088.17
685.4	17053.82
685.748	16950.99
686.095	17024.21
686.443	16951.45
686.79	16980.15
687.138	16946.93
687.485	16939.7
687.832	16769.98
688.18	16863.09
688.527	16684.11
688.874	16805.01
689.221	16755.07
689.568	16730.89
689.915	16681.4
690.262	16622.19
690.609	16605.24
690.956	16575.41
691.303	16602.76
691.65	16367.73
691.997	16478.24
692.344	16443.21
692.69	16341.52
693.037	16333.16
693.383	16277.79
693.73	16249.32
694.077	16179.72
694.423	16262.88
694.769	16182.2
695.116	16080.06
695.462	16025.37
695.808	16020.62
696.155	16044.58
696.501	15907.18
696.847	15937.24
697.193	15770.24
697.539	15852.04
697.885	15784.47
698.231	15682.33
698.577	15781.53
698.923	15713.51
699.269	15719.16
699.614	15534.99
699.96	15464.93
700.306	15563.01
700.651	15451.37
700.997	15317.14
701.342	15369.12
701.688	15341.77
702.033	15215.45
702.379	15214.77
702.724	15229.68
703.069	15254.99
703.415	15136.13
703.76	15076.92
704.105	15072.85
704.45	15076.47
704.795	15040.08
705.14	15043.7
705.485	14960.09
705.83	14942.69
706.175	14949.69
706.52	14892.74
706.865	14844.61
707.209	14799.41
707.554	14762.13
707.899	14828.79
708.243	14737.72
708.588	14711.51
708.932	14640.55
709.277	14582.02
709.621	14555.58
709.966	14503.38
710.31	14470.61
710.654	14382.7
710.998	14467.44
711.342	14477.39
711.687	14436.71
712.031	14394.68
712.375	14433.77
712.719	14250.28
713.063	14286.88
713.407	14358.75
713.75	14308.8
714.094	14310.16
714.438	14205.76
714.782	14185.64
715.125	14091.86
715.469	14131.63
715.812	14027.91
716.156	13972.99
716.499	14048.25
716.843	13979.55
717.186	13905.2
717.53	13969.15
717.873	14069.04
718.216	14008.93
718.559	13974.12
718.902	13814.35
719.246	13885.09
719.589	13922.37
719.932	13806.44
720.275	13757.18
720.617	13821.36
720.96	13750.18
721.303	13794.24
721.646	13776.62
721.989	13726.45
722.331	13741.81
722.674	13732.1
723.016	13768.71
723.359	13689.61
723.701	13770.97
724.044	13619.33
724.386	13499.33
724.729	13598.31
725.071	13597.41
725.413	13544.53
725.755	13523.51
726.097	13570.74
726.439	13495.49
726.782	13442.39
727.124	13536.62
727.465	13405.1
727.807	13458.66
728.149	13407.81
728.491	13379.79
728.833	13450.97
729.175	13366
729.516	13336.4
729.858	13308.15
730.199	13511.76
730.541	13302.5
730.882	13318.77
731.224	13342.5
731.565	13306.57
731.906	13269.74
732.248	13252.56
732.589	13203.52
732.93	13137.76
733.271	13302.96
733.612	13281.94
733.953	13295.27
734.294	13242.39
734.635	13115.39
734.976	13199.23
735.317	13149.51
735.658	13064.09
735.999	13169.85
736.339	13079.01
736.68	13148.38
737.021	13123.75
737.361	13034.71
737.702	13126.69
738.042	13117.42
738.383	13057.09
738.723	13111.32
739.063	13048.72
739.404	13120.81
739.744	13048.72
740.084	13005.79
740.424	13060.02
740.764	12971.66
741.104	13061.61
741.444	13025.9
741.784	12972.34
742.124	13024.54
742.464	12986.58
742.804	12875.85
743.143	12875.4
743.483	12913.14
743.823	12839.46
744.162	12789.07
744.502	12883.31
744.841	12946.58
745.181	12856.19
745.52	12873.36
745.86	12885.34
746.199	12800.14
746.538	12737.77
746.877	12833.59
747.216	12831.56
747.556	12783.42
747.895	12755.63
748.234	12713.59
748.573	12719.47
748.911	12751.11
749.25	12700.03
749.589	12636.08
749.928	12624.78
750.267	12649.41
750.605	12692.58
750.944	12620.04
751.283	12660.71
751.621	12647.38
751.96	12491.9
752.298	12565.12
752.636	12609.64
752.975	12472.47
753.313	12590.66
753.651	12517.67
753.989	12500.04
754.327	12523.31
754.666	12446.93
755.004	12482.41
755.342	12466.37
755.679	12381.17
756.017	12377.33
756.355	12368.97
756.693	12250.1
757.031	12321.29
757.368	12218.24
757.706	12283.55
758.044	12254.62
758.381	12192.48
758.719	12254.17
759.056	12175.98
759.394	12169.43
759.731	12058.24
760.068	11970.56
760.405	11973.05
760.743	11914.97
761.08	11942.54
761.417	11886.27
761.754	11884.01
762.091	11920.84
762.428	11838.36
762.765	11716.33
763.102	11807.4
763.438	11725.14
763.775	11736.44
764.112	11640.85
764.449	11653.51
764.785	11618.03
765.122	11464.59
765.458	11498.71
765.795	11496.22
766.131	11517.47
766.467	11447.41
766.804	11388.2
767.14	11311.14
767.476	11304.82
767.812	11204.93
768.148	11290.58
768.485	11183.01
768.821	11172.16
769.157	11160.19
769.492	11170.36
769.828	11144.14
770.164	10946.63
770.5	10972.4
770.836	10977.59
771.171	10891.72
771.507	10887.2
771.842	10779.63
772.178	10778.05
772.513	10691.27
772.849	10687.43
773.184	10702.8
773.519	10634.32
773.855	10598.85
774.19	10563.37
774.525	10597.94
774.86	10487.21
775.195	10503.03
775.53	10383.26
775.865	10380.55
776.2	10378.29
776.535	10260.78
776.87	10199.08
777.205	10246.54
777.539	10240.44
777.874	10175.13
778.209	10101.68
778.543	10094
778.878	9990.05
779.212	10023.72
779.547	9986.43
779.881	9982.36
780.215	9899.88
780.55	9948.92
780.884	9851.97
781.218	9800
781.552	9748.25
781.886	9706.21
782.22	9683.39
782.554	9658.76
782.888	9594.8
783.222	9569.95
783.556	9539.66
783.889	9479.55
784.223	9411.53
784.557	9398.43
784.89	9474.13
785.224	9348.48
785.557	9314.81
785.891	9265.77
786.224	9255.15
786.558	9284.98
786.891	9190.75
787.224	9166.79
787.557	9099.9
787.891	9098.09
788.224	9057.19
788.557	9065.1
788.89	9049.73
789.223	9040.02
789.556	8911.88
789.888	8962.96
790.221	8932
790.554	8854.94
790.887	8823.07
791.219	8768.16
791.552	8816.75
791.884	8691.1
792.217	8753.24
792.549	8680.7
792.882	8656.98
793.214	8604.55
793.546	8603.42
793.879	8571.1
794.211	8520.93
794.543	8507.6
794.875	8443.42
795.207	8506.92
795.539	8415.4
795.871	8445.91
796.203	8273.26
796.535	8333.37
796.867	8339.24
797.198	8313.93
797.53	8275.52
797.862	8223.99
798.193	8269.42
798.525	8184.45
798.856	8197.1
799.188	8104.67
799.519	8128.63
799.85	8034.62
800.182	8063.32
800.513	8117.78
800.844	7893.15
801.175	7975.41
801.506	7983.55
801.837	7886.37
802.168	7906.94
802.499	7946.94
802.83	7797.79
803.161	7831.46
803.491	7841.18
803.822	7805.7
804.153	7751.24
804.483	7701.07
804.814	7669.88
805.145	7655.42
805.475	7626.72
805.805	7624.01
806.136	7586.5
806.466	7590.56
806.796	7589.21
807.126	7530.45
807.457	7510.57
807.787	7487.74
808.117	7457.91
808.447	7418.82
808.777	7434.41
809.107	7406.39
809.436	7357.35
809.766	7414.97
810.096	7344.47
810.426	7323.23
810.755	7265.37
811.085	7312.6
811.414	7278.25
811.744	7214.3
812.073	7255.2
812.403	7254.53
812.732	7194.64
813.061	7208.2
813.39	7122.33
813.719	7155.55
814.049	7206.17
814.378	7149.22
814.707	7108.54
815.036	7068.54
815.365	7049.11
815.693	7036.68
816.022	6999.62
816.351	6931.82
816.68	6951.71
817.008	6981.54
817.337	6876.68
817.665	6876.01
817.994	6906.51
818.322	6867.42
818.651	6838.94
818.979	6849.57
819.307	6861.32
819.636	6845.72
819.964	6787.42
820.292	6760.08
820.62	6802.34
820.948	6759.4
821.276	6791.04
821.604	6778.38
821.932	6791.71
822.259	6800.98
822.587	6814.99
822.915	6759.62
823.243	6743.58
823.57	6777.48
823.898	6730.25
824.225	6734.77
824.553	6742
824.88	6740.42
825.207	6753.3
825.535	6729.12
825.862	6735.67
826.189	6711.72
826.516	6721.43
826.843	6779.06
827.17	6796.01
827.497	6792.17
827.824	6756.91
828.151	6771.83
828.478	6751.26
828.805	6791.26
829.131	6705.61
829.458	6707.65
829.785	6701.32
830.111	6736.57
830.438	6746.97
830.764	6728.89
831.09	6679.63
831.417	6676.24
831.743	6711.04
832.069	6701.55
832.395	6671.04
832.722	6670.81
833.048	6657.25
833.374	6664.26
833.7	6642.11
834.026	6630.81
834.351	6683.02
834.677	6664.49
835.003	6647.09
835.329	6615.67
835.654	6611.61
835.98	6600.08
836.306	6629.23
836.631	6608.44
836.956	6610.48
837.282	6617.93
837.607	6573.41
837.932	6565.73
838.258	6566.18
838.583	6551.04
838.908	6517.6
839.233	6549.23
839.558	6538.39
839.883	6437.83
840.208	6485.73
840.533	6465.39
840.858	6434.44
841.182	6458.39
841.507	6462.91
841.832	6394.66
842.156	6406.19
842.481	6359.18
842.805	6409.35
843.13	6337.49
843.454	6309.47
843.778	6345.17
844.103	6328.9
844.427	6360.54
844.751	6311.05
845.075	6245.29
845.399	6267.66
845.723	6206.64
846.047	6232.41
846.371	6172.75
846.695	6137.27
847.019	6129.81
847.343	6145.18
847.666	6041.23
847.99	6070.15
848.313	6012.3
848.637	5988.35
848.96	6044.62
849.284	5975.24
849.607	5926.88
849.931	5903.83
850.254	5864.73
850.577	5838.52
850.9	5839.42
851.223	5802.81
851.546	5811.4
851.869	5746.54
852.192	5802.36
852.515	5760.1
852.838	5711.52
853.161	5763.72
853.483	5689.82
853.806	5662.48
854.129	5684.85
854.451	5630.61
854.774	5602.82
855.096	5567.79
855.419	5589.49
855.741	5592.2
856.063	5554.01
856.385	5520.79
856.708	5488.25
857.03	5473.1
857.352	5530.05
857.674	5510.62
857.996	5420.22
858.318	5462.94
858.64	5436.72
858.961	5418.87
859.283	5397.4
859.605	5400.79
859.926	5365.99
860.248	5389.04
860.57	5313.11
860.891	5372.32
861.212	5363.28
861.534	5305.2
861.855	5286.22
862.176	5318.76
862.498	5282.6
862.819	5285.54
863.14	5221.81
863.461	5282.6
863.782	5271.75
864.103	5222.04
864.424	5217.29
864.745	5174.36
865.065	5202.15
865.386	5174.36
865.707	5203.73
866.027	5168.71
866.348	5175.49
866.668	5151.31
866.989	5130.74
867.309	5108.82
867.63	5134.81
867.95	5148.82
868.27	5078.31
868.59	5158.08
868.91	5104.3
869.23	5136.39
869.55	5053
869.87	5116.5
870.19	5075.83
870.51	5093.68
870.83	5071.31
871.15	5069.05
871.469	4987.24
871.789	5105.66
872.109	5070.18
872.428	5025.43
872.748	5041.25
873.067	5015.04
873.386	5003.96
873.706	4997.86
874.025	4973.46
874.344	4986.34
874.663	5006.22
874.982	4944.08
875.301	4974.13
875.62	4963.29
875.939	4898.2
876.258	4956.51
876.577	4928.94
876.896	4892.55
877.214	4972.1
877.533	4926.45
877.852	4902.95
878.17	4922.84
878.489	4878.77
878.807	4890.3
879.125	4843.52
879.444	4882.39
879.762	4906.34
880.08	4865.89
880.398	4861.6
880.716	4836.51
881.034	4850.07
881.352	4856.4
881.67	4810.07
881.988	4837.42
882.306	4793.12
882.624	4808.94
882.941	4785.21
883.259	4769.17
883.577	4769.62
883.894	4774.82
884.212	4742.73
884.529	4752.67
884.846	4761.03
885.164	4719.45
885.481	4676.74
885.798	4749.28
886.115	4685.33
886.432	4702.73
886.75	4654.14
887.067	4636.97
887.383	4618.66
887.7	4622.96
888.017	4601.94
888.334	4651.88
888.651	4612.11
888.967	4596.07
889.284	4555.39
889.6	4559.68
889.917	4560.59
890.233	4549.51
890.55	4518.33
890.866	4549.97
891.182	4496.41
891.498	4485.11
891.815	4533.47
892.131	4507.25
892.447	4485.33
892.763	4479.46
893.079	4443.98
893.395	4442.62
893.71	4443.08
894.026	4411.66
894.342	4446.01
894.657	4372.79
894.973	4335.51
895.289	4340.03
895.604	4417.99
895.92	4368.27
896.235	4372.57
896.55	4314.04
896.865	4295.28
897.181	4287.83
897.496	4315.17
897.811	4272.23
898.126	4224.78
898.441	4290.76
898.756	4266.36
899.071	4270.2
899.386	4203.99
899.7	4181.39
900.015	4132.8
900.33	4152.01
900.644	4149.75
900.959	4167.83
901.273	4115.4
901.588	4125.8
901.902	4082.41
902.216	4116.3
902.531	4086.7
902.845	4036.31
903.159	4032.01
903.473	4014.84
903.787	4032.69
904.101	4022.75
904.415	3996.53
904.729	3999.47
905.042	3953.14
905.356	3938.46
905.67	3957.44
905.984	3995.18
906.297	3938
906.611	3897.33
906.924	3906.37
907.237	3840.83
907.551	3886.93
907.864	3883.09
908.177	3875.18
908.491	3883.32
908.804	3774.84
909.117	3782.53
909.43	3789.53
909.743	3776.2
910.056	3775.07
910.368	3710.67
910.681	3753.15
910.994	3715.41
911.307	3740.72
911.619	3681.97
911.932	3731.91
912.244	3706.82
912.557	3653.27
912.869	3635.19
913.181	3627.96
913.494	3622.08
913.806	3579.37
914.118	3610.33
914.43	3552.93
914.742	3559.93
915.054	3588.63
915.366	3551.57
915.678	3513.38
915.99	3509.54
916.302	3494.85
916.613	3511.8
916.925	3484.46
917.236	3494.85
917.548	3458.92
917.859	3430.9
918.171	3465.93
918.482	3395.42
918.794	3418.92
919.105	3375.31
919.416	3364.23
919.727	3396.55
920.038	3328.53
920.349	3336.44
920.66	3304.12
920.971	3338.25
921.282	3355.42
921.593	3312.03
921.903	3319.71
922.214	3290.34
922.525	3246.04
922.835	3246.04
923.146	3253.5
923.456	3219.15
923.767	3193.39
924.077	3219.38
924.387	3228.42
924.697	3172.15
925.008	3157.46
925.318	3163.56
925.628	3178.48
925.938	3150.91
926.248	3095.99
926.558	3105.26
926.867	3103.9
927.177	3112.04
927.487	3078.14
927.796	3087.18
928.106	3044.92
928.416	3023
928.725	3058.93
929.034	3027.75
929.344	3015.99
929.653	3015.54
929.962	2971.48
930.271	2965.6
930.581	2965.6
930.89	2923.12
931.199	2948.43
931.508	2931.48
931.817	2919.27
932.125	2923.12
932.434	2916.56
932.743	2891.48
933.051	2861.2
933.36	2858.26
933.669	2865.49
933.977	2849.9
934.286	2848.77
934.594	2818.03
934.902	2824.59
935.21	2799.05
935.519	2799.73
935.827	2805.38
936.135	2788.43
936.443	2771.48
936.751	2774.42
937.059	2782.1
937.367	2745.04
937.674	2722.67
937.982	2711.37
938.29	2735.55
938.597	2713.86
938.905	2663.91
939.213	2691.93
939.52	2690.8
939.827	2651.71
940.135	2616.46
940.442	2635.21
940.749	2652.61
941.056	2640.41
941.363	2590.24
941.67	2608.32
941.977	2584.37
942.284	2566.51
942.591	2572.39
942.898	2548.44
943.205	2543.46
943.511	2580.53
943.818	2528.78
944.125	2492.84
944.431	2512.28
944.738	2510.02
945.044	2474.54
945.35	2486.97
945.657	2473.64
945.963	2448.1
946.269	2474.09
946.575	2459.62
946.881	2426.18
947.187	2446.52
947.493	2429.79
947.799	2423.92
948.105	2392.06
948.41	2401.77
948.716	2374.66
949.022	2385.28
949.327	2399.74
949.633	2346.86
949.938	2348.89
950.244	2344.83
950.549	2337.37
950.854	2332.17
951.16	2284.26
951.465	2332.85
951.77	2295.34
952.075	2283.36
952.38	2303.02
952.685	2287.65
952.99	2280.42
953.294	2245.84
953.599	2261.44
953.904	2252.17
954.209	2240.87
954.513	2229.57
954.818	2218.05
955.122	2235.45
955.426	2187.09
955.731	2208.33
956.035	2161.1
956.339	2169.69
956.643	2173.3
956.948	2176.92
957.252	2151.38
957.556	2125.17
957.86	2143.7
958.163	2141.89
958.467	2096.47
958.771	2110.71
959.075	2102.57
959.378	2069.13
959.682	2105.96
959.985	2060.77
960.289	2055.57
960.592	2088.33
960.896	2073.19
961.199	2053.08
961.502	2041.78
961.805	2018.96
962.108	2051.05
962.411	2013.31
962.714	2005.17
963.017	2036.36
963.32	2006.08
963.623	2011.27
963.926	1989.81
964.228	1986.64
964.531	1963.59
964.833	1967.89
965.136	1945.97
965.438	1938.51
965.741	1935.34
966.043	1914.78
966.345	1931.5
966.648	1928.34
966.95	1898.74
967.252	1914.1
967.554	1908.9
967.856	1875.91
968.158	1882.92
968.46	1894.67
968.761	1886.76
969.063	1886.98
969.365	1854.67
969.666	1872.75
969.968	1853.54
970.269	1847.89
970.571	1846.76
970.872	1865.29
971.174	1847.89
971.475	1828.91
971.776	1782.58
972.077	1790.04
972.378	1808.79
972.679	1809.7
972.98	1792.75
973.281	1788.68
973.582	1738.97
973.883	1751.17
974.183	1748.23
974.484	1745.75
974.785	1757.72
975.085	1722.24
975.386	1703.49
975.686	1690.83
975.986	1712.3
976.287	1715.24
976.587	1695.8
976.887	1676.37
977.187	1708.23
977.487	1682.7
977.787	1678.63
978.087	1686.54
978.387	1670.49
978.687	1644.28
978.987	1630.95
979.286	1661
979.586	1643.37
979.885	1626.43
980.185	1616.03
980.484	1654.22
980.784	1614.68
981.083	1591.85
981.382	1598.86
981.682	1594.79
981.981	1573.55
982.28	1598.18
982.579	1575.13
982.878	1583.72
983.177	1571.06
983.475	1575.81
983.774	1553.21
984.073	1564.73
984.372	1535.81
984.67	1554.79
984.969	1535.81
985.267	1514.11
985.566	1502.36
985.864	1530.38
986.162	1512.76
986.461	1509.14
986.759	1518.41
987.057	1508.24
987.355	1487.9
987.653	1496.71
987.951	1451.52
988.249	1477.5
988.547	1503.49
988.844	1464.62
989.142	1448.8
989.44	1442.93
989.737	1453.1
990.035	1498.52
990.332	1423.95
990.63	1450.84
990.927	1416.26
991.224	1423.49
991.521	1415.58
991.819	1419.2
992.116	1393.89
992.413	1402.48
992.71	1363.16
993.006	1390.27
993.303	1363.83
993.6	1378.07
993.897	1367.68
994.193	1379.43
994.49	1357.51
994.787	1349.15
995.083	1349.15
995.379	1341.91
995.676	1334.46
995.972	1324.29
996.268	1322.25
996.565	1308.92
996.861	1314.8
997.157	1308.47
997.453	1305.3
997.749	1296.27
998.044	1291.75
998.34	1278.41
998.636	1255.36
998.932	1298.07
999.227	1275.02
999.523	1279.54
999.818	1270.73
1000.114	1232.54
1000.409	1269.6
1000.704	1253.55
1001	1253.55
1001.295	1215.82
1001.59	1222.59
1001.885	1235.48
1002.18	1223.72
1002.475	1223.05
1002.77	1173.1
1003.065	1166.78
1003.359	1173.33
1003.654	1199.77
1003.949	1150.73
1004.243	1177.85
1004.538	1193.67
1004.832	1174.91
1005.127	1175.36
1005.421	1149.38
1005.715	1162.71
1006.009	1122.48
1006.304	1131.07
1006.598	1120.45
1006.892	1130.39
1007.186	1125.42
1007.48	1096.72
1007.773	1113.22
1008.067	1108.47
1008.361	1099.21
1008.655	1105.31
1008.948	1090.17
1009.242	1087.91
1009.535	1091.52
1009.829	1082.49
1010.122	1090.62
1010.415	1073.22
1010.708	1074.35
1011.001	1041.13
1011.295	1054.69
1011.588	1058.76
1011.881	1051.3
1012.173	1021.47
1012.466	1042.71
1012.759	1037.52
1013.052	1031.64
1013.344	1018.98
1013.637	1017.18
1013.93	1016.27
1014.222	994.35
1014.514	1003.62
1014.807	1015.82
1015.099	981.92
1015.391	957.52
1015.683	986.67
1015.976	978.76
1016.268	986.22
1016.56	984.41
1016.851	967.91
1017.143	955.03
1017.435	928.59
1017.727	961.81
1018.018	942.15
1018.31	924.52
1018.602	941.7
1018.893	912.77
1019.185	907.8
1019.476	916.39
1019.767	917.29
1020.058	899.89
1020.35	913.9
1020.641	884.75
1020.932	890.85
1021.223	889.95
1021.514	906.45
1021.804	893.11
1022.095	881.14
1022.386	858.31
1022.677	854.92
1022.967	839.33
1023.258	847.92
1023.548	861.47
1023.839	839.1
1024.129	836.39
1024.419	825.54
1024.709	814.47
1025	816.5
1025.29	819.89
1025.58	820.35
1025.87	798.65
1026.16	811.31
1026.449	816.5
1026.739	800.23
1027.029	806.79
1027.319	814.02
1027.608	783.28
1027.898	801.82
1028.187	784.64
1028.477	785.77
1028.766	766.34
1029.055	796.62
1029.344	764.98
1029.634	761.59
1029.923	755.04
1030.212	749.16
1030.501	755.49
1030.79	754.58
1031.078	741.48
1031.367	731.76
1031.656	763.17
1031.945	710.97
1032.233	736.51
1032.522	732.66
1032.81	743.29
1033.099	724.3
1033.387	702.83
1033.675	722.95
1033.963	704.42
1034.251	712.33
1034.54	709.61
1034.828	697.19
1035.116	705.77
1035.403	688.15
1035.691	711.42
1035.979	700.35
1036.267	663.06
1036.554	680.24
1036.842	673.23
1037.129	674.36
1037.417	661.71
1037.704	680.46
1037.992	662.61
1038.279	677.75
1038.566	649.73
1038.853	649.73
1039.14	649.73
