Data from tablewood_brown_FLMS001491_058.txt Node
Date: Tue Feb 07 11:10:42 GMT 2017
User: dcchb
Spectrometer: FLMS00149
Trigger mode: 0
Integration Time (sec): 2.000000E-2
Scans to average: 10
Electric dark correction enabled: true
Nonlinearity correction enabled: false
Boxcar width: 0
XAxis mode: Wavelengths
Number of Pixels in Spectrum: 2048
>>>>>Begin Spectral Data<<<<<
341.393	-8.16
341.776	-8.16
342.16	-8.16
342.543	-82.51
342.927	-70.76
343.31	-78.67
343.693	-64.21
344.077	-63.98
344.46	-56.3
344.843	-42.06
345.226	-33.7
345.61	-16.3
345.993	-26.02
346.376	-8.16
346.759	-4.1
347.142	20.54
347.525	55.56
347.908	45.85
348.291	65.73
348.674	97.82
349.057	107.99
349.44	111.61
349.823	133.98
350.206	169.23
350.588	179.63
350.971	220.08
351.354	219.18
351.737	242.45
352.119	266.18
352.502	262.79
352.884	277.03
353.267	290.36
353.65	293.52
354.032	298.72
354.414	314.99
354.797	315.44
355.179	347.76
355.562	330.58
355.944	314.31
356.326	349.79
356.709	322.9
357.091	343.01
357.473	347.53
357.855	348.44
358.238	362.22
358.62	359.74
359.002	338.49
359.384	334.43
359.766	324.03
360.148	350.02
360.53	325.16
360.912	366.52
361.294	333.07
361.676	347.53
362.057	340.98
362.439	352.28
362.821	326.29
363.203	342.56
363.584	325.84
363.966	336.23
364.348	339.85
364.729	345.73
365.111	326.97
365.493	320.87
365.874	336.46
366.256	334.88
366.637	341.21
367.019	340.53
367.4	324.71
367.781	338.04
368.163	312.05
368.544	342.11
368.925	325.84
369.306	336.46
369.688	331.71
370.069	344.82
370.45	328.55
370.831	332.17
371.212	326.06
371.593	344.37
371.974	333.52
372.355	324.26
372.736	332.84
373.117	350.47
373.498	350.25
373.879	328.78
374.26	324.03
374.641	348.44
375.021	343.69
375.402	338.72
375.783	356.12
376.163	381.2
376.544	372.62
376.925	364.26
377.305	357.25
377.686	367.19
378.066	368.1
378.447	360.87
378.827	335.78
379.208	348.21
379.588	348.44
379.968	361.32
380.349	368.1
380.729	355.89
381.109	360.19
381.489	358.83
381.87	371.49
382.25	379.4
382.63	404.48
383.01	371.71
383.39	393.86
383.77	377.36
384.15	367.19
384.53	386.18
384.91	377.59
385.29	414.65
385.67	386.18
386.049	404.25
386.429	429.34
386.809	394.76
387.189	406.74
387.568	409.68
387.948	411.26
388.328	437.47
388.707	423.69
389.087	432.5
389.466	422.56
389.846	411.26
390.225	422.56
390.605	439.73
390.984	404.25
391.363	445.61
391.743	448.1
392.122	440.86
392.501	442.22
392.881	460.3
393.26	465.04
393.639	453.52
394.018	458.49
394.397	459.85
394.776	457.36
395.155	461.65
395.534	471.82
395.913	493.97
396.292	480.41
396.671	472.5
397.05	490.13
397.429	486.06
397.808	515.89
398.186	483.12
398.565	489.68
398.944	523.12
399.323	522.44
399.701	534.87
400.08	533.74
400.458	543.01
400.837	533.29
401.215	540.75
401.594	533.74
401.972	545.72
402.351	529.45
402.729	522.9
403.107	566.28
403.486	558.83
403.864	549.56
404.242	559.73
404.62	579.84
404.999	584.36
405.377	580.75
405.755	553.18
406.133	610.35
406.511	593.4
406.889	581.43
407.267	604.02
407.645	617.13
408.023	628.88
408.401	616.9
408.779	640.86
409.156	667.52
409.534	633.63
409.912	667.98
410.29	667.98
410.667	646.06
411.045	669.11
411.422	679.73
411.8	703
412.178	715.66
412.555	692.83
412.933	728.09
413.31	709.33
413.687	731.25
414.065	728.77
414.442	737.13
414.819	751.36
415.197	760.18
415.574	745.04
415.951	761.99
416.328	746.39
416.705	785.49
417.082	775.54
417.46	775.54
417.837	807.41
418.214	789.78
418.591	818.26
418.967	798.59
419.344	823
419.721	840.85
420.098	826.84
420.475	836.33
420.852	840.4
421.228	848.76
421.605	834.53
421.982	846.73
422.358	877.24
422.735	864.58
423.111	865.49
423.488	900.74
423.864	877.24
424.241	915.2
424.617	904.81
424.994	932.83
425.37	920.4
425.746	946.39
426.123	950
426.499	956.33
426.875	953.62
427.251	990.23
427.627	1006.5
428.003	1007.63
428.379	993.39
428.756	1001.98
429.132	1026.16
429.507	1022.32
429.883	1036.1
430.259	1084.91
430.635	1053.73
431.011	1081.53
431.387	1146.16
431.763	1097.12
432.138	1118.36
432.514	1125.59
432.89	1143.22
433.265	1158.13
433.641	1148.87
434.016	1192.93
434.392	1200.17
434.767	1207.17
435.143	1231.35
435.518	1255.76
435.894	1265.25
436.269	1266.83
436.644	1274.29
437.02	1299.15
437.395	1285.59
437.77	1292.82
438.145	1305.7
438.52	1315.42
438.895	1347.73
439.271	1343.67
439.646	1378.92
440.021	1385.47
440.395	1410.1
440.77	1392.03
441.145	1425.7
441.52	1445.13
441.895	1432.25
442.27	1453.72
442.645	1467.73
443.019	1470.89
443.394	1497.11
443.769	1511.57
444.143	1515.41
444.518	1535.3
444.892	1509.31
445.267	1547.28
445.641	1538.46
446.016	1551.8
446.39	1575.98
446.764	1575.75
447.139	1560.61
447.513	1588.4
447.887	1608.97
448.262	1582.3
448.636	1634.96
449.01	1644.9
449.384	1639.48
449.758	1658.69
450.132	1699.59
450.506	1673.37
450.88	1694.16
451.254	1678.57
451.628	1707.72
452.002	1729.87
452.376	1760.83
452.75	1770.32
453.123	1777.33
453.497	1813.71
453.871	1815.29
454.244	1852.8
454.618	1865.23
454.992	1907.72
455.365	1878.79
455.739	1912.24
456.112	1967.38
456.486	1978.9
456.859	1990.2
457.232	2014.83
457.606	2027.94
457.979	2045.57
458.352	2051.22
458.725	2096.41
459.099	2113.36
459.472	2146.81
459.845	2219.8
460.218	2248.73
460.591	2208.95
460.964	2231.78
461.337	2308.84
461.71	2341.38
462.083	2378.21
462.456	2320.59
462.829	2381.15
463.201	2413.02
463.574	2437.87
463.947	2454.82
464.32	2523.07
464.692	2526.46
465.065	2584.76
465.438	2583.63
465.81	2608.26
466.183	2693.69
466.555	2732.56
466.928	2744.31
467.3	2753.12
467.672	2780.46
468.045	2865.21
468.417	2924.19
468.789	2929.16
469.161	2963.96
469.534	2992.66
469.906	3082.15
470.278	3083.51
470.65	3135.93
471.022	3206.89
471.394	3249.83
471.766	3287.57
472.138	3351.52
472.51	3448.47
472.882	3463.61
473.253	3513.55
473.625	3614.11
473.997	3666.54
474.369	3726.65
474.74	3763.49
475.112	3832.41
475.484	3907.67
475.855	3991.51
476.227	4030.15
476.598	4144.5
476.97	4193.53
477.341	4296.81
477.713	4389.91
478.084	4371.38
478.455	4571.6
478.827	4596.24
479.198	4764.82
479.569	4764.82
479.94	4921.88
480.311	4959.16
480.682	5095.88
481.053	5207.52
481.424	5281.64
481.795	5339.94
482.166	5411.13
482.537	5499.04
482.908	5657.68
483.279	5709.43
483.65	5830.33
484.021	5943.32
484.391	6031
484.762	6087.27
485.133	6142.86
485.503	6268.06
485.874	6419.46
486.244	6512.34
486.615	6612.91
486.985	6670.08
487.356	6863.97
487.726	6889.73
488.097	7058.77
488.467	7096.06
488.837	7252.66
489.207	7323.4
489.578	7372.43
489.948	7544.41
490.318	7673.89
490.688	7675.48
491.058	7755.02
491.428	7885.64
491.798	7980.55
492.168	8137.38
492.538	8172.41
492.908	8314.78
493.278	8420.99
493.648	8474.33
494.017	8600.2
494.387	8663.25
494.757	8699.18
495.126	8797.03
495.496	8881.77
495.866	8913.64
496.235	9015.1
496.605	9104.82
496.974	9235.21
497.344	9356.56
497.713	9298.71
498.082	9391.82
498.452	9495.32
498.821	9549.1
499.19	9629.78
499.559	9754.74
499.928	9770.34
500.298	9881.07
500.667	9947.73
501.036	9974.4
501.405	10062.53
501.774	10140.04
502.143	10232.92
502.512	10331.68
502.88	10392.92
503.249	10452.58
503.618	10500.03
503.987	10583.65
504.356	10651.44
504.724	10674.04
505.093	10789.29
505.462	10800.14
505.83	10935.96
506.199	11112.45
506.567	11164.65
506.936	11167.81
507.304	11356.96
507.672	11402.84
508.041	11433.8
508.409	11523.06
508.777	11612.1
509.145	11716.27
509.514	11753.79
509.882	11854.12
510.25	12045.98
510.618	12036.27
510.986	12029.03
511.354	12203.27
511.722	12362.13
512.09	12469.93
512.458	12407.56
512.826	12635.35
513.193	12744.27
513.561	12883.47
513.929	12950.59
514.297	13047.99
514.664	13094.32
515.032	13198.04
515.4	13336.34
515.767	13416.79
516.135	13489.33
516.502	13431.93
516.869	13693.4
517.237	13812.72
517.604	13747.86
517.972	13975.65
518.339	14135.19
518.706	14101.07
519.073	14279.6
519.44	14448.63
519.808	14581.96
520.175	14569.53
520.542	14750.54
520.909	14950.54
521.276	14915.96
521.643	15028.05
522.009	15261.04
522.376	15363.86
522.743	15432.33
523.11	15645.66
523.477	15781.03
523.843	15883.85
524.21	15941.7
524.577	16170.39
524.943	16235.25
525.31	16379.65
525.676	16495.13
526.043	16706.43
526.409	16722.7
526.776	16868.23
527.142	16997.04
527.508	17093.76
527.874	17246.3
528.241	17417.82
528.607	17376.92
528.973	17645.61
529.339	17699.85
529.705	17818.03
530.071	18009.22
530.437	18105.94
530.803	18168.53
531.169	18299.83
531.535	18307.96
531.901	18365.36
532.267	18456.66
532.632	18548.64
532.998	18809.42
533.364	18799.25
533.73	18834.73
534.095	19011.9
534.461	19159.47
534.826	19231.1
535.192	19239.92
535.557	19458.67
535.923	19360.82
536.288	19511.55
536.653	19568.72
537.019	19547.03
537.384	19711.32
537.749	19805.78
538.114	19902.27
538.479	19944.76
538.845	20009.84
539.21	19973.91
539.575	20159.67
539.94	20203.73
540.305	20380.68
540.67	20326.67
541.034	20380
541.399	20583.16
541.764	20654.57
542.129	20747.22
542.494	20806.43
542.858	20770.73
543.223	20922.81
543.587	20939.31
543.952	21058.63
544.316	21080.77
544.681	21050.72
545.045	21205.52
545.41	21365.51
545.774	21436.24
546.138	21478.5
546.503	21573.19
546.867	21584.49
547.231	21766.18
547.595	21778.83
547.959	21775.44
548.324	21995.1
548.688	22007.08
549.052	22226.05
549.416	22262.66
549.779	22299.95
550.143	22526.84
550.507	22444.35
550.871	22577.23
551.235	22630.34
551.599	22835.76
551.962	22900.84
552.326	22943.55
552.689	23243.2
553.053	23165.69
553.417	23237.1
553.78	23652.91
554.143	23507.38
554.507	23630.99
554.87	23785.34
555.234	24103.74
555.597	23897.87
555.96	24180.58
556.323	24330.63
556.686	24354.81
557.05	24663.96
557.413	24686.55
557.776	24741.24
558.139	25074.57
558.502	25138.07
558.865	25176.71
559.228	25407.44
559.59	25560.66
559.953	25720.2
560.316	26044.71
560.679	26082
561.041	26390.92
561.404	26402.44
561.767	26668.2
562.129	26650.34
562.492	26957
562.854	27024.57
563.217	27071.8
563.579	27436.09
563.941	27533.26
564.304	27692.58
564.666	27949.29
565.028	28005.11
565.39	28148.84
565.753	28472.22
566.115	28660.01
566.477	28793.11
566.839	28891.42
567.201	29231.29
567.563	29392.42
567.925	29645.75
568.287	29632.41
568.648	29721.22
569.01	30068.56
569.372	30292.96
569.734	30178.39
570.095	30568.43
570.457	30906.05
570.819	30848.43
571.18	31130.45
571.542	31443.89
571.903	31446.83
572.265	31802.07
572.626	31956.65
572.987	32033.25
573.349	32320.03
573.71	32517.76
574.071	32746.46
574.432	32823.06
574.794	33061.7
575.155	33115.26
575.516	33164.07
575.877	33418.53
576.238	33547.56
576.599	33866.65
576.96	33860.32
577.32	33931.28
577.681	34155.91
578.042	34181.45
578.403	34470.48
578.763	34495.34
579.124	34745.27
579.485	34931.71
579.845	35075.43
580.206	35041.08
580.566	35033.17
580.927	35224.81
581.287	35462.77
581.648	35379.38
582.008	35603.33
582.368	35695.08
582.728	35806.04
583.089	35739.82
583.449	35810.1
583.809	36038.35
584.169	36050.55
584.529	35959.7
584.889	36405.79
585.249	36210.32
585.609	36235.63
585.969	36345.23
586.329	36312.01
586.688	36613.02
587.048	36445.57
587.408	36403.53
587.768	36509.75
588.127	36520.14
588.487	36480.82
588.846	36848.72
589.206	36599.91
589.565	36697.54
589.925	36996.97
590.284	36867.02
590.643	36913.58
591.003	36969.62
591.362	37120.35
591.721	37022.5
592.08	37063.86
592.44	37144.08
592.799	37156.73
593.158	37189.5
593.517	37202.16
593.876	37232.67
594.235	37197.41
594.593	37143.63
594.952	37193.34
595.311	37219.78
595.67	37467.01
596.029	37657.51
596.387	37507.01
596.746	37568.02
597.104	37531.19
597.463	37465.65
597.822	37681.47
598.18	37654.35
598.538	37624.97
598.897	37698.87
599.255	37493.68
599.613	38083.26
599.972	37960.1
600.33	37886.89
600.688	37660.22
601.046	37821.12
601.404	38098.41
601.762	38086.88
602.12	38183.83
602.478	38208.23
602.836	38344.5
603.194	38118.29
603.552	38170.72
603.91	38169.14
604.268	38277.38
604.625	38033.77
604.983	38130.04
605.341	38045.53
605.698	38401.9
606.056	38434.22
606.413	38397.15
606.771	38467.21
607.128	38561.22
607.485	38423.59
607.843	38471.05
608.2	38631.05
608.557	38894.99
608.914	38570.26
609.272	38744.94
609.629	38748.11
609.986	38995.56
610.343	38670.82
610.7	39007.53
611.057	38855.67
611.414	38954.65
611.771	38984.48
612.127	39100.19
612.484	39148.55
612.841	39311.93
613.198	39172.95
613.554	39159.62
613.911	39444.58
614.267	39434.19
614.624	39323.68
614.98	39374.08
615.337	39587.18
615.693	39419.05
616.05	39357.13
616.406	39653.39
616.762	39539.72
617.118	39521.42
617.475	39571.59
617.831	39653.84
618.187	39703.11
618.543	39676.44
618.899	39817.68
619.255	39805.25
619.611	39830.11
619.967	40042.08
620.323	40089.54
620.678	39950.56
621.034	39668.76
621.39	39844.35
621.746	39863.78
622.101	40179.03
622.457	39872.6
622.812	39944.91
623.168	40126.37
623.523	40173.6
623.879	40340.15
624.234	39954.18
624.589	40166.37
624.945	40172.02
625.3	40090.44
625.655	40207.28
626.01	40244.56
626.365	40155.53
626.72	40012.93
627.075	40056.09
627.43	40074.62
627.785	39898.58
628.14	40040.27
628.495	40069.43
628.85	39930.45
629.205	39905.36
629.559	40099.93
629.914	39912.37
630.269	39844.8
630.623	39866.95
630.978	39797.34
631.332	39971.58
631.687	39901.3
632.041	39711.7
632.396	39887.51
632.75	39649.78
633.104	39720.06
633.459	39424.02
633.813	39428.99
634.167	39635.77
634.521	39499.27
634.875	39521.87
635.229	39575.65
635.583	39281.42
635.937	39421.08
636.291	39301.99
636.645	39404.59
636.999	39248.66
637.352	39330.91
637.706	39036.91
638.06	39271.93
638.413	39193.97
638.767	39047.98
639.121	39141.99
639.474	38821.78
639.828	38910.59
640.181	38952.85
640.534	38873.53
640.888	38833.3
641.241	38585.62
641.594	38660.2
641.947	38837.37
642.301	38659.29
642.654	38817.93
643.007	38562.8
643.36	38618.84
643.713	38539.75
644.066	38721.67
644.419	38443.71
644.771	38310.83
645.124	37877.62
645.477	38001.23
645.83	37600.34
646.182	37495.26
646.535	37408.71
646.888	37401.02
647.24	37189.05
647.593	37365.99
647.945	37246.9
648.298	37240.57
648.65	37047.36
649.002	37027.25
649.355	37243.06
649.707	37234.47
650.059	37304.98
650.411	37689.6
650.763	37857.96
651.115	38098.86
651.467	37973.21
651.819	37957.84
652.171	37796.49
652.523	37871.97
652.875	37916.71
653.227	37803.05
653.578	37975.7
653.93	37879.43
654.282	37643.05
654.633	37554.92
654.985	37785.19
655.337	37636.95
655.688	37773.67
656.039	37809.83
656.391	37450.06
656.742	37616.84
657.094	37669.04
657.445	37776.38
657.796	37594.01
658.147	37518.76
658.498	37590.4
658.849	37675.82
659.2	37571.87
659.551	37560.79
659.902	37619.1
660.253	37502.04
660.604	37681.01
660.955	37459.78
661.306	37536.61
661.656	37508.14
662.007	37534.58
662.358	37499.78
662.708	37419.55
663.059	37513.11
663.409	37231.31
663.76	37524.41
664.11	37359.89
664.461	37532.32
664.811	37462.94
665.161	37478.08
665.511	37239.67
665.862	37218.88
666.212	37374.36
666.562	37587.91
666.912	37544.3
667.262	37320.57
667.612	37422.26
667.962	37457.07
668.312	37344.3
668.662	37498.19
669.011	37426.33
669.361	37336.84
669.711	37226.11
670.06	37175.04
670.41	37066.34
670.76	37148.83
671.109	37272.89
671.459	37224.08
671.808	37248.48
672.157	37113.35
672.507	36875.16
672.856	37061.6
673.205	36977.08
673.554	37178.88
673.904	36900.24
674.253	37159.22
674.602	36923.97
674.951	36545.68
675.3	36273.82
675.649	36841.26
675.998	36870.41
676.346	36852.56
676.695	36867.93
677.044	36733.47
677.393	36847.14
677.741	36709.29
678.09	36797.65
678.438	36498.22
678.787	36594.72
679.135	36524.44
679.484	36279.7
679.832	36521.27
680.181	36282.18
680.529	36357.43
680.877	36265.68
681.225	36349.52
681.573	36482.4
681.922	36170.55
682.27	36003.77
682.618	36034.28
682.966	35991.57
683.314	35953.15
683.661	35811.01
684.009	35695.76
684.357	35693.72
684.705	35760.61
685.053	35760.16
685.4	35544.57
685.748	35559.94
686.095	35390
686.443	35224.36
686.79	35194.53
687.138	35303
687.485	35167.41
687.832	35085.38
688.18	35090.8
688.527	34837.02
688.874	34838.15
689.221	34611.49
689.568	34644.48
689.915	34500.99
690.262	34565.39
690.609	34487.88
690.956	34384.38
691.303	34357.71
691.65	34113.88
691.997	34136.25
692.344	33909.59
692.69	33886.09
693.037	33889.93
693.383	33656.71
693.73	33805.41
694.077	33554.8
694.423	33578.75
694.769	33410.17
695.116	33425.31
695.462	33254.69
695.808	33188.7
696.155	33188.93
696.501	32825.1
696.847	32952.78
697.193	32610.41
697.539	32681.37
697.885	32473.47
698.231	32328.61
698.577	32384.43
698.923	32222.4
699.269	32120.71
699.614	32073.93
699.96	31887.95
700.306	31801.4
700.651	31693.83
700.997	31563.44
701.342	31530.89
701.688	31449.54
702.033	31392.59
702.379	31297.68
702.724	31209.55
703.069	31262.2
703.415	30789.9
703.76	30904.7
704.105	30899.95
704.45	30777.69
704.795	30641.65
705.14	30544.93
705.485	30538.83
705.83	30351.72
706.175	30365.05
706.52	30306.97
706.865	30149.46
707.209	30267.42
707.554	30128.67
707.899	30112.17
708.243	29810.49
708.588	29776.14
708.932	29637.16
709.277	29649.81
709.621	29682.58
709.966	29439.88
710.31	29432.19
710.654	29302.25
710.998	29215.47
711.342	29197.4
711.687	29229.49
712.031	28987.01
712.375	28899.78
712.719	28947.91
713.063	28992.2
713.407	28858.42
713.75	28813.9
714.094	28768.71
714.438	28711.53
714.782	28841.02
715.125	28588.6
715.469	28594.02
715.812	28493.91
716.156	28323.07
716.499	28315.39
716.843	28439.9
717.186	28158.1
717.53	28323.29
717.873	28299.34
718.216	28237.42
718.559	28128.5
718.902	27972.57
719.246	28029.29
719.589	28019.12
719.932	27911.1
720.275	27922.18
720.617	27888.05
720.96	27876.3
721.303	27794.04
721.646	27795.85
721.989	27668.62
722.331	27643.31
722.674	27629.53
723.016	27757.66
723.359	27655.06
723.701	27624.56
724.044	27539.13
724.386	27394.51
724.729	27418.23
725.071	27485.35
725.413	27373.94
725.755	27290.55
726.097	27287.16
726.439	27131.24
726.782	27333.04
727.124	27447.61
727.465	27190.44
727.807	27115.87
728.149	27091.91
728.491	26979.38
728.833	27208.3
729.175	26973.95
729.516	27154.51
729.858	27000.84
730.199	27019.6
730.541	27077.9
730.882	26979.83
731.224	26957.23
731.565	26834.07
731.906	26991.35
732.248	26895.08
732.589	26804.01
732.93	26701.19
733.271	26812.37
733.612	26808.31
733.953	26800.85
734.294	26689.21
734.635	26660.74
734.976	26710.91
735.317	26767.63
735.658	26624.13
735.999	26609.67
736.339	26580.97
736.68	26821.19
737.021	26553.85
737.361	26395.89
737.702	26718.14
738.042	26706.16
738.383	26446.28
738.723	26551.82
739.063	26486.51
739.404	26691.7
739.744	26528.09
740.084	26518.6
740.424	26465.04
740.764	26572.15
741.104	26460.74
741.444	26387.07
741.784	26304.82
742.124	26401.99
742.464	26376
742.804	26323.8
743.143	26232.73
743.483	26396.34
743.823	26140.08
744.162	26249.9
744.502	26371.71
744.841	26193.63
745.181	26295.1
745.52	26207.42
745.86	26214.88
746.199	26322.67
746.538	26318.15
746.877	26295.1
747.216	26166.52
747.556	26106.63
747.895	26113.64
748.234	26031.38
748.573	26094.88
748.911	26132.17
749.25	25937.37
749.589	25911.83
749.928	25949.57
750.267	26049.23
750.605	25995.67
750.944	26069.12
751.283	25862.79
751.621	25997.71
751.96	25744.38
752.298	25721.33
752.636	25835.45
752.975	25551.39
753.313	25606.76
753.651	25742.35
753.989	25571.5
754.327	25583.93
754.666	25383.26
755.004	25482.92
755.342	25399.53
755.679	25455.35
756.017	25209.03
756.355	25438.17
756.693	25310.72
757.031	25343.26
757.368	25197.73
757.706	25062.82
758.044	25023.49
758.381	25051.52
758.719	24907.79
759.056	24971.52
759.394	24950.73
759.731	24710.96
760.068	24745.76
760.405	24630.06
760.743	24539.44
761.08	24684.75
761.417	24561.59
761.754	24429.16
762.091	24444.07
762.428	24290.63
762.765	24132.9
763.102	24313
763.438	24194.36
763.775	24043.18
764.112	23952.56
764.449	24092.67
764.785	23937.2
765.122	23707.82
765.458	23697.88
765.795	23598.9
766.131	23637.99
766.467	23475.74
766.804	23431.45
767.14	23297.89
767.476	23354.84
767.812	23276.2
768.148	23276.2
768.485	23101.96
768.821	23035.75
769.157	22941.97
769.492	22889.77
769.828	22863.55
770.164	22619.49
770.5	22683.9
770.836	22606.16
771.171	22447.29
771.507	22454.07
771.842	22319.16
772.178	22377.69
772.513	22318.03
772.849	22236.68
773.184	22109.22
773.519	22030.58
773.855	21951.94
774.19	21923.46
774.525	21663.58
774.86	21693.41
775.195	21672.17
775.53	21620.42
775.865	21585.84
776.2	21303.14
776.535	21180.43
776.87	21248.68
777.205	21172.07
777.539	21079.64
777.874	21058.85
778.209	20856.37
778.543	20822.25
778.878	20672.87
779.212	20712.42
779.547	20599.43
779.881	20581.35
780.215	20503.39
780.55	20518.53
780.884	20340.91
781.218	20355.82
781.552	20304.75
781.886	20085.09
782.22	20024.53
782.554	20029.95
782.888	19840.81
783.222	19770.07
783.556	19682.62
783.889	19690.3
784.223	19553.58
784.557	19462.74
784.89	19562.62
785.224	19333.02
785.557	19325.57
785.891	19299.8
786.224	19219.13
786.558	19196.76
786.891	19003.54
787.224	18952.69
787.557	18928.29
787.891	18993.6
788.224	18806.03
788.557	18788.63
788.89	18806.93
789.223	18776.2
789.556	18590.44
789.888	18474.29
790.221	18486.27
790.554	18364.01
790.887	18327.63
791.219	18274.52
791.552	18230.68
791.884	18115.65
792.217	18025.71
792.549	17947.3
792.882	17956.56
793.214	17772.16
793.546	17849.67
793.879	17743.91
794.211	17606.29
794.543	17669.56
794.875	17611.94
795.207	17678.38
795.539	17515.9
795.871	17464.15
796.203	17311.83
796.535	17284.26
796.867	17138.96
797.198	17137.37
797.53	17215.79
797.862	17122.01
798.193	17123.14
798.525	16952.29
798.856	17009.47
799.188	16842.69
799.519	16737.61
799.85	16649.7
800.182	16725.63
800.513	16635.24
800.844	16504.17
801.175	16488.13
801.506	16524.06
801.837	16420.78
802.168	16414.23
802.499	16331.75
802.83	16280.9
803.161	16186.44
803.491	16121.36
803.822	16143.28
804.153	16073.22
804.483	15973.11
804.814	15874.81
805.145	15955.71
805.475	15910.97
805.805	15833.45
806.136	15845.2
806.466	15819.67
806.796	15743.96
807.126	15740.8
807.457	15593.01
807.787	15636.62
808.117	15526.12
808.447	15524.08
808.777	15476.85
809.107	15374.93
809.436	15385.33
809.766	15381.71
810.096	15305.33
810.426	15333.58
810.755	15182.85
811.085	15193.7
811.414	15051.78
811.744	14961.61
812.073	15009.97
812.403	14931.78
812.732	14962.74
813.061	14960.93
813.39	14849.3
813.719	14837.32
814.049	14885.23
814.378	14906.47
814.707	14742.63
815.036	14821.73
815.365	14671.9
815.693	14546.48
816.022	14603.88
816.351	14428.97
816.68	14399.37
817.008	14445.69
817.337	14322.98
817.665	14381.97
817.994	14414.73
818.322	14318.92
818.651	14221.07
818.979	14159.15
819.307	14185.81
819.636	14237.79
819.964	14114.4
820.292	14143.33
820.62	14203.44
820.948	14123.89
821.276	14100.39
821.604	14056.55
821.932	14059.72
822.259	14157.79
822.587	14070.34
822.915	14061.75
823.243	14088.87
823.57	14049.77
823.898	14037.12
824.225	14029.21
824.553	13993.28
824.88	13940.4
825.207	14035.76
825.535	14030.11
825.862	13997.12
826.189	13981.98
826.516	14072.82
826.843	14026.95
827.17	14101.52
827.497	13962.77
827.824	14068.08
828.151	14133.61
828.478	13919.83
828.805	14073.95
829.131	13998.02
829.458	13921.64
829.785	13915.09
830.111	14037.12
830.438	14013.16
830.764	13991.92
831.09	14047.96
831.417	13923.9
831.743	14008.87
832.069	13923.9
832.395	13846.84
832.722	14013.16
833.048	13840.06
833.374	13869.66
833.7	13850.91
834.026	13869.21
834.351	13976.1
834.677	13840.96
835.003	13781.53
835.329	13827.18
835.654	13795.99
835.98	13779.27
836.306	13829.44
836.631	13645.04
836.956	13760.51
837.282	13735.66
837.607	13706.73
837.932	13598.94
838.258	13613.4
838.583	13549.9
838.908	13542.21
839.233	13567.52
839.558	13492.95
839.883	13500.18
840.208	13458.15
840.533	13446.85
840.858	13486.85
841.182	13416.57
841.507	13360.98
841.832	13391.48
842.156	13300.64
842.481	13352.84
842.805	13327.08
843.13	13232.39
843.454	13234.2
843.778	13087.31
844.103	13111.94
844.427	13093.86
844.751	13098.38
845.075	13092.51
845.399	13049.12
845.723	12908.33
846.047	12940.2
846.371	12810.03
846.695	12880.76
847.019	12704.04
847.343	12721.67
847.666	12667.89
847.99	12483.26
848.313	12468.57
848.637	12422.02
848.96	12437.84
849.284	12459.31
849.607	12325.3
849.931	12330.95
850.254	12219.99
850.577	12184.51
850.9	12064.74
851.223	12044.85
851.546	11975.25
851.869	11951.3
852.192	11988.58
852.515	11867.91
852.838	11772.77
853.161	11777.06
853.483	11721.02
853.806	11722.38
854.129	11687.8
854.451	11602.38
854.774	11681.25
855.096	11555.83
855.419	11528.93
855.741	11480.12
856.063	11446.9
856.385	11444.19
856.708	11377.98
857.03	11379.11
857.352	11368.71
857.674	11314.02
857.996	11218.43
858.318	11244.87
858.64	11254.14
858.961	11181.82
859.283	11176.63
859.605	11083.07
859.926	11139.79
860.248	11081.04
860.57	11037.65
860.891	10995.84
861.212	10926.24
861.534	10927.14
861.855	10877.65
862.176	10932.34
862.498	10874.26
862.819	10943.19
863.14	10813.47
863.461	10850.76
863.782	10764.21
864.103	10792.23
864.424	10693.7
864.745	10773.93
865.065	10663.65
865.386	10651.67
865.707	10637.88
866.027	10695.96
866.348	10666.58
866.668	10631.1
866.989	10545.01
867.309	10517.66
867.63	10552.01
867.95	10552.91
868.27	10443.99
868.59	10481.96
868.91	10475.63
869.23	10507.72
869.55	10441.51
869.87	10493.48
870.19	10417.55
870.51	10427.49
870.83	10395.86
871.15	10322.64
871.469	10313.82
871.789	10286.25
872.109	10288.97
872.428	10260.27
872.748	10264.79
873.067	10238.8
873.386	10230.44
873.706	10267.95
874.025	10234.96
874.344	10184.11
874.663	10230.89
874.982	10157.44
875.301	10161.74
875.62	10105.24
875.939	10075.87
876.258	10083.55
876.577	10104.11
876.896	10072.48
877.214	10012.82
877.533	10003.1
877.852	9991.35
878.17	10019.82
878.489	9982.99
878.807	9937.79
879.125	9925.13
879.444	9857.79
879.762	9875.42
880.08	9953.83
880.398	9847.17
880.716	9822.31
881.034	9797.68
881.352	9747.51
881.67	9787.51
881.988	9729.89
882.306	9760.17
882.624	9707.51
882.941	9744.8
883.259	9649.66
883.577	9597.01
883.894	9631.36
884.212	9599.72
884.529	9677.46
884.846	9517.01
885.164	9538.7
885.481	9495.77
885.798	9575.77
886.115	9441.53
886.432	9446.28
886.75	9430.46
887.067	9394.08
887.383	9441.98
887.7	9381.42
888.017	9386.39
888.334	9335.32
888.651	9290.35
888.967	9291.25
889.284	9256
889.6	9266.85
889.917	9168.32
890.233	9183.01
890.55	9078.6
890.866	9115.44
891.182	9075.89
891.498	9047.64
891.815	9038.15
892.131	8995.22
892.447	8997.93
892.763	8958.61
893.079	8973.97
893.395	8923.58
893.71	8938.49
894.026	8850.59
894.342	8854.88
894.657	8803.81
894.973	8833.86
895.289	8754.32
895.604	8740.98
895.92	8651.5
896.235	8634.32
896.55	8659.41
896.865	8572.63
897.181	8571.95
897.496	8512.29
897.811	8544.61
898.126	8406.3
898.441	8423.25
898.756	8483.14
899.071	8369.92
899.386	8407.66
899.7	8329.92
900.015	8317.72
900.33	8259.64
900.644	8204.95
900.959	8253.99
901.273	8243.6
901.588	8210.15
901.902	8126.99
902.216	8098.74
902.531	8099.42
902.845	8050.38
903.159	8048.57
903.473	7999.31
903.787	7974.9
904.101	7907.79
904.415	7940.55
904.729	7886.09
905.042	7898.07
905.356	7798.41
905.67	7826.43
905.984	7753.89
906.297	7759.32
906.611	7774.46
906.924	7674.35
907.237	7717.73
907.551	7663.95
907.864	7599.09
908.177	7584.41
908.491	7581.24
908.804	7559.77
909.117	7465.54
909.43	7449.49
909.743	7357.07
910.056	7343.73
910.368	7401.81
910.681	7304.41
910.994	7327.24
911.307	7235.71
911.619	7215.6
911.932	7277.52
912.244	7162.27
912.557	7168.82
912.869	7113.23
913.181	7072.78
913.494	7087.47
913.806	7031.43
914.118	7053.12
914.43	6924.08
914.742	6992.33
915.054	6924.31
915.366	6906.23
915.678	6887.25
915.99	6778.32
916.302	6815.16
916.613	6760.92
916.925	6746.01
917.236	6703.07
917.548	6690.42
917.859	6750.98
918.171	6581.95
918.482	6585.56
918.794	6611.55
919.105	6568.39
919.416	6512.79
919.727	6488.84
920.038	6492.23
920.349	6414.04
920.66	6369.3
920.971	6390.76
921.282	6377.66
921.593	6337.43
921.903	6287.49
922.214	6319.81
922.525	6310.31
922.835	6202.52
923.146	6201.84
923.456	6175.18
923.767	6126.82
924.077	6173.59
924.387	6096.31
924.697	6044.78
925.008	6027.16
925.318	6012.7
925.628	5997.55
925.938	5992.36
926.248	5989.19
926.558	5948.29
926.867	5932.92
927.177	5838.46
927.487	5845.24
927.796	5803.66
928.106	5786.94
928.416	5781.51
928.725	5749.43
929.034	5749.2
929.344	5718.47
929.653	5707.62
929.962	5618.58
930.271	5604.12
930.581	5598.92
930.89	5578.13
931.199	5544.68
931.508	5563.67
931.817	5562.99
932.125	5495.19
932.434	5502.2
932.743	5481.18
933.051	5433.73
933.36	5466.72
933.669	5413.61
933.977	5368.87
934.286	5303.11
934.594	5280.06
934.902	5288.19
935.21	5261.08
935.519	5222.66
935.827	5155.54
936.135	5171.36
936.443	5119.84
936.751	5157.12
937.059	5164.36
937.367	5111.25
937.674	5118.48
937.982	5024.02
938.29	5044.58
938.597	5022.21
938.905	4919.62
939.213	4930.24
939.52	4939.28
939.827	4977.24
940.135	4880.75
940.442	4876.68
940.749	4878.94
941.056	4847.53
941.363	4871.26
941.67	4761.88
941.977	4792.39
942.284	4772.05
942.591	4717.59
942.898	4739.73
943.205	4748.32
943.511	4699.06
943.818	4680.98
944.125	4651.37
944.431	4632.17
944.738	4627.19
945.044	4583.35
945.35	4556.91
945.657	4533.41
945.963	4523.92
946.269	4534.09
946.575	4465.39
946.881	4485.28
947.187	4475.33
947.493	4415.22
947.799	4403.47
948.105	4345.85
948.41	4344.49
948.716	4350.82
949.022	4359.18
949.327	4298.84
949.633	4280.09
949.938	4295
950.244	4256.81
950.549	4228.79
950.854	4184.72
951.16	4193.99
951.465	4233.76
951.77	4146.76
952.075	4146.76
952.38	4124.16
952.685	4116.47
952.99	4094.33
953.294	4120.99
953.599	4088.9
953.904	4028.57
954.209	4017.72
954.513	4045.74
954.818	3964.61
955.122	3993.09
955.426	3942.92
955.731	3947.89
956.035	3902.92
956.339	3924.84
956.643	3888.01
956.948	3888.01
957.252	3819.53
957.556	3857.27
957.86	3837.84
958.163	3814.79
958.467	3812.53
958.771	3783.83
959.075	3762.13
959.378	3728.46
959.682	3753.77
959.985	3743.83
960.289	3683.26
960.592	3657.28
960.896	3664.96
961.199	3674.45
961.502	3622.48
961.805	3608.01
962.108	3602.59
962.411	3594.23
962.714	3541.57
963.017	3551.74
963.32	3514.91
963.623	3541.8
963.926	3471.29
964.228	3495.25
964.531	3473.1
964.833	3545.19
965.136	3405.76
965.438	3429.03
965.741	3421.35
966.043	3452.76
966.345	3407.34
966.648	3406.89
966.95	3365.53
967.252	3340.9
967.554	3337.74
967.856	3359.88
968.158	3310.85
968.46	3295.48
968.761	3317.62
969.063	3271.3
969.365	3252.54
969.666	3257.74
969.968	3233.79
970.269	3190.85
970.571	3237.17
970.872	3216.61
971.174	3169.38
971.475	3147.01
971.776	3150.4
972.077	3138.42
972.378	3156.72
972.679	3133.67
972.98	3097.97
973.281	3083.05
973.582	3034.24
973.883	3060.46
974.183	3053.68
974.484	3055.26
974.785	3009.61
975.085	3001.02
975.386	2980.68
975.686	2979.78
975.986	2932.1
976.287	2949.5
976.587	2874.25
976.887	2911.53
977.187	2915.15
977.487	2930.74
977.787	2851.87
978.087	2858.65
978.387	2856.85
978.687	2844.19
978.987	2831.08
979.286	2812.33
979.586	2847.81
979.885	2794.25
980.185	2775.72
980.484	2743.63
980.784	2732.78
981.083	2733.91
981.382	2754.7
981.682	2686
981.981	2717.41
982.28	2694.82
982.579	2659.34
982.878	2681.71
983.177	2691.43
983.475	2644.42
983.774	2626.57
984.073	2610.3
984.372	2603.97
984.67	2607.13
984.969	2601.94
985.267	2582.28
985.566	2548.38
985.864	2538.66
986.162	2521.71
986.461	2505.67
986.759	2502.28
987.057	2475.39
987.355	2475.16
987.653	2454.6
987.951	2469.06
988.249	2496.63
988.547	2440.59
988.844	2454.6
989.142	2420.93
989.44	2424.99
989.737	2432.9
990.035	2425.44
990.332	2373.47
990.63	2362.4
990.927	2340.7
991.224	2366.24
991.521	2324.43
991.819	2338.67
992.116	2335.96
992.413	2294.83
992.71	2325.56
993.006	2284.21
993.303	2260.7
993.6	2278.33
993.897	2285.56
994.193	2285.11
994.49	2205.34
994.787	2248.5
995.083	2228.84
995.379	2234.26
995.676	2188.39
995.972	2191.55
996.268	2172.34
996.565	2168.28
996.861	2154.27
997.157	2145.68
997.453	2147.26
997.749	2146.13
998.044	2092.35
998.34	2098.45
998.636	2116.75
998.932	2080.82
999.227	2037.66
999.523	2061.39
999.818	2056.87
1000.114	2002.18
1000.409	2011.44
1000.704	2035.4
1001	2023.42
1001.295	1973.03
1001.59	1986.36
1001.885	1979.81
1002.18	1937.77
1002.475	1963.31
1002.77	1964.89
1003.065	1942.97
1003.359	1912.24
1003.654	1912.01
1003.949	1869.75
1004.243	1885.8
1004.538	1905.23
1004.832	1882.63
1005.127	1876.76
1005.421	1827.27
1005.715	1850.77
1006.009	1824.1
1006.304	1818.46
1006.598	1811.9
1006.892	1802.86
1007.186	1799.7
1007.48	1803.54
1007.773	1770.09
1008.067	1762.64
1008.361	1734.16
1008.655	1748.85
1008.948	1703.2
1009.242	1753.82
1009.535	1692.13
1009.829	1677.44
1010.122	1720.83
1010.415	1678.35
1010.708	1663.2
1011.001	1681.96
1011.295	1668.18
1011.588	1639.93
1011.881	1627.95
1012.173	1622.98
1012.466	1624.79
1012.759	1608.07
1013.052	1601.96
1013.344	1594.73
1013.637	1577.78
1013.93	1596.31
1014.222	1574.17
1014.514	1565.81
1014.807	1567.84
1015.099	1545.92
1015.391	1533.94
1015.683	1534.39
1015.976	1508.63
1016.268	1498.01
1016.56	1515.64
1016.851	1486.49
1017.143	1462.98
1017.435	1446.94
1017.727	1484.23
1018.018	1432.7
1018.31	1443.55
1018.602	1436.09
1018.893	1419.14
1019.185	1412.14
1019.476	1376.66
1019.767	1399.26
1020.058	1384.57
1020.35	1343.67
1020.641	1389.31
1020.932	1371.69
1021.223	1340.28
1021.514	1329.2
1021.804	1342.31
1022.095	1354.74
1022.386	1310.67
1022.677	1328.3
1022.967	1303.89
1023.258	1274.74
1023.548	1291.24
1023.839	1277.9
1024.129	1259.37
1024.419	1257.57
1024.709	1251.01
1025	1227.06
1025.29	1233.61
1025.58	1213.05
1025.87	1212.6
1026.16	1207.4
1026.449	1203.78
1026.739	1196.55
1027.029	1197.91
1027.319	1187.74
1027.608	1183.22
1027.898	1172.14
1028.187	1166.27
1028.477	1148.19
1028.766	1128.76
1029.055	1125.14
1029.344	1129.89
1029.634	1124.01
1029.923	1113.39
1030.212	1148.87
1030.501	1111.13
1030.79	1098.7
1031.078	1080.17
1031.367	1059.83
1031.656	1074.07
1031.945	1078.59
1032.233	1094.86
1032.522	1068.19
1032.81	1057.57
1033.099	1059.38
1033.387	1053.28
1033.675	1045.37
1033.963	1012.37
1034.251	1011.24
1034.54	1017.8
1034.828	1009.66
1035.116	1012.15
1035.403	979.16
1035.691	981.19
1035.979	978.93
1036.267	972.83
1036.554	964.24
1036.842	960.4
1037.129	937.35
1037.417	945.71
1037.704	925.6
1037.992	943.22
1038.279	930.12
1038.566	957.23
1038.853	957.23
1039.14	957.23
