Data from tablewood_dark_bookshelf_FLMS001491_00009.txt Node
Date: Wed Feb 08 14:13:20 GMT 2017
User: dcchb
Spectrometer: FLMS00149
Trigger mode: 0
Integration Time (sec): 2.000000E-2
Scans to average: 10
Electric dark correction enabled: true
Nonlinearity correction enabled: false
Boxcar width: 0
XAxis mode: Wavelengths
Number of Pixels in Spectrum: 2048
>>>>>Begin Spectral Data<<<<<
341.393	-19.11
341.776	-19.11
342.16	-19.11
342.543	-59.79
342.927	-69.96
343.31	-74.93
343.693	-72.22
344.077	-65.21
344.46	-56.85
344.843	-71.09
345.226	-47.81
345.61	-39.22
345.993	-22.95
346.376	2.81
346.759	23.38
347.142	31.28
347.525	62.92
347.908	61.11
348.291	66.99
348.674	84.16
349.057	117.61
349.44	123.26
349.823	134.78
350.206	153.99
350.588	179.53
350.971	189.25
351.354	230.38
351.737	218.4
352.119	231.05
352.502	252.3
352.884	255.69
353.267	264.05
353.65	294.78
354.032	304.5
354.414	292.52
354.797	294.1
355.179	321.45
355.562	323.03
355.944	316.25
356.326	306.53
356.709	332.07
357.091	322.12
357.473	314.44
357.855	319.64
358.238	313.08
358.62	340.88
359.002	327.32
359.384	332.75
359.766	319.86
360.148	336.59
360.53	332.75
360.912	336.36
361.294	324.16
361.676	342.46
362.057	330.71
362.439	319.41
362.821	341.11
363.203	321.9
363.584	307.89
363.966	319.19
364.348	324.84
364.729	325.29
365.111	323.93
365.493	293.65
365.874	302.92
366.256	323.71
366.637	314.44
367.019	316.93
367.4	301.33
367.781	321.45
368.163	323.71
368.544	301.11
368.925	332.07
369.306	321.9
369.688	330.94
370.069	297.49
370.45	315.12
370.831	306.98
371.212	332.07
371.593	311.05
371.974	328.23
372.355	324.61
372.736	343.59
373.117	327.77
373.498	293.42
373.879	327.55
374.26	312.86
374.641	307.89
375.021	332.52
375.402	321.22
375.783	327.77
376.163	368
376.544	344.72
376.925	342.24
377.305	353.08
377.686	339.3
378.066	345.17
378.447	340.88
378.827	351.5
379.208	351.95
379.588	351.73
379.968	330.26
380.349	349.24
380.729	347.21
381.109	331.16
381.489	345.17
381.87	356.93
382.25	370.26
382.63	376.81
383.01	356.02
383.39	375
383.77	366.64
384.15	375
384.53	386.53
384.91	368.22
385.29	383.59
385.67	389.47
386.049	364.61
386.429	398.28
386.809	393.08
387.189	374.1
387.568	405.29
387.948	389.02
388.328	408
388.707	393.53
389.087	412.52
389.466	394.44
389.846	411.16
390.225	409.13
390.605	424.04
390.984	411.16
391.363	421.56
391.743	409.58
392.122	407.77
392.501	393.53
392.881	397.83
393.26	436.7
393.639	444.15
394.018	430.82
394.397	456.36
394.776	410.03
395.155	448.22
395.534	435.57
395.913	451.61
396.292	451.84
396.671	460.43
397.05	438.28
397.429	449.58
397.808	452.29
398.186	450.48
398.565	458.84
398.944	447.09
399.323	472.18
399.701	480.99
400.08	483.93
400.458	483.7
400.837	484.38
401.215	481.22
401.594	481.22
401.972	495.68
402.351	498.84
402.729	506.75
403.107	493.19
403.486	485.96
403.864	512.85
404.242	485.28
404.62	512.85
404.999	520.54
405.377	521.67
405.755	535.9
406.133	527.32
406.511	541.78
406.889	537.03
407.267	548.79
407.645	557.6
408.023	555.34
408.401	551.5
408.779	575.9
409.156	588.56
409.534	570.71
409.912	577.71
410.29	586.98
410.667	577.48
411.045	590.37
411.422	601.66
411.8	617.48
412.178	617.48
412.555	622
412.933	624.26
413.31	620.87
413.687	638.27
414.065	632.62
414.442	634.43
414.819	674.88
415.197	642.79
415.574	682.57
415.951	666.97
416.328	689.8
416.705	687.76
417.082	695.67
417.46	695.67
417.837	703.36
418.214	695.45
418.591	705.17
418.967	726.63
419.344	710.81
419.721	720.08
420.098	720.53
420.475	715.33
420.852	714.88
421.228	749.68
421.605	740.87
421.982	762.34
422.358	785.61
422.735	801.21
423.111	765.95
423.488	769.34
423.864	788.33
424.241	794.65
424.617	814.77
424.994	800.08
425.37	800.53
425.746	808.44
426.123	832.62
426.499	830.81
426.875	827.42
427.251	859.74
427.627	883.01
428.003	879.85
428.379	887.31
428.756	883.92
429.132	903.13
429.507	918.49
429.883	911.71
430.259	935.89
430.635	945.16
431.011	930.7
431.387	983.8
431.763	994.2
432.138	986.29
432.514	1005.72
432.89	1013.41
433.265	1008.66
433.641	1028.55
434.016	1016.8
434.392	1039.39
434.767	1066.96
435.143	1081.88
435.518	1077.36
435.894	1077.13
436.269	1081.88
436.644	1105.83
437.02	1127.53
437.395	1125.49
437.77	1130.69
438.145	1164.81
438.52	1156.68
438.895	1172.27
439.271	1174.98
439.646	1201.2
440.021	1206.85
440.395	1212.5
440.77	1214.98
441.145	1227.64
441.52	1254.76
441.895	1267.86
442.27	1240.29
442.645	1260.4
443.019	1271.25
443.394	1266.73
443.769	1290.23
444.143	1270.12
444.518	1307.86
444.892	1296.56
445.267	1303.12
445.641	1333.85
446.016	1322.32
446.39	1317.58
446.764	1346.73
447.139	1357.13
447.513	1369.55
447.887	1378.14
448.262	1371.36
448.636	1386.5
449.01	1390.34
449.384	1403.23
449.758	1454.52
450.132	1447.97
450.506	1470.57
450.88	1439.61
451.254	1441.87
451.628	1483
452.002	1466.95
452.376	1527.74
452.75	1544.69
453.123	1533.84
453.497	1556.44
453.871	1581.98
454.244	1608.42
454.618	1606.16
454.992	1614.52
455.365	1607.51
455.739	1647.29
456.112	1690.45
456.486	1704.01
456.859	1682.77
457.232	1727.29
457.606	1727.06
457.979	1745.14
458.352	1812.48
458.725	1801.86
459.099	1818.13
459.472	1844.12
459.845	1873.04
460.218	1884.34
460.591	1896.32
460.964	1911.46
461.337	1934.74
461.71	1987.39
462.083	1985.13
462.456	1992.59
462.829	2033.72
463.201	2038.69
463.574	2064.9
463.947	2097.9
464.32	2156.65
464.692	2155.52
465.065	2144.22
465.438	2198.01
465.81	2241.62
466.183	2224.45
466.555	2306.48
466.928	2300.6
467.3	2354.39
467.672	2341.51
468.045	2399.13
468.417	2411.33
468.789	2421.73
469.161	2458.11
469.534	2485.91
469.906	2528.39
470.278	2560.71
470.65	2607.26
471.022	2667.15
471.394	2672.12
471.766	2675.96
472.138	2729.29
472.51	2774.49
472.882	2831.66
473.253	2868.72
473.625	2899.46
473.997	2919.8
474.369	2955.05
474.74	2993.24
475.112	3058.1
475.484	3087.02
475.855	3121.82
476.227	3181.71
476.598	3293.35
476.97	3280.46
477.341	3361.82
477.713	3395.04
478.084	3404.53
478.455	3516.62
478.827	3541.25
479.198	3642.71
479.569	3643.39
479.94	3738.53
480.311	3785.31
480.682	3882.48
481.053	3921.8
481.424	3991.86
481.795	4024.85
482.166	4098.3
482.537	4128.58
482.908	4202.47
483.279	4235.69
483.65	4335.13
484.021	4397.72
484.391	4462.35
484.762	4514.33
485.133	4582.8
485.503	4627.77
485.874	4708
486.244	4743.48
486.615	4842.01
486.985	4926.52
487.356	4959.74
487.726	5011.49
488.097	5112.28
488.467	5136.24
488.837	5253.97
489.207	5275.89
489.578	5378.71
489.948	5364.25
490.318	5521.76
490.688	5517.69
491.058	5570.8
491.428	5676.56
491.798	5705.49
492.168	5826.61
492.538	5792.49
492.908	5910.9
493.278	5997.68
493.648	6026.83
494.017	6069.54
494.387	6118.36
494.757	6191.8
495.126	6271.57
495.496	6306.37
495.866	6317.45
496.235	6418.69
496.605	6517.44
496.974	6498.91
497.344	6537.55
497.713	6602.41
498.082	6643.77
498.452	6731
498.821	6757.89
499.19	6775.29
499.559	6856.87
499.928	6909.3
500.298	6908.17
500.667	7019.12
501.036	7016.41
501.405	7102.74
501.774	7127.14
502.143	7191.55
502.512	7187.03
502.88	7257.99
503.249	7309.51
503.618	7286.91
503.987	7398.1
504.356	7504.53
504.724	7517.42
505.093	7566
505.462	7610.07
505.83	7668.82
506.199	7693.46
506.567	7813.45
506.936	7839.67
507.304	7884.86
507.672	7932.09
508.041	8034.92
508.409	8023.62
508.777	8105.87
509.145	8158.75
509.514	8206.89
509.882	8256.83
510.25	8234.46
510.618	8344.74
510.986	8389.48
511.354	8496.82
511.722	8571.4
512.09	8591.74
512.458	8608.23
512.826	8702.92
513.193	8771.85
513.561	8869.47
513.929	8872.86
514.297	8986.3
514.664	9000.31
515.032	9062.23
515.4	9134.32
515.767	9196.69
516.135	9256.13
516.502	9229.46
516.869	9408.21
517.237	9385.39
517.604	9470.58
517.972	9567.98
518.339	9598.49
518.706	9647.98
519.073	9683.46
519.44	9833.96
519.808	9961.42
520.175	9942.44
520.542	10048.2
520.909	10137.46
521.276	10078.03
521.643	10207.06
522.009	10322.77
522.376	10417.9
522.743	10426.04
523.11	10526.15
523.477	10725.24
523.843	10716.2
524.21	10861.96
524.577	10971.56
524.943	10995.29
525.31	11059.02
525.676	11185.79
526.043	11130.65
526.409	11357.54
526.776	11397.31
527.142	11447.03
527.508	11511.43
527.874	11589.4
528.241	11729.73
528.607	11677.76
528.973	11855.61
529.339	11743.29
529.705	11973.12
530.071	12080.91
530.437	12127.92
530.803	12195.48
531.169	12267.57
531.535	12226.44
531.901	12323.62
532.267	12429.83
532.632	12527
532.998	12528.13
533.364	12630.95
533.73	12626.89
534.095	12719.76
534.461	12847.22
534.826	12969.48
535.192	12976.71
535.557	13062.35
535.923	12973.09
536.288	13186.19
536.653	13171.05
537.019	13196.36
537.384	13243.82
537.749	13282.01
538.114	13447.43
538.479	13426.86
538.845	13477.48
539.21	13476.58
539.575	13506.41
539.94	13632.28
540.305	13695.33
540.67	13591.38
541.034	13714.09
541.399	13806.52
541.764	13887.42
542.129	13921.31
542.494	13978.49
542.858	14073.63
543.223	14030.46
543.587	14056
543.952	14096.68
544.316	14097.81
544.681	14127.64
545.045	14211.02
545.41	14348.65
545.774	14340.06
546.138	14470.23
546.503	14484.92
546.867	14527.63
547.231	14581.86
547.595	14566.72
547.959	14741.86
548.324	14669.77
548.688	14798.13
549.052	14863.66
549.416	14832.03
549.779	14837
550.143	14946.6
550.507	15008.07
550.871	15127.16
551.235	15187.5
551.599	15235.86
551.962	15282.63
552.326	15338.68
552.689	15383.65
553.053	15384.33
553.417	15414.16
553.78	15614.83
554.143	15587.03
554.507	15718.56
554.87	15806.46
555.234	15940.24
555.597	15831.77
555.96	16038.32
556.323	16048.94
556.686	16036.06
557.05	16154.25
557.413	16254.36
557.776	16247.58
558.139	16438.54
558.502	16419.1
558.865	16427.46
559.228	16558.99
559.59	16618.19
559.953	16709.04
560.316	16849.37
560.679	16928.24
561.041	16953.1
561.404	17053.44
561.767	17132.76
562.129	17083.04
562.492	17340.21
562.854	17385.18
563.217	17347.44
563.579	17451.84
563.941	17521.67
564.304	17703.14
564.666	17766.64
565.028	17822.46
565.39	17943.13
565.753	18033.3
566.115	18073.52
566.477	18169.11
566.839	18224.93
567.201	18408.2
567.563	18360.75
567.925	18591.47
568.287	18507.63
568.648	18540.85
569.01	18660.63
569.372	18895.42
569.734	18928.41
570.095	18916.66
570.457	19048.19
570.819	19067.62
571.18	19155.08
571.542	19227.84
571.903	19246.82
572.265	19324.11
572.626	19460.83
572.987	19590.09
573.349	19631
573.71	19766.58
574.071	19716.64
574.432	19879.12
574.794	19961.83
575.155	19973.81
575.516	19976.3
575.877	20022.85
576.238	20192.79
576.599	20243.18
576.96	20304.88
577.32	20323.86
577.681	20365.67
578.042	20509.84
578.403	20435.49
578.763	20458.54
579.124	20530.63
579.485	20776.5
579.845	20798.2
580.206	20745.99
580.566	20798.65
580.927	20794.58
581.287	20961.58
581.648	20809.04
582.008	20969.72
582.368	20966.55
582.728	21055.14
583.089	20984.63
583.449	21097.62
583.809	21164.97
584.169	21232.08
584.529	21131.29
584.889	21235.47
585.249	21274.34
585.609	21188.92
585.969	21350.95
586.329	21352.53
586.688	21418.29
587.048	21377.39
587.408	21378.07
587.768	21412.42
588.127	21274.12
588.487	21435.69
588.846	21584.84
589.206	21496.26
589.565	21504.39
589.925	21582.81
590.284	21630.49
590.643	21597.27
591.003	21735.35
591.362	21862.35
591.721	21718.62
592.08	21777.15
592.44	21857.15
592.799	21853.31
593.158	21882.91
593.517	22002.68
593.876	21905.96
594.235	21956.81
594.593	22014.89
594.952	22075.45
595.311	21900.09
595.67	22034.55
596.029	22216.92
596.387	22145.51
596.746	22181.66
597.104	22094.43
597.463	22178.72
597.822	22180.31
598.18	22217.59
598.538	22183.92
598.897	22371.94
599.255	22345.5
599.613	22498.04
599.972	22318.61
600.33	22485.38
600.688	22351.38
601.046	22491.48
601.404	22662.33
601.762	22598.83
602.12	22614.19
602.478	22624.81
602.836	22736.9
603.194	22583.46
603.552	22702.78
603.91	22636.11
604.268	22689.45
604.625	22711.82
604.983	22783.45
605.341	22743
605.698	22891.02
606.056	22961.76
606.413	22928.31
606.771	22947.52
607.128	23037.01
607.485	22899.61
607.843	22874.3
608.2	23100.51
608.557	23169.21
608.914	23057.12
609.272	23147.96
609.629	23406.49
609.986	23310.67
610.343	23290.11
610.7	23481.06
611.057	23420.73
611.414	23426.83
611.771	23514.28
612.127	23541.17
612.484	23407.62
612.841	23517.9
613.198	23474.28
613.554	23536.2
613.911	23804.22
614.267	23714.05
614.624	23629.99
614.98	23637.9
615.337	23783.43
615.693	23776.42
616.05	23697.55
616.406	23972.8
616.762	23770.32
617.118	23856.87
617.475	23872.24
617.831	23873.14
618.187	24053.25
618.543	23982.97
618.899	24098.45
619.255	24078.56
619.611	24026.59
619.967	24186.13
620.323	24124.66
620.678	24016.87
621.034	24037.66
621.39	24006.25
621.746	23945.68
622.101	24384.09
622.457	24092.57
622.812	24126.7
623.168	24247.6
623.523	24248.27
623.879	24249.18
624.234	24219.35
624.589	24322.62
624.945	24264.32
625.3	24332.57
625.655	24321.27
626.01	24302.28
626.365	24227.94
626.72	24211.89
627.075	24291.66
627.43	24237.65
627.785	24109.07
628.14	24250.99
628.495	24229.07
628.85	24109.75
629.205	24069.3
629.559	24280.59
629.914	24167.15
630.269	24175.06
630.623	24022.97
630.978	24093.7
631.332	24080.82
631.687	24278.56
632.041	24063.65
632.396	24109.75
632.75	24040.6
633.104	24070.43
633.459	23952.69
633.813	23962.63
634.167	23928.96
634.521	23971.22
634.875	23956.08
635.229	23916.31
635.583	23810.55
635.937	23825.24
636.291	23723.09
636.645	23723.77
636.999	23796.76
637.352	23897.1
637.706	23641.74
638.06	23735.29
638.413	23655.75
638.767	23602.19
639.121	23645.58
639.474	23420.05
639.828	23531.23
640.181	23506.15
640.534	23544.79
640.888	23440.16
641.241	23312.93
641.594	23442.19
641.947	23601.51
642.301	23476.77
642.654	23443.1
643.007	23478.13
643.36	23364
643.713	23364.91
644.066	23411.91
644.419	23298.7
644.771	23178.47
645.124	22960.63
645.477	23049.44
645.83	22891.02
646.182	22636.11
646.535	22629.11
646.888	22686.96
647.24	22377.82
647.593	22665.49
647.945	22423.92
648.298	22385.27
648.65	22361.09
649.002	22234.99
649.355	22358.61
649.707	22423.69
650.059	22387.76
650.411	22739.16
650.763	22763.57
651.115	23084.24
651.467	22919.5
651.819	22948.2
652.171	22912.49
652.523	22911.13
652.875	22850.57
653.227	22744.36
653.578	22769.9
653.93	22830.01
654.282	22849.44
654.633	22760.18
654.985	22816.22
655.337	22647.64
655.688	22669.11
656.039	22724.47
656.391	22604.25
656.742	22605.83
657.094	22624.36
657.445	22793.17
657.796	22715.66
658.147	22659.62
658.498	22635.66
658.849	22749.56
659.2	22739.16
659.551	22618.71
659.902	22778.48
660.253	22577.58
660.604	22665.04
660.955	22461.66
661.306	22653.97
661.656	22601.99
662.007	22634.08
662.358	22691.48
662.708	22608.32
663.059	22628.2
663.409	22484.03
663.76	22618.04
664.11	22584.14
664.461	22571.93
664.811	22605.15
665.161	22508.21
665.511	22490.13
665.862	22628.88
666.212	22611.48
666.562	22580.52
666.912	22463.01
667.262	22493.52
667.612	22605.83
667.962	22549.11
668.312	22454.65
668.662	22611.26
669.011	22495.1
669.361	22598.83
669.711	22484.03
670.06	22482.9
670.41	22467.53
670.76	22439.06
671.109	22467.08
671.459	22578.49
671.808	22310.92
672.157	22382.34
672.507	22329.46
672.856	22340.98
673.205	22278.61
673.554	22394.54
673.904	22342.56
674.253	22422.33
674.602	22358.61
674.951	21989.8
675.3	21922.01
675.649	22315.9
675.998	22345.05
676.346	22271.83
676.695	22372.84
677.044	22226.18
677.393	22208.78
677.741	22283.13
678.09	22164.94
678.438	22105.73
678.787	22198.61
679.135	22146.41
679.484	22016.24
679.832	22136.92
680.181	22032.29
680.529	22032.51
680.877	22032.51
681.225	22040.88
681.573	22282.45
681.922	22039.52
682.27	22040.65
682.618	22044.72
682.966	21924.72
683.314	21881.11
683.661	21787.32
684.009	21746.19
684.357	21596.14
684.705	21626.87
685.053	21806.98
685.4	21641.56
685.748	21531.74
686.095	21544.62
686.443	21458.29
686.79	21389.59
687.138	21510.72
687.485	21514.11
687.832	21444.05
688.18	21461
688.527	21317.73
688.874	21152.76
689.221	21202.48
689.568	21266.88
689.915	21136.72
690.262	21196.15
690.609	21180.78
690.956	20986.44
691.303	21002.48
691.65	20907.35
691.997	20931.98
692.344	20655.15
692.69	20707.8
693.037	20688.82
693.383	20520.24
693.73	20645.88
694.077	20543.74
694.423	20500.8
694.769	20447.24
695.116	20368.83
695.462	20424.87
695.808	20292.67
696.155	20404.99
696.501	20199.34
696.847	20237.08
697.193	20103.98
697.539	20191.21
697.885	19934.72
698.231	19909.18
698.577	19866.24
698.923	19910.54
699.269	19797.77
699.614	19815.17
699.96	19715.74
700.306	19765.91
700.651	19614.27
700.997	19554.39
701.342	19565.01
701.688	19526.59
702.033	19414.05
702.379	19380.83
702.724	19386.48
703.069	19444.79
703.415	19249.99
703.76	19167.28
704.105	19276.2
704.45	19120.73
704.795	19091.35
705.14	18960.73
705.485	18996.44
705.83	18854.97
706.175	18945.82
706.52	18820.85
706.865	18757.12
707.209	18769.55
707.554	18694.97
707.899	18764.8
708.243	18631.93
708.588	18534.53
708.932	18557.35
709.277	18510.12
709.621	18527.52
709.966	18391.48
710.31	18421.54
710.654	18177.93
710.998	18303.8
711.342	18270.13
711.687	18359.62
712.031	18201.88
712.375	18067.65
712.719	18262.44
713.063	18152.16
713.407	18146.29
713.75	18079.4
714.094	18049.79
714.438	17970.7
714.782	17956.91
715.125	17826.52
715.469	17997.59
715.812	17828.33
716.156	17688.9
716.499	17802.34
716.843	17814.32
717.186	17678.28
717.53	17790.59
717.873	17795.56
718.216	17803.02
718.559	17627.43
718.902	17576.36
719.246	17647.32
719.589	17472.18
719.932	17374.33
720.275	17481.45
720.617	17504.05
720.96	17476.02
721.303	17393.77
721.646	17516.93
721.989	17389.92
722.331	17378.85
722.674	17410.04
723.016	17377.27
723.359	17285.07
723.701	17292.75
724.044	17243.26
724.386	17153.77
724.729	17246.65
725.071	17198.97
725.413	17210.95
725.755	17155.13
726.097	17078.29
726.439	16951.29
726.782	17111.51
727.124	17078.07
727.465	16961.69
727.807	16953.55
728.149	16925.76
728.491	16919.2
728.833	16935.92
729.175	16815.02
729.516	16828.58
729.858	16928.69
730.199	16865.64
730.541	16921.01
730.882	16937.96
731.224	16973.66
731.565	16730.96
731.906	16725.99
732.248	16731.18
732.589	16738.87
732.93	16724.63
733.271	16600.34
733.612	16634.46
733.953	16710.17
734.294	16580.91
734.635	16546.56
734.976	16602.37
735.317	16553.34
735.658	16490.74
735.999	16471.3
736.339	16482.6
736.68	16559.89
737.021	16517.18
737.361	16425.2
737.702	16455.49
738.042	16493.68
738.383	16412.77
738.723	16464.98
739.063	16391.08
739.404	16394.02
739.744	16311.99
740.084	16286.68
740.424	16460.91
740.764	16282.61
741.104	16410.74
741.444	16197.87
741.784	16171.65
742.124	16311.08
742.464	16243.29
742.804	16201.48
743.143	16119.9
743.483	16108.83
743.823	16119
744.162	16163.52
744.502	16130.75
744.841	16075.83
745.181	16144.53
745.52	16108.38
745.86	16145.21
746.199	16002.16
746.538	16079.45
746.877	16129.84
747.216	15913.8
747.556	16043.29
747.895	15899.57
748.234	15912.22
748.573	15878.1
748.911	15918.55
749.25	15902.05
749.589	15816.18
749.928	15784.99
750.267	15867.93
750.605	15798.78
750.944	15779.12
751.283	15773.7
751.621	15818.89
751.96	15702.28
752.298	15563.08
752.636	15699.35
752.975	15632.23
753.313	15639.46
753.651	15640.14
753.989	15624.32
754.327	15548.39
754.666	15432.46
755.004	15459.35
755.342	15463.65
755.679	15403.54
756.017	15275.63
756.355	15327.83
756.693	15227.72
757.031	15355.4
757.368	15207.83
757.706	15121.51
758.044	15140.94
758.381	15126.71
758.719	15178.46
759.056	15183.88
759.394	15096.43
759.731	15087.84
760.068	14986.37
760.405	14894.85
760.743	14806.72
761.08	14934.62
761.417	14811.01
761.754	14765.81
762.091	14776.66
762.428	14580.28
762.765	14596.78
763.102	14649.43
763.438	14599.49
763.775	14419.15
764.112	14546.38
764.449	14536.21
764.785	14388.42
765.122	14315.43
765.458	14399.72
765.795	14185.04
766.131	14235.88
766.467	14130.57
766.804	14154.53
767.14	14029.11
767.476	14050.12
767.812	13963.35
768.148	13967.42
768.485	13859.62
768.821	13823.01
769.157	13826.18
769.492	13751.6
769.828	13685.61
770.164	13562
770.5	13556.35
770.836	13602
771.171	13496.92
771.507	13456.24
771.842	13407.88
772.178	13428.22
772.513	13322.46
772.849	13330.6
773.184	13176.93
773.519	13276.81
773.855	13126.53
774.19	13081.34
774.525	13039.3
774.86	13074.33
775.195	13055.35
775.53	12933.09
775.865	12846.77
776.2	12749.59
776.535	12728.35
776.87	12753.89
777.205	12689.71
777.539	12651.07
777.874	12701.46
778.209	12558.19
778.543	12491.75
778.878	12393.9
779.212	12431.86
779.547	12337.18
779.881	12371.98
780.215	12266.67
780.55	12324.97
780.884	12165.88
781.218	12134.02
781.552	12195.03
781.886	12059.89
782.22	12025.09
782.554	11927.47
782.888	11843.63
783.222	11908.03
783.556	11708.72
783.889	11775.83
784.223	11638.21
784.557	11604.77
784.89	11670.53
785.224	11566.12
785.557	11491.1
785.891	11447.93
786.224	11470.08
786.558	11500.81
786.891	11399.8
787.224	11285.23
787.557	11232.35
787.891	11220.82
788.224	11228.05
788.557	11214.72
788.89	11095.4
789.223	11146.02
789.556	11092.01
789.888	11013.37
790.221	11022.18
790.554	10903.09
790.887	10862.41
791.219	10891.34
791.552	10809.53
791.884	10749.87
792.217	10751.23
792.549	10699.48
792.882	10599.14
793.214	10639.37
793.546	10586.04
793.879	10603.66
794.211	10508.75
794.543	10492.7
794.875	10465.13
795.207	10536.09
795.539	10398.02
795.871	10443.44
796.203	10318.02
796.535	10323.44
796.867	10231.69
797.198	10215.42
797.53	10247.74
797.862	10064.24
798.193	10176.33
798.525	10130
798.856	10155.54
799.188	9961.19
799.519	9969.33
799.85	9890.91
800.182	9906.73
800.513	9932.04
800.844	9821.54
801.175	9902.44
801.506	9862.66
801.837	9791.93
802.168	9786.06
802.499	9678.94
802.83	9670.81
803.161	9704.02
803.491	9662.67
803.822	9621.31
804.153	9566.85
804.483	9477.14
804.814	9463.8
805.145	9449.34
805.475	9483.69
805.805	9462.45
806.136	9395.33
806.466	9393.07
806.796	9369.34
807.126	9275.34
807.457	9293.41
807.787	9286.63
808.117	9218.84
808.447	9179.97
808.777	9197.15
809.107	9173.19
809.436	9151.5
809.766	9050.71
810.096	9110.59
810.426	9029.92
810.755	9026.98
811.085	9017.26
811.414	9010.94
811.744	8930.03
812.073	8908.34
812.403	8886.87
812.732	8902.92
813.061	8826.31
813.39	8784.05
813.719	8765.07
814.049	8811.39
814.378	8747.89
814.707	8699.98
815.036	8763.94
815.365	8721.9
815.693	8589.03
816.022	8659.98
816.351	8583.15
816.68	8573.66
817.008	8586.77
817.337	8509.71
817.665	8479.2
817.994	8497.95
818.322	8471.74
818.651	8509.03
818.979	8399.88
819.307	8478.75
819.636	8421.12
819.964	8351.74
820.292	8350.16
820.62	8394.45
820.948	8283.5
821.276	8356.72
821.604	8332.76
821.932	8359.43
822.259	8390.16
822.587	8328.02
822.915	8309.94
823.243	8328.24
823.57	8286.66
823.898	8342.25
824.225	8326.89
824.553	8271.52
824.88	8326.43
825.207	8336.15
825.535	8283.95
825.862	8337.73
826.189	8290.73
826.516	8330.73
826.843	8308.13
827.17	8290.5
827.497	8295.93
827.824	8268.13
828.151	8294.34
828.478	8315.81
828.805	8284.17
829.131	8310.16
829.458	8281.69
829.785	8283.27
830.111	8288.24
830.438	8336.38
830.764	8233.55
831.09	8286.43
831.417	8245.08
831.743	8186.55
832.069	8242.37
832.395	8243.95
832.722	8191.52
833.048	8159.21
833.374	8171.18
833.7	8175.25
834.026	8200.11
834.351	8181.13
834.677	8123.95
835.003	8170.28
835.329	8162.6
835.654	8164.18
835.98	8073.56
836.306	8128.47
836.631	8115.59
836.956	8118.53
837.282	8107.46
837.607	8073.33
837.932	8008.7
838.258	8090.51
838.583	8043.05
838.908	7956.73
839.233	7948.82
839.558	7977.74
839.883	7931.42
840.208	7916.05
840.533	7965.31
840.858	7930.06
841.182	7889.16
841.507	7937.74
841.832	7887.35
842.156	7915.6
842.481	7878.99
842.805	7812.1
843.13	7808.03
843.454	7766.67
843.778	7759.89
844.103	7744.08
844.427	7735.94
844.751	7704.76
845.075	7695.94
845.399	7610.75
845.723	7638.09
846.047	7637.19
846.371	7628.82
846.695	7610.29
847.019	7540.47
847.343	7489.17
847.666	7439.45
847.99	7380.47
848.313	7393.35
848.637	7407.14
848.96	7288.95
849.284	7377.98
849.607	7300.92
849.931	7282.62
850.254	7202.85
850.577	7181.38
850.9	7168.72
851.223	7172.79
851.546	7117.43
851.869	7103.41
852.192	7099.12
852.515	7032.91
852.838	6937.77
853.161	6981.38
853.483	6980.03
853.806	6920.14
854.129	6965.57
854.451	6900.93
854.774	6909.97
855.096	6886.02
855.419	6839.02
855.741	6781.84
856.063	6730.32
856.385	6785.68
856.708	6762.63
857.03	6745.46
857.352	6700.94
857.674	6718.11
857.996	6664.1
858.318	6637.21
858.64	6655.74
858.961	6625.01
859.283	6599.93
859.605	6540.27
859.926	6585.69
860.248	6599.25
860.57	6550.66
860.891	6561.06
861.212	6481.96
861.534	6505.01
861.855	6489.42
862.176	6491
862.498	6486.03
862.819	6484.45
863.14	6420.27
863.461	6428.63
863.782	6396.77
864.103	6409.42
864.424	6394.96
864.745	6407.16
865.065	6407.84
865.386	6370.33
865.707	6353.6
866.027	6374.17
866.348	6333.49
866.668	6319.93
866.989	6325.13
867.309	6233.16
867.63	6267.28
867.95	6275.64
868.27	6251.23
868.59	6293.49
868.91	6214.17
869.23	6233.38
869.55	6215.75
869.87	6220.27
870.19	6154.51
870.51	6208.07
870.83	6248.75
871.15	6213.04
871.469	6201.52
871.789	6218.01
872.109	6205.59
872.428	6125.59
872.748	6159.48
873.067	6132.37
873.386	6115.19
873.706	6112.03
874.025	6095.76
874.344	6101.41
874.663	6084.91
874.982	6111.58
875.301	6038.58
875.62	5998.81
875.939	6076.55
876.258	5990
876.577	6028.19
876.896	6037.45
877.214	6056.44
877.533	5974.41
877.852	5948.19
878.17	5997.23
878.489	5993.61
878.807	5943.22
879.125	5938.47
879.444	5938.25
879.762	5919.49
880.08	5941.86
880.398	5934.18
880.716	5903.9
881.034	5848.76
881.352	5872.49
881.67	5885.82
881.988	5850.57
882.306	5892.15
882.624	5876.55
882.941	5794.3
883.259	5759.04
883.577	5780.51
883.894	5825.03
884.212	5766.95
884.529	5719.5
884.846	5733.73
885.164	5722.21
885.481	5734.64
885.798	5740.29
886.115	5727.63
886.432	5662.32
886.75	5652.38
887.067	5647.41
887.383	5598.82
887.7	5624.36
888.017	5660.74
888.334	5683.11
888.651	5597.92
888.967	5560.4
889.284	5547.98
889.6	5573.74
889.917	5498.71
890.233	5565.15
890.55	5528.54
890.866	5539.16
891.182	5488.32
891.498	5484.02
891.815	5417.13
892.131	5453.29
892.447	5436.79
892.763	5428.2
893.079	5388.21
893.395	5408.09
893.71	5377.13
894.026	5369.9
894.342	5340.98
894.657	5309.11
894.973	5284.03
895.289	5285.38
895.604	5290.36
895.92	5262.11
896.235	5267.08
896.55	5206.29
896.865	5210.81
897.181	5206.52
897.496	5265.27
897.811	5199.06
898.126	5201.54
898.441	5150.25
898.756	5141.88
899.071	5124.48
899.386	5092.85
899.7	5090.13
900.015	5020.31
900.33	5020.98
900.644	5032.06
900.959	5026.86
901.273	5002.91
901.588	4960.42
901.902	4912.74
902.216	4962.45
902.531	4965.84
902.845	4926.97
903.159	4955.9
903.473	4909.57
903.787	4835.68
904.101	4841.78
904.415	4876.81
904.729	4824.6
905.042	4835.45
905.356	4788.67
905.67	4748.9
905.984	4778.28
906.297	4756.36
906.611	4719.52
906.924	4721.78
907.237	4718.84
907.551	4688.34
907.864	4680.2
908.177	4641.56
908.491	4679.75
908.804	4666.19
909.117	4628.23
909.43	4591.84
909.743	4587.1
910.056	4600.2
910.368	4563.14
910.681	4539.41
910.994	4483.14
911.307	4477.72
911.619	4459.19
911.932	4469.36
912.244	4460.77
912.557	4446.99
912.869	4430.72
913.181	4395.46
913.494	4365.41
913.806	4322.47
914.118	4344.62
914.43	4333.77
914.742	4334.22
915.054	4332.41
915.366	4318.4
915.678	4250.61
915.99	4242.7
916.302	4211.51
916.613	4162.48
916.925	4222.59
917.236	4178.07
917.548	4129.26
917.859	4155.24
918.171	4091.52
918.482	4116.15
918.794	4116.15
919.105	4088.13
919.416	4065.3
919.727	4073.21
920.038	4057.85
920.349	4026.21
920.66	3989.6
920.971	4047
921.282	4011.07
921.593	3988.92
921.903	3990.73
922.214	3935.14
922.525	3913.44
922.835	3902.37
923.146	3858.98
923.456	3856.04
923.767	3833.67
924.077	3866.89
924.387	3834.12
924.697	3817.17
925.008	3815.59
925.318	3796.84
925.628	3788.02
925.938	3791.64
926.248	3733.79
926.558	3751.19
926.867	3722.26
927.177	3690.85
927.487	3707.35
927.796	3679.78
928.106	3687.23
928.416	3676.39
928.725	3626.67
929.034	3629.16
929.344	3649.95
929.653	3592.77
929.962	3568.37
930.271	3586.22
930.581	3585.32
930.89	3534.92
931.199	3473
931.508	3508.26
931.817	3501.02
932.125	3479.33
932.434	3484.3
932.743	3426.22
933.051	3463.51
933.36	3467.13
933.669	3440.91
933.977	3410.86
934.286	3391.42
934.594	3412.66
934.902	3329.95
935.21	3363.17
935.519	3353.23
935.827	3362.72
936.135	3315.27
936.443	3289.73
936.751	3285.44
937.059	3274.36
937.367	3239.34
937.674	3285.66
937.982	3245.66
938.29	3256.96
938.597	3218.32
938.905	3186.23
939.213	3237.3
939.52	3184.65
939.827	3198.43
940.135	3170.86
940.442	3138.55
940.749	3101.94
941.056	3133.12
941.363	3103.29
941.67	3103.52
941.977	3100.58
942.284	3072.56
942.591	3075.72
942.898	3061.94
943.205	3076.18
943.511	3037.53
943.818	3040.92
944.125	3016.52
944.431	2967.7
944.738	2970.42
945.044	2984.65
945.35	2961.15
945.657	2935.16
945.963	2947.37
946.269	2899.46
946.575	2939.91
946.881	2932.68
947.187	2896.07
947.493	2872.34
947.799	2871.89
948.105	2861.27
948.41	2824.88
948.716	2860.81
949.022	2839.12
949.327	2833.02
949.633	2789.63
949.938	2783.98
950.244	2821.27
950.549	2756.64
950.854	2769.07
951.16	2721.38
951.465	2736.07
951.77	2731.78
952.075	2710.99
952.38	2663.76
952.685	2704.66
952.99	2671.22
953.294	2681.16
953.599	2701.04
953.904	2635.51
954.209	2639.13
954.513	2614.72
954.818	2616.3
955.122	2603.19
955.426	2603.87
955.731	2554.83
956.035	2571.1
956.339	2549.18
956.643	2599.13
956.948	2511.9
957.252	2570.2
957.556	2532.69
957.86	2508.28
958.163	2526.13
958.467	2526.13
958.771	2480.71
959.075	2484.78
959.378	2436.42
959.682	2479.36
959.985	2451.56
960.289	2459.47
960.592	2447.72
960.896	2427.38
961.199	2433.26
961.502	2442.97
961.805	2441.62
962.108	2372.24
962.411	2352.35
962.714	2372.24
963.017	2367.72
963.32	2360.94
963.623	2348.29
963.926	2358
964.228	2358.68
964.531	2303.99
964.833	2312.81
965.136	2329.98
965.438	2293.6
965.741	2314.61
966.043	2268.06
966.345	2280.49
966.648	2285.69
966.95	2290.89
967.252	2249.31
967.554	2238.68
967.856	2223.54
968.158	2208.85
968.46	2187.61
968.761	2196.88
969.063	2204.79
969.365	2223.77
969.666	2176.54
969.968	2147.16
970.269	2189.19
970.571	2167.73
970.872	2175.18
971.174	2151.23
971.475	2140.83
971.776	2117.11
972.077	2117.33
972.378	2129.99
972.679	2095.19
972.98	2073.49
973.281	2062.19
973.582	2080.5
973.883	2092.47
974.183	2040.5
974.484	2062.64
974.785	2042.53
975.085	2035.07
975.386	2040.95
975.686	2024.68
975.986	2021.06
976.287	1983.1
976.587	1942.65
976.887	1970.67
977.187	2015.87
977.487	1987.62
977.787	1979.48
978.087	1950.33
978.387	1949.43
978.687	1949.65
978.987	1966.83
979.286	1904.23
979.586	1908.07
979.885	1883.21
980.185	1901.52
980.484	1894.96
980.784	1924.34
981.083	1896.09
981.382	1901.97
981.682	1869.65
981.981	1858.81
982.28	1833.72
982.579	1825.36
982.878	1850.22
983.177	1852.25
983.475	1811.58
983.774	1815.19
984.073	1808.86
984.372	1789.43
984.67	1820.84
984.969	1802.09
985.267	1758.92
985.566	1800.73
985.864	1774.29
986.162	1771.13
986.461	1729.54
986.759	1735.87
987.057	1758.47
987.355	1711.92
987.653	1763.89
987.951	1738.36
988.249	1710.56
988.547	1715.76
988.844	1687.51
989.142	1664.46
989.44	1666.72
989.737	1682.99
990.035	1698.13
990.332	1661.07
990.63	1663.11
990.927	1658.59
991.224	1620.4
991.521	1656.78
991.819	1648.42
992.116	1608.19
992.413	1642.99
992.71	1588.08
993.006	1587.4
993.303	1603.45
993.6	1616.1
993.897	1600.73
994.193	1584.46
994.49	1569.78
994.787	1552.37
995.083	1538.59
995.379	1535.43
995.676	1554.18
995.972	1512.38
996.268	1512.15
996.565	1515.09
996.861	1518.25
997.157	1495.88
997.453	1511.92
997.749	1493.62
998.044	1493.17
998.34	1507.4
998.636	1480.06
998.932	1463.11
999.227	1464.92
999.523	1466.05
999.818	1472.6
1000.114	1426.28
1000.409	1430.12
1000.704	1423.11
1001	1444.58
1001.295	1404.58
1001.59	1428.31
1001.885	1434.86
1002.18	1419.5
1002.475	1379.27
1002.77	1372.72
1003.065	1351.93
1003.359	1385.15
1003.654	1358.48
1003.949	1373.4
1004.243	1356
1004.538	1352.15
1004.832	1319.16
1005.127	1309.22
1005.421	1350.12
1005.715	1323.23
1006.009	1320.52
1006.304	1292.49
1006.598	1293.62
1006.892	1301.76
1007.186	1291.36
1007.48	1285.04
1007.773	1277.35
1008.067	1280.07
1008.361	1254.76
1008.655	1234.64
1008.948	1211.82
1009.242	1216.34
1009.535	1228.99
1009.829	1212.5
1010.122	1209.56
1010.415	1211.37
1010.708	1209.11
1011.001	1221.08
1011.295	1203.91
1011.588	1191.03
1011.881	1177.92
1012.173	1157.81
1012.466	1134.31
1012.759	1160.29
1013.052	1153.51
1013.344	1170.69
1013.637	1159.84
1013.93	1144.7
1014.222	1155.1
1014.514	1112.61
1014.807	1110.8
1015.099	1110.58
1015.391	1127.07
1015.683	1106.28
1015.976	1093.4
1016.268	1100.63
1016.56	1104.48
1016.851	1078.71
1017.143	1087.98
1017.435	1075.32
1017.727	1065.83
1018.018	1057.47
1018.31	1054.99
1018.602	1046.63
1018.893	1054.53
1019.185	1036.68
1019.476	1032.84
1019.767	1035.1
1020.058	1004.59
1020.35	1013.86
1020.641	999.39
1020.932	1031.48
1021.223	1001.88
1021.514	997.59
1021.804	969.79
1022.095	972.95
1022.386	969.79
1022.677	969.56
1022.967	964.82
1023.258	963.69
1023.548	948.1
1023.839	960.07
1024.129	972.28
1024.419	940.19
1024.709	910.13
1025	927.98
1025.29	918.04
1025.58	902.22
1025.87	885.5
1026.16	917.36
1026.449	899.74
1026.739	906.97
1027.029	909.23
1027.319	894.99
1027.608	892.73
1027.898	875.78
1028.187	861.55
1028.477	885.27
1028.766	851.15
1029.055	865.16
1029.344	842.79
1029.634	851.6
1029.923	847.53
1030.212	846.63
1030.501	848.21
1030.79	813.64
1031.078	824.94
1031.367	815.22
1031.656	798.04
1031.945	804.15
1032.233	811.15
1032.522	819.06
1032.81	805.95
1033.099	789.68
1033.387	800.76
1033.675	784.26
1033.963	784.71
1034.251	772.28
1034.54	738.38
1034.828	735.9
1035.116	749.01
1035.403	738.38
1035.691	753.3
1035.979	756.01
1036.267	739.29
1036.554	712.4
1036.842	745.39
1037.129	742.45
1037.417	734.77
1037.704	715.79
1037.992	720.53
1038.279	722.57
1038.566	722.57
1038.853	722.57
1039.14	722.57
