Data from tablewood_dark_bookshelf_FLMS001491_00089.txt Node
Date: Wed Feb 08 14:15:50 GMT 2017
User: dcchb
Spectrometer: FLMS00149
Trigger mode: 0
Integration Time (sec): 2.000000E-2
Scans to average: 10
Electric dark correction enabled: true
Nonlinearity correction enabled: false
Boxcar width: 0
XAxis mode: Wavelengths
Number of Pixels in Spectrum: 2048
>>>>>Begin Spectral Data<<<<<
341.393	-6.41
341.776	-6.41
342.16	-6.41
342.543	-45.06
342.927	-49.57
343.31	-52.74
343.693	-55.9
344.077	-69.69
344.46	-48.9
344.843	-40.76
345.226	-35.11
345.61	-46.41
345.993	-36.24
346.376	-3.7
346.759	22.06
347.142	37.2
347.525	41.5
347.908	54.15
348.291	72.23
348.674	81.04
349.057	81.27
349.44	119.46
349.823	136.18
350.206	140.02
350.588	185.45
350.971	183.87
351.354	209.4
351.737	231.1
352.119	246.91
352.502	248.95
352.884	265.67
353.267	284.2
353.65	269.74
354.032	287.37
354.414	311.55
354.797	286.91
355.179	322.17
355.562	304.09
355.944	339.12
356.326	327.36
356.709	346.12
357.091	337.53
357.473	340.02
357.855	327.59
358.238	324.65
358.62	345.44
359.002	359
359.384	348.38
359.766	344.31
360.148	347.7
360.53	347.48
360.912	334.82
361.294	331.21
361.676	332.56
362.057	348.61
362.439	324.2
362.821	339.34
363.203	332.34
363.584	340.02
363.966	321.71
364.348	345.22
364.729	332.56
365.111	330.53
365.493	319.45
365.874	317.42
366.256	326.01
366.637	317.65
367.019	321.04
367.4	306.35
367.781	326.23
368.163	309.06
368.544	318.78
368.925	319.23
369.306	333.24
369.688	347.48
370.069	327.82
370.45	324.43
370.831	304.99
371.212	316.07
371.593	307.93
371.974	348.15
372.355	331.88
372.736	336.63
373.117	352
373.498	336.63
373.879	335.5
374.26	337.53
374.641	328.27
375.021	316.97
375.402	332.79
375.783	336.63
376.163	359
376.544	347.02
376.925	338.89
377.305	342.96
377.686	370.98
378.066	356.52
378.447	348.61
378.827	371.43
379.208	375.27
379.588	349.96
379.968	373.24
380.349	369.17
380.729	352.67
381.109	372.33
381.489	371.43
381.87	359.23
382.25	359.68
382.63	361.26
383.01	385.89
383.39	377.98
383.77	361.04
384.15	380.92
384.53	377.53
384.91	391.77
385.29	392
385.67	388.15
386.049	385.22
386.429	380.24
386.809	417.53
387.189	392
387.568	392.22
387.948	385.22
388.328	410.98
388.707	404.42
389.087	401.94
389.466	405.1
389.846	408.72
390.225	386.35
390.605	429.96
390.984	427.47
391.363	422.73
391.743	413.46
392.122	419.79
392.501	398.77
392.881	434.03
393.26	434.48
393.639	430.64
394.018	434.71
394.397	446.01
394.776	453.91
395.155	456.63
395.534	465.21
395.913	462.73
396.292	448.27
396.671	454.37
397.05	458.43
397.429	466.12
397.808	466.12
398.186	456.85
398.565	445.1
398.944	482.39
399.323	469.06
399.701	474.03
400.08	479.45
400.458	482.84
400.837	488.26
401.215	491.2
401.594	488.04
401.972	520.13
402.351	502.5
402.729	509.73
403.107	494.37
403.486	509.28
403.864	505.21
404.242	523.29
404.62	512.44
404.999	531.2
405.377	524.65
405.755	545.89
406.133	549.28
406.511	512.44
406.889	554.02
407.267	544.31
407.645	550.64
408.023	542.05
408.401	553.12
408.779	567.13
409.156	564.87
409.534	571.43
409.912	555.83
410.29	582.05
410.667	608.94
411.045	599.9
411.422	595.38
411.8	619.79
412.178	616.62
412.555	628.37
412.933	612.55
413.31	622.27
413.687	654.59
414.065	633.8
414.442	641.03
414.819	677.64
415.197	669.5
415.574	673.12
415.951	667.02
416.328	681.48
416.705	689.61
417.082	700.91
417.46	691.87
417.837	699.11
418.214	685.32
418.591	704.76
418.967	714.7
419.344	729.84
419.721	714.02
420.098	721.03
420.475	738.65
420.852	730.07
421.228	745.88
421.605	733.46
421.982	729.16
422.358	751.76
422.735	767.8
423.111	769.39
423.488	779.78
423.864	785.66
424.241	797.18
424.617	784.08
424.994	795.37
425.37	803.28
425.746	837.63
426.123	835.83
426.499	799.89
426.875	827.92
427.251	840.12
427.627	856.84
428.003	850.51
428.379	852.55
428.756	874.02
429.132	909.72
429.507	899.55
429.883	907.91
430.259	922.15
430.635	912.66
431.011	929.38
431.387	939.78
431.763	959.66
432.138	969.83
432.514	998.31
432.89	973.45
433.265	1001.92
433.641	1003.73
434.016	1024.07
434.392	1041.24
434.767	1049.83
435.143	1057.06
435.518	1049.38
435.894	1073.56
436.269	1061.36
436.644	1111.3
437.02	1121.92
437.395	1072.66
437.77	1092.99
438.145	1087.12
438.52	1130.73
438.895	1159.43
439.271	1141.13
439.646	1163.95
440.021	1164.4
440.395	1189.49
440.77	1186.32
441.145	1176.38
441.52	1201.01
441.895	1205.08
442.27	1212.76
442.645	1203.73
443.019	1252.99
443.394	1234.91
443.769	1257.51
444.143	1235.14
444.518	1259.09
444.892	1276.94
445.267	1280.11
445.641	1273.78
446.016	1265.42
446.39	1298.19
446.764	1289.37
447.139	1314
447.513	1333.21
447.887	1324.17
448.262	1341.12
448.636	1338.41
449.01	1363.95
449.384	1364.85
449.758	1385.19
450.132	1404.62
450.506	1421.35
450.88	1396.71
451.254	1422.48
451.628	1425.19
452.002	1448.69
452.376	1464.74
452.75	1474.23
453.123	1479.88
453.497	1511.74
453.871	1528.01
454.244	1514.45
454.618	1530.04
454.992	1571.4
455.365	1578.18
455.739	1601.23
456.112	1643.04
456.486	1659.31
456.859	1660.44
457.232	1662.47
457.606	1686.65
457.979	1662.24
458.352	1761.45
458.725	1731.62
459.099	1771.17
459.472	1773.43
459.845	1794.22
460.218	1804.84
460.591	1842.58
460.964	1815.46
461.337	1856.82
461.71	1923.71
462.083	1943.59
462.456	1917.6
462.829	1951.5
463.201	1995.12
463.574	1998.73
463.947	1999.86
464.32	2057.26
464.692	2082.57
465.065	2081.44
465.438	2137.03
465.81	2128.22
466.183	2179.07
466.555	2201.21
466.928	2233.53
467.3	2208.44
467.672	2255.68
468.045	2276.01
468.417	2314.88
468.789	2345.84
469.161	2343.13
469.534	2413.19
469.906	2450.92
470.278	2420.19
470.65	2449.12
471.022	2513.75
471.394	2588.1
471.766	2597.36
472.138	2624.25
472.51	2639.85
472.882	2715.32
473.253	2749.22
473.625	2761.42
473.997	2837.13
474.369	2849.33
474.74	2850.24
475.112	2933.4
475.484	2974.98
475.855	3028.99
476.227	3038.71
476.598	3104.47
476.97	3139.27
477.341	3208.87
477.713	3236.44
478.084	3235.08
478.455	3362.54
478.827	3358.02
479.198	3435.08
479.569	3467.85
479.94	3609.99
480.311	3609.76
480.682	3659.93
481.053	3754.17
481.424	3795.97
481.795	3815.18
482.166	3920.26
482.537	3961.39
482.908	4040.49
483.279	4080.94
483.65	4142.41
484.021	4214.95
484.391	4287.03
484.762	4298.56
485.133	4355.28
485.503	4384.88
485.874	4553.24
486.244	4551.43
486.615	4589.4
486.985	4638.21
487.356	4788.04
487.726	4847.47
488.097	4870.75
488.467	4909.62
488.837	4986.22
489.207	5068.48
489.578	5089.72
489.948	5175.37
490.318	5193.45
490.688	5301.24
491.058	5324.52
491.428	5429.83
491.798	5461.01
492.168	5523.61
492.538	5571.07
492.908	5616.04
493.278	5707.79
493.648	5746.2
494.017	5819.42
494.387	5871.63
494.757	5904.84
495.126	5974.22
495.496	6010.15
495.866	6065.07
496.235	6091.96
496.605	6092.64
496.974	6199.75
497.344	6292.63
497.713	6270.48
498.082	6330.6
498.452	6390.26
498.821	6452.4
499.19	6447.88
499.559	6527.43
499.928	6531.27
500.298	6628.89
500.667	6678.61
501.036	6639.97
501.405	6759.06
501.774	6733.75
502.143	6851.03
502.512	6896.91
502.88	6955.89
503.249	6945.72
503.618	7003.57
503.987	7080.86
504.356	7095.32
504.724	7092.16
505.093	7136.68
505.462	7194.08
505.83	7243.11
506.199	7314.53
506.567	7449.44
506.936	7433.84
507.304	7531.92
507.672	7517.91
508.041	7581.18
508.409	7648.53
508.777	7681.52
509.145	7758.36
509.514	7824.12
509.882	7856.21
510.25	7878.35
510.618	7909.54
510.986	7978.46
511.354	8031.79
511.722	8139.59
512.09	8191.79
512.458	8209.64
512.826	8272.01
513.193	8336.42
513.561	8329.64
513.929	8444.66
514.297	8511.33
514.664	8561.72
515.032	8646.24
515.4	8630.87
515.767	8718.33
516.135	8799.46
516.502	8717.65
516.869	8929.62
517.237	8944.99
517.604	8915.84
517.972	9112.9
518.339	9118.32
518.706	9130.3
519.073	9203.29
519.44	9251.65
519.808	9349.05
520.175	9358.54
520.542	9522.38
520.909	9555.6
521.276	9622.94
521.643	9741.13
522.009	9808.24
522.376	9819.09
522.743	9898.41
523.11	9957.85
523.477	10108.12
523.843	10147.9
524.21	10312.64
524.577	10318.97
524.943	10313.77
525.31	10460.43
525.676	10580.43
526.043	10585.85
526.409	10680.31
526.776	10740.42
527.142	10798.95
527.508	10959.4
527.874	10936.8
528.241	11007.54
528.607	11040.75
528.973	11180.41
529.339	11133.86
529.705	11322.78
530.071	11391.93
530.437	11384.25
530.803	11438.03
531.169	11588.54
531.535	11636.22
531.901	11587.18
532.267	11722.77
532.632	11726.16
532.998	11863.33
533.364	11887.29
533.73	11955.31
534.095	12062.65
534.461	12153.72
534.826	12142.65
535.192	12226.03
535.557	12285.24
535.923	12299.25
536.288	12402.3
536.653	12415.18
537.019	12439.14
537.384	12494.5
537.749	12568.4
538.114	12540.83
538.479	12651.56
538.845	12690.43
539.21	12647.04
539.575	12746.7
539.94	12850.42
540.305	12814.27
540.67	12887.49
541.034	12904.21
541.399	12948.5
541.764	13045.67
542.129	13094.49
542.494	13134.49
542.858	13097.88
543.223	13232.11
543.587	13301.03
543.952	13241.15
544.316	13312.33
544.681	13316.18
545.045	13418.77
545.41	13463.74
545.774	13495.38
546.138	13523.4
546.503	13612.21
546.867	13582.61
547.231	13766.56
547.595	13827.8
547.959	13777.86
548.324	13778.31
548.688	13809.72
549.052	13979.43
549.416	14016.04
549.779	14017.4
550.143	14055.82
550.507	14141.92
550.871	14161.8
551.235	14202.03
551.599	14267.56
551.962	14336.94
552.326	14429.82
552.689	14387.33
553.053	14498.74
553.417	14511.85
553.78	14639.08
554.143	14609.7
554.507	14663.03
554.87	14750.49
555.234	14952.97
555.597	14861.67
555.96	14975.57
556.323	15049.24
556.686	15093.08
557.05	15174.88
557.413	15285.62
557.776	15220.31
558.139	15337.14
558.502	15345.05
558.865	15443.58
559.228	15556.57
559.59	15529.22
559.953	15665.49
560.316	15772.83
560.679	15783.23
561.041	15840.63
561.404	15879.27
561.767	16034.97
562.129	16026.61
562.492	16367.39
562.854	16207.85
563.217	16225.03
563.579	16328.98
563.941	16419.6
564.304	16575.52
564.666	16660.49
565.028	16682.19
565.39	16718.35
565.753	16863.65
566.115	16845.35
566.477	17039.02
566.839	17082.63
567.201	17165.11
567.563	17126.24
567.925	17318.1
568.287	17309.74
568.648	17427.48
569.01	17566.91
569.372	17641.94
569.734	17608.27
570.095	17736.4
570.457	17938.65
570.819	17867.02
571.18	17910.63
571.542	18067.01
571.903	18044.64
572.265	18036.5
572.626	18196.5
572.987	18224.29
573.349	18333.67
573.71	18423.84
574.071	18453.89
574.432	18539.99
574.794	18724.85
575.155	18553.1
575.516	18610.73
575.877	18724.62
576.238	18829.02
576.599	18897.05
576.96	18909.7
577.32	18990.83
577.681	18977.27
578.042	19078.06
578.403	19162.35
578.763	19185.85
579.124	19177.72
579.485	19267.43
579.845	19379.52
580.206	19382.46
580.566	19436.69
580.927	19332.29
581.287	19450.7
581.648	19464.04
582.008	19594.2
582.368	19667.19
582.728	19632.17
583.089	19628.78
583.449	19622
583.809	19709.68
584.169	19665.39
584.529	19669
584.889	19902.22
585.249	19797.59
585.609	19745.84
585.969	19898.6
586.329	19810.92
586.688	19936.57
587.048	19928.88
587.408	19890.01
587.768	19892.73
588.127	19952.16
588.487	19950.13
588.846	20178.82
589.206	19980.18
589.565	20053.17
589.925	20037.81
590.284	20060.63
590.643	20181.31
591.003	20122.78
591.362	20181.31
591.721	20230.8
592.08	20289.33
592.44	20336.33
592.799	20259.95
593.158	20238.03
593.517	20359.83
593.876	20380.62
594.235	20324.35
594.593	20424.01
594.952	20491.35
595.311	20334.07
595.67	20532.93
596.029	20655.19
596.387	20579.94
596.746	20721.86
597.104	20552.82
597.463	20537.45
597.822	20692.48
598.18	20622.88
598.538	20629.88
598.897	20748.52
599.255	20650.45
599.613	20828.29
599.972	20840.5
600.33	20870.1
600.688	20695.42
601.046	20981.96
601.404	20947.84
601.762	20906.71
602.12	20993.94
602.478	21030.1
602.836	21016.54
603.194	20916.88
603.552	21000.72
603.91	21052.02
604.268	21063.99
604.625	21024.67
604.983	21114.84
605.341	21052.24
605.698	21189.19
606.056	21197.32
606.413	21251.79
606.771	21302.18
607.128	21415.17
607.485	21270.09
607.843	21259.47
608.2	21353.7
608.557	21482.97
608.914	21315.29
609.272	21469.41
609.629	21471.89
609.986	21570.42
610.343	21490.2
610.7	21669.18
611.057	21646.8
611.414	21584.66
611.771	21641.38
612.127	21826.69
612.484	21730.64
612.841	21835.5
613.198	21703.07
613.554	21855.84
613.911	21905.33
614.267	21902.16
614.624	21898.77
614.98	22058.32
615.337	22040.01
615.693	22002.05
616.05	21924.99
616.406	22068.71
616.762	21986.23
617.118	22045.21
617.475	22075.27
617.831	22099.22
618.187	22227.81
618.543	22152.1
618.899	22312.32
619.255	22276.62
619.611	22260.12
619.967	22306.9
620.323	22312.77
620.678	22318.88
621.034	22179.22
621.39	22272.55
621.746	22201.37
622.101	22444.97
622.457	22260.8
622.812	22317.97
623.168	22432.09
623.523	22356.84
623.879	22417.63
624.234	22267.8
624.589	22348.03
624.945	22371.98
625.3	22507.8
625.655	22521.13
626.01	22440.23
626.365	22442.49
626.72	22469.38
627.075	22401.81
627.43	22385.09
627.785	22344.41
628.14	22397.74
628.495	22491.3
628.85	22360.01
629.205	22276.17
629.559	22351.64
629.914	22349.38
630.269	22267.58
630.623	22334.92
630.978	22169.28
631.332	22286.79
631.687	22243.4
632.041	22261.93
632.396	22362.72
632.75	22183.51
633.104	22140.58
633.459	22074.59
633.813	22052.44
634.167	22052.67
634.521	22138.54
634.875	22082.27
635.229	22002.73
635.583	21877.31
635.937	22020.35
636.291	21924.08
636.645	21986.23
636.999	21891.99
637.352	22004.53
637.706	21739
638.06	21793.01
638.413	21901.49
638.767	21752.11
639.121	21826.69
639.474	21730.42
639.828	21686.8
640.181	21609.06
640.534	21699.23
640.888	21691.55
641.241	21554.15
641.594	21562.96
641.947	21597.99
642.301	21620.59
642.654	21675.5
643.007	21518.45
643.36	21617.2
643.713	21633.02
644.066	21608.61
644.419	21440.48
644.771	21341.05
645.124	21070.32
645.477	21006.59
645.83	20866.03
646.182	20834.85
646.535	20856.99
646.888	20740.61
647.24	20659.71
647.593	20783.1
647.945	20693.16
648.298	20717.34
648.65	20559.83
649.002	20617.23
649.355	20690.9
649.707	20654.06
650.059	20771.57
650.411	21040.04
650.763	21046.37
651.115	21334.5
651.467	21207.27
651.819	21222.86
652.171	21181.05
652.523	20990.78
652.875	21023.77
653.227	20924.79
653.578	21073.49
653.93	20971.79
654.282	20871.46
654.633	20792.59
654.985	20884.79
655.337	20873.94
655.688	20883.21
656.039	20959.36
656.391	20733.16
656.742	20871
657.094	20790.33
657.445	20924.56
657.796	20911.91
658.147	20801.63
658.498	20872.36
658.849	20852.25
659.2	20893.15
659.551	20828.75
659.902	20754.62
660.253	20809.54
660.604	20869.42
660.955	20733.61
661.306	20775.64
661.656	20877.78
662.007	20751.23
662.358	20718.92
662.708	20716.21
663.059	20722.99
663.409	20605.02
663.76	20720.05
664.11	20811.57
664.461	20815.87
664.811	20653.16
665.161	20694.96
665.511	20727.51
665.862	20863.77
666.212	20790.33
666.562	20794.17
666.912	20692.7
667.262	20712.59
667.612	20656.77
667.962	20786.49
668.312	20620.62
668.662	20728.86
669.011	20617
669.361	20725.25
669.711	20717.34
670.06	20605.02
670.41	20540.39
670.76	20583.78
671.109	20585.81
671.459	20642.54
671.808	20614.29
672.157	20659.71
672.507	20509.43
672.856	20486.83
673.205	20548.08
673.554	20565.02
673.904	20515.76
674.253	20513.73
674.602	20586.49
674.951	20142.89
675.3	20066.51
675.649	20490.22
675.998	20392.15
676.346	20416.55
676.695	20430.34
677.044	20270.12
677.393	20461.3
677.741	20428.3
678.09	20311.02
678.438	20322.54
678.787	20338.82
679.135	20377.46
679.484	20194.64
679.832	20353.73
680.181	20224.92
680.529	20287.52
680.877	20165.49
681.225	20234.19
681.573	20224.24
681.922	20189.89
682.27	20016.11
682.618	20086.84
682.966	20043.68
683.314	20034.42
683.661	19951.48
684.009	19876.91
684.357	19935.21
684.705	19873.97
685.053	19957.13
685.4	19829
685.748	19751.71
686.095	19685.05
686.443	19742.9
686.79	19561.66
687.138	19696.8
687.485	19606.86
687.832	19581.77
688.18	19701.54
688.527	19496.8
688.874	19483.24
689.221	19516.92
689.568	19428.33
689.915	19349.46
690.262	19383.13
690.609	19315.11
690.956	19259.52
691.303	19262.69
691.65	19154.89
691.997	19104.5
692.344	18991.96
692.69	18964.39
693.037	19061.33
693.383	18899.76
693.73	18882.36
694.077	18768.69
694.423	18767.78
694.769	18767.11
695.116	18699.31
695.462	18719.88
695.808	18569.82
696.155	18552.2
696.501	18520.78
696.847	18512.42
697.193	18331.18
697.539	18362.6
697.885	18270.85
698.231	18144.07
698.577	18219.32
698.923	18119.21
699.269	18108.37
699.614	17943.62
699.96	17928.26
700.306	18014.36
700.651	17968.71
700.997	17910.18
701.342	17878.77
701.688	17806
702.033	17767.36
702.379	17688.26
702.724	17669.51
703.069	17608.72
703.415	17530.3
703.76	17579.57
704.105	17494.6
704.45	17554.03
704.795	17294.6
705.14	17373.24
705.485	17404.2
705.83	17263.87
706.175	17369.63
706.52	17275.85
706.865	17051.44
707.209	17165.79
707.554	17119.92
707.899	17079.92
708.243	16994.27
708.588	17007.15
708.932	16903.2
709.277	16881.05
709.621	16788.4
709.966	16678.35
710.31	16768.51
710.654	16625.69
710.998	16732.58
711.342	16693.04
711.687	16601.51
712.031	16581.63
712.375	16524.68
712.719	16597.44
713.063	16549.54
713.407	16515.41
713.75	16382.99
714.094	16518.58
714.438	16373.5
714.782	16448.52
715.125	16362.65
715.469	16371.69
715.812	16194.74
716.156	16171.24
716.499	16212.6
716.843	16182.09
717.186	16156.55
717.53	16244.91
717.873	16197.23
718.216	16147.06
718.559	16086.5
718.902	16026.84
719.246	15994.97
719.589	15965.82
719.932	15918.14
720.275	15930.57
720.617	15909.78
720.96	15917.24
721.303	15805.6
721.646	15941.19
721.989	15809.44
722.331	15883.11
722.674	15833.4
723.016	15865.49
723.359	15773.51
723.701	15840.85
724.044	15705.04
724.386	15642.67
724.729	15658.26
725.071	15602.67
725.413	15609
725.755	15618.71
726.097	15528.55
726.439	15508.89
726.782	15365.84
727.124	15552.73
727.465	15500.07
727.807	15421.43
728.149	15371.04
728.491	15388.21
728.833	15408.78
729.175	15435.44
729.516	15370.81
729.858	15298.95
730.199	15369
730.541	15382.79
730.882	15311.6
731.224	15306.63
731.565	15136.92
731.906	15268.67
732.248	15255.79
732.589	15157.48
732.93	15172.4
733.271	15184.6
733.612	15190.25
733.953	15285.84
734.294	15122.23
734.635	15168.33
734.976	15200.87
735.317	15143.7
735.658	15087.65
735.999	15012.4
736.339	15001.33
736.68	15031.38
737.021	15004.72
737.361	14906.42
737.702	15001.78
738.042	14891.28
738.383	14891.95
738.723	14903.7
739.063	14853.08
739.404	14972.4
739.744	14933.76
740.084	14882.69
740.424	14855.34
740.764	14861.45
741.104	14936.92
741.444	14768.11
741.784	14734.22
742.124	14875
742.464	14820.99
742.804	14785.06
743.143	14738.51
743.483	14726.08
743.823	14687.66
744.162	14672.07
744.502	14663.71
744.841	14665.52
745.181	14712.75
745.52	14623.94
745.86	14619.87
746.199	14612.19
746.538	14597.95
746.877	14612.64
747.216	14485.41
747.556	14517.5
747.895	14529.48
748.234	14482.02
748.573	14394.79
748.911	14416.49
749.25	14390.05
749.589	14316.6
749.928	14421
750.267	14448.8
750.605	14321.57
750.944	14384.4
751.283	14366.54
751.621	14354.57
751.96	14245.64
752.298	14253.78
752.636	14253.78
752.975	14218.52
753.313	14151.63
753.651	14249.48
753.989	14045.65
754.327	14103.73
754.666	14007.68
755.004	14045.87
755.342	14004.74
755.679	14056.95
756.017	13893.79
756.355	14004.74
756.693	13962.94
757.031	14004.74
757.368	13860.12
757.706	13881.81
758.044	13827.57
758.381	13817.18
758.719	13756.16
759.056	13768.82
759.394	13734.02
759.731	13630.74
760.068	13598.88
760.405	13511.65
760.743	13590.29
761.08	13566.56
761.417	13548.49
761.754	13483.63
762.091	13462.84
762.428	13370.86
762.765	13314.14
763.102	13297.42
763.438	13231.66
763.775	13235.05
764.112	13221.49
764.449	13216.74
764.785	13177.2
765.122	13067.14
765.458	12946.69
765.795	12881.16
766.131	12901.95
766.467	12864.44
766.804	12845.91
767.14	12791.44
767.476	12824.21
767.812	12723.87
768.148	12774.27
768.485	12642.29
768.821	12554.16
769.157	12567.04
769.492	12498.57
769.828	12500.15
770.164	12469.42
770.5	12449.98
770.836	12450.44
771.171	12337.9
771.507	12283.66
771.842	12227.62
772.178	12182.87
772.513	12173.15
772.849	12142.87
773.184	12034.18
773.519	12045.7
773.855	12038.24
774.19	11943.33
774.525	11888.87
774.86	11905.82
775.195	11902.2
775.53	11875.08
775.865	11749.66
776.2	11658.37
776.535	11653.85
776.87	11628.31
777.205	11508.31
777.539	11541.98
777.874	11523.68
778.209	11387.41
778.543	11414.98
778.878	11345.38
779.212	11376.11
779.547	11204.82
779.881	11220.86
780.215	11189.23
780.55	11222.9
780.884	11160.53
781.218	11143.58
781.552	11125.72
781.886	11045.27
782.22	10986.52
782.554	10919.18
782.888	10875.11
783.222	10799.18
783.556	10730.03
783.889	10759.41
784.223	10725.51
784.557	10632.18
784.89	10702.01
785.224	10551.05
785.557	10533.88
785.891	10495.68
786.224	10427.21
786.558	10485.74
786.891	10403.48
787.224	10347.67
787.557	10356.25
787.891	10261.57
788.224	10304.73
788.557	10262.47
788.89	10202.81
789.223	10111.06
789.556	10115.36
789.888	10075.36
790.221	10087.33
790.554	9980.22
790.887	10032.19
791.219	9884.18
791.552	9965.98
791.884	9883.95
792.217	9878.75
792.549	9874.23
792.882	9676.95
793.214	9771.41
793.546	9743.61
793.879	9673.79
794.211	9611.64
794.543	9594.92
794.875	9562.6
795.207	9610.74
795.539	9559.21
795.871	9564.41
796.203	9463.4
796.535	9442.83
796.867	9350.63
797.198	9303.4
797.53	9356.51
797.862	9247.36
798.193	9308.6
798.525	9202.39
798.856	9297.75
799.188	9178.66
799.519	9166.91
799.85	9115.83
800.182	9094.14
800.513	9069.51
800.844	9029.51
801.175	9027.7
801.506	8996.29
801.837	8903.41
802.168	8956.29
802.499	8900.25
802.83	8938.66
803.161	8822.06
803.491	8821.15
803.822	8808.27
804.153	8765.56
804.483	8676.52
804.814	8721.72
805.145	8707.03
805.475	8664.55
805.805	8626.36
806.136	8606.24
806.466	8617.54
806.796	8594.04
807.126	8539.8
807.457	8511.1
807.787	8535.28
808.117	8396.3
808.447	8422.07
808.777	8490.77
809.107	8357.44
809.436	8333.48
809.766	8369.86
810.096	8361.96
810.426	8311.34
810.755	8276.53
811.085	8253.71
811.414	8209.19
811.744	8182.52
812.073	8184.11
812.403	8205.8
812.732	8136.65
813.061	8199.7
813.39	8070.89
813.719	8059.59
814.049	8142.53
814.378	8064.11
814.707	8022.76
815.036	7967.39
815.365	7957.67
815.693	7900.5
816.022	7932.36
816.351	7907.73
816.68	7892.82
817.008	7887.62
817.337	7852.14
817.665	7826.83
817.994	7794.06
818.322	7778.24
818.651	7709.32
818.979	7723.33
819.307	7708.41
819.636	7722.2
819.964	7681.97
820.292	7700.05
820.62	7735.31
820.948	7723.1
821.276	7719.03
821.604	7639.71
821.932	7723.1
822.259	7693.27
822.587	7657.12
822.915	7652.6
823.243	7667.06
823.57	7658.92
823.898	7599.94
824.225	7610.79
824.553	7647.4
824.88	7599.04
825.207	7642.88
825.535	7638.58
825.862	7664.12
826.189	7630
826.516	7633.16
826.843	7612.37
827.17	7635.87
827.497	7657.12
827.824	7693.05
828.151	7596.78
828.478	7635.65
828.805	7610.11
829.131	7604.46
829.458	7613.95
829.785	7590.22
830.111	7622.99
830.438	7610.34
830.764	7632.03
831.09	7592.03
831.417	7595.2
831.743	7573.05
832.069	7538.02
832.395	7594.07
832.722	7606.49
833.048	7500.96
833.374	7561.75
833.7	7497.8
834.026	7544.12
834.351	7488.76
834.677	7510.45
835.003	7534.18
835.329	7524.69
835.654	7484.01
835.98	7498.93
836.306	7471.13
836.631	7436.33
836.956	7485.14
837.282	7447.18
837.607	7411.47
837.932	7338.93
838.258	7435.2
838.583	7422.54
838.908	7405.37
839.233	7348.42
839.558	7319.04
839.883	7298.03
840.208	7299.84
840.533	7274.3
840.858	7320.4
841.182	7239.05
841.507	7248.99
841.832	7235.66
842.156	7230.69
842.481	7239.5
842.805	7178.03
843.13	7133.96
843.454	7183.46
843.778	7129.22
844.103	7188.88
844.427	7135.32
844.751	7098.26
845.075	7070.46
845.399	7080.86
845.723	7027.08
846.047	7002.89
846.371	6952.73
846.695	6976.68
847.019	6948.89
847.343	6925.83
847.666	6824.82
847.99	6820.53
848.313	6783.92
848.637	6759.29
848.96	6828.21
849.284	6747.31
849.607	6764.26
849.931	6747.31
850.254	6684.71
850.577	6619.18
850.9	6641.32
851.223	6561.55
851.546	6581.44
851.869	6505.96
852.192	6537.82
852.515	6450.37
852.838	6482.46
853.161	6477.03
853.483	6450.82
853.806	6394.32
854.129	6378.05
854.451	6385.28
854.774	6343.03
855.096	6317.72
855.419	6299.64
855.741	6317.72
856.063	6271.16
856.385	6277.94
856.708	6247.21
857.03	6235.01
857.352	6190.94
857.674	6217.83
857.996	6131.28
858.318	6164.27
858.64	6145.29
858.961	6099.64
859.283	6126.76
859.605	6104.39
859.926	6061.9
860.248	6023.71
860.57	6018.51
860.891	6033.88
861.212	5988.23
861.534	6006.76
861.855	5976.71
862.176	5926.09
862.498	6017.84
862.819	5977.39
863.14	5957.5
863.461	5931.28
863.782	5873.43
864.103	5896.03
864.424	5866.43
864.745	5891.51
865.065	5927.44
865.386	5831.85
865.707	5832.53
866.027	5899.2
866.348	5884.73
866.668	5841.12
866.989	5838.86
867.309	5780.33
867.63	5810.61
867.95	5818.29
868.27	5769.71
868.59	5784.4
868.91	5762.48
869.23	5756.15
869.55	5724.06
869.87	5775.58
870.19	5720.89
870.51	5754.34
870.83	5681.8
871.15	5659.65
871.469	5712.31
871.789	5722.93
872.109	5643.61
872.428	5662.59
872.748	5699.65
873.067	5628.69
873.386	5650.16
873.706	5606.77
874.025	5574.46
874.344	5605.42
874.663	5655.81
874.982	5559.09
875.301	5617.85
875.62	5573.33
875.939	5565.42
876.258	5565.64
876.577	5529.26
876.896	5544.4
877.214	5509.6
877.533	5527.68
877.852	5531.52
878.17	5518.41
878.489	5529.04
878.807	5510.5
879.125	5519.32
879.444	5501.92
879.762	5466.44
880.08	5450.85
880.398	5441.13
880.716	5470.96
881.034	5459.43
881.352	5423.73
881.67	5457.4
881.988	5389.38
882.306	5438.42
882.624	5418.98
882.941	5370.85
883.259	5385.99
883.577	5313.22
883.894	5341.24
884.212	5351.86
884.529	5357.51
884.846	5343.5
885.164	5310.96
885.481	5338.76
885.798	5305.99
886.115	5229.38
886.432	5296.73
886.75	5216.5
887.067	5229.16
887.383	5193.9
887.7	5229.83
888.017	5211.3
888.334	5201.59
888.651	5155.71
888.967	5179.21
889.284	5150.51
889.6	5157.52
889.917	5077.52
890.233	5108.71
890.55	5112.32
890.866	5064.64
891.182	5059.67
891.498	5107.35
891.815	5030.52
892.131	5041.59
892.447	5022.16
892.763	5024.19
893.079	4967.47
893.395	4991.2
893.71	4997.98
894.026	4971.08
894.342	5008.6
894.657	4915.94
894.973	4965.66
895.289	4940.58
895.604	4870.97
895.92	4835.72
896.235	4889.5
896.55	4874.59
896.865	4801.82
897.181	4817.42
897.496	4783.74
897.811	4806.57
898.126	4791.2
898.441	4745.78
898.756	4749.62
899.071	4703.29
899.386	4717.53
899.7	4678.89
900.015	4687.02
900.33	4615.84
900.644	4615.16
900.959	4628.27
901.273	4646.12
901.588	4607.25
901.902	4556.86
902.216	4567.93
902.531	4573.35
902.845	4540.81
903.159	4560.47
903.473	4473.7
903.787	4487.71
904.101	4455.39
904.415	4441.61
904.729	4444.09
905.042	4403.64
905.356	4421.27
905.67	4395.51
905.984	4403.87
906.297	4439.57
906.611	4359.12
906.924	4346.69
907.237	4347.6
907.551	4374.26
907.864	4299.69
908.177	4278.9
908.491	4322.06
908.804	4271.22
909.117	4239.13
909.43	4261.27
909.743	4239.35
910.056	4213.14
910.368	4209.97
910.681	4156.64
910.994	4148.96
911.307	4142.86
911.619	4120.03
911.932	4095.63
912.244	4122.52
912.557	4082.07
912.869	4061.28
913.181	4056.76
913.494	4055.85
913.806	4032.35
914.118	3993.48
914.43	3997.1
914.742	3991
915.054	3956.65
915.366	3931.56
915.678	3927.27
915.99	3866.71
916.302	3894.5
916.613	3833.03
916.925	3903.99
917.236	3854.73
917.548	3819.7
917.859	3855.86
918.171	3796.43
918.482	3827.84
918.794	3870.32
919.105	3784.9
919.416	3755.97
919.727	3769.53
920.038	3779.25
920.349	3732.02
920.66	3708.97
920.971	3732.47
921.282	3715.75
921.593	3661.74
921.903	3682.08
922.214	3636.2
922.525	3627.62
922.835	3598.24
923.146	3623.1
923.456	3569.09
923.767	3595.3
924.077	3580.16
924.387	3598.46
924.697	3555.98
925.008	3514.17
925.318	3545.81
925.628	3508.75
925.938	3495.87
926.248	3490.67
926.558	3446.83
926.867	3452.93
927.177	3449.99
927.487	3371.8
927.796	3364.8
928.106	3383.56
928.416	3383.33
928.725	3412.25
929.034	3371.35
929.344	3380.17
929.653	3365.7
929.962	3299.49
930.271	3334.52
930.581	3273.5
930.89	3294.07
931.199	3242.54
931.508	3214.07
931.817	3250.68
932.125	3251.36
932.434	3229.66
932.743	3160.51
933.051	3177.46
933.36	3135.88
933.669	3161.64
933.977	3147.63
934.286	3142.21
934.594	3110.57
934.902	3101.98
935.21	3070.12
935.519	3106.95
935.827	3061.76
936.135	3066.73
936.443	3069.44
936.751	3046.39
937.059	3021.53
937.367	2998.03
937.674	3045.03
937.982	3005.94
938.29	2981.98
938.597	2970.91
938.905	2918.26
939.213	2922.78
939.52	2945.37
939.827	2909.67
940.135	2943.57
940.442	2918.26
940.749	2909.44
941.056	2914.41
941.363	2891.36
941.67	2880.07
941.977	2853.63
942.284	2822.21
942.591	2877.35
942.898	2803.46
943.205	2830.8
943.511	2791.48
943.818	2786.51
944.125	2743.12
944.431	2827.64
944.738	2743.35
945.044	2771.82
945.35	2709.22
945.657	2708.77
945.963	2735.89
946.269	2721.2
946.575	2706.51
946.881	2694.31
947.187	2697.47
947.493	2713.97
947.799	2657.92
948.105	2647.08
948.41	2647.3
948.716	2614.54
949.022	2641.88
949.327	2588.55
949.633	2623.8
949.938	2597.14
950.244	2568.21
950.549	2536.35
950.854	2541.09
951.16	2557.36
951.465	2556.23
951.77	2526.4
952.075	2490.02
952.38	2516.91
952.685	2534.99
952.99	2516.46
953.294	2472.84
953.599	2464.71
953.904	2409.8
954.209	2440.08
954.513	2431.94
954.818	2468.55
955.122	2449.12
955.426	2443.47
955.731	2395.33
956.035	2404.15
956.339	2378.16
956.643	2403.69
956.948	2325.96
957.252	2383.58
957.556	2377.03
957.86	2358.05
958.163	2333.19
958.467	2327.54
958.771	2315.56
959.075	2351.72
959.378	2310.14
959.682	2294.09
959.985	2285.96
960.289	2275.11
960.592	2257.71
960.896	2251.16
961.199	2225.39
961.502	2217.94
961.805	2212.51
962.108	2233.98
962.411	2214.32
962.714	2193.3
963.017	2205.51
963.32	2191.5
963.623	2175
963.926	2147.88
964.228	2144.72
964.531	2124.38
964.833	2137.26
965.136	2120.54
965.438	2126.64
965.741	2137.03
966.043	2107.43
966.345	2111.95
966.648	2116.47
966.95	2096.13
967.252	2116.47
967.554	2082.8
967.856	2094.1
968.158	2072.86
968.46	2058.17
968.761	2024.95
969.063	2057.49
969.365	2017.94
969.666	2040.31
969.968	2013.87
970.269	2031.05
970.571	2002.57
970.872	1970.03
971.174	1966.64
971.475	1976.81
971.776	1993.08
972.077	1963.93
972.378	1932.97
972.679	1932.29
972.98	1947.43
973.281	1936.14
973.582	1963.48
973.883	1935.91
974.183	1923.03
974.484	1920.32
974.785	1921.67
975.085	1881.45
975.386	1865.4
975.686	1877.15
975.986	1894.33
976.287	1846.87
976.587	1850.26
976.887	1846.87
977.187	1845.29
977.487	1829.7
977.787	1826.76
978.087	1841.45
978.387	1808.46
978.687	1817.49
978.987	1803.03
979.286	1786.99
979.586	1799.64
979.885	1797.16
980.185	1769.59
980.484	1718.74
980.784	1793.99
981.083	1745.41
981.382	1735.46
981.682	1745.63
981.981	1739.98
982.28	1726.88
982.579	1716.93
982.878	1707.67
983.177	1699.31
983.475	1714.45
983.774	1680.78
984.073	1677.16
984.372	1658.63
984.67	1678.97
984.969	1666.09
985.267	1639.65
985.566	1635.35
985.864	1644.62
986.162	1667.22
986.461	1638.06
986.759	1612.98
987.057	1639.87
987.355	1615.47
987.653	1648.23
987.951	1574.34
988.249	1615.92
988.547	1605.07
988.844	1618.63
989.142	1563.72
989.44	1551.96
989.737	1548.58
990.035	1547.9
990.332	1547.9
990.63	1517.39
990.927	1514.45
991.224	1539.54
991.521	1546.54
991.819	1535.92
992.116	1517.16
992.413	1495.02
992.71	1494.34
993.006	1504.73
993.303	1497.95
993.6	1509.48
993.897	1483.04
994.193	1473.1
994.49	1477.62
994.787	1467.67
995.083	1454.79
995.379	1454.11
995.676	1442.14
995.972	1443.95
996.268	1416.6
996.565	1415.25
996.861	1407.56
997.157	1437.84
997.453	1403.95
997.749	1396.04
998.044	1418.18
998.34	1390.16
998.636	1399.65
998.932	1381.8
999.227	1357.39
999.523	1364.85
999.818	1368.47
1000.114	1343.61
1000.409	1360.11
1000.704	1329.82
1001	1332.31
1001.295	1309.94
1001.59	1303.84
1001.885	1304.97
1002.18	1307
1002.475	1326.66
1002.77	1295.02
1003.065	1303.84
1003.359	1281.24
1003.654	1295.47
1003.949	1261.58
1004.243	1266.32
1004.538	1263.16
1004.832	1282.59
1005.127	1215.93
1005.421	1216.61
1005.715	1260.45
1006.009	1210.05
1006.304	1196.27
1006.598	1220.67
1006.892	1199.88
1007.186	1207.57
1007.48	1205.53
1007.773	1220.9
1008.067	1192.65
1008.361	1166.44
1008.655	1177.29
1008.948	1162.82
1009.242	1125.54
1009.535	1165.31
1009.829	1160.56
1010.122	1167.12
1010.415	1137.51
1010.708	1140.45
1011.001	1113.11
1011.295	1136.61
1011.588	1119.89
1011.881	1121.47
1012.173	1101.13
1012.466	1102.03
1012.759	1088.02
1013.052	1084.86
1013.344	1105.42
1013.637	1101.58
1013.93	1062.03
1014.222	1082.37
1014.514	1056.84
1014.807	1067.01
1015.099	1059.32
1015.391	1049.61
1015.683	1031.75
1015.976	1025.88
1016.268	1006.67
1016.56	1021.58
1016.851	1009.61
1017.143	1042.6
1017.435	1020.91
1017.727	985.88
1018.018	1010.06
1018.31	1020.91
1018.602	984.75
1018.893	980.68
1019.185	1008.93
1019.476	980.45
1019.767	975.26
1020.058	974.13
1020.35	975.71
1020.641	956.95
1020.932	941.13
1021.223	938.42
1021.514	936.61
1021.804	950.62
1022.095	949.27
1022.386	897.29
1022.677	914.92
1022.967	927.35
1023.258	908.14
1023.548	921.47
1023.839	926.9
1024.129	877.18
1024.419	879.21
1024.709	894.13
1025	869.04
1025.29	880.57
1025.58	857.29
1025.87	863.17
1026.16	843.06
1026.449	865.66
1026.739	828.37
1027.029	844.19
1027.319	858.88
1027.608	829.72
1027.898	827.69
1028.187	852.55
1028.477	822.27
1028.766	812.32
1029.055	835.37
1029.344	825.66
1029.634	831.76
1029.923	795.37
1030.212	812.32
1030.501	787.24
1030.79	780.01
1031.078	780.01
1031.367	806
1031.656	785.21
1031.945	768.71
1032.233	783.85
1032.522	766.67
1032.81	755.6
1033.099	750.4
1033.387	766.9
1033.675	744.53
1033.963	745.88
1034.251	748.82
1034.54	754.92
1034.828	732.1
1035.116	719.22
1035.403	724.19
1035.691	727.13
1035.979	709.73
1036.267	708.15
1036.554	715.83
1036.842	689.61
1037.129	717.86
1037.417	702.27
1037.704	676.06
1037.992	700.01
1038.279	684.87
1038.566	691.65
1038.853	691.65
1039.14	691.65
