Data from tablewood_dark_bookshelf_FLMS001491_00033.txt Node
Date: Wed Feb 08 14:14:25 GMT 2017
User: dcchb
Spectrometer: FLMS00149
Trigger mode: 0
Integration Time (sec): 2.000000E-2
Scans to average: 10
Electric dark correction enabled: true
Nonlinearity correction enabled: false
Boxcar width: 0
XAxis mode: Wavelengths
Number of Pixels in Spectrum: 2048
>>>>>Begin Spectral Data<<<<<
341.393	11.72
341.776	11.72
342.16	11.72
342.543	-45.68
342.927	-59.46
343.31	-50.42
343.693	-79.8
344.077	-86.58
344.46	-75.28
344.843	-64.89
345.226	-28.05
345.61	-25.34
345.993	-5
346.376	-5.9
346.759	-5.23
347.142	19.18
347.525	52.4
347.908	72.74
348.291	78.84
348.674	101.66
349.057	101.66
349.44	144.6
349.823	131.04
350.206	171.49
350.588	177.82
350.971	204.71
351.354	216.92
351.737	241.1
352.119	231.15
352.502	249
352.884	271.15
353.267	279.29
353.65	301.21
354.032	297.59
354.414	296.24
354.797	305.5
355.179	335.56
355.562	319.74
355.944	319.51
356.326	331.94
356.709	331.26
357.091	334.43
357.473	326.74
357.855	325.16
358.238	331.26
358.62	322
359.002	345.5
359.384	343.92
359.766	339.17
360.148	342.11
360.53	363.13
360.912	346.63
361.294	360.87
361.676	321.09
362.057	350.47
362.439	331.04
362.821	339.62
363.203	326.52
363.584	317.25
363.966	330.81
364.348	319.06
364.729	324.48
365.111	331.94
365.493	325.84
365.874	310.7
366.256	325.16
366.637	321.32
367.019	312.96
367.4	322.68
367.781	305.95
368.163	314.54
368.544	316.57
368.925	308.89
369.306	345.5
369.688	311.6
370.069	334.88
370.45	332.84
370.831	317.7
371.212	329
371.593	327.65
371.974	319.29
372.355	340.98
372.736	314.31
373.117	319.96
373.498	345.95
373.879	329
374.26	320.19
374.641	325.39
375.021	322.68
375.402	327.65
375.783	321.55
376.163	331.26
376.544	322.9
376.925	349.57
377.305	337.82
377.686	335.1
378.066	350.7
378.447	344.14
378.827	353.41
379.208	354.09
379.588	332.17
379.968	306.18
380.349	347.76
380.729	360.41
381.109	346.4
381.489	338.72
381.87	346.63
382.25	364.93
382.63	347.31
383.01	346.4
383.39	343.47
383.77	340.08
384.15	371.71
384.53	369.68
384.91	374.88
385.29	363.35
385.67	359.96
386.049	359.28
386.429	382.11
386.809	386.85
387.189	388.44
387.568	373.97
387.948	395.22
388.328	388.89
388.707	369.68
389.087	363.58
389.466	372.84
389.846	371.04
390.225	390.24
390.605	386.85
390.984	387.31
391.363	425.5
391.743	405.61
392.122	393.18
392.501	408.1
392.881	420.75
393.26	404.48
393.639	401.09
394.018	398.38
394.397	424.59
394.776	421.43
395.155	423.24
395.534	425.5
395.913	445.61
396.292	414.2
396.671	432.5
397.05	436.8
397.429	418.94
397.808	423.24
398.186	427.08
398.565	440.64
398.944	455.55
399.323	441.99
399.701	458.26
400.08	450.36
400.458	433.86
400.837	444.93
401.215	472.05
401.594	443.35
401.972	472.5
402.351	476.57
402.729	469.34
403.107	452.84
403.486	467.3
403.864	469.56
404.242	474.76
404.62	483.57
404.999	472.95
405.377	463.01
405.755	484.7
406.133	479.28
406.511	486.51
406.889	495.33
407.267	491.03
407.645	484.48
408.023	507.53
408.401	507.76
408.779	497.13
409.156	519.51
409.534	529.22
409.912	517.47
410.29	533.74
410.667	558.15
411.045	507.76
411.422	540.3
411.8	549.79
412.178	559.28
412.555	557.47
412.933	543.23
413.31	553.4
413.687	566.28
414.065	569.67
414.442	573.06
414.819	568.09
415.197	569.67
415.574	569.45
415.951	586.85
416.328	613.29
416.705	593.85
417.082	580.3
417.46	592.27
417.837	601.76
418.214	603.35
418.591	610.8
418.967	616.45
419.344	617.13
419.721	624.36
420.098	622.55
420.475	616.9
420.852	622.33
421.228	634.31
421.605	635.89
421.982	643.8
422.358	631.59
422.735	631.59
423.111	657.58
423.488	687.41
423.864	648.99
424.241	679.05
424.617	679.95
424.994	690.58
425.37	703.91
425.746	695.77
426.123	669.56
426.499	705.04
426.875	705.49
427.251	724.25
427.627	720.18
428.003	720.4
428.379	754.08
428.756	757.24
429.132	731.93
429.507	754.3
429.883	748.88
430.259	770.35
430.635	765.6
431.011	774.41
431.387	768.09
431.763	782.55
432.138	812.38
432.514	797.01
432.89	793.4
433.265	829.33
433.641	832.94
434.016	819.39
434.392	839.5
434.767	843.57
435.143	854.86
435.518	860.97
435.894	879.27
436.269	909.78
436.644	893.96
437.02	891.7
437.395	895.54
437.77	911.36
438.145	909.55
438.52	904.35
438.895	912.49
439.271	918.14
439.646	936.44
440.021	966.95
440.395	968.53
440.77	974.41
441.145	961.75
441.52	973.28
441.895	941.19
442.27	975.99
442.645	981.41
443.019	988.19
443.394	989.55
443.769	959.72
444.143	1017.8
444.518	1009.44
444.892	993.84
445.267	1011.7
445.641	1044.69
446.016	1039.72
446.39	1003.56
446.764	1055.09
447.139	1027.97
447.513	1057.57
447.887	1072.49
448.262	1091.69
448.636	1083.11
449.01	1080.17
449.384	1082.66
449.758	1085.82
450.132	1107.51
450.506	1116.55
450.88	1110.45
451.254	1112.71
451.628	1132.6
452.002	1127.17
452.376	1113.39
452.75	1152.03
453.123	1159.04
453.497	1150
453.871	1172.82
454.244	1197
454.618	1173.73
454.992	1221.63
455.365	1213.5
455.739	1222.31
456.112	1266.61
456.486	1246.49
456.859	1292.82
457.232	1297.56
457.606	1291.24
457.979	1299.82
458.352	1327.62
458.725	1342.76
459.099	1361.07
459.472	1375.08
459.845	1388.18
460.218	1379.82
460.591	1394.96
460.964	1415.98
461.337	1432.02
461.71	1453.49
462.083	1465.7
462.456	1463.89
462.829	1447.39
463.201	1490.1
463.574	1486.26
463.947	1516.99
464.32	1540.5
464.692	1546.6
465.065	1586.82
465.438	1583.88
465.81	1617.56
466.183	1631.34
466.555	1634.96
466.928	1648.29
467.3	1636.76
467.672	1663.2
468.045	1706.37
468.417	1746.59
468.789	1733.26
469.161	1750.21
469.534	1799.92
469.906	1791.34
470.278	1848.96
470.65	1839.7
471.022	1874.95
471.394	1916.76
471.766	1888.96
472.138	1914.5
472.51	1945.46
472.882	1979.35
473.253	2025.91
473.625	2025.68
473.997	2070.88
474.369	2119.46
474.74	2097.09
475.112	2144.1
475.484	2164.89
475.855	2222.51
476.227	2246.92
476.598	2275.62
476.97	2292.34
477.341	2328.5
477.713	2360.14
478.084	2348.16
478.455	2439.91
478.827	2461.38
479.198	2506.12
479.569	2496.18
479.94	2563.97
480.311	2599
480.682	2643.74
481.053	2697.75
481.424	2696.62
481.795	2750.86
482.166	2781.59
482.537	2832.44
482.908	2878.09
483.279	2938.65
483.65	2941.14
484.021	2978.2
484.391	3022.49
484.762	3069.72
485.133	3121.02
485.503	3116.95
485.874	3232.88
486.244	3266.55
486.615	3287.79
486.985	3298.42
487.356	3319.88
487.726	3403.5
488.097	3445.76
488.467	3408.02
488.837	3545.42
489.207	3570.5
489.578	3587.67
489.948	3665.86
490.318	3716.71
490.688	3714.9
491.058	3757.39
491.428	3770.04
491.798	3835.13
492.168	3911.51
492.538	3935.01
492.908	3971.62
493.278	4003.48
493.648	4034.67
494.017	4088.9
494.387	4063.59
494.757	4134.1
495.126	4196.02
495.496	4194.21
495.866	4203.25
496.235	4258.84
496.605	4313.08
496.974	4340.2
497.344	4325.28
497.713	4370.7
498.082	4436.24
498.452	4458.84
498.821	4462.45
499.19	4471.94
499.559	4559.4
499.928	4590.13
500.298	4576.12
500.667	4672.39
501.036	4620.87
501.405	4697.48
501.774	4685.72
502.143	4720.07
502.512	4793.97
502.88	4819.73
503.249	4839.62
503.618	4848.21
503.987	4901.99
504.356	4914.64
504.724	4971.59
505.093	4988.77
505.462	5037.13
505.83	5021.08
506.199	5100.63
506.567	5075.77
506.936	5109.89
507.304	5205.26
507.672	5203.68
508.041	5254.3
508.409	5260.62
508.777	5348.08
509.145	5340.4
509.514	5378.59
509.882	5351.92
510.25	5400.28
510.618	5468.98
510.986	5484.35
511.354	5540.84
511.722	5621.07
512.09	5586.72
512.458	5594.85
512.826	5664.91
513.193	5703.78
513.561	5752.59
513.929	5804.34
514.297	5887.5
514.664	5876.65
515.032	5895.18
515.4	5940.83
515.767	5968.18
516.135	6012.24
516.502	6052.02
516.869	6051.11
517.237	6084.56
517.604	6139.92
517.972	6197.1
518.339	6267.15
518.706	6259.24
519.073	6295.4
519.44	6336.53
519.808	6441.61
520.175	6433.47
520.542	6518.44
520.909	6569.29
521.276	6580.59
521.643	6674.15
522.009	6701.49
522.376	6754.82
522.743	6801.37
523.11	6864.88
523.477	6929.06
523.843	6956.85
524.21	7052.44
524.577	7078.2
524.943	7083.4
525.31	7149.61
525.676	7226.67
526.043	7296.05
526.409	7303.28
526.776	7404.97
527.142	7415.14
527.508	7477.52
527.874	7512.32
528.241	7589.6
528.607	7572.88
528.973	7703.95
529.339	7680
529.705	7652.88
530.071	7798.86
530.437	7873.44
530.803	7904.17
531.169	7920.89
531.535	7971.97
531.901	7997.95
532.267	8053.55
532.632	8125.41
532.998	8135.8
533.364	8204.05
533.73	8177.61
534.095	8279.3
534.461	8363.14
534.826	8292.86
535.192	8309.58
535.557	8399.07
535.923	8448.34
536.288	8495.57
536.653	8523.59
537.019	8507.32
537.384	8528.11
537.749	8609.46
538.114	8608.11
538.479	8637.03
538.845	8705.28
539.21	8714.32
539.575	8707.09
539.94	8815.33
540.305	8862.34
540.67	8873.64
541.034	8962.45
541.399	8897.36
541.764	8963.58
542.129	8991.6
542.494	9087.64
542.858	9125.16
543.223	9035.21
543.587	9106.85
543.952	9060.07
544.316	9169.22
544.681	9230.24
545.045	9298.03
545.41	9275.66
545.774	9333.06
546.138	9310.91
546.503	9358.82
546.867	9440.18
547.231	9503.45
547.595	9543.68
547.959	9504.13
548.324	9537.57
548.688	9524.92
549.052	9550.23
549.416	9643.33
549.779	9684.24
550.143	9689.89
550.507	9742.09
550.871	9796.55
551.235	9885.59
551.599	9915.42
551.962	9961.74
552.326	9999.03
552.689	9970.78
553.053	10039.71
553.417	10059.14
553.78	10201.51
554.143	10182.53
554.507	10160.16
554.87	10242.41
555.234	10348.63
555.597	10312.02
555.96	10333.94
556.323	10368.29
556.686	10418
557.05	10527.15
557.413	10594.95
557.776	10618.22
558.139	10728.73
558.502	10666.13
558.865	10785
559.228	10790.65
559.59	10912
559.953	10888.95
560.316	11000.36
560.679	11029.96
561.041	11135.72
561.404	11148.61
561.767	11253.69
562.129	11253.91
562.492	11381.14
562.854	11341.37
563.217	11384.31
563.579	11492.55
563.941	11579.1
564.304	11566.45
564.666	11707.91
565.028	11750.85
565.39	11615.26
565.753	11757.4
566.115	11761.47
566.477	11943.39
566.839	11955.36
567.201	12074.23
567.563	12106.77
567.925	12103.16
568.287	12157.39
568.648	12243.72
569.01	12337.73
569.372	12476.93
569.734	12396.93
570.095	12563.03
570.457	12610.04
570.819	12616.14
571.18	12685.06
571.542	12737.04
571.903	12778.84
572.265	12808.22
572.626	12793.08
572.987	12968.67
573.349	12952.4
573.71	13048.89
574.071	13196.69
574.432	13138.16
574.794	13209.57
575.155	13284.59
575.516	13276.68
575.877	13326.63
576.238	13399.85
576.599	13441.43
576.96	13417.92
577.32	13559.84
577.681	13578.37
578.042	13645.94
578.403	13692.04
578.763	13726.62
579.124	13724.81
579.485	13861.75
579.845	13810.68
580.206	13894.97
580.566	13912.83
580.927	13965.25
581.287	14006.84
581.648	13955.31
582.008	14105.14
582.368	13999.15
582.728	14165.25
583.089	14227.62
583.449	14165.7
583.809	14210.67
584.169	14212.93
584.529	14215.87
584.889	14287.05
585.249	14368.86
585.609	14347.17
585.969	14436.88
586.329	14395.3
586.688	14485.01
587.048	14494.73
587.408	14541.28
587.768	14454.28
588.127	14577.89
588.487	14508.97
588.846	14748.51
589.206	14586.03
589.565	14621.06
589.925	14770.88
590.284	14749.87
590.643	14783.09
591.003	14864.67
591.362	14906.47
591.721	14844.1
592.08	14786.25
592.44	14921.61
592.799	14941.95
593.158	14972.69
593.517	14982.4
593.876	14995.51
594.235	15019.46
594.593	14986.7
594.952	15039.58
595.311	15057.65
595.67	15075.28
596.029	15251.55
596.387	15240.47
596.746	15250.19
597.104	15199.57
597.463	15291.32
597.822	15298.78
598.18	15263.53
598.538	15297.87
598.897	15464.2
599.255	15264.43
599.613	15527.25
599.972	15426.68
600.33	15440.24
600.688	15441.6
601.046	15592.56
601.404	15648.15
601.762	15589.84
602.12	15673.01
602.478	15661.25
602.836	15562.27
603.194	15622.39
603.552	15680.92
603.91	15690.41
604.268	15765.66
604.625	15647.47
604.983	15786.22
605.341	15689.28
605.698	15848.82
606.056	15823.51
606.413	15837.97
606.771	15860.8
607.128	15915.49
607.485	15898.99
607.843	15896.05
608.2	16028.48
608.557	15990.29
608.914	15991.87
609.272	16049.72
609.629	16127.46
609.986	16092.2
610.343	16044.3
610.7	16146.89
611.057	16186.66
611.414	16289.03
611.771	16193.22
612.127	16328.58
612.484	16297.4
612.841	16434.34
613.198	16372.87
613.554	16342.82
613.911	16410.16
614.267	16436.6
614.624	16433.66
614.98	16463.04
615.337	16568.12
615.693	16511.63
616.05	16425.3
616.406	16635.47
616.762	16557.28
617.118	16613.77
617.475	16557.95
617.831	16677.95
618.187	16597.95
618.543	16658.97
618.899	16842.47
619.255	16740.1
619.611	16750.94
619.967	16795.91
620.323	16882.47
620.678	16717.5
621.034	16784.16
621.39	16658.74
621.746	16748.23
622.101	16941.45
622.457	16832.07
622.812	16861.9
623.168	16850.15
623.523	16807.44
623.879	16919.07
624.234	16814.44
624.589	16823.03
624.945	16893.09
625.3	16811.06
625.655	16905.29
626.01	16847.44
626.365	16922.24
626.72	16954.1
627.075	16956.14
627.43	16909.13
627.785	16792.3
628.14	16909.36
628.495	16885.86
628.85	16893.09
629.205	16817.16
629.559	16839.75
629.914	16818.51
630.269	16840.88
630.623	16836.37
630.978	16792.3
631.332	16894.22
631.687	16870.26
632.041	16842.01
632.396	16875.23
632.75	16798.4
633.104	16748.23
633.459	16669.36
633.813	16769.7
634.167	16745.75
634.521	16737.61
634.875	16739.64
635.229	16742.58
635.583	16680.66
635.937	16602.25
636.291	16702.13
636.645	16652.64
636.999	16689.7
637.352	16654.45
637.706	16557.28
638.06	16602.7
638.413	16629.37
638.767	16485.87
639.121	16570.38
639.474	16424.4
639.828	16493.55
640.181	16423.49
640.534	16470.95
640.888	16344.17
641.241	16316.15
641.594	16454
641.947	16532.64
642.301	16368.81
642.654	16355.02
643.007	16301.46
643.36	16272.99
643.713	16289.26
644.066	16425.08
644.419	16290.62
644.771	16274.12
645.124	15931.98
645.477	16055.14
645.83	15912.1
646.182	15812.21
646.535	15702.61
646.888	15877.29
647.24	15841.59
647.593	15958.42
647.945	15860.35
648.298	15777.18
648.65	15824.87
649.002	15833.91
649.355	15756.62
649.707	15667.36
650.059	15733.57
650.411	15962.49
650.763	16026.44
651.115	16136.5
651.467	16094.24
651.819	16160.22
652.171	16075.48
652.523	16101.47
652.875	16044.3
653.227	15892.89
653.578	16081.81
653.93	16099.89
654.282	16037.52
654.633	16017.63
654.985	16035.71
655.337	16050.62
655.688	16031.87
656.039	16064.86
656.391	15969.04
656.742	15922.49
657.094	16069.38
657.445	16055.37
657.796	15950.29
658.147	16025.09
658.498	15993.9
658.849	15993.45
659.2	15969.5
659.551	15926.78
659.902	16099.44
660.253	16000.91
660.604	15974.47
660.955	15849.05
661.306	16002.94
661.656	15927.24
662.007	15915.94
662.358	15911.42
662.708	15976.95
663.059	15902.83
663.409	15877.75
663.76	15954.58
664.11	15984.86
664.461	16021.25
664.811	15922.26
665.161	15905.99
665.511	15939.21
665.862	15955.26
666.212	15996.84
666.562	16024.64
666.912	15958.42
667.262	15936.95
667.612	15934.24
667.962	15936.05
668.312	15907.12
668.662	15986.44
669.011	15981.25
669.361	15929.72
669.711	15972.43
670.06	15930.17
670.41	15872.55
670.76	15811.53
671.109	15849.27
671.459	15949.61
671.808	15790.52
672.157	15926.11
672.507	15806.34
672.856	15863.28
673.205	15776.51
673.554	15934.02
673.904	15789.84
674.253	15854.02
674.602	15842.72
674.951	15609.28
675.3	15484.31
675.649	15823.96
675.998	15797.07
676.346	15838.88
676.695	15797.07
677.044	15702.61
677.393	15807.47
677.741	15803.4
678.09	15726.79
678.438	15720.24
678.787	15843.62
679.135	15817.18
679.484	15712.33
679.832	15801.59
680.181	15646.11
680.529	15689.05
680.877	15613.57
681.225	15609.73
681.573	15769.27
681.922	15569.05
682.27	15559.79
682.618	15655.38
682.966	15481.15
683.314	15542.84
683.661	15500.81
684.009	15425.78
684.357	15341.72
684.705	15418.78
685.053	15395.95
685.4	15464.42
685.748	15360.7
686.095	15399.34
686.443	15332.9
686.79	15308.95
687.138	15275.28
687.485	15241.15
687.832	15202.06
688.18	15247.25
688.527	15172.45
688.874	15193.02
689.221	15137.43
689.568	15126.13
689.915	15099.46
690.262	15028.73
690.609	15110.76
690.956	14899.69
691.303	14885
691.65	14830.54
691.997	14828.06
692.344	14759.58
692.69	14803.2
693.037	14816.53
693.383	14627.61
693.73	14767.72
694.077	14604.33
694.423	14649.76
694.769	14709.42
695.116	14617.44
695.462	14562.98
695.808	14502.64
696.155	14487.73
696.501	14419.93
696.847	14401.85
697.193	14351.01
697.539	14445.24
697.885	14340.61
698.231	14193.5
698.577	14315.08
698.923	14271.23
699.269	14201.63
699.614	14138.13
699.96	14061.3
700.306	14130
700.651	14021.52
700.997	13972.03
701.342	13931.13
701.688	14017.91
702.033	13885.26
702.379	13891.58
702.724	13868.53
703.069	13873.96
703.415	13816.33
703.76	13756.9
704.105	13776.11
704.45	13680.97
704.795	13616.11
705.14	13570.69
705.485	13579.05
705.83	13561.88
706.175	13591.93
706.52	13564.59
706.865	13403.91
707.209	13423.57
707.554	13452.05
707.899	13443.01
708.243	13398.49
708.588	13267.19
708.932	13191.94
709.277	13252.05
709.621	13258.38
709.966	13211.6
710.31	13267.65
710.654	13144.48
710.998	13187.65
711.342	13213.18
711.687	13087.76
712.031	13134.77
712.375	13066.97
712.719	13043.02
713.063	13064.26
713.407	13031.04
713.75	13046.86
714.094	13004.38
714.438	12936.81
714.782	12970.7
715.125	12777.94
715.469	12943.13
715.812	12812.52
716.156	12739.52
716.499	12704.5
716.843	12826.75
717.186	12826.08
717.53	12799.41
717.873	12869.01
718.216	12697.49
718.559	12724.16
718.902	12633.99
719.246	12633.09
719.589	12572.75
719.932	12600.54
720.275	12637.38
720.617	12622.92
720.96	12513.32
721.303	12553.09
721.646	12655.68
721.989	12559.87
722.331	12635.8
722.674	12565.52
723.016	12578.17
723.359	12498.63
723.701	12608
724.044	12453.43
724.386	12325.3
724.729	12421.11
725.071	12494.11
725.413	12397.16
725.755	12408.91
726.097	12343.83
726.439	12314.68
726.782	12273.32
727.124	12372.98
727.465	12265.86
727.807	12337.5
728.149	12223.38
728.491	12306.54
728.833	12347.44
729.175	12259.31
729.516	12287.56
729.858	12316.48
730.199	12227.67
730.541	12274.68
730.882	12244.85
731.224	12221.12
731.565	12176.37
731.906	12163.49
732.248	12247.11
732.589	12225.64
732.93	12102.25
733.271	12056.15
733.612	12152.65
733.953	12095.25
734.294	12108.58
734.635	12141.8
734.976	12144.29
735.317	12075.13
735.658	12073.78
735.999	12057.96
736.339	12095.47
736.68	12091.18
737.021	12063.84
737.361	12015.7
737.702	12070.16
738.042	12116.49
738.383	11989.04
738.723	12068.58
739.063	12088.02
739.404	12090.5
739.744	11994.01
740.084	12058.41
740.424	12021.12
740.764	12052.31
741.104	12042.37
741.444	11944.74
741.784	11879.89
742.124	11920.56
742.464	11946.1
742.804	11878.98
743.143	11828.14
743.483	11900.22
743.823	11787.68
744.162	11823.62
744.502	11910.62
744.841	11797.85
745.181	11920.34
745.52	11766.22
745.86	11778.65
746.199	11777.06
746.538	11850.96
746.877	11876.5
747.216	11889.38
747.556	11858.42
747.895	11901.81
748.234	11767.8
748.573	11775.26
748.911	11744.3
749.25	11789.27
749.589	11678.53
749.928	11744.75
750.267	11759.21
750.605	11663.62
750.944	11689.83
751.283	11615.03
751.621	11675.6
751.96	11657.97
752.298	11688.48
752.636	11709.95
752.975	11618.88
753.313	11593.11
753.651	11652.55
753.989	11529.84
754.327	11566.9
754.666	11509.95
755.004	11509.5
755.342	11518.31
755.679	11469.95
756.017	11428.37
756.355	11471.53
756.693	11393.34
757.031	11452.78
757.368	11389.95
757.706	11350.86
758.044	11251.65
758.381	11350.41
758.719	11296.4
759.056	11329.17
759.394	11235.61
759.731	11147.93
760.068	11163.97
760.405	11115.84
760.743	11140.02
761.08	11167.14
761.417	11055.05
761.754	11069.96
762.091	11026.35
762.428	10985.9
762.765	10980.25
763.102	10945.9
763.438	10987.93
763.775	10913.81
764.112	10817.09
764.449	10828.16
764.785	10837.88
765.122	10805.56
765.458	10762.63
765.795	10759.24
766.131	10696.87
766.467	10547.72
766.804	10661.84
767.14	10521.5
767.476	10516.53
767.812	10452.13
768.148	10464.56
768.485	10436.76
768.821	10381.39
769.157	10378.46
769.492	10384.56
769.828	10333.71
770.164	10238.57
770.5	10253.26
770.836	10210.1
771.171	10197.67
771.507	10141.17
771.842	10118.35
772.178	10100.5
772.513	10043.78
772.849	10038.13
773.184	9964.46
773.519	10002.19
773.855	9893.27
774.19	9923.55
774.525	9841.07
774.86	9780.51
775.195	9723.56
775.53	9744.35
775.865	9708.87
776.2	9684.91
776.535	9543
776.87	9538.48
777.205	9537.57
777.539	9519.5
777.874	9491.02
778.209	9454.41
778.543	9464.36
778.878	9376.45
779.212	9371.48
779.547	9221.42
779.881	9317.01
780.215	9216.23
780.55	9231.82
780.884	9170.35
781.218	9203.57
781.552	9227.07
781.886	9103.69
782.22	9048.55
782.554	9081.54
782.888	8950.24
783.222	8909.79
783.556	8856.91
783.889	8850.13
784.223	8848.1
784.557	8776.69
784.89	8797.03
785.224	8747.76
785.557	8652.4
785.891	8694.43
786.224	8657.6
786.558	8648.56
786.891	8620.08
787.224	8578.5
787.557	8554.55
787.891	8463.48
788.224	8445.17
788.557	8375.8
788.89	8402.69
789.223	8412.18
789.556	8369.02
789.888	8347.32
790.221	8236.82
790.554	8224.84
790.887	8214.45
791.219	8197.95
791.552	8267.55
791.884	8142.81
792.217	8127.89
792.549	8030.5
792.882	8002.02
793.214	8000.21
793.546	7996.82
793.879	7981.91
794.211	7967.45
794.543	8017.84
794.875	7894.45
795.207	7962.47
795.539	7926.99
795.871	7834.12
796.203	7801.12
796.535	7777.39
796.867	7761.12
797.198	7703.05
797.53	7734.01
797.862	7675.7
798.193	7715.93
798.525	7619.21
798.856	7655.14
799.188	7560.22
799.519	7543.28
799.85	7515.03
800.182	7505.99
800.513	7487.01
800.844	7390.74
801.175	7420.12
801.506	7463.5
801.837	7369.95
802.168	7372.21
802.499	7318.2
802.83	7330.85
803.161	7292.66
803.491	7305.09
803.822	7274.81
804.153	7250.63
804.483	7203.4
804.814	7189.39
805.145	7189.84
805.475	7164.76
805.805	7096.73
806.136	7110.52
806.466	7098.77
806.796	7037.98
807.126	7007.25
807.457	6978.32
807.787	6994.36
808.117	6986
808.447	6972.44
808.777	6971.09
809.107	6952.11
809.436	6872.11
809.766	6917.98
810.096	6881.37
810.426	6869.85
810.755	6845.89
811.085	6810.19
811.414	6824.65
811.744	6785.33
812.073	6788.04
812.403	6760.7
812.732	6668.95
813.061	6718.44
813.39	6647.71
813.719	6603.19
814.049	6738.33
814.378	6625.56
814.707	6628.27
815.036	6551.89
815.365	6567.93
815.693	6543.98
816.022	6469.18
816.351	6497.43
816.68	6452.68
817.008	6494.49
817.337	6437.09
817.665	6480.25
817.994	6447.49
818.322	6451.1
818.651	6381.27
818.979	6377.66
819.307	6451.33
819.636	6403.19
819.964	6340.37
820.292	6396.19
820.62	6367.71
820.948	6360.26
821.276	6368.17
821.604	6319.35
821.932	6292.01
822.259	6338.56
822.587	6358
822.915	6348.05
823.243	6322.97
823.57	6248.4
823.898	6319.35
824.225	6290.43
824.553	6226.93
824.88	6331.56
825.207	6360.48
825.535	6348.28
825.862	6341.05
826.189	6275.74
826.516	6322.74
826.843	6349.86
827.17	6333.59
827.497	6327.49
827.824	6339.01
828.151	6288.62
828.478	6223.99
828.805	6310.31
829.131	6310.31
829.458	6294.27
829.785	6212.01
830.111	6263.31
830.438	6320.94
830.764	6264.44
831.09	6296.98
831.417	6233.93
831.743	6322.29
832.069	6280.48
832.395	6256.08
832.722	6220.6
833.048	6230.77
833.374	6242.75
833.7	6222.86
834.026	6232.8
834.351	6234.84
834.677	6201.16
835.003	6214.05
835.329	6193.48
835.654	6174.72
835.98	6189.41
836.306	6217.66
836.631	6114.39
836.956	6179.02
837.282	6168.4
837.607	6145.35
837.932	6092.01
838.258	6097.21
838.583	6113.94
838.908	6043.65
839.233	6092.24
839.558	6080.26
839.883	6021.96
840.208	5999.81
840.533	5993.26
840.858	6020.15
841.182	6030.32
841.507	6040.26
841.832	6006.59
842.156	5986.93
842.481	5956.65
842.805	5929.53
843.13	5992.36
843.454	5897.44
843.778	5955.3
844.103	5927.5
844.427	5927.95
844.751	5834.62
845.075	5877.11
845.399	5769.09
845.723	5788.07
846.047	5819.93
846.371	5791.01
846.695	5779.93
847.019	5720.95
847.343	5717.56
847.666	5708.07
847.99	5673.49
848.313	5677.34
848.637	5603.89
848.96	5621.97
849.284	5611.58
849.607	5584.46
849.931	5560.73
850.254	5575.42
850.577	5510.79
850.9	5432.6
851.223	5492.93
851.546	5419.26
851.869	5415.42
852.192	5429.21
852.515	5378.14
852.838	5339.94
853.161	5367.29
853.483	5350.11
853.806	5317.8
854.129	5311.92
854.451	5306.72
854.774	5271.25
855.096	5266.73
855.419	5214.3
855.741	5180.63
856.063	5201.64
856.385	5186.95
856.708	5118.03
857.03	5167.97
857.352	5141.08
857.674	5132.49
857.996	5121.87
858.318	5084.81
858.64	5122.77
858.961	5050.23
859.283	5082.78
859.605	5050.69
859.926	5030.8
860.248	4967.07
860.57	5025.38
860.891	5020.86
861.212	4965.04
861.534	4979.73
861.855	4967.52
862.176	5004.13
862.498	4987.19
862.819	4933.85
863.14	4887.98
863.461	4952.38
863.782	4918.03
864.103	4921.2
864.424	4901.31
864.745	4968.43
865.065	4910.13
865.386	4864.7
865.707	4888.66
866.027	4909.9
866.348	4856.12
866.668	4847.08
866.989	4858.15
867.309	4821.09
867.63	4840.97
867.95	4842.78
868.27	4794.2
868.59	4771.82
868.91	4778.15
869.23	4774.76
869.55	4790.13
869.87	4821.31
870.19	4745.61
870.51	4764.59
870.83	4753.29
871.15	4761.65
871.469	4737.93
871.789	4798.72
872.109	4783.35
872.428	4728.43
872.748	4736.34
873.067	4758.94
873.386	4744.25
873.706	4716.68
874.025	4678.04
874.344	4687.53
874.663	4700.19
874.982	4709
875.301	4689.79
875.62	4684.14
875.939	4648.89
876.258	4639.4
876.577	4633.75
876.896	4644.14
877.214	4647.31
877.533	4609.79
877.852	4626.52
878.17	4614.77
878.489	4619.51
878.807	4591.26
879.125	4588.78
879.444	4583.35
879.762	4566.18
880.08	4536.8
880.398	4534.99
880.716	4564.6
881.034	4544.49
881.352	4551.04
881.67	4551.94
881.988	4543.81
882.306	4529.57
882.624	4479.18
882.941	4488.44
883.259	4429.91
883.577	4486.41
883.894	4467.88
884.212	4459.74
884.529	4434.66
884.846	4454.54
885.164	4489.35
885.481	4482.79
885.798	4422.91
886.115	4386.07
886.432	4417.48
886.75	4384.72
887.067	4398.05
887.383	4387.2
887.7	4380.65
888.017	4373.19
888.334	4351.27
888.651	4362.34
888.967	4333.19
889.284	4335
889.6	4324.83
889.917	4327.32
890.233	4302.01
890.55	4292.29
890.866	4318.28
891.182	4266.07
891.498	4248.67
891.815	4238.73
892.131	4246.87
892.447	4226.53
892.763	4198.28
893.079	4201.67
893.395	4160.09
893.71	4186.75
894.026	4197.15
894.342	4155.34
894.657	4121.45
894.973	4161.22
895.289	4118.96
895.604	4070.15
895.92	4085.97
896.235	4022.92
896.55	4086.64
896.865	4045.06
897.181	4022.92
897.496	4052.29
897.811	4015.69
898.126	4019.98
898.441	3981.11
898.756	4018.4
899.071	4035.35
899.386	4002.13
899.7	3968.91
900.015	3926.65
900.33	3934.33
900.644	3931.39
900.959	3922.58
901.273	3894.78
901.588	3851.85
901.902	3862.7
902.216	3858.63
902.531	3855.46
902.845	3863.15
903.159	3819.76
903.473	3784.96
903.787	3783.15
904.101	3805.52
904.415	3799.19
904.729	3786.09
905.042	3748.35
905.356	3739.31
905.67	3712.42
905.984	3719.2
906.297	3745.18
906.611	3712.64
906.924	3719.87
907.237	3738.63
907.551	3702.02
907.864	3673.55
908.177	3623.15
908.491	3641.01
908.804	3641.23
909.117	3579.99
909.43	3559.2
909.743	3570.95
910.056	3540.22
910.368	3568.69
910.681	3571.86
910.994	3522.82
911.307	3556.71
911.619	3510.16
911.932	3544.51
912.244	3442.37
912.557	3500.9
912.869	3490.73
913.181	3457.51
913.494	3483.5
913.806	3419.77
914.118	3426.55
914.43	3415.7
914.742	3377.28
915.054	3355.14
915.366	3347.23
915.678	3365.08
915.99	3294.12
916.302	3330.96
916.613	3387.23
916.925	3288.92
917.236	3338.64
917.548	3286.21
917.859	3290.51
918.171	3252.54
918.482	3246.67
918.794	3218.42
919.105	3244.63
919.416	3199.66
919.727	3178.19
920.038	3201.02
920.349	3214.58
920.66	3165.99
920.971	3145.43
921.282	3162.37
921.593	3151.53
921.903	3112.66
922.214	3109.72
922.525	3127.12
922.835	3096.39
923.146	3128.93
923.456	3092.32
923.767	3063.62
924.077	3044.41
924.387	3060.91
924.697	3015.26
925.008	3023.4
925.318	3039.21
925.628	3023.4
925.938	2986.33
926.248	2970.29
926.558	2953.11
926.867	2942.04
927.177	2939.1
927.487	2952.21
927.796	2898.88
928.106	2930.74
928.416	2883.51
928.725	2902.27
929.034	2850.29
929.344	2887.13
929.653	2842.83
929.962	2845.77
930.271	2823.4
930.581	2823.17
930.89	2809.84
931.199	2798.32
931.508	2784.08
931.817	2810.52
932.125	2784.98
932.434	2756.06
932.743	2770.07
933.051	2743.63
933.36	2747.24
933.669	2712.67
933.977	2686.45
934.286	2729.84
934.594	2673.57
934.902	2665.44
935.21	2690.97
935.519	2661.37
935.827	2662.5
936.135	2662.05
936.443	2598.1
936.751	2664.31
937.059	2633.12
937.367	2651.88
937.674	2612.56
937.982	2607.13
938.29	2589.06
938.597	2622.05
938.905	2538.89
939.213	2546.8
939.52	2575.95
939.827	2539.79
940.135	2529.85
940.442	2543.63
940.749	2513.58
941.056	2503.63
941.363	2481.04
941.67	2505.89
941.977	2483.97
942.284	2462.73
942.591	2456.63
942.898	2457.76
943.205	2455.95
943.511	2432.45
943.818	2432
944.125	2405.33
944.431	2381.6
944.738	2393.36
945.044	2409.85
945.35	2383.19
945.657	2374.15
945.963	2326.92
946.269	2350.64
946.575	2399
946.881	2318.33
947.187	2342.74
947.493	2309.52
947.799	2343.86
948.105	2277.65
948.41	2278.33
948.716	2281.72
949.022	2273.13
949.327	2267.03
949.633	2239.01
949.938	2240.82
950.244	2250.99
950.549	2245.34
950.854	2241.27
951.16	2229.29
951.465	2209.86
951.77	2235.85
952.075	2210.76
952.38	2186.81
952.685	2207.6
952.99	2172.57
953.294	2163.08
953.599	2182.51
953.904	2184.55
954.209	2143.64
954.513	2136.64
954.818	2175.28
955.122	2128.28
955.426	2105
955.731	2125.11
956.035	2106.13
956.339	2071.1
956.643	2116.3
956.948	2100.03
957.252	2088.5
957.556	2048.73
957.86	2077.21
958.163	2044.89
958.467	2036.08
958.771	2053.25
959.075	1987.72
959.378	2044.89
959.682	2001.95
959.985	2025.91
960.289	1982.07
960.592	1991.56
960.896	2003.08
961.199	1995.63
961.502	2000.15
961.805	1970.54
962.108	1973.71
962.411	1970.99
962.714	1948.85
963.017	1923.99
963.32	1912.46
963.623	1947.72
963.926	1924.21
964.228	1889.41
964.531	1892.58
964.833	1911.56
965.136	1899.13
965.438	1892.8
965.741	1855.06
966.043	1888.96
966.345	1855.06
966.648	1872.24
966.95	1877.89
967.252	1845.35
967.554	1836.99
967.856	1837.66
968.158	1791.56
968.46	1817.78
968.761	1818
969.063	1802.64
969.365	1775.74
969.666	1778.46
969.968	1807.61
970.269	1762.41
970.571	1767.83
970.872	1772.13
971.174	1765.35
971.475	1753.6
971.776	1746.59
972.077	1765.58
972.378	1747.72
972.679	1738.01
972.98	1686.03
973.281	1748.63
973.582	1727.61
973.883	1723.09
974.183	1714.73
974.484	1685.35
974.785	1674.96
975.085	1695.52
975.386	1704.56
975.686	1654.84
975.986	1638.35
976.287	1654.39
976.587	1643.77
976.887	1630.44
977.187	1654.84
977.487	1630.89
977.787	1610.1
978.087	1621.4
978.387	1596.09
978.687	1624.11
978.987	1590.89
979.286	1592.7
979.586	1606.26
979.885	1594.96
980.185	1588.63
980.484	1587.73
980.784	1567.39
981.083	1563.09
981.382	1555.41
981.682	1563.55
981.981	1529.65
982.28	1560.83
982.579	1528.29
982.878	1567.39
983.177	1531
983.475	1518.8
983.774	1487.84
984.073	1508.86
984.372	1497.79
984.67	1500.05
984.969	1483.77
985.267	1508.18
985.566	1487.16
985.864	1471.35
986.162	1466.83
986.461	1451.68
986.759	1473.83
987.057	1439.93
987.355	1476.54
987.653	1448.75
987.951	1438.8
988.249	1443.32
988.547	1448.52
988.844	1429.99
989.142	1430.44
989.44	1411.23
989.737	1382.53
990.035	1392.93
990.332	1403.78
990.63	1401.52
990.927	1368.3
991.224	1377.11
991.521	1360.61
991.819	1370.33
992.116	1383.21
992.413	1340.73
992.71	1341.18
993.006	1322.65
993.303	1316.32
993.6	1340.73
993.897	1330.11
994.193	1306.83
994.49	1334.85
994.787	1310.9
995.083	1293.27
995.379	1319.03
995.676	1294.18
995.972	1320.39
996.268	1308.86
996.565	1249.2
996.861	1270.22
997.157	1264.57
997.453	1285.59
997.749	1264.57
998.044	1248.53
998.34	1277.45
998.636	1240.39
998.932	1242.88
999.227	1234.06
999.523	1241.07
999.818	1201.3
1000.114	1234.74
1000.409	1226.38
1000.704	1200.39
1001	1178.25
1001.295	1208.75
1001.59	1187.29
1001.885	1190
1002.18	1179.15
1002.475	1176.44
1002.77	1182.99
1003.065	1173.05
1003.359	1158.36
1003.654	1146.61
1003.949	1140.51
1004.243	1130.56
1004.538	1138.7
1004.832	1119.94
1005.127	1134.63
1005.421	1126.5
1005.715	1105.93
1006.009	1107.06
1006.304	1077.46
1006.598	1111.58
1006.892	1106.16
1007.186	1088.3
1007.48	1100.51
1007.773	1081.53
1008.067	1067.51
1008.361	1068.42
1008.655	1085.37
1008.948	1063.9
1009.242	1067.74
1009.535	1039.72
1009.829	1063.45
1010.122	1068.19
1010.415	1034.07
1010.708	1044.24
1011.001	1033.39
1011.295	1019.38
1011.588	1007.4
1011.881	1018.7
1012.173	992.49
1012.466	1012.83
1012.759	1006.27
1013.052	990
1013.344	989.32
1013.637	987.52
1013.93	1006.72
1014.222	970.12
1014.514	966.27
1014.807	967.63
1015.099	965.6
1015.391	968.99
1015.683	955.65
1015.976	949.1
1016.268	942.32
1016.56	955.88
1016.851	938.48
1017.143	918.59
1017.435	944.13
1017.727	922.21
1018.018	920.85
1018.31	918.59
1018.602	914.07
1018.893	879.04
1019.185	910.91
1019.476	904.58
1019.767	898.03
1020.058	891.47
1020.35	884.47
1020.641	879.72
1020.932	878.59
1021.223	873.4
1021.514	847.86
1021.804	856.9
1022.095	856.22
1022.386	861.19
1022.677	831.14
1022.967	843.11
1023.258	835.43
1023.548	818.26
1023.839	833.85
1024.129	834.3
1024.419	815.32
1024.709	831.81
1025	827.07
1025.29	818.26
1025.58	807.18
1025.87	773.74
1026.16	777.35
1026.449	798.14
1026.739	796.11
1027.029	806.96
1027.319	767.64
1027.608	763.12
1027.898	761.31
1028.187	775.09
1028.477	763.34
1028.766	779.39
1029.055	763.34
1029.344	737.58
1029.634	736.22
1029.923	755.88
1030.212	745.04
1030.501	730.12
1030.79	741.42
1031.078	717.92
1031.367	709.56
1031.656	724.25
1031.945	719.27
1032.233	715.89
1032.522	726.51
1032.81	701.42
1033.099	724.25
1033.387	688.09
1033.675	716.56
1033.963	699.16
1034.251	719.95
1034.54	692.61
1034.828	679.5
1035.116	656.23
1035.403	702.78
1035.691	672.95
1035.979	670.01
1036.267	657.81
1036.554	667.75
1036.842	671.37
1037.129	690.12
1037.417	640.86
1037.704	654.19
1037.992	647.64
1038.279	654.87
1038.566	644.93
1038.853	644.93
1039.14	644.93
