Data from tablewood_brown_FLMS001491_047.txt Node
Date: Tue Feb 07 11:10:31 GMT 2017
User: dcchb
Spectrometer: FLMS00149
Trigger mode: 0
Integration Time (sec): 2.000000E-2
Scans to average: 10
Electric dark correction enabled: true
Nonlinearity correction enabled: false
Boxcar width: 0
XAxis mode: Wavelengths
Number of Pixels in Spectrum: 2048
>>>>>Begin Spectral Data<<<<<
341.393	-17.94
341.776	-17.94
342.16	-17.94
342.543	-48.45
342.927	-56.35
343.31	-67.65
343.693	-54.77
344.077	-59.74
344.46	-46.86
344.843	-76.01
345.226	-58.84
345.61	-15
345.993	-3.7
346.376	-7.99
346.759	1.72
347.142	24.77
347.525	36.98
347.908	53.7
348.291	80.82
348.674	84.88
349.057	107.71
349.44	132.57
349.823	134.6
350.206	159.23
350.588	189.29
350.971	202.4
351.354	218.21
351.737	228.16
352.119	236.97
352.502	275.16
352.884	278.1
353.267	273.13
353.65	303.86
354.032	311.77
354.414	325.56
354.797	304.09
355.179	304.77
355.562	312.9
355.944	337.08
356.326	330.53
356.709	344.54
357.091	326.46
357.473	349.74
357.855	342.96
358.238	335.95
358.62	343.64
359.002	340.25
359.384	343.18
359.766	324.43
360.148	350.87
360.53	330.3
360.912	334.6
361.294	342.96
361.676	344.54
362.057	349.74
362.439	350.19
362.821	315.61
363.203	342.96
363.584	328.04
363.966	325.1
364.348	331.88
364.729	320.13
365.111	339.57
365.493	338.89
365.874	345.67
366.256	321.26
366.637	306.57
367.019	320.81
367.4	336.4
367.781	307.93
368.163	312.68
368.544	331.66
368.925	336.63
369.306	328.95
369.688	323.97
370.069	323.97
370.45	339.79
370.831	324.2
371.212	331.88
371.593	306.12
371.974	315.16
372.355	324.65
372.736	330.75
373.117	324.43
373.498	346.35
373.879	340.7
374.26	321.71
374.641	339.79
375.021	317.2
375.402	342.73
375.783	344.31
376.163	329.17
376.544	346.8
376.925	331.66
377.305	356.06
377.686	347.25
378.066	341.38
378.447	337.31
378.827	360.36
379.208	347.93
379.588	352.45
379.968	345.22
380.349	353.58
380.729	363.52
381.109	376.4
381.489	374.59
381.87	369.85
382.25	388.38
382.63	361.71
383.01	354.26
383.39	362.62
383.77	364.2
384.15	361.71
384.53	357.87
384.91	378.89
385.29	390.19
385.67	376.85
386.049	364.88
386.429	394.48
386.809	399
387.189	410.98
387.568	400.81
387.948	385.89
388.328	394.48
388.707	403.07
389.087	382.28
389.466	403.29
389.846	415.72
390.225	409.62
390.605	419.79
390.984	416.63
391.363	437.87
391.743	410.07
392.122	427.93
392.501	404.88
392.881	414.82
393.26	419.79
393.639	415.05
394.018	447.59
394.397	427.7
394.776	458.66
395.155	454.82
395.534	448.49
395.913	444.42
396.292	480.13
396.671	470.86
397.05	444.88
397.429	471.54
397.808	468.15
398.186	480.13
398.565	458.66
398.944	479
399.323	458.89
399.701	477.64
400.08	452.33
400.458	495.95
400.837	494.14
401.215	490.3
401.594	494.59
401.972	479.45
402.351	480.81
402.729	494.82
403.107	493.46
403.486	503.18
403.864	528.04
404.242	503.86
404.62	514.93
404.999	533.23
405.377	526.68
405.755	505.44
406.133	506.79
406.511	532.1
406.889	548.6
407.267	564.19
407.645	549.28
408.023	553.35
408.401	572.33
408.779	564.19
409.156	573.46
409.534	574.59
409.912	596.74
410.29	573.01
410.667	594.48
411.045	617.75
411.422	612.1
411.8	600.13
412.178	623.63
412.555	615.72
412.933	614.81
413.31	637.19
413.687	640.35
414.065	658.2
414.442	647.13
414.819	654.59
415.197	675.6
415.574	655.94
415.951	646
416.328	682.38
416.705	693
417.082	649.16
417.46	698.65
417.837	672.21
418.214	690.29
418.591	696.17
418.967	687.58
419.344	693.68
419.721	699.11
420.098	700.46
420.475	736.39
420.852	701.14
421.228	707.69
421.605	731.42
421.982	741.59
422.358	740.46
422.735	761.7
423.111	747.47
423.488	762.83
423.864	779.56
424.241	750.4
424.617	771.19
424.994	764.87
425.37	788.37
425.746	791.53
426.123	820.91
426.499	821.36
426.875	822.04
427.251	835.83
427.627	815.26
428.003	850.51
428.379	836.96
428.756	867.24
429.132	865.88
429.507	843.51
429.883	880.12
430.259	900.68
430.635	876.73
431.011	914.92
431.387	933
431.763	914.69
432.138	932.32
432.514	926.44
432.89	936.39
433.265	935.94
433.641	970.06
434.016	1001.7
434.392	1011.19
434.767	1012.54
435.143	1007.35
435.518	998.08
435.894	1007.35
436.269	1036.05
436.644	1053.9
437.02	1045.09
437.395	1038.31
437.77	1074.24
438.145	1077.85
438.52	1107.46
438.895	1096.84
439.271	1103.84
439.646	1129.38
440.021	1148.59
440.395	1137.51
440.77	1149.26
441.145	1138.64
441.52	1140.9
441.895	1151.07
442.27	1190.84
442.645	1161.01
443.019	1209.15
443.394	1199.43
443.769	1229.49
444.143	1205.76
444.518	1206.21
444.892	1223.39
445.267	1242.37
445.641	1243.5
446.016	1242.14
446.39	1264.97
446.764	1256.61
447.139	1257.96
447.513	1265.87
447.887	1281.24
448.262	1310.62
448.636	1300.67
449.01	1322.59
449.384	1304.06
449.758	1305.64
450.132	1349.71
450.506	1326.43
450.88	1366.66
451.254	1386.09
451.628	1363.72
452.002	1365.76
452.376	1388.35
452.75	1414.34
453.123	1423.15
453.497	1420.22
453.871	1407.79
454.244	1460.67
454.618	1484.85
454.992	1479.42
455.365	1492.98
455.739	1495.7
456.112	1549.25
456.486	1531.63
456.859	1535.47
457.232	1603.49
457.606	1581.34
457.979	1617.73
458.352	1635.35
458.725	1647.33
459.099	1669.7
459.472	1685.29
459.845	1704.28
460.218	1712.64
460.591	1747.89
460.964	1766.87
461.337	1790.83
461.71	1800.55
462.083	1836.25
462.456	1814.78
462.829	1844.61
463.201	1878.74
463.574	1869.24
463.947	1912.41
464.32	1951.05
464.692	1985.85
465.065	1997.38
465.438	1989.69
465.81	2043.48
466.183	2065.17
466.555	2075.79
466.928	2128.45
467.3	2153.76
467.672	2184.26
468.045	2222.46
468.417	2231.04
468.789	2283.7
469.161	2298.61
469.534	2320.53
469.906	2348.78
470.278	2392.62
470.65	2451.6
471.022	2451.38
471.394	2518.04
471.766	2554.42
472.138	2560.98
472.51	2620.19
472.882	2669
473.253	2724.59
473.625	2760.07
473.997	2782.21
474.369	2859.73
474.74	2883.91
475.112	2955.09
475.484	3016.11
475.855	3067.18
476.227	3072.6
476.598	3185.59
476.97	3216.78
477.341	3288.42
477.713	3375.87
478.084	3381.75
478.455	3484.8
478.827	3541.74
479.198	3670.55
479.569	3691.57
479.94	3748.97
480.311	3816.76
480.682	3907.84
481.053	4026.02
481.424	4061.96
481.795	4137.21
482.166	4166.13
482.537	4233.7
482.908	4382.4
483.279	4435.05
483.65	4513.92
484.021	4578.33
484.391	4693.8
484.762	4668.95
485.133	4781.03
485.503	4881.59
485.874	4913.46
486.244	5008.37
486.615	5088.6
486.985	5138.99
487.356	5252.43
487.726	5321.81
488.097	5435.25
488.467	5506.66
488.837	5573.1
489.207	5637.96
489.578	5731.29
489.948	5748.46
490.318	5846.77
490.688	5894.22
491.058	5982.58
491.428	6099.42
491.798	6126.99
492.168	6274.1
492.538	6340.54
492.908	6338.05
493.278	6420.09
493.648	6440.88
494.017	6577.14
494.387	6585.73
494.757	6674.77
495.126	6765.16
495.496	6762.9
495.866	6872.73
496.235	6911.37
496.605	6980.07
496.974	7091.48
497.344	7128.77
497.713	7180.97
498.082	7235.21
498.452	7275.88
498.821	7346.16
499.19	7331.47
499.559	7439.04
499.928	7535.31
500.298	7544.8
500.667	7680.62
501.036	7634.74
501.405	7717.45
501.774	7762.2
502.143	7791.12
502.512	7888.52
502.88	7944.11
503.249	7975.98
503.618	8087.61
503.987	8106.59
504.356	8141.62
504.724	8196.31
505.093	8235.4
505.462	8323.54
505.83	8351.79
506.199	8376.87
506.567	8571.89
506.936	8546.13
507.304	8716.75
507.672	8714.04
508.041	8720.59
508.409	8787.25
508.777	8933.47
509.145	8986.12
509.514	8964.43
509.882	9063.18
510.25	9100.92
510.618	9199.22
510.986	9230.86
511.354	9310.63
511.722	9363.28
512.09	9528.25
512.458	9509.72
512.826	9668.36
513.193	9710.17
513.561	9752.88
513.929	9787.91
514.297	9910.84
514.664	9980.67
515.032	10052.31
515.4	10102.47
515.767	10204.39
516.135	10290.49
516.502	10257.95
516.869	10466.53
517.237	10424.95
517.604	10548.11
517.972	10757.37
518.339	10724.83
518.706	10804.15
519.073	10855.45
519.44	10945.84
519.808	11132.96
520.175	11094.99
520.542	11247.08
520.909	11350.35
521.276	11396.68
521.643	11454.3
522.009	11590.57
522.376	11732.26
522.743	11752.6
523.11	11912.6
523.477	12008.87
523.843	12026.04
524.21	12234.85
524.577	12289.54
524.943	12331.57
525.31	12521.17
525.676	12622.18
526.043	12693.82
526.409	12746.7
526.776	12870.99
527.142	12905.11
527.508	13024.43
527.874	13169.74
528.241	13165.44
528.607	13235.73
528.973	13390.07
529.339	13319.79
529.705	13530.86
530.071	13718.42
530.437	13684.98
530.803	13878.65
531.169	13920.45
531.535	13879.55
531.901	14013.33
532.267	14077.06
532.632	14152.54
532.998	14228.47
533.364	14338.97
533.73	14386.2
534.095	14560.44
534.461	14546.2
534.826	14583.49
535.192	14675.69
535.557	14780.09
535.923	14787.55
536.288	14888.79
536.653	14970.37
537.019	14935.57
537.384	15001.55
537.749	15032.06
538.114	15167.88
538.479	15239.97
538.845	15291.26
539.21	15234.99
539.575	15326.52
539.94	15449.68
540.305	15571.03
540.67	15611.48
541.034	15651.26
541.399	15670.01
541.764	15686.51
542.129	15896.45
542.494	15910.01
542.858	15956.56
543.223	15985.71
543.587	15991.36
543.952	16073.62
544.316	16089.44
544.681	16119.94
545.045	16336.21
545.41	16296.44
545.774	16375.53
546.138	16385.25
546.503	16435.19
546.867	16514.74
547.231	16630.89
547.595	16561.74
547.959	16678.35
548.324	16752.02
548.688	16827.95
549.052	16832.69
549.416	16946.14
549.779	17024.33
550.143	17106.81
550.507	17281.04
550.871	17407.82
551.235	17352.23
551.599	17449.63
551.962	17563.97
552.326	17571.88
552.689	17727.36
553.053	17693.69
553.417	17847.81
553.78	18071.76
554.143	18091.19
554.507	18230.17
554.87	18325.54
555.234	18464.51
555.597	18349.94
555.96	18599.43
556.323	18697.95
556.686	18892.75
557.05	19038.51
557.413	19058.85
557.776	19197.6
558.139	19247.77
558.502	19385.85
558.865	19463.36
559.228	19584.71
559.59	19605.5
559.953	19819.51
560.316	20046.17
560.679	20058.6
561.041	20292.94
561.404	20530.9
561.767	20547.85
562.129	20590.11
562.492	20899.93
562.854	21036.2
563.217	20891.34
563.579	21172.47
563.941	21403.42
564.304	21538.78
564.666	21722.06
565.028	21828.04
565.39	22016.06
565.753	22206.79
566.115	22189.39
566.477	22306.22
566.839	22583.05
567.201	22767.68
567.563	22749.83
567.925	23170.61
568.287	23236.14
568.648	23319.53
569.01	23548.22
569.372	23682.91
569.734	23801.32
570.095	24067.98
570.457	24184.59
570.819	24263.23
571.18	24424.13
571.542	24676.55
571.903	24804.23
572.265	24956.55
572.626	25107.73
572.987	25192.02
573.349	25386.14
573.71	25525.12
574.071	25554.95
574.432	25867.03
574.794	26097.76
575.155	26108.16
575.516	26261.82
575.877	26403.97
576.238	26523.96
576.599	26714.69
576.96	26772.54
577.32	26928.92
577.681	27108.58
578.042	27142.03
578.403	27175.47
578.763	27258.18
579.124	27464.28
579.485	27580.66
579.845	27819.07
580.206	27758.06
580.566	27912.18
580.927	27991.72
581.287	28235.56
581.648	28166.86
582.008	28286.4
582.368	28355.1
582.728	28564.36
583.089	28487.98
583.449	28626.06
583.809	28659.5
584.169	28762.77
584.529	28746.5
584.889	29172.93
585.249	28872.6
585.609	28906.73
585.969	29046.84
586.329	28976.78
586.688	29208.41
587.048	29145.59
587.408	29187.85
587.768	29175.87
588.127	29297
588.487	29249.77
588.846	29669.42
589.206	29368.63
589.565	29403.89
589.925	29534.73
590.284	29484.79
590.643	29661.06
591.003	29666.25
591.362	29709.87
591.721	29650.66
592.08	29710.09
592.44	29854.05
592.799	29853.82
593.158	29722.3
593.517	29767.72
593.876	29846.14
594.235	29799.81
594.593	29824.22
594.952	29959.35
595.311	29786.02
595.67	29942.86
596.029	30084.32
596.387	30087.03
596.746	30185.11
597.104	30184.88
597.463	30148.5
597.822	30249.29
598.18	30162.06
598.538	30024.21
598.897	30210.42
599.255	30113.7
599.613	30625.32
599.972	30201.83
600.33	30315.73
600.688	30293.81
601.046	30550.3
601.404	30576.51
601.762	30515.95
602.12	30598.43
602.478	30586
602.836	30732.21
603.194	30590.3
603.552	30535.61
603.91	30532.9
604.268	30576.06
604.625	30559.34
604.983	30635.04
605.341	30589.17
605.698	30853.12
606.056	30834.81
606.413	30873.91
606.771	30889.72
607.128	30972.43
607.485	30777.64
607.843	30959.78
608.2	30927.69
608.557	31293.1
608.914	31143.73
609.272	31259.43
609.629	31188.7
609.986	31294.46
610.343	31175.37
610.7	31305.31
611.057	31320.9
611.414	31141.7
611.771	31370.16
612.127	31536.71
612.484	31483.38
612.841	31607.9
613.198	31436.15
613.554	31516.15
613.911	31692.87
614.267	31624.62
614.624	31682.47
614.98	31724.73
615.337	31829.36
615.693	31681.12
616.05	31631.4
616.406	31901
616.762	31766.54
617.118	31760.21
617.475	31832.98
617.831	31957.49
618.187	32009.24
618.543	32007.44
618.899	32193.42
619.255	32116.13
619.611	31994.55
619.967	32341.66
620.323	32235.23
620.678	32222.57
621.034	32010.82
621.39	32034.78
621.746	32052.63
622.101	32414.2
622.457	32084.72
622.812	32132.86
623.168	32245.62
623.523	32266.41
623.879	32227.32
624.234	32183.93
624.589	32315.68
624.945	32378.95
625.3	32337.14
625.655	32373.75
626.01	32404.26
626.365	32229.8
626.72	32253.76
627.075	32290.14
627.43	32352.06
627.785	32253.3
628.14	32268.45
628.495	32251.27
628.85	32227.99
629.205	32251.27
629.559	32378.05
629.914	32084.5
630.269	32097.6
630.623	32074.1
630.978	31992.07
631.332	32107.32
631.687	32256.47
632.041	31971.5
632.396	32183.7
632.75	31929.02
633.104	32020.09
633.459	31977.38
633.813	31828.91
634.167	31938.96
634.521	31791.62
634.875	31915.46
635.229	31766.31
635.583	31625.52
635.937	31634.11
636.291	31660.78
636.645	31631.4
636.999	31564.51
637.352	31562.93
637.706	31485.64
638.06	31567.67
638.413	31523.15
638.767	31349.6
639.121	31576.94
639.474	31354.12
639.828	31369.49
640.181	31379.66
640.534	31211.3
640.888	31209.04
641.241	31288.13
641.594	31216.72
641.947	31320.22
642.301	31264.86
642.654	31235.25
643.007	31398.64
643.36	31209.94
643.713	31035.94
644.066	31260.11
644.419	30979.67
644.771	30796.17
645.124	30500.81
645.477	30473.24
645.83	30291.32
646.182	29991.22
646.535	30113.7
646.888	30183.98
647.24	29983.99
647.593	30204.09
647.945	30097.65
648.298	30005.68
648.65	29847.04
649.002	29788.96
649.355	30006.58
649.707	30055.4
650.059	30102.63
650.411	30465.78
650.763	30495.38
651.115	30848.82
651.467	30568.83
651.819	30691.99
652.171	30619.68
652.523	30599.34
652.875	30678.2
653.227	30433.47
653.578	30693.12
653.93	30590.3
654.282	30414.93
654.633	30556.4
654.985	30288.61
655.337	30557.98
655.688	30523.18
656.039	30719.33
656.391	30354.15
656.742	30445.89
657.094	30436.86
657.445	30433.24
657.796	30425.1
658.147	30645.66
658.498	30419.91
658.849	30417.42
659.2	30444.99
659.551	30265.11
659.902	30492.45
660.253	30397.31
660.604	30387.36
660.955	30386.23
661.306	30464.2
661.656	30290.19
662.007	30393.47
662.358	30283.41
662.708	30378.33
663.059	30393.69
663.409	30156.86
663.76	30418.78
664.11	30333.35
664.461	30381.72
664.811	30356.86
665.161	30321.6
665.511	30419.68
665.862	30252.45
666.212	30505.78
666.562	30376.74
666.912	30430.08
667.262	30329.06
667.612	30292.23
667.962	30450.19
668.312	30318.67
668.662	30290.42
669.011	30453.58
669.361	30289.06
669.711	30244.77
670.06	30223.98
670.41	30111.89
670.76	30160.48
671.109	30050.88
671.459	30255.84
671.808	30136.52
672.157	30131.1
672.507	29985.79
672.856	29979.01
673.205	29996.19
673.554	29986.7
673.904	29878.9
674.253	30016.08
674.602	30061.27
674.951	29668.06
675.3	29466.49
675.649	29950.77
675.998	29921.61
676.346	29753.03
676.695	29934.5
677.044	29842.29
677.393	29693.37
677.741	29833.93
678.09	29761.62
678.438	29763.65
678.787	29786.02
679.135	29618.12
679.484	29590.32
679.832	29618.12
680.181	29355.98
680.529	29559.36
680.877	29425.13
681.225	29377.9
681.573	29474.39
681.922	29279.37
682.27	29280.73
682.618	29327.96
682.966	29148.75
683.314	29244.8
683.661	29161.86
684.009	28932.71
684.357	28891.58
684.705	28948.31
685.053	28851.36
685.4	29009.77
685.748	28701.53
686.095	28523.46
686.443	28575.66
686.79	28494.99
687.138	28614.76
687.485	28458.38
687.832	28519.17
688.18	28420.86
688.527	28330.7
688.874	28162.34
689.221	28197.37
689.568	28076.47
689.915	28038.27
690.262	28027.43
690.609	27858.39
690.956	27845.96
691.303	27787.21
691.65	27623.82
691.997	27501.11
692.344	27502.02
692.69	27389.25
693.037	27403.94
693.383	27195.81
693.73	27298.63
694.077	27074.91
694.423	27102.71
694.769	26911.98
695.116	26902.71
695.462	26830.4
695.808	26596.05
696.155	26700.68
696.501	26486
696.847	26611.64
697.193	26355.38
697.539	26459.78
697.885	26283.74
698.231	26152.9
698.577	26054.37
698.923	26136.63
699.269	25963.75
699.614	25791.1
699.96	25763.98
700.306	25612.12
700.651	25590.43
700.997	25430.66
701.342	25432.01
701.688	25384.78
702.033	25417.33
702.379	25258.91
702.724	25227.05
703.069	25159.03
703.415	24951.8
703.76	25000.61
704.105	24907.51
704.45	24889.2
704.795	24672.94
705.14	24580.74
705.485	24549.78
705.83	24545.03
706.175	24605.6
706.52	24416
706.865	24279.05
707.209	24268.66
707.554	24240.18
707.899	24222.33
708.243	24095.78
708.588	24151.6
708.932	23943.24
709.277	23990.92
709.621	23871.83
709.966	23731.49
710.31	23774.88
710.654	23636.36
710.998	23678.84
711.342	23591.84
711.687	23506.64
712.031	23496.7
712.375	23292.18
712.719	23322.47
713.063	23390.71
713.407	23545.74
713.75	23312.52
714.094	23237.5
714.438	23174
714.782	23155.46
715.125	23047.22
715.469	23060.1
715.812	22967.9
716.156	22904.85
716.499	22873.89
716.843	22944.17
717.186	22818.52
717.53	22884.29
717.873	22919.31
718.216	22743.5
718.559	22686.78
718.902	22480.45
719.246	22606.1
719.589	22617.4
719.932	22504.86
720.275	22483.39
720.617	22468.03
720.96	22388.25
721.303	22455.14
721.646	22399.1
721.989	22278.2
722.331	22425.54
722.674	22235.49
723.016	22288.37
723.359	22280.23
723.701	22414.92
724.044	22278.43
724.386	22173.8
724.729	22334.02
725.071	22195.26
725.413	22155.04
725.755	22115.72
726.097	22108.03
726.439	22058.77
726.782	22047.47
727.124	22150.29
727.465	22074.59
727.807	22060.35
728.149	21907.59
728.491	21972.9
728.833	22088.37
729.175	21975.83
729.516	21921.6
729.858	21864.2
730.199	21912.79
730.541	21910.75
730.882	21776.97
731.224	21910.98
731.565	21866.23
731.906	21756.63
732.248	21847.7
732.589	21712.56
732.93	21698.78
733.271	21684.99
733.612	21756.41
733.953	21837.31
734.294	21725.22
734.635	21713.24
734.976	21744.65
735.317	21693.36
735.658	21641.15
735.999	21737.87
736.339	21757.31
736.68	21671.89
737.021	21682.51
737.361	21587.37
737.702	21689.29
738.042	21680.48
738.383	21590.08
738.723	21667.37
739.063	21616.52
739.404	21725.67
739.744	21649.74
740.084	21505.56
740.424	21736.97
740.764	21515.96
741.104	21661.94
741.444	21432.12
741.784	21585.56
742.124	21741.26
742.464	21496.07
742.804	21556.41
743.143	21571.33
743.483	21598.67
743.823	21535.17
744.162	21586.47
744.502	21609.74
744.841	21535.85
745.181	21569.97
745.52	21500.37
745.86	21557.09
746.199	21466.47
746.538	21473.25
746.877	21514.15
747.216	21575.62
747.556	21430.76
747.895	21514.6
748.234	21461.27
748.573	21371.78
748.911	21479.12
749.25	21556.18
749.589	21343.53
749.928	21491.78
750.267	21397.32
750.605	21360.94
750.944	21452.23
751.283	21324.78
751.621	21317.32
751.96	21197.55
752.298	21259.02
752.636	21274.38
752.975	21115.52
753.313	21109.64
753.651	21236.19
753.989	21131.34
754.327	21187.83
754.666	21025.8
755.004	21018.8
755.342	21137.21
755.679	21056.76
756.017	20962.98
756.355	21110.77
756.693	20898.57
757.031	20964.34
757.368	20855.64
757.706	20816.54
758.044	20780.39
758.381	20891.12
758.719	20680.05
759.056	20629.43
759.394	20719.37
759.731	20639.37
760.068	20555.98
760.405	20417.91
760.743	20340.17
761.08	20464.46
761.417	20317.8
761.754	20386.5
762.091	20296.78
762.428	20214.75
762.765	20107.64
763.102	20191.47
763.438	20130.91
763.775	19937.02
764.112	19953.97
764.449	20004.59
764.785	19954.19
765.122	19761.2
765.458	19718.04
765.795	19803.24
766.131	19670.13
766.467	19489.35
766.804	19466.75
767.14	19355.56
767.476	19370.25
767.812	19287.77
768.148	19405.73
768.485	19232.86
768.821	19146.53
769.157	19135.68
769.492	18993.54
769.828	19042.35
770.164	18939.3
770.5	18846.2
770.836	18818.4
771.171	18680.55
771.507	18695.92
771.842	18691.4
772.178	18671.29
772.513	18433.33
772.849	18465.19
773.184	18416.38
773.519	18370.96
773.855	18285.76
774.19	18227.23
774.525	18104.52
774.86	18184.75
775.195	18188.59
775.53	17928.26
775.865	17974.81
776.2	17828.6
776.535	17731.88
776.87	17684.87
777.205	17664.08
777.539	17578.66
777.874	17581.6
778.209	17390.64
778.543	17364.43
778.878	17240.14
779.212	17311.78
779.547	17223.42
779.881	17161.27
780.215	17156.53
780.55	17132.35
780.884	16967.38
781.218	16913.59
781.552	16968.51
781.886	16799.02
782.22	16706.37
782.554	16643.09
782.888	16504.11
783.222	16521.06
783.556	16399.48
783.889	16400.39
784.223	16217.34
784.557	16229.77
784.89	16308.41
785.224	16153.16
785.557	16054.86
785.891	16026.84
786.224	16032.94
786.558	16026.61
786.891	15838.37
787.224	15802.44
787.557	15758.6
787.891	15781.2
788.224	15747.52
788.557	15752.72
788.89	15651.48
789.223	15556.57
789.556	15531.71
789.888	15474.08
790.221	15400.64
790.554	15263.92
790.887	15325.84
791.219	15237.93
791.552	15179.4
791.884	15097.82
792.217	15047.66
792.549	14957.49
792.882	14873.42
793.214	14864.84
793.546	14962.46
793.879	14793.2
794.211	14775.35
794.543	14815.57
794.875	14675.46
795.207	14641.34
795.539	14677.5
795.871	14644.73
796.203	14524.96
796.535	14409.93
796.867	14458.07
797.198	14382.36
797.53	14328.8
797.862	14284.74
798.193	14248.35
798.525	14143.05
798.856	14153.44
799.188	14052.43
799.519	13985.31
799.85	13902.15
800.182	13957.51
800.513	13941.24
800.844	13791.87
801.175	13870.29
801.506	13853.79
801.837	13767.01
802.168	13689.5
802.499	13654.7
802.83	13609.05
803.161	13560.01
803.491	13552.1
803.822	13608.82
804.153	13447.02
804.483	13401.6
804.814	13341.94
805.145	13332.9
805.475	13346.91
805.805	13279.34
806.136	13244.76
806.466	13305.78
806.796	13212.45
807.126	13084.99
807.457	13121.15
807.787	13084.32
808.117	13039.35
808.447	12986.92
808.777	12940.14
809.107	12896.53
809.436	12901.04
809.766	12772.46
810.096	12846.58
810.426	12694.72
810.755	12713.93
811.085	12727.72
811.414	12702.18
811.744	12559.36
812.073	12562.75
812.403	12630.09
812.732	12599.58
813.061	12540.6
813.39	12408.4
813.719	12387.16
814.049	12470.32
814.378	12456.99
814.707	12371.57
815.036	12396.43
815.365	12209.54
815.693	12140.84
816.022	12241.63
816.351	12239.37
816.68	12045.93
817.008	12059.49
817.337	12014.06
817.665	12013.61
817.994	11973.39
818.322	12017.9
818.651	11978.81
818.979	11884.57
819.307	12007.96
819.636	11939.49
819.964	11802.77
820.292	11939.26
820.62	11881.18
820.948	11788.31
821.276	11868.98
821.604	11821.07
821.932	11868.08
822.259	11792.6
822.587	11815.2
822.915	11767.29
823.243	11732.49
823.57	11745.37
823.898	11786.95
824.225	11813.16
824.553	11783.11
824.88	11739.72
825.207	11756.44
825.535	11750.11
825.862	11824.46
826.189	11817.46
826.516	11781.07
826.843	11842.09
827.17	11798.25
827.497	11785.59
827.824	11758.48
828.151	11781.53
828.478	11718.93
828.805	11758.48
829.131	11761.41
829.458	11742.21
829.785	11673.05
830.111	11727.29
830.438	11748.08
830.764	11713.51
831.09	11786.72
831.417	11641.64
831.743	11702.21
832.069	11683.22
832.395	11619.5
832.722	11697.91
833.048	11607.75
833.374	11612.94
833.7	11605.03
834.026	11564.13
834.351	11668.76
834.677	11619.72
835.003	11615.2
835.329	11570.46
835.654	11540.85
835.98	11511.7
836.306	11556.22
836.631	11522.78
836.956	11584.02
837.282	11573.85
837.607	11468.31
837.932	11472.16
838.258	11422.89
838.583	11456.34
838.908	11402.33
839.233	11415.43
839.558	11418.6
839.883	11343.35
840.208	11259.96
840.533	11332.95
840.858	11267.42
841.182	11228.55
841.507	11222.67
841.832	11190.58
842.156	11217.93
842.481	11208.66
842.805	11106.97
843.13	11112.17
843.454	11099.28
843.778	11085.05
844.103	11066.52
844.427	11036.69
844.751	11007.08
845.075	10958.72
845.399	10947.2
845.723	10900.87
846.047	10920.76
846.371	10808.22
846.695	10814.09
847.019	10769.8
847.343	10730.71
847.666	10645.96
847.99	10585.63
848.313	10609.35
848.637	10513.76
848.96	10493.88
849.284	10453.43
849.607	10451.84
849.931	10409.81
850.254	10314.45
850.577	10263.83
850.9	10181.34
851.223	10202.36
851.546	10160.55
851.869	10081.46
852.192	10145.64
852.515	10059.54
852.838	9961.91
853.161	10033.32
853.483	9920.56
853.806	9929.37
854.129	9836.72
854.451	9861.35
854.774	9862.03
855.096	9805.31
855.419	9752.88
855.741	9667.01
856.063	9661.36
856.385	9692.09
856.708	9663.62
857.03	9676.72
857.352	9605.54
857.674	9611.64
857.996	9574.35
858.318	9452.55
858.64	9449.61
858.961	9419.55
859.283	9387.69
859.605	9392.66
859.926	9347.01
860.248	9334.81
860.57	9305.43
860.891	9344.53
861.212	9264.53
861.534	9228.83
861.855	9210.29
862.176	9215.94
862.498	9236.96
862.819	9220.92
863.14	9146.79
863.461	9129.17
863.782	9139.11
864.103	9069.28
864.424	9040.58
864.745	9099.56
865.065	9102.95
865.386	9050.52
865.707	9001.71
866.027	9013.01
866.348	9013.92
866.668	8983.41
866.989	9024.31
867.309	8930.08
867.63	8938.21
867.95	8900.92
868.27	8843.07
868.59	8857.54
868.91	8875.39
869.23	8864.31
869.55	8802.62
869.87	8834.94
870.19	8844.65
870.51	8823.19
870.83	8852.79
871.15	8744.09
871.469	8706.35
871.789	8734.15
872.109	8720.59
872.428	8696.86
872.748	8720.14
873.067	8714.94
873.386	8757.88
873.706	8729.63
874.025	8662.51
874.344	8587.26
874.663	8632.68
874.982	8564.89
875.301	8594.04
875.62	8602.17
875.939	8564.21
876.258	8540.03
876.577	8554.27
876.896	8523.08
877.214	8429.52
877.533	8534.38
877.852	8458.45
878.17	8490.09
878.489	8462.97
878.807	8454.38
879.125	8400.37
879.444	8450.09
879.762	8395.4
880.08	8384.33
880.398	8343.42
880.716	8369.19
881.034	8305.91
881.352	8301.17
881.67	8249.19
881.988	8305.01
882.306	8227.72
882.624	8226.59
882.941	8189.98
883.259	8222.07
883.577	8154.96
883.894	8181.62
884.212	8129.42
884.529	8068.18
884.846	8148.63
885.164	8135.52
885.481	8065.01
885.798	8109.31
886.115	8066.14
886.432	8055.3
886.75	8052.13
887.067	8045.35
887.383	7987.73
887.7	7940.72
888.017	7916.09
888.334	7956.32
888.651	7859.6
888.967	7855.3
889.284	7888.97
889.6	7811.91
889.917	7799.48
890.233	7794.06
890.55	7714.51
890.866	7783.21
891.182	7741.86
891.498	7712.03
891.815	7618.02
892.131	7645.82
892.447	7613.95
892.763	7632.03
893.079	7564.01
893.395	7478.59
893.71	7563.11
894.026	7561.07
894.342	7470
894.657	7450.57
894.973	7356.33
895.289	7413.51
895.604	7423.9
895.92	7375.09
896.235	7323.34
896.55	7369.66
896.865	7352.94
897.181	7287.18
897.496	7309.55
897.811	7222.55
898.126	7293.73
898.441	7176.68
898.756	7211.93
899.071	7196.11
899.386	7133.06
899.7	7049
900.015	7070.24
900.33	6977.36
900.644	6944.82
900.959	7009.45
901.273	6978.49
901.588	6866.4
901.902	6840.64
902.216	6862.33
902.531	6917.02
902.845	6852.16
903.159	6832.73
903.473	6820.3
903.787	6752.05
904.101	6744.37
904.415	6703.24
904.729	6681.32
905.042	6659.18
905.356	6639.51
905.67	6658.27
905.984	6636.8
906.297	6608.56
906.611	6549.35
906.924	6532.17
907.237	6456.69
907.551	6481.1
907.864	6488.33
908.177	6459.41
908.491	6438.62
908.804	6339.64
909.117	6380.99
909.43	6293.31
909.743	6319.75
910.056	6299.86
910.368	6277.49
910.681	6242.46
910.994	6181.9
911.307	6151.39
911.619	6118.17
911.932	6127.21
912.244	6133.77
912.557	6121.56
912.869	6065.29
913.181	5999.31
913.494	6008.12
913.806	5948.69
914.118	5944.39
914.43	5926.77
914.742	5914.56
915.054	5912.75
915.366	5868.46
915.678	5835.47
915.99	5842.02
916.302	5765.64
916.613	5789.82
916.925	5766.09
917.236	5709.82
917.548	5717.51
917.859	5710.73
918.171	5700.78
918.482	5623.95
918.794	5629.37
919.105	5663.27
919.416	5601.58
919.727	5556.15
920.038	5512.99
920.349	5484.29
920.66	5503.27
920.971	5481.35
921.282	5435.03
921.593	5417.17
921.903	5420.11
922.214	5379.89
922.525	5345.54
922.835	5335.37
923.146	5266.67
923.456	5293.56
923.767	5332.43
924.077	5241.36
924.387	5250.62
924.697	5182.6
925.008	5205.88
925.318	5128.59
925.628	5138.54
925.938	5182.83
926.248	5105.32
926.558	5029.16
926.867	5026.68
927.177	5022.61
927.487	5012.89
927.796	4975.83
928.106	4941.48
928.416	4950.75
928.725	4951.2
929.034	4858.77
929.344	4904.19
929.653	4865.32
929.962	4844.08
930.271	4793.24
930.581	4814.25
930.89	4804.99
931.199	4772.9
931.508	4730.19
931.817	4771.77
932.125	4709.17
932.434	4684.99
932.743	4648.15
933.051	4617.65
933.36	4620.58
933.669	4594.6
933.977	4615.16
934.286	4550.08
934.594	4566.12
934.902	4527.25
935.21	4485.22
935.519	4456.3
935.827	4503.07
936.135	4453.81
936.443	4422.62
936.751	4406.58
937.059	4387.14
937.367	4348.95
937.674	4372.23
937.982	4349.41
938.29	4334.04
938.597	4315.73
938.905	4279.8
939.213	4272.57
939.52	4271.44
939.827	4258.79
940.135	4244.78
940.442	4209.97
940.749	4213.59
941.056	4204.78
941.363	4134.72
941.67	4124.1
941.977	4129.98
942.284	4085.91
942.591	4093.37
942.898	4052.69
943.205	4047.72
943.511	4038.23
943.818	4024.22
944.125	3992.8
944.431	3959.81
944.738	3958.68
945.044	3929.53
945.35	3903.32
945.657	3913.26
945.963	3875.75
946.269	3878.46
946.575	3839.36
946.881	3820.38
947.187	3820.61
947.493	3801.17
947.799	3777.9
948.105	3819.02
948.41	3764.11
948.716	3722.76
949.022	3741.51
949.327	3721.17
949.633	3667.39
949.938	3632.81
950.244	3680.04
950.549	3629.42
950.854	3621.97
951.16	3601.63
951.465	3619.48
951.77	3620.39
952.075	3541.74
952.38	3557.34
952.685	3567.05
952.99	3523.21
953.294	3508.07
953.599	3500.39
953.904	3495.64
954.209	3442.54
954.513	3439.15
954.818	3465.59
955.122	3414.74
955.426	3451.8
955.731	3414.97
956.035	3355.53
956.339	3327.29
956.643	3385.14
956.948	3328.42
957.252	3324.8
957.556	3341.52
957.86	3252.71
958.163	3331.58
958.467	3259.04
958.771	3265.82
959.075	3227.85
959.378	3227.18
959.682	3258.36
959.985	3220.85
960.289	3188.53
960.592	3207.74
960.896	3153.5
961.199	3165.93
961.502	3136.1
961.805	3108.08
962.108	3083.9
962.411	3131.81
962.714	3062.66
963.017	3061.53
963.32	3080.29
963.623	3054.07
963.926	3037.12
964.228	2987.41
964.531	3021.76
964.833	2983.57
965.136	2988.76
965.438	2968.65
965.741	2944.92
966.043	2921.87
966.345	2941.31
966.648	2956.22
966.95	2912.83
967.252	2896.34
967.554	2887.3
967.856	2881.87
968.158	2878.48
968.46	2838.71
968.761	2840.97
969.063	2816.11
969.365	2819.73
969.666	2805.72
969.968	2794.64
970.269	2790.12
970.571	2763.46
970.872	2742.44
971.174	2742.89
971.475	2707.64
971.776	2713.74
972.077	2707.64
972.378	2669.68
972.679	2709.22
972.98	2663.8
973.281	2680.75
973.582	2669.45
973.883	2621.32
974.183	2634.42
974.484	2598.72
974.785	2591.94
975.085	2577.47
975.386	2580.64
975.686	2561.88
975.986	2514.88
976.287	2564.59
976.587	2549
976.887	2538.15
977.187	2529.11
977.487	2511.04
977.787	2484.37
978.087	2495.22
978.387	2440.08
978.687	2452.96
978.987	2434.88
979.286	2431.26
979.586	2420.42
979.885	2416.12
980.185	2413.19
980.484	2401.43
980.784	2346.07
981.083	2353.75
981.382	2370.25
981.682	2349.46
981.981	2328.67
982.28	2351.49
982.579	2339.74
982.878	2303.13
983.177	2293.19
983.475	2309.01
983.774	2285.96
984.073	2284.83
984.372	2272.62
984.67	2247.77
984.969	2234.21
985.267	2258.39
985.566	2243.02
985.864	2202.34
986.162	2208.9
986.461	2214.55
986.759	2195.34
987.057	2192.17
987.355	2145.17
987.653	2156.69
987.951	2136.13
988.249	2145.4
988.547	2166.19
988.844	2103.81
989.142	2134.1
989.44	2102.46
989.737	2072.4
990.035	2055.23
990.332	2097.26
990.63	2083.48
990.927	2038.73
991.224	2040.54
991.521	2074.21
991.819	2015.23
992.116	2006.64
992.413	2008.45
992.71	2030.6
993.006	2003.25
993.303	1994.44
993.6	1981.11
993.897	1947.43
994.193	1942.46
994.49	1954.44
994.787	1956.47
995.083	1936.81
995.379	1943.37
995.676	1940.43
995.972	1904.27
996.268	1901.33
996.565	1905.4
996.861	1912.63
997.157	1882.35
997.453	1872.86
997.749	1862.47
998.044	1887.32
998.34	1818.85
998.636	1810.72
998.932	1815.91
999.227	1811.62
999.523	1809.59
999.818	1807.1
1000.114	1787.89
1000.409	1766.2
1000.704	1758.74
1001	1749.7
1001.295	1762.81
1001.59	1760.77
1001.885	1738.63
1002.18	1700.66
1002.475	1703.15
1002.77	1737.5
1003.065	1717.84
1003.359	1682.58
1003.654	1677.84
1003.949	1670.61
1004.243	1644.84
1004.538	1629.02
1004.832	1655.01
1005.127	1632.41
1005.421	1626.31
1005.715	1627.22
1006.009	1624.28
1006.304	1594.9
1006.598	1593.55
1006.892	1612.3
1007.186	1576.6
1007.48	1545.64
1007.773	1537.05
1008.067	1545.64
1008.361	1525.75
1008.655	1538.41
1008.948	1520.78
1009.242	1494.57
1009.535	1493.44
1009.829	1484.62
1010.122	1480.78
1010.415	1490.95
1010.708	1466.54
1011.001	1442.36
1011.295	1461.12
1011.588	1483.72
1011.881	1461.35
1012.173	1433.55
1012.466	1431.97
1012.759	1413.21
1013.052	1417.28
1013.344	1421.35
1013.637	1398.3
1013.93	1378.18
1014.222	1368.92
1014.514	1352.65
1014.807	1384.06
1015.099	1345.19
1015.391	1351.07
1015.683	1359.2
1015.976	1342.7
1016.268	1314.91
1016.56	1334.57
1016.851	1323.27
1017.143	1307.23
1017.435	1307.68
1017.727	1269.71
1018.018	1295.02
1018.31	1299.54
1018.602	1262.48
1018.893	1251.86
1019.185	1264.97
1019.476	1224.52
1019.767	1252.31
1020.058	1240.33
1020.35	1230.62
1020.641	1207.34
1020.932	1204.18
1021.223	1212.31
1021.514	1201.69
1021.804	1168.7
1022.095	1181.13
1022.386	1180
1022.677	1158.08
1022.967	1161.01
1023.258	1144.52
1023.548	1150.85
1023.839	1154.69
1024.129	1127.57
1024.419	1135.03
1024.709	1116.04
1025	1117.4
1025.29	1122.15
1025.58	1099.1
1025.87	1089.38
1026.16	1086.67
1026.449	1073.33
1026.739	1067.91
1027.029	1076.5
1027.319	1050.96
1027.608	1075.14
1027.898	1027.68
1028.187	1051.19
1028.477	1012.54
1028.766	1068.14
1029.055	1018.65
1029.344	1027.68
1029.634	1004.18
1029.923	988.14
1030.212	973.67
1030.501	1002.83
1030.79	974.58
1031.078	961.25
1031.367	971.19
1031.656	963.05
1031.945	968.48
1032.233	976.84
1032.522	970.74
1032.81	930.29
1033.099	924.18
1033.387	926.44
1033.675	937.29
1033.963	930.74
1034.251	942.94
1034.54	927.35
1034.828	920.12
1035.116	923.28
1035.403	910.4
1035.691	895.71
1035.979	879.44
1036.267	857.75
1036.554	855.49
1036.842	880.57
1037.129	871.98
1037.417	861.36
1037.704	848.48
1037.992	837.86
1038.279	841.25
1038.566	837.86
1038.853	837.86
1039.14	837.86
