Data from tablewood_dark_bookshelf_FLMS001491_00065.txt Node
Date: Wed Feb 08 14:15:23 GMT 2017
User: dcchb
Spectrometer: FLMS00149
Trigger mode: 0
Integration Time (sec): 2.000000E-2
Scans to average: 10
Electric dark correction enabled: true
Nonlinearity correction enabled: false
Boxcar width: 0
XAxis mode: Wavelengths
Number of Pixels in Spectrum: 2048
>>>>>Begin Spectral Data<<<<<
341.393	-11.53
341.776	-11.53
342.16	-11.53
342.543	-40.22
342.927	-54.69
343.31	-72.77
343.693	-74.57
344.077	-60.34
344.46	-67.34
344.843	-54.69
345.226	-47.91
345.61	-20.56
345.993	-14.46
346.376	-2.94
346.759	6.55
347.142	30.96
347.525	38.64
347.908	61.47
348.291	77.96
348.674	89.26
349.057	110.73
349.44	108.02
349.823	128.13
350.206	169.49
350.588	186.89
350.971	201.58
351.354	222.59
351.737	227.34
352.119	249.26
352.502	262.59
352.884	270.05
353.267	256.94
353.65	278.41
354.032	272.99
354.414	308.92
354.797	300.56
355.179	320.22
355.562	311.86
355.944	320.67
356.326	303.72
356.709	344.17
357.091	320.22
357.473	328.35
357.855	308.69
358.238	329.71
358.62	312.99
359.002	316.83
359.384	342.14
359.766	315.02
360.148	340.78
360.53	339.88
360.912	312.76
361.294	319.99
361.676	339.65
362.057	320.22
362.439	320.44
362.821	315.7
363.203	315.7
363.584	315.47
363.966	333.1
364.348	307.34
364.729	323.16
365.111	305.08
365.493	305.75
365.874	316.83
366.256	302.82
366.637	308.92
367.019	311.63
367.4	318.41
367.781	319.54
368.163	302.36
368.544	307.11
368.925	322.03
369.306	306.21
369.688	310.73
370.069	301.01
370.45	299.65
370.831	327
371.212	298.07
371.593	327
371.974	319.31
372.355	305.53
372.736	309.14
373.117	308.92
373.498	315.7
373.879	312.31
374.26	317.51
374.641	320.22
375.021	300.33
375.402	315.02
375.783	329.93
376.163	334.91
376.544	349.82
376.925	329.26
377.305	351.18
377.686	326.77
378.066	326.09
378.447	318.64
378.827	367.45
379.208	328.35
379.588	335.36
379.968	330.84
380.349	338.75
380.729	338.52
381.109	326.32
381.489	333.32
381.87	335.81
382.25	338.75
382.63	341.91
383.01	351.86
383.39	345.3
383.77	338.97
384.15	346.66
384.53	355.7
384.91	346.43
385.29	364.74
385.67	353.66
386.049	342.36
386.429	378.97
386.809	358.18
387.189	370.84
387.568	368.13
387.948	359.09
388.328	362.25
388.707	364.06
389.087	359.99
389.466	390.27
389.846	370.84
390.225	369.03
390.605	377.84
390.984	366.77
391.363	403.61
391.743	389.59
392.122	375.13
392.501	389.59
392.881	396.15
393.26	400.89
393.639	383.49
394.018	397.73
394.397	377.17
394.776	382.81
395.155	392.08
395.534	426.88
395.913	382.14
396.292	401.57
396.671	405.64
397.05	425.07
397.429	409.71
397.808	432.76
398.186	421.91
398.565	407.9
398.944	442.02
399.323	409.71
399.701	448.8
400.08	438.18
400.458	426.66
400.837	435.47
401.215	442.47
401.594	443.6
401.972	437.05
402.351	449.25
402.729	452.87
403.107	446.09
403.486	449.71
403.864	444.96
404.242	440.67
404.62	461.23
404.999	449.03
405.377	468.46
405.755	484.28
406.133	481.12
406.511	469.82
406.889	485.18
407.267	479.99
407.645	494.68
408.023	488.57
408.401	484.51
408.779	498.97
409.156	501.23
409.534	487.67
409.912	532.42
410.29	500.33
410.667	524.51
411.045	530.16
411.422	538.52
411.8	536.26
412.178	526.54
412.555	546.2
412.933	550.04
413.31	552.08
413.687	543.26
414.065	577.39
414.442	549.36
414.819	560.21
415.197	577.39
415.574	588.91
415.951	575.58
416.328	580.32
416.705	584.62
417.082	602.02
417.46	596.82
417.837	601.79
418.214	602.7
418.591	603.6
418.967	583.49
419.344	603.6
419.721	639.53
420.098	608.57
420.475	621.23
420.852	632.98
421.228	629.59
421.605	637.72
421.982	633.66
422.358	630.49
422.735	656.03
423.111	653.09
423.488	654.67
423.864	664.39
424.241	691.73
424.617	684.28
424.994	692.86
425.37	676.59
425.746	699.64
426.123	700.32
426.499	703.26
426.875	694.45
427.251	712.75
427.627	728.34
428.003	723.14
428.379	736.25
428.756	742.81
429.132	759.3
429.507	774.22
429.883	769.7
430.259	768.79
430.635	780.77
431.011	778.28
431.387	810.15
431.763	792.75
432.138	807.66
432.514	849.7
432.89	832.97
433.265	841.33
433.641	844.72
434.016	847.21
434.392	889.02
434.767	862.12
435.143	855.57
435.518	873.2
435.894	881.78
436.269	885.85
436.644	913.2
437.02	915.46
437.395	902.8
437.77	941.67
438.145	959.07
438.52	934.89
438.895	958.17
439.271	976.02
439.646	962.23
440.021	972.63
440.395	986.41
440.77	950.94
441.145	982.8
441.52	985.28
441.895	993.19
442.27	1025.51
442.645	1020.99
443.019	998.84
443.394	1019.18
443.769	1022.12
444.143	1029.13
444.518	1016.7
444.892	1066.64
445.267	1064.83
445.641	1079.29
446.016	1067.32
446.39	1083.36
446.764	1067.32
447.139	1074.77
447.513	1071.61
447.887	1102.8
448.262	1078.16
448.636	1100.31
449.01	1126.07
449.384	1108.67
449.758	1155.68
450.132	1148.9
450.506	1163.36
450.88	1168.56
451.254	1155.22
451.628	1183.02
452.002	1177.37
452.376	1208.33
452.75	1173.75
453.123	1228.89
453.497	1198.84
453.871	1223.47
454.244	1253.3
454.618	1271.15
454.992	1311.6
455.365	1274.54
455.739	1316.8
456.112	1327.42
456.486	1336.91
456.859	1357.7
457.232	1363.58
457.606	1383.01
457.979	1383.92
458.352	1420.08
458.725	1415.33
459.099	1442.22
459.472	1465.95
459.845	1473.86
460.218	1469.34
460.591	1497.36
460.964	1505.95
461.337	1549.56
461.71	1578.94
462.083	1574.42
462.456	1597.92
462.829	1580.3
463.201	1582.11
463.574	1613.29
463.947	1653.06
464.32	1677.02
464.692	1671.59
465.065	1721.54
465.438	1715.89
465.81	1726.73
466.183	1781.42
466.555	1785.94
466.928	1790.24
467.3	1780.52
467.672	1813.74
468.045	1901.87
468.417	1884.92
468.789	1876.11
469.161	1899.84
469.534	1936.22
469.906	1984.58
470.278	1979.16
470.65	2003.34
471.022	2042.21
471.394	2097.35
471.766	2077.46
472.138	2094.18
472.51	2155.2
472.882	2193.61
473.253	2187.97
473.625	2261.41
473.997	2261.41
474.369	2330.79
474.74	2349.54
475.112	2355.64
475.484	2388.86
475.855	2462.76
476.227	2470.67
476.598	2484.68
476.97	2535.3
477.341	2555.41
477.713	2625.02
478.084	2643.77
478.455	2680.61
478.827	2721.74
479.198	2800.38
479.569	2803.99
479.94	2902.3
480.311	2890.55
480.682	2917.21
481.053	3002.63
481.424	3048.51
481.795	3084.89
482.166	3117.43
482.537	3155.85
482.908	3211.44
483.279	3264.09
483.65	3308.84
484.021	3333.7
484.391	3441.27
484.762	3426.12
485.133	3428.16
485.503	3495.05
485.874	3596.74
486.244	3626.35
486.615	3715.38
486.985	3708.6
487.356	3790.63
487.726	3875.38
488.097	3934.81
488.467	3886.9
488.837	4035.15
489.207	4055.71
489.578	4088.93
489.948	4137.97
490.318	4211.64
490.688	4187.91
491.058	4248.25
491.428	4317.17
491.798	4370.51
492.168	4401.69
492.538	4466.55
492.908	4516.94
493.278	4553.78
493.648	4544.29
494.017	4598.75
494.387	4664.28
494.757	4734.34
495.126	4764.17
495.496	4812.98
495.866	4814.11
496.235	4897.05
496.605	4908.57
496.974	4968
497.344	5011.85
497.713	5023.37
498.082	5047.55
498.452	5136.36
498.821	5127.77
499.19	5121.9
499.559	5177.72
499.928	5261.56
500.298	5297.94
500.667	5325.06
501.036	5283.7
501.405	5366.19
501.774	5425.17
502.143	5431.95
502.512	5437.15
502.88	5499.52
503.249	5558.05
503.618	5582
503.987	5615.67
504.356	5654.31
504.724	5740.87
505.093	5651.83
505.462	5755.1
505.83	5805.72
506.199	5875.33
506.567	5938.37
506.936	5920.07
507.304	5995.32
507.672	5987.64
508.041	6060.63
508.409	6048.65
508.777	6104.92
509.145	6187.18
509.514	6195.77
509.882	6217.69
510.25	6287.52
510.618	6350.79
510.986	6376.78
511.354	6433.5
511.722	6457.23
512.09	6551.92
512.458	6537.46
512.826	6567.06
513.193	6683.89
513.561	6701.52
513.929	6731.57
514.297	6780.84
514.664	6840.5
515.032	6882.76
515.4	6872.59
515.767	6915.3
516.135	7021.51
516.502	6978.57
516.869	7075.07
517.237	7107.38
517.604	7101.73
517.972	7216.53
518.339	7300.37
518.706	7314.38
519.073	7365.46
519.44	7431.44
519.808	7493.59
520.175	7497.2
520.542	7568.39
520.909	7568.39
521.276	7608.16
521.643	7754.6
522.009	7850.42
522.376	7860.13
522.743	7905.78
523.11	7984.87
523.477	8071.43
523.843	8103.74
524.21	8207.02
524.577	8334.7
524.943	8322.04
525.31	8312.78
525.676	8420.57
526.043	8460.12
526.409	8474.13
526.776	8632.09
527.142	8604.52
527.508	8645.42
527.874	8779.43
528.241	8797.06
528.607	8834.8
528.973	8930.39
529.339	8955.7
529.705	9041.34
530.071	9113.21
530.437	9217.84
530.803	9288.34
531.169	9287.89
531.535	9216.03
531.901	9318.4
532.267	9386.42
532.632	9486.3
532.998	9430.03
533.364	9544.83
533.73	9553.87
534.095	9644.04
534.461	9646.53
534.826	9717.94
535.192	9739.4
535.557	9856.24
535.923	9811.95
536.288	9904.15
536.653	9994.09
537.019	9912.73
537.384	10004.48
537.749	10052.39
538.114	10110.47
538.479	10056.91
538.845	10223.46
539.21	10218.49
539.575	10192.5
539.94	10319.28
540.305	10289.22
540.67	10336.23
541.034	10369.22
541.399	10399.27
541.764	10488.76
542.129	10482.44
542.494	10495.77
542.858	10639.04
543.223	10632.71
543.587	10712.26
543.952	10619.16
544.316	10717.46
544.681	10663.9
545.045	10823.9
545.41	10816.66
545.774	10915.65
546.138	10893.27
546.503	11019.15
546.867	10962.42
547.231	11008.75
547.595	11109.09
547.959	11089.2
548.324	11166.26
548.688	11173.27
549.052	11206.48
549.416	11225.02
549.779	11263.88
550.143	11277.44
550.507	11379.14
550.871	11365.58
551.235	11401.28
551.599	11573.71
551.962	11537.1
552.326	11580.26
552.689	11664.1
553.053	11630.65
553.417	11616.87
553.78	11872.46
554.143	11771.44
554.507	11844.43
554.87	11804.44
555.234	12067.93
555.597	11940.7
555.96	12021.83
556.323	12027.25
556.686	12072.22
557.05	12145.67
557.413	12219.11
557.776	12314.25
558.139	12488.94
558.502	12457.3
558.865	12456.85
559.228	12555.38
559.59	12606.67
559.953	12535.72
560.316	12704.98
560.679	12783.17
561.041	12870.85
561.404	12856.84
561.767	12919.21
562.129	12961.92
562.492	13116.94
562.854	13082.59
563.217	13104.97
563.579	13198.97
563.941	13272.19
564.304	13325.53
564.666	13478.29
565.028	13473.77
565.39	13534.11
565.753	13588.8
566.115	13636.7
566.477	13734.55
566.839	13776.36
567.201	13870.6
567.563	13962.57
567.925	13948.56
568.287	14045.51
568.648	14074.21
569.01	14186.29
569.372	14120.98
569.734	14316.23
570.095	14401.43
570.457	14441.2
570.819	14479.17
571.18	14467.42
571.542	14602.1
571.903	14689.78
572.265	14640.74
572.626	14782.66
572.987	14728.43
573.349	14914.41
573.71	15026.5
574.071	14993.96
574.432	15138.13
574.794	15231.92
575.155	15249.32
575.516	15174.29
575.877	15249.99
576.238	15322.76
576.599	15366.6
576.96	15419.93
577.32	15394.17
577.681	15464.45
578.042	15649.53
578.403	15558.01
578.763	15558.91
579.124	15749.87
579.485	15767.5
579.845	15927.04
580.206	15801.62
580.566	15793.48
580.927	15916.42
581.287	15951.67
581.648	15990.09
582.008	16018.11
582.368	15987.15
582.728	16056.98
583.089	16142.63
583.449	16153.02
583.809	16122.74
584.169	16184.89
584.529	16204.77
584.889	16271.89
585.249	16252.91
585.609	16272.57
585.969	16333.36
586.329	16393.24
586.688	16342.4
587.048	16346.01
587.408	16428.95
587.768	16422.17
588.127	16385.56
588.487	16409.96
588.846	16540.58
589.206	16486.57
589.565	16499.68
589.925	16649.73
590.284	16513.46
590.643	16668.71
591.003	16670.3
591.362	16700.35
591.721	16645.89
592.08	16777.86
592.44	16786.45
592.799	16773.12
593.158	16908.93
593.517	16793.91
593.876	16866.22
594.235	16865.09
594.593	16890.86
594.952	17044.3
595.311	16961.14
595.67	16950.06
596.029	17103.28
596.387	17092.21
596.746	17076.39
597.104	17084.75
597.463	17125.88
597.822	17203.62
598.18	17134.01
598.538	17213.78
598.897	17313.44
599.255	17167.91
599.613	17407.9
599.972	17311.41
600.33	17489.26
600.688	17351.86
601.046	17383.72
601.404	17542.14
601.762	17487.22
602.12	17544.62
602.478	17474.79
602.836	17561.35
603.194	17406.55
603.552	17616.03
603.91	17506.43
604.268	17558.18
604.625	17542.59
604.983	17644.96
605.341	17548.47
605.698	17765.86
606.056	17737.16
606.413	17834.56
606.771	17841.11
607.128	17953.65
607.485	17760.89
607.843	17774
608.2	17969.02
608.557	18088.34
608.914	17987.1
609.272	18006.53
609.629	18075
609.986	18046.31
610.343	17952.3
610.7	18225.74
611.057	18127.43
611.414	18231.84
611.771	18198.39
612.127	18259.86
612.484	18224.61
612.841	18270.71
613.198	18235
613.554	18314.32
613.911	18406.07
614.267	18359.07
614.624	18370.59
614.98	18370.82
615.337	18516.35
615.693	18505.28
616.05	18429.12
616.406	18632.73
616.762	18502.56
617.118	18563.35
617.475	18589.34
617.831	18622.56
618.187	18572.84
618.543	18723.12
618.899	18691.49
619.255	18637.25
619.611	18712.28
619.967	18793.4
620.323	18811.93
620.678	18803.35
621.034	18704.82
621.39	18693.29
621.746	18718.15
622.101	18847.87
622.457	18667.98
622.812	18671.37
623.168	18819.17
623.523	18876.57
623.879	18910.92
624.234	18718.6
624.589	18822.33
624.945	18823.69
625.3	18906.4
625.655	18807.19
626.01	18888.77
626.365	18927.64
626.72	18886.28
627.075	18849.67
627.43	18870.24
627.785	18839.73
628.14	18788.21
628.495	18841.99
628.85	18860.75
629.205	18750.69
629.559	18932.38
629.914	18767.42
630.269	18784.36
630.623	18773.74
630.978	18810.35
631.332	18896.68
631.687	18924.02
632.041	18773.74
632.396	18758.15
632.75	18752.28
633.104	18732.16
633.459	18684.25
633.813	18617.14
634.167	18637.93
634.521	18683.12
634.875	18700.53
635.229	18733.29
635.583	18577.82
635.937	18513.64
636.291	18529.68
636.645	18606.97
636.999	18500.98
637.352	18552.05
637.706	18484.94
638.06	18550.92
638.413	18557.03
638.767	18396.13
639.121	18452.4
639.474	18319.07
639.828	18293.53
640.181	18423.02
640.534	18449.01
640.888	18261.89
641.241	18200.65
641.594	18383.02
641.947	18413.08
642.301	18315.45
642.654	18193.87
643.007	18282.23
643.36	18263.7
643.713	18156.36
644.066	18234.1
644.419	18155
644.771	18101.44
645.124	17997.72
645.477	17883.6
645.83	17759.99
646.182	17714.56
646.535	17609.03
646.888	17626.88
647.24	17495.59
647.593	17611.51
647.945	17627.79
648.298	17403.38
648.65	17426.66
649.002	17326.32
649.355	17536.49
649.707	17502.82
650.059	17619.2
650.411	17807.89
650.763	17828.23
651.115	18002.24
651.467	17833.43
651.819	17844.05
652.171	17931.28
652.523	17884.28
652.875	17903.48
653.227	17826.42
653.578	17967.44
653.93	17877.5
654.282	17779.42
654.633	17743.26
654.985	17788.01
655.337	17788.46
655.688	17864.16
656.039	17859.19
656.391	17675.24
656.742	17740.78
657.094	17726.54
657.445	17744.62
657.796	17757.95
658.147	17745.07
658.498	17621.91
658.849	17799.76
659.2	17676.82
659.551	17597.96
659.902	17786.42
660.253	17734.22
660.604	17814.67
660.955	17706.43
661.306	17822.13
661.656	17727.9
662.007	17680.21
662.358	17647.22
662.708	17691.51
663.059	17643.15
663.409	17602.7
663.76	17698.07
664.11	17696.26
664.461	17750.27
664.811	17687.22
665.161	17668.69
665.511	17617.84
665.862	17666.2
666.212	17722.02
666.562	17718.86
666.912	17710.04
667.262	17644.06
667.612	17729.7
667.962	17655.81
668.312	17585.53
668.662	17715.01
669.011	17660.55
669.361	17618.75
669.711	17693.77
670.06	17646.77
670.41	17619.88
670.76	17574.45
671.109	17695.35
671.459	17527.67
671.808	17618.07
672.157	17666.88
672.507	17592.53
672.856	17495.36
673.205	17492.65
673.554	17629.82
673.904	17560.44
674.253	17636.15
674.602	17619.65
674.951	17380.33
675.3	17288.81
675.649	17431.18
675.998	17508.24
676.346	17450.84
676.695	17506.88
677.044	17423.27
677.393	17441.58
677.741	17504.62
678.09	17484.74
678.438	17403.61
678.787	17528.58
679.135	17516.6
679.484	17313.44
679.832	17396.38
680.181	17350.96
680.529	17348.7
680.877	17370.39
681.225	17322.48
681.573	17514.34
681.922	17317.96
682.27	17243.39
682.618	17216.72
682.966	17175.59
683.314	17223.28
683.661	17155.03
684.009	17102.38
684.357	17110.51
684.705	17195.25
685.053	17056.73
685.4	16911.42
685.748	16951.19
686.095	16938.09
686.443	16876.17
686.79	16796.39
687.138	16913
687.485	16931.53
687.832	16786
688.18	16833.68
688.527	16703.29
688.874	16759.11
689.221	16702.84
689.568	16639.79
689.915	16667.81
690.262	16598.43
690.609	16586.46
690.956	16559.56
691.303	16545.55
691.65	16393.47
691.997	16442.96
692.344	16367.71
692.69	16315.73
693.037	16272.57
693.383	16245.22
693.73	16324.54
694.077	16210.42
694.423	16282.51
694.769	16131.55
695.116	16051.56
695.462	16096.07
695.808	15936.76
696.155	16002.97
696.501	15829.19
696.847	15912.35
697.193	15767.27
697.539	15855.63
697.885	15658.57
698.231	15663.54
698.577	15592.81
698.923	15726.82
699.269	15585.35
699.614	15508.52
699.96	15483.43
700.306	15483.66
700.651	15363.44
700.997	15409.99
701.342	15352.82
701.688	15360.95
702.033	15191.01
702.379	15216.1
702.724	15239.37
703.069	15277.79
703.415	15095.87
703.76	15074.86
704.105	15122.31
704.45	15095.42
704.795	14931.13
705.14	14975.88
705.485	14794.64
705.83	14935.2
706.175	14893.17
706.52	14776.79
706.865	14850.46
707.209	14768.43
707.554	14635.55
707.899	14693.17
708.243	14642.55
708.588	14702.89
708.932	14633.74
709.277	14509.45
709.621	14586.28
709.966	14467.87
710.31	14533.18
710.654	14439.62
710.998	14420.19
711.342	14420.19
711.687	14381.32
712.031	14335.22
712.375	14303.58
712.719	14288.66
713.063	14311.49
713.407	14310.81
713.75	14202.34
714.094	14172.28
714.438	14234.65
714.782	14163.92
715.125	14053.42
715.469	14108.78
715.812	14033.53
716.156	13938.84
716.499	13967.09
716.843	13976.13
717.186	13945.17
717.53	13969.58
717.873	13978.84
718.216	13932.29
718.559	13970.71
718.902	13853.87
719.246	13873.31
719.589	13871.5
719.932	13755.34
720.275	13852.07
720.617	13812.97
720.96	13748.57
721.303	13787.89
721.646	13749.47
721.989	13708.11
722.331	13766.19
722.674	13716.02
723.016	13692.75
723.359	13658.4
723.701	13739.75
724.044	13591.96
724.386	13521.68
724.729	13628.34
725.071	13545.41
725.413	13586.31
725.755	13535.46
726.097	13536.37
726.439	13408.91
726.782	13513.77
727.124	13498.85
727.465	13396.03
727.807	13466.54
728.149	13424.28
728.491	13397.84
728.833	13454.34
729.175	13308.58
729.516	13378.63
729.858	13339.54
730.199	13311.51
730.541	13356.26
730.882	13244.4
731.224	13271.52
731.565	13241.46
731.906	13234.45
732.248	13223.16
732.589	13223.38
732.93	13184.96
733.271	13150.84
733.612	13181.8
733.953	13165.76
734.294	13209.82
734.635	13134.34
734.976	13105.64
735.317	13184.29
735.658	13090.05
735.999	13102.25
736.339	13139.32
736.68	13144.74
737.021	13083.5
737.361	13061.13
737.702	13082.59
738.042	13099.32
738.383	13042.37
738.723	13125.08
739.063	13038.53
739.404	13029.49
739.744	13037.62
740.084	12983.39
740.424	13083.05
740.764	13005.99
741.104	13009.6
741.444	12963.73
741.784	12866.55
742.124	12986.1
742.464	12926.44
742.804	12896.84
743.143	12891.64
743.483	12874.24
743.823	12754.92
744.162	12845.09
744.502	12825.43
744.841	12847.8
745.181	12932.99
745.52	12788.14
745.86	12797.4
746.199	12796.73
746.538	12782.04
746.877	12693
747.216	12875.14
747.556	12774.13
747.895	12782.49
748.234	12656.16
748.573	12612.32
748.911	12698.2
749.25	12651.42
749.589	12649.84
749.928	12695.71
750.267	12643.96
750.605	12660.23
750.944	12612.1
751.283	12577.07
751.621	12634.47
751.96	12561.25
752.298	12497.3
752.636	12547.01
752.975	12529.84
753.313	12497.3
753.651	12481.48
753.989	12472.44
754.327	12401.71
754.666	12427.7
755.004	12441.25
755.342	12418.88
755.679	12462.95
756.017	12309.96
756.355	12372.56
756.693	12297.53
757.031	12290.07
757.368	12183.18
757.706	12218.89
758.044	12146.35
758.381	12123.3
758.719	12143.18
759.056	12191.54
759.394	12091.89
759.731	11987.93
760.068	11900.25
760.405	11956.3
760.743	11898.67
761.08	11937.54
761.417	11878.33
761.754	11883.08
762.091	11805.57
762.428	11799.69
762.765	11727.38
763.102	11847.6
763.438	11675.63
763.775	11702.74
764.112	11662.74
764.449	11656.42
764.785	11587.27
765.122	11486.48
765.458	11437.21
765.795	11413.49
766.131	11414.39
766.467	11362.19
766.804	11325.35
767.14	11187.05
767.476	11275.64
767.812	11251.91
768.148	11239.03
768.485	11168.97
768.821	11116.09
769.157	11115.19
769.492	11069.77
769.828	11055.3
770.164	11005.81
770.5	10969.43
770.836	11007.62
771.171	10906.38
771.507	10816.66
771.842	10709.77
772.178	10765.82
772.513	10719.49
772.849	10726.72
773.184	10627.52
773.519	10593.62
773.855	10552.26
774.19	10545.03
774.525	10527.86
774.86	10495.09
775.195	10430.01
775.53	10425.71
775.865	10315.89
776.2	10305.72
776.535	10206.06
776.87	10232.05
777.205	10229.34
777.539	10164.03
777.874	10194.31
778.209	10038.61
778.543	10052.84
778.878	10023.01
779.212	10004.48
779.547	9914.54
779.881	10010.36
780.215	9868.67
780.55	9907.31
780.884	9865.05
781.218	9811.04
781.552	9765.62
781.886	9691.95
782.22	9709.58
782.554	9610.14
782.888	9609.46
783.222	9570.37
783.556	9462.12
783.889	9469.81
784.223	9494.44
784.557	9334.22
784.89	9451.73
785.224	9316.37
785.557	9331.51
785.891	9341
786.224	9284.95
786.558	9291.96
786.891	9215.35
787.224	9168.35
787.557	9146.43
787.891	9133.55
788.224	9079.99
788.557	9072.3
788.89	9046.54
789.223	9040.89
789.556	8921.8
789.888	8865.08
790.221	8839.54
790.554	8814.01
790.887	8786.21
791.219	8778.3
791.552	8797.28
791.884	8729.04
792.217	8660.79
792.549	8656.27
792.882	8607.46
793.214	8560.45
793.546	8622.15
793.879	8637.06
794.211	8541.47
794.543	8492.66
794.875	8463.73
795.207	8480.91
795.539	8402.49
795.871	8392.77
796.203	8303.96
796.535	8308.48
796.867	8290.18
797.198	8266.45
797.53	8269.16
797.862	8275.04
798.193	8171.99
798.525	8197.3
798.856	8101.71
799.188	8071.65
799.519	8052.44
799.85	8062.84
800.182	7994.14
800.513	8043.4
800.844	7926.12
801.175	8053.12
801.506	8088.6
801.837	7939.23
802.168	7916.18
802.499	7838.21
802.83	7809.51
803.161	7827.82
803.491	7818.1
803.822	7795.73
804.153	7796.63
804.483	7668.27
804.814	7649.29
805.145	7644.54
805.475	7673.7
805.805	7602.74
806.136	7546.02
806.466	7581.95
806.796	7505.34
807.126	7548.95
807.457	7498.11
807.787	7479.8
808.117	7419.01
808.447	7381.5
808.777	7443.65
809.107	7378.11
809.436	7360.03
809.766	7360.48
810.096	7310.77
810.426	7350.32
810.755	7297.44
811.085	7275.74
811.414	7246.59
811.744	7255.4
812.073	7262.86
812.403	7259.02
812.732	7222.18
813.061	7139.02
813.39	7140.83
813.719	7128.17
814.049	7126.59
814.378	7118
814.707	7085.46
815.036	7066.48
815.365	7021.74
815.693	6974.05
816.022	7017.89
816.351	6995.97
816.68	6963.88
817.008	6910.33
817.337	6878.24
817.665	6880.27
817.994	6847.28
818.322	6918.69
818.651	6832.81
818.979	6766.15
819.307	6821.06
819.636	6847.28
819.964	6772.25
820.292	6822.65
820.62	6784
820.948	6749.43
821.276	6802.98
821.604	6778.13
821.932	6696.77
822.259	6785.13
822.587	6745.36
822.915	6787.17
823.243	6772.25
823.57	6734.51
823.898	6708.07
824.225	6736.77
824.553	6729.77
824.88	6738.58
825.207	6723.44
825.535	6699.94
825.862	6729.54
826.189	6691.8
826.516	6687.51
826.843	6772.93
827.17	6727.51
827.497	6755.08
827.824	6781.97
828.151	6758.69
828.478	6738.81
828.805	6771.57
829.131	6689.54
829.458	6730.22
829.785	6658.36
830.111	6722.76
830.438	6743.78
830.764	6744.46
831.09	6669.43
831.417	6671.01
831.743	6703.1
832.069	6730.22
832.395	6681.41
832.722	6778.8
833.048	6633.72
833.374	6652.25
833.7	6613.61
834.026	6655.42
834.351	6615.19
834.677	6623.55
835.003	6634.18
835.329	6590.79
835.654	6659.49
835.98	6622.88
836.306	6634.63
836.631	6584.01
836.956	6569.77
837.282	6573.84
837.607	6539.26
837.932	6556.21
838.258	6537.91
838.583	6480.06
838.908	6476.67
839.233	6497.91
839.558	6498.13
839.883	6414.75
840.208	6454.97
840.533	6470.79
840.858	6442.32
841.182	6407.29
841.507	6418.59
841.832	6382.43
842.156	6355.31
842.481	6423.11
842.805	6374.52
843.13	6363.45
843.454	6339.04
843.778	6300.63
844.103	6270.57
844.427	6286.39
844.751	6308.31
845.075	6274.41
845.399	6196.45
845.723	6207.52
846.047	6218.37
846.371	6170.23
846.695	6102.21
847.019	6104.02
847.343	6062.44
847.666	6086.62
847.99	6039.39
848.313	6050.01
848.637	6053.17
848.96	6014.31
849.284	6014.08
849.607	5939.05
849.931	5888.66
850.254	5868.55
850.577	5774.99
850.9	5843.01
851.223	5779.74
851.546	5787.87
851.869	5795.78
852.192	5829
852.515	5722.56
852.838	5684.14
853.161	5718.04
853.483	5659.29
853.806	5693.64
854.129	5619.06
854.451	5621.1
854.774	5628.78
855.096	5580.64
855.419	5563.24
855.741	5550.81
856.063	5503.13
856.385	5490.48
856.708	5499.97
857.03	5465.39
857.352	5478.95
857.674	5438.73
857.996	5469.46
858.318	5420.42
858.64	5452.51
858.961	5455.22
859.283	5404.83
859.605	5378.39
859.926	5375.9
860.248	5346.3
860.57	5343.36
860.891	5364.15
861.212	5300.43
861.534	5278.96
861.855	5276.7
862.176	5279.64
862.498	5259.3
862.819	5308.33
863.14	5245.96
863.461	5266.53
863.782	5253.65
864.103	5263.14
864.424	5246.42
864.745	5234.66
865.065	5193.31
865.386	5167.32
865.707	5154.21
866.027	5167.77
866.348	5176.81
866.668	5137.27
866.989	5176.36
867.309	5175.46
867.63	5097.27
867.95	5142.69
868.27	5123.48
868.59	5129.36
868.91	5086.42
869.23	5071.28
869.55	5115.8
869.87	5050.04
870.19	5077.83
870.51	5076.25
870.83	5106.08
871.15	4993.99
871.469	5032.64
871.789	5056.36
872.109	5043.94
872.428	4977.72
872.748	4988.12
873.067	5009.59
873.386	5009.81
873.706	4990.15
874.025	4993.54
874.344	4966.42
874.663	4962.13
874.982	4984.73
875.301	4935.24
875.62	4969.13
875.939	4943.15
876.258	4924.62
876.577	4922.58
876.896	4923.71
877.214	4875.35
877.533	4918.29
877.852	4913.54
878.17	4905.63
878.489	4891.62
878.807	4871.96
879.125	4896.59
879.444	4872.19
879.762	4856.14
880.08	4867.89
880.398	4834.9
880.716	4839.65
881.034	4813.43
881.352	4817.73
881.67	4834
881.988	4817.05
882.306	4815.01
882.624	4780.89
882.941	4764.85
883.259	4757.39
883.577	4721.46
883.894	4735.92
884.212	4734.56
884.529	4714.45
884.846	4714
885.164	4664.51
885.481	4679.88
885.798	4689.82
886.115	4694.34
886.432	4617.51
886.75	4655.02
887.067	4638.52
887.383	4649.82
887.7	4640.33
888.017	4596.49
888.334	4628.35
888.651	4627.67
888.967	4597.62
889.284	4618.41
889.6	4521.01
889.917	4536.83
890.233	4534.57
890.55	4543.16
890.866	4509.03
891.182	4531.41
891.498	4468.58
891.815	4502.03
892.131	4497.28
892.447	4466.32
892.763	4459.54
893.079	4418.19
893.395	4417.28
893.71	4374.8
894.026	4413.9
894.342	4368.7
894.657	4366.89
894.973	4455.7
895.289	4365.53
895.604	4351.75
895.92	4314.46
896.235	4264.97
896.55	4307.01
896.865	4329.83
897.181	4337.06
897.496	4270.85
897.811	4301.81
898.126	4241.47
898.441	4224.3
898.756	4211.87
899.071	4239.44
899.386	4234.69
899.7	4189.04
900.015	4193.56
900.33	4124.64
900.644	4172.55
900.959	4122.83
901.273	4121.02
901.588	4126.9
901.902	4050.51
902.216	4104.98
902.531	4053.68
902.845	4072.66
903.159	4018.43
903.473	4047.58
903.787	3996.96
904.101	4002.61
904.415	4011.42
904.729	3956.28
905.042	3932.55
905.356	3973.91
905.67	3957.18
905.984	3948.82
906.297	3883.06
906.611	3932.1
906.924	3902.72
907.237	3896.85
907.551	3866.56
907.864	3840.8
908.177	3819.79
908.491	3843.29
908.804	3805.78
909.117	3807.81
909.43	3759.68
909.743	3730.3
910.056	3778.88
910.368	3705.67
910.681	3722.84
910.994	3723.07
911.307	3697.76
911.619	3664.31
911.932	3666.57
912.244	3625.44
912.557	3652.56
912.869	3664.76
913.181	3603.75
913.494	3596.74
913.806	3535.95
914.118	3583.63
914.43	3566.69
914.742	3555.39
915.054	3542.96
915.366	3534.82
915.678	3554.26
915.99	3500.92
916.302	3525.11
916.613	3495.73
916.925	3496.63
917.236	3475.16
917.548	3457.99
917.859	3474.26
918.171	3449.4
918.482	3406.01
918.794	3388.16
919.105	3421.6
919.416	3365.56
919.727	3339.8
920.038	3358.33
920.349	3338.22
920.66	3313.13
920.971	3293.47
921.282	3338.22
921.593	3310.42
921.903	3296.41
922.214	3225.23
922.525	3280.37
922.835	3258.45
923.146	3246.92
923.456	3238.78
923.767	3215.73
924.077	3205.34
924.387	3176.87
924.697	3176.87
925.008	3137.32
925.318	3174.38
925.628	3134.38
925.938	3119.92
926.248	3072.46
926.558	3080.37
926.867	3078.11
927.177	3117.21
927.487	3075.4
927.796	3037.66
928.106	3068.62
928.416	3010.32
928.725	3022.29
929.034	3005.8
929.344	3032.24
929.653	2993.59
929.962	2965.12
930.271	2957.44
930.581	2962.18
930.89	2914.05
931.199	2910.88
931.508	2907.72
931.817	2922.41
932.125	2898.91
932.434	2933.03
932.743	2887.61
933.051	2876.31
933.36	2865.01
933.669	2860.94
933.977	2854.84
934.286	2819.13
934.594	2830.66
934.902	2780.94
935.21	2776.65
935.519	2795.63
935.827	2771.68
936.135	2739.81
936.443	2730.32
936.751	2754.05
937.059	2744.79
937.367	2732.58
937.674	2720.15
937.982	2736.43
938.29	2721.74
938.597	2686.93
938.905	2654.85
939.213	2655.52
939.52	2654.62
939.827	2661.85
940.135	2639.48
940.442	2620.72
940.749	2620.5
941.056	2596.54
941.363	2581.85
941.67	2594.28
941.977	2616.2
942.284	2569.88
942.591	2569.88
942.898	2566.71
943.205	2531.46
943.511	2541.63
943.818	2518.13
944.125	2493.72
944.431	2495.53
944.738	2498.01
945.044	2472.48
945.35	2450.56
945.657	2465.92
945.963	2470.44
946.269	2418.47
946.575	2439.71
946.881	2413.04
947.187	2425.92
947.493	2403.1
947.799	2398.81
948.105	2389.32
948.41	2355.87
948.716	2402.65
949.022	2367.85
949.327	2370.33
949.633	2307.28
949.938	2346.83
950.244	2357
950.549	2297.34
950.854	2326.27
951.16	2306.61
951.465	2284.23
951.77	2303.89
952.075	2286.95
952.38	2277.68
952.685	2299.6
952.99	2237.46
953.294	2237.46
953.599	2247.4
953.904	2225.03
954.209	2195.42
954.513	2215.99
954.818	2183.67
955.122	2231.35
955.426	2208.76
955.731	2193.39
956.035	2167.4
956.339	2141.19
956.643	2174.41
956.948	2156.33
957.252	2137.57
957.556	2153.16
957.86	2120.17
958.163	2114.07
958.467	2107.52
958.771	2101.64
959.075	2081.75
959.378	2086.72
959.682	2081.75
959.985	2067.97
960.289	2050.12
960.592	2055.09
960.896	2040.85
961.199	2064.13
961.502	2022.09
961.805	2032.04
962.108	2013.28
962.411	2021.19
962.714	2023
963.017	2012.6
963.32	2035.43
963.623	1985.48
963.926	1979.38
964.228	1945.94
964.531	1965.82
964.833	1968.99
965.136	1942.77
965.438	1951.81
965.741	1934.86
966.043	1914.75
966.345	1936.9
966.648	1941.19
966.95	1919.72
967.252	1895.77
967.554	1893.06
967.856	1903.9
968.158	1837.47
968.46	1884.7
968.761	1882.89
969.063	1849.67
969.365	1857.8
969.666	1833.17
969.968	1834.53
970.269	1834.75
970.571	1809.67
970.872	1810.8
971.174	1812.83
971.475	1814.42
971.776	1803.57
972.077	1795.43
972.378	1806.05
972.679	1755.66
972.98	1795.43
973.281	1765.15
973.582	1763.34
973.883	1730.8
974.183	1768.99
974.484	1773.29
974.785	1741.2
975.085	1739.16
975.386	1752.27
975.686	1707.3
975.986	1709.33
976.287	1703.68
976.587	1689.45
976.887	1686.96
977.187	1712.27
977.487	1674.98
977.787	1684.48
978.087	1660.97
978.387	1685.61
978.687	1641.99
978.987	1641.54
979.286	1626.4
979.586	1631.37
979.885	1643.35
980.185	1627.3
980.484	1606.96
980.784	1623.01
981.083	1612.39
981.382	1572.16
981.682	1632.73
981.981	1589.11
982.28	1578.94
982.579	1602.44
982.878	1561.54
983.177	1553.41
983.475	1582.33
983.774	1562.22
984.073	1554.08
984.372	1539.85
984.67	1520.86
984.969	1546.63
985.267	1529.23
985.566	1500.75
985.864	1529.68
986.162	1506.4
986.461	1493.97
986.759	1514.31
987.057	1470.02
987.355	1501.2
987.653	1492.16
987.951	1484.48
988.249	1463.46
988.547	1472.05
988.844	1480.87
989.142	1462.79
989.44	1431.15
989.737	1444.03
990.035	1460.3
990.332	1435.89
990.63	1419.62
990.927	1413.52
991.224	1396.12
991.521	1395.22
991.819	1397.93
992.116	1378.95
992.413	1398.38
992.71	1399.74
993.006	1390.02
993.303	1368.78
993.6	1369.46
993.897	1361.55
994.193	1350.25
994.49	1380.53
994.787	1350.02
995.083	1336.46
995.379	1320.87
995.676	1337.82
995.972	1307.54
996.268	1325.61
996.565	1303.47
996.861	1307.99
997.157	1324.03
997.453	1303.92
997.749	1286.07
998.044	1305.95
998.34	1293.07
998.636	1279.74
998.932	1287.88
999.227	1291.49
999.523	1252.4
999.818	1270.93
1000.114	1239.52
1000.409	1244.49
1000.704	1206.52
1001	1246.97
1001.295	1219.85
1001.59	1210.36
1001.885	1217.82
1002.18	1217.82
1002.475	1206.52
1002.77	1219.4
1003.065	1200.19
1003.359	1180.76
1003.654	1183.7
1003.949	1198.84
1004.243	1157.94
1004.538	1146.41
1004.832	1148.67
1005.127	1158.61
1005.421	1139.18
1005.715	1101.44
1006.009	1151.16
1006.304	1144.38
1006.598	1140.99
1006.892	1121.33
1007.186	1125.39
1007.48	1098.28
1007.773	1109.58
1008.067	1092.85
1008.361	1075.23
1008.655	1101.44
1008.948	1079.29
1009.242	1082.91
1009.535	1088.11
1009.829	1070.93
1010.122	1062.34
1010.415	1064.6
1010.708	1068.45
1011.001	1077.03
1011.295	1052.4
1011.588	1015.57
1011.881	1032.06
1012.173	1037.26
1012.466	1033.65
1012.759	1010.14
1013.052	1015.11
1013.344	1033.42
1013.637	1041.55
1013.93	976.25
1014.222	990.48
1014.514	985.51
1014.807	976.92
1015.099	951.61
1015.391	972.86
1015.683	979.64
1015.976	961.78
1016.268	967.66
1016.56	965.85
1016.851	966.53
1017.143	971.73
1017.435	931.5
1017.727	947.55
1018.018	919.98
1018.31	906.19
1018.602	938.28
1018.893	931.27
1019.185	917.94
1019.476	933.53
1019.767	911.61
1020.058	917.04
1020.35	909.13
1020.641	871.16
1020.932	887.89
1021.223	879.98
1021.514	882.91
1021.804	879.75
1022.095	853.54
1022.386	862.8
1022.677	860.99
1022.967	873.2
1023.258	861.45
1023.548	853.08
1023.839	838.62
1024.129	829.13
1024.419	837.04
1024.709	849.92
1025	831.62
1025.29	841.33
1025.58	810.15
1025.87	810.37
1026.16	812.18
1026.449	827.77
1026.739	815.57
1027.029	814.89
1027.319	786.87
1027.608	812.63
1027.898	773.99
1028.187	775.35
1028.477	753.43
1028.766	782.8
1029.055	769.7
1029.344	778.28
1029.634	756.82
1029.923	742.13
1030.212	777.83
1030.501	757.04
1030.79	765.18
1031.078	733.77
1031.367	744.39
1031.656	735.8
1031.945	718.4
1032.233	754.1
1032.522	732.64
1032.81	731.05
1033.099	705.97
1033.387	712.52
1033.675	729.02
1033.963	695.12
1034.251	694.67
1034.54	713.2
1034.828	683.15
1035.116	705.07
1035.403	686.08
1035.691	670.94
1035.979	662.58
1036.267	673.2
1036.554	666.88
1036.842	663.03
1037.129	672.3
1037.417	663.03
1037.704	673.65
1037.992	646.54
1038.279	658.74
1038.566	638.18
1038.853	638.18
1039.14	638.18
