Data from tablewood_dark_bookshelf_FLMS001491_00090.txt Node
Date: Wed Feb 08 14:15:50 GMT 2017
User: dcchb
Spectrometer: FLMS00149
Trigger mode: 0
Integration Time (sec): 2.000000E-2
Scans to average: 10
Electric dark correction enabled: true
Nonlinearity correction enabled: false
Boxcar width: 0
XAxis mode: Wavelengths
Number of Pixels in Spectrum: 2048
>>>>>Begin Spectral Data<<<<<
341.393	-6.09
341.776	-6.09
342.16	-6.09
342.543	-60.1
342.927	-89.25
343.31	-66.2
343.693	-77.95
344.077	-55.35
344.46	-64.62
344.843	-54.9
345.226	-44.5
345.61	0.69
345.993	-34.34
346.376	1.82
346.759	10.86
347.142	13.12
347.525	37.75
347.908	67.81
348.291	65.78
348.674	86.57
349.057	113.46
349.44	134.7
349.823	136.51
350.206	178.09
350.588	185.77
350.971	197.75
351.354	215.83
351.737	240.69
352.119	231.65
352.502	264.87
352.884	276.84
353.267	272.55
353.65	291.08
354.032	298.09
354.414	304.41
354.797	331.98
355.179	320.23
355.562	305.99
355.944	316.16
356.326	320.91
356.709	331.08
357.091	339.44
357.473	335.82
357.855	340.57
358.238	328.82
358.62	346.22
359.002	324.98
359.384	345.54
359.766	335.15
360.148	336.05
360.53	341.25
360.912	335.15
361.294	324.53
361.676	341.02
362.057	349.84
362.439	331.3
362.821	341.93
363.203	332.89
363.584	302.83
363.966	332.43
364.348	308.71
364.729	330.63
365.111	325.66
365.493	312.1
365.874	310.51
366.256	307.8
366.637	331.08
367.019	333.11
367.4	297.63
367.781	325.43
368.163	331.98
368.544	316.16
368.925	311.19
369.306	340.34
369.688	330.17
370.069	331.53
370.45	328.82
370.831	334.02
371.212	320.91
371.593	321.14
371.974	328.14
372.355	333.56
372.736	316.16
373.117	328.82
373.498	314.58
373.879	316.62
374.26	331.53
374.641	322.04
375.021	320.91
375.402	339.89
375.783	331.08
376.163	351.87
376.544	361.36
376.925	358.42
377.305	333.34
377.686	348.25
378.066	346.67
378.447	358.87
378.827	347.8
379.208	365.88
379.588	349.16
379.968	369.72
380.349	355.71
380.729	365.2
381.109	365.2
381.489	363.62
381.87	381.02
382.25	371.08
382.63	376.05
383.01	368.14
383.39	371.76
383.77	370.4
384.15	378.31
384.53	379.44
384.91	384.41
385.29	380.8
385.67	381.92
386.049	384.64
386.429	389.61
386.809	392.09
387.189	385.99
387.568	383.96
387.948	411.98
388.328	401.13
388.707	398.87
389.087	380.34
389.466	370.63
389.846	397.97
390.225	413.56
390.605	415.82
390.984	397.52
391.363	406.56
391.743	409.27
392.122	436.84
392.501	424.18
392.881	432.55
393.26	428.03
393.639	434.58
394.018	456.73
394.397	417.86
394.776	434.13
395.155	428.25
395.534	447.46
395.913	444.07
396.292	470.96
396.671	449.95
397.05	442.49
397.429	461.02
397.808	470.74
398.186	467.8
398.565	468.93
398.944	453.34
399.323	467.8
399.701	453.56
400.08	486.1
400.458	461.47
400.837	506.67
401.215	494.24
401.594	480.23
401.972	503.05
402.351	504.63
402.729	487.46
403.107	518.87
403.486	504.86
403.864	507.35
404.242	508.02
404.62	515.03
404.999	501.92
405.377	513.67
405.755	541.92
406.133	531.53
406.511	532.43
406.889	544.86
407.267	563.84
407.645	538.76
408.023	573.56
408.401	573.78
408.779	569.94
409.156	576.04
409.534	560.45
409.912	581.02
410.29	597.06
410.667	608.81
411.045	599.32
411.422	594.8
411.8	596.38
412.178	601.58
412.555	619.66
412.933	621.69
413.31	616.5
413.687	640.68
414.065	642.03
414.442	644.29
414.819	649.71
415.197	650.62
415.574	644.29
415.951	674.35
416.328	684.06
416.705	669.83
417.082	686.55
417.46	688.13
417.837	694.91
418.214	708.47
418.591	685.87
418.967	707.79
419.344	692.2
419.721	721.35
420.098	707.57
420.475	725.42
420.852	723.16
421.228	769.26
421.605	724.97
421.982	746.89
422.358	744.85
422.735	758.19
423.111	767.9
423.488	781.91
423.864	767.9
424.241	803.83
424.617	790.95
424.994	783.04
425.37	772.88
425.746	823.5
426.123	831.4
426.499	825.53
426.875	824.4
427.251	842.25
427.627	842.93
428.003	854
428.379	858.97
428.756	868.47
429.132	898.97
429.507	891.52
429.883	888.13
430.259	902.82
430.635	912.08
431.011	913.66
431.387	920.44
431.763	947.33
432.138	995.02
432.514	964.28
432.89	980.33
433.265	999.08
433.641	1002.7
434.016	1012.42
434.392	1044.05
434.767	1052.42
435.143	1030.95
435.518	1060.78
435.894	1104.84
436.269	1103.49
436.644	1074.79
437.02	1100.78
437.395	1107.1
437.77	1099.65
438.145	1123.83
438.52	1144.62
438.895	1155.92
439.271	1133.32
439.646	1160.66
440.021	1162.02
440.395	1192.3
440.77	1159.76
441.145	1187.33
441.52	1189.14
441.895	1213.99
442.27	1202.24
442.645	1204.28
443.019	1234.78
443.394	1237.5
443.769	1260.09
444.143	1239.3
444.518	1239.98
444.892	1269.59
445.267	1281.34
445.641	1301.22
446.016	1288.12
446.39	1289.02
446.764	1327.44
447.139	1285.18
447.513	1327.89
447.887	1357.04
448.262	1331.28
448.636	1338.06
449.01	1371.73
449.384	1390.26
449.758	1402.46
450.132	1394.78
450.506	1386.19
450.88	1414.89
451.254	1394.33
451.628	1443.14
452.002	1472.29
452.376	1473.87
452.75	1463.25
453.123	1477.49
453.497	1532.63
453.871	1488.56
454.244	1534.44
454.618	1548.9
454.992	1557.94
455.365	1551.84
455.739	1597.26
456.112	1599.29
456.486	1621.21
456.859	1677.03
457.232	1692.85
457.606	1669.35
457.979	1707.31
458.352	1705.73
458.725	1739.63
459.099	1740.31
459.472	1761.32
459.845	1792.51
460.218	1810.59
460.591	1841.32
460.964	1859.63
461.337	1873.19
461.71	1942.11
462.083	1932.17
462.456	1928.1
462.829	1967.87
463.201	2007.42
463.574	1976.69
463.947	1990.02
464.32	2046.29
464.692	2062.56
465.065	2058.04
465.438	2067.76
465.81	2144.82
466.183	2150.92
466.555	2188.21
466.928	2228.43
467.3	2211.93
467.672	2244.47
468.045	2301.87
468.417	2325.6
468.789	2307.3
469.161	2361.31
469.534	2383
469.906	2410.8
470.278	2456.67
470.65	2474.75
471.022	2537.35
471.394	2533.96
471.766	2629.78
472.138	2591.13
472.51	2625.03
472.882	2730.34
473.253	2700.28
473.625	2776.66
473.997	2841.07
474.369	2853.05
474.74	2871.13
475.112	2863.67
475.484	2937.79
475.855	3015.3
476.227	3034.28
476.598	3138.24
476.97	3151.57
477.341	3228.18
477.713	3183.66
478.084	3267.72
478.455	3323.32
478.827	3374.39
479.198	3474.73
479.569	3464.33
479.94	3554.72
480.311	3636.08
480.682	3697.32
481.053	3791.78
481.424	3845.11
481.795	3828.39
482.166	3907.71
482.537	3947.03
482.908	4031.55
483.279	4074.94
483.65	4152.45
484.021	4225.89
484.391	4296.17
484.762	4319.22
485.133	4339.11
485.503	4387.7
485.874	4487.35
486.244	4535.49
486.615	4655.48
486.985	4632.66
487.356	4741.58
487.726	4785.88
488.097	4876.72
488.467	4904.29
488.837	4987.68
489.207	5071.29
489.578	5154.91
489.948	5159.65
490.318	5198.75
490.688	5211.85
491.058	5349.7
491.428	5448.46
491.798	5466.76
492.168	5551.05
492.538	5604.16
492.908	5653.65
493.278	5718.51
493.648	5740.65
494.017	5827.21
494.387	5861.78
494.757	5884.38
495.126	5964.38
495.496	5945.17
495.866	6073.75
496.235	6096.13
496.605	6110.14
496.974	6200.76
497.344	6281.66
497.713	6248.21
498.082	6331.37
498.452	6362.33
498.821	6425.61
499.19	6458.83
499.559	6510.35
499.928	6583.34
500.298	6599.39
500.667	6653.17
501.036	6666.28
501.405	6749.89
501.774	6741.08
502.143	6830.57
502.512	6849.55
502.88	6931.81
503.249	6914.41
503.618	6959.15
503.987	6991.02
504.356	7082.54
504.724	7068.3
505.093	7132.03
505.462	7146.27
505.83	7261.07
506.199	7352.14
506.567	7409.76
506.936	7402.53
507.304	7471.46
507.672	7534.51
508.041	7598.01
508.409	7663.54
508.777	7729.53
509.145	7782.63
509.514	7751.22
509.882	7811.11
510.25	7893.37
510.618	7877.55
510.986	7941.95
511.354	8028.5
511.722	8109.86
512.09	8181.49
512.458	8196.86
512.826	8257.2
513.193	8334.26
513.561	8365.9
513.929	8381.94
514.297	8484.76
514.664	8527.25
515.032	8644.76
515.4	8643.85
515.767	8708.03
516.135	8798.2
516.502	8690.86
516.869	8913.9
517.237	8928.82
517.604	8954.35
517.972	9052.21
518.339	9126.55
518.706	9176.04
519.073	9202.71
519.44	9244.52
519.808	9375.59
520.175	9379.2
520.542	9495.13
520.909	9595.69
521.276	9587.56
521.643	9683.38
522.009	9753.43
522.376	9888.57
522.743	9889.92
523.11	10024.84
523.477	10070.71
523.843	10163.81
524.21	10217.37
524.577	10323.36
524.943	10354.32
525.31	10440.87
525.676	10530.81
526.043	10612.16
526.409	10660.3
526.776	10776.45
527.142	10850.35
527.508	10851.25
527.874	10888.54
528.241	11058.93
528.607	11074.75
528.973	11127.86
529.339	11182.09
529.705	11241.98
530.071	11361.98
530.437	11427.96
530.803	11460.5
531.169	11526.26
531.535	11587.96
531.901	11650.78
532.267	11715.86
532.632	11766.03
532.998	11797.44
533.364	11878.35
533.73	11974.39
534.095	12095.29
534.461	12120.15
534.826	12135.51
535.192	12180.48
535.557	12299.58
535.923	12320.59
536.288	12411.21
536.653	12381.38
537.019	12448.27
537.384	12513.81
537.749	12632
538.114	12537.54
538.479	12715.61
538.845	12733.92
539.21	12651.66
539.575	12700.25
539.94	12793.8
540.305	12933.23
540.67	12852.56
541.034	12945.44
541.399	12998.77
541.764	13015.27
542.129	13053.23
542.494	13095.71
542.858	13149.72
543.223	13241.93
543.587	13174.36
543.952	13211.64
544.316	13368.93
544.681	13281.92
545.045	13457.97
545.41	13538.64
545.774	13557.85
546.138	13552.43
546.503	13561.47
546.867	13669.94
547.231	13750.39
547.595	13822.93
547.959	13827.67
548.324	13831.51
548.688	13898.41
549.052	13877.84
549.416	13954.45
549.779	14005.97
550.143	14032.87
550.507	14068.57
550.871	14138.63
551.235	14211.84
551.599	14298.85
551.962	14350.37
552.326	14328.68
552.689	14468.33
553.053	14473.76
553.417	14535
553.78	14647.54
554.143	14647.31
554.507	14707.65
554.87	14715.56
555.234	14881.88
555.597	14799.85
555.96	14904.93
556.323	15119.39
556.686	14984.03
557.05	15170.24
557.413	15214.08
557.776	15224.92
558.139	15322.1
558.502	15400.06
558.865	15419.04
559.228	15548.08
559.59	15520.28
559.953	15706.49
560.316	15730.9
560.679	15761.86
561.041	15904.68
561.404	15993.94
561.767	16084.34
562.129	15994.17
562.492	16326.82
562.854	16209.08
563.217	16224.67
563.579	16338.12
563.941	16484.1
564.304	16453.59
564.666	16632.12
565.028	16683.87
565.39	16678.67
565.753	16881.83
566.115	16859.23
566.477	17010.41
566.839	17072.33
567.201	17161.14
567.563	17107.36
567.925	17327.02
568.287	17352.1
568.648	17357.98
569.01	17493.57
569.372	17610.4
569.734	17581.7
570.095	17729.72
570.457	17880
570.819	17811.98
571.18	17891.07
571.542	18048.35
571.903	18038.18
572.265	18131.74
572.626	18134.45
572.987	18283.83
573.349	18279.31
573.71	18453.09
574.071	18479.98
574.432	18491.73
574.794	18604.5
575.155	18604.72
575.516	18595.91
575.877	18715.68
576.238	18790.25
576.599	18796.13
576.96	18900.08
577.32	19005.39
577.681	19118.16
578.042	19105.27
578.403	19101.66
578.763	19241.77
579.124	19216.68
579.485	19268.89
579.845	19429.79
580.206	19265.27
580.566	19387.75
580.927	19429.33
581.287	19475.43
581.648	19447.19
582.008	19600.85
582.368	19564.7
582.728	19529.44
583.089	19597.24
583.449	19648.99
583.809	19685.82
584.169	19661.19
584.529	19715.2
584.889	19880.17
585.249	19738.25
585.609	19705.94
585.969	19887.4
586.329	19852.6
586.688	19865.03
587.048	19845.14
587.408	19975.99
587.768	19936.21
588.127	19928.76
588.487	19978.25
588.846	20149.09
589.206	20052.82
589.565	20130.33
589.925	20108.64
590.284	20110.45
590.643	20078.58
591.003	20123.33
591.362	20185.02
591.721	20211.91
592.08	20256.43
592.44	20320.16
592.799	20325.36
593.158	20266.83
593.517	20351.8
593.876	20342.53
594.235	20306.82
594.593	20422.98
594.952	20322.87
595.311	20272.02
595.67	20391.12
596.029	20662.07
596.387	20595.63
596.746	20639.92
597.104	20492.81
597.463	20530.77
597.822	20681.28
598.18	20629.75
598.538	20583.2
598.897	20822.29
599.255	20599.7
599.613	20940.93
599.972	20810.99
600.33	20754.27
600.688	20737.55
601.046	20770.54
601.404	21004.66
601.762	20904.32
602.12	20908.62
602.478	21010.76
602.836	21102.51
603.194	21005.11
603.552	21035.17
603.91	20931.22
604.268	21042.62
604.625	21067.26
604.983	21133.7
605.341	21148.16
605.698	21094.83
606.056	21267.25
606.413	21197.65
606.771	21196.74
607.128	21281.04
607.485	21161.72
607.843	21199.46
608.2	21410.52
608.557	21467.02
608.914	21394.03
609.272	21391.99
609.629	21611.2
609.986	21580.69
610.343	21483.97
610.7	21583.85
611.057	21663.85
611.414	21680.35
611.771	21619.33
612.127	21722.38
612.484	21793.79
612.841	21855.71
613.198	21752.44
613.554	21782.49
613.911	21909.27
614.267	21904.75
614.624	21921.47
614.98	21998.76
615.337	22127.12
615.693	21914.01
616.05	21961.24
616.406	22033.56
616.762	21921.47
617.118	22118.3
617.475	22042.37
617.831	22196.04
618.187	22212.54
618.543	22206.21
618.899	22365.08
619.255	22312.87
619.611	22150.17
619.967	22328.69
620.323	22305.87
620.678	22206.89
621.034	22175.02
621.39	22272.87
621.746	22157.4
622.101	22489.37
622.457	22216.61
622.812	22280.56
623.168	22371.86
623.523	22449.82
623.879	22376.37
624.234	22384.96
624.589	22464.28
624.945	22428.12
625.3	22397.39
625.655	22418.63
626.01	22373.44
626.365	22406.43
626.72	22421.57
627.075	22394.91
627.43	22368.69
627.785	22370.27
628.14	22344.06
628.495	22438.97
628.85	22351.97
629.205	22229.03
629.559	22381.57
629.914	22321.01
630.269	22289.82
630.623	22255.47
630.978	22198.3
631.332	22323.49
631.687	22252.99
632.041	22266.1
632.396	22344.74
632.75	22123.95
633.104	22102.26
633.459	22116.04
633.813	22069.49
634.167	22213.67
634.521	22114.91
634.875	22121.24
635.229	22084.18
635.583	21851.42
635.937	21959.89
636.291	21954.01
636.645	21882.15
636.999	21958.98
637.352	21901.81
637.706	21759.67
638.06	21933.22
638.413	21857.97
638.767	21785.88
639.121	21828.37
639.474	21659.33
639.828	21680.35
640.181	21673.57
640.534	21735.71
640.888	21661.59
641.241	21533.91
641.594	21664.3
641.947	21681.48
642.301	21577.53
642.654	21558.54
643.007	21718.54
643.36	21520.35
643.713	21546.11
644.066	21650.07
644.419	21440.35
644.771	21319.23
645.124	21110.19
645.477	21005.11
645.83	20969.86
646.182	20822.97
646.535	20780.03
646.888	20694.16
647.24	20633.37
647.593	20823.65
647.945	20752.69
648.298	20650.77
648.65	20605.35
649.002	20582.07
649.355	20667.49
649.707	20688.28
650.059	20749.53
650.411	21015.05
650.763	21094.6
651.115	21207.37
651.467	21109.29
651.819	21173.02
652.171	21070.65
652.523	21005.56
652.875	21002.63
653.227	20874.49
653.578	21062.06
653.93	20966.02
654.282	20809.86
654.633	20821.61
654.985	20856.64
655.337	20881.5
655.688	20888.28
656.039	20926.24
656.391	20869.97
656.742	20797.43
657.094	20849.64
657.445	20901.84
657.796	20765.8
658.147	20907.49
658.498	20862.74
658.849	20859.58
659.2	20822.29
659.551	20798.34
659.902	20789.3
660.253	20786.59
660.604	20850.99
660.955	20761.95
661.306	20761.05
661.656	20754.72
662.007	20881.72
662.358	20749.3
662.708	20752.46
663.059	20744.1
663.409	20579.13
663.76	20728.06
664.11	20628.4
664.461	20679.7
664.811	20708.4
665.161	20790.65
665.511	20714.05
665.862	20845.57
666.212	20721.96
666.562	20693.03
666.912	20698.9
667.262	20768.51
667.612	20674.5
667.962	20741.62
668.312	20712.46
668.662	20816.87
669.011	20778.9
669.361	20660.26
669.711	20754.27
670.06	20646.25
670.41	20516.99
670.76	20586.37
671.109	20671.79
671.459	20614.61
671.808	20537.33
672.157	20656.87
672.507	20527.16
672.856	20483.54
673.205	20508.4
673.554	20630.21
673.904	20521.51
674.253	20621.17
674.602	20535.29
674.951	20214.17
675.3	20186.15
675.649	20435.86
675.998	20465.92
676.346	20513.37
676.695	20500.49
677.044	20308.41
677.393	20427.73
677.741	20398.35
678.09	20385.92
678.438	20350.44
678.787	20352.25
679.135	20224.12
679.484	20212.14
679.832	20316.77
680.181	20203.1
680.529	20255.3
680.877	20241.97
681.225	20066.38
681.573	20285.13
681.922	20119.03
682.27	20116.55
682.618	20128.3
682.966	20067.51
683.314	20018.47
683.661	20019.37
684.009	19944.8
684.357	20021.18
684.705	19838.81
685.053	19951.35
685.4	19826.84
685.748	19752.49
686.095	19718.37
686.443	19546.17
686.79	19593.17
687.138	19642.44
687.485	19639.5
687.832	19549.1
688.18	19631.36
688.527	19581.65
688.874	19490.8
689.221	19437.24
689.568	19420.52
689.915	19407.41
690.262	19399.28
690.609	19274.08
690.956	19298.94
691.303	19153.41
691.65	18992.74
691.997	19058.95
692.344	19098.5
692.69	18948.44
693.037	18982.11
693.383	18751.61
693.73	18971.49
694.077	18855.11
694.423	18774.89
694.769	18651.28
695.116	18664.16
695.462	18700.77
695.808	18676.81
696.155	18624.16
696.501	18544.61
696.847	18406.08
697.193	18350.94
697.539	18533.99
697.885	18307.33
698.231	18197.95
698.577	18212.87
698.923	18169.48
699.269	18043.16
699.614	18018.52
699.96	17842.03
700.306	18014.46
700.651	18043.83
700.997	17894.01
701.342	17756.84
701.688	17789.83
702.033	17781.02
702.379	17759.32
702.724	17701.02
703.069	17709.83
703.415	17522.94
703.76	17530.17
704.105	17522.49
704.45	17474.36
704.795	17412.21
705.14	17264.87
705.485	17336.73
705.83	17259
706.175	17348.03
706.52	17218.54
706.865	17167.25
707.209	17106.46
707.554	17168.6
707.899	17076.4
708.243	16983.52
708.588	17030.07
708.932	16916.63
709.277	16901.72
709.621	16889.51
709.966	16779.01
710.31	16785.34
710.654	16651.1
710.998	16718.22
711.342	16789.18
711.687	16574.27
712.031	16582.4
712.375	16590.76
712.719	16532.91
713.063	16535.4
713.407	16574.49
713.75	16560.93
714.094	16490.65
714.438	16387.83
714.782	16415.63
715.125	16340.6
715.469	16331.79
715.812	16221.51
716.156	16176.54
716.499	16215.86
716.843	16165.92
717.186	16056.99
717.53	16144.45
717.873	16198.23
718.216	16126.37
718.559	16131.34
718.902	16006.6
719.246	16009.99
719.589	15929.31
719.932	15895.64
720.275	15938.35
720.617	15909.2
720.96	15789.88
721.303	15916.88
721.646	15919.6
721.989	15788.53
722.331	15857
722.674	15780.84
723.016	15824.68
723.359	15701.07
723.701	15801.18
724.044	15725.93
724.386	15638.92
724.729	15710.11
725.071	15543.11
725.413	15620.17
725.755	15537.01
726.097	15458.59
726.439	15458.59
726.782	15478.7
727.124	15465.37
727.465	15461.08
727.807	15414.07
728.149	15390.12
728.491	15356.9
728.833	15432.15
729.175	15349.67
729.516	15318.03
729.858	15434.41
730.199	15371.36
730.541	15327.97
730.882	15212.72
731.224	15247.97
731.565	15210.69
731.906	15254.98
732.248	15257.69
732.589	15146.96
732.93	15098.6
733.271	15160.29
733.612	15172.5
733.953	15163.23
734.294	15103.35
734.635	15042.33
734.976	15165.94
735.317	15052.73
735.658	15108.54
735.999	15067.87
736.339	14989.45
736.68	15050.69
737.021	14993.52
737.361	15005.72
737.702	14927.98
738.042	14998.94
738.383	14941.77
738.723	14873.75
739.063	14975.67
739.404	14921.88
739.744	14951.71
740.084	14849.79
740.424	14852.05
740.764	14862.67
741.104	14854.54
741.444	14746.29
741.784	14774.77
742.124	14749
742.464	14713.3
742.804	14749.46
743.143	14762.79
743.483	14713.75
743.823	14641.89
744.162	14686.63
744.502	14734.77
744.841	14655.45
745.181	14652.96
745.52	14596.24
745.86	14621.78
746.199	14581.78
746.538	14532.74
746.877	14606.18
747.216	14617.26
747.556	14500.2
747.895	14478.96
748.234	14509.92
748.573	14412.97
748.911	14463.81
749.25	14371.39
749.589	14390.37
749.928	14412.29
750.267	14422.69
750.605	14447.77
750.944	14323.25
751.283	14273.54
751.621	14294.55
751.96	14218.17
752.298	14293.88
752.636	14310.82
752.975	14234.44
753.313	14148.12
753.651	14217.27
753.989	14171.17
754.327	14101.11
754.666	14069.47
755.004	14092.75
755.342	14037.39
755.679	14078.51
756.017	13939.99
756.355	14012.08
756.693	13902.7
757.031	14057.05
757.368	13846.88
757.706	13883.26
758.044	13734.34
758.381	13818.86
758.719	13707.68
759.056	13715.36
759.394	13657.73
759.731	13662.93
760.068	13582.03
760.405	13592.88
760.743	13526.21
761.08	13517.85
761.417	13487.12
761.754	13523.27
762.091	13402.15
762.428	13329.61
762.765	13200.12
763.102	13331.64
763.438	13256.61
763.775	13209.16
764.112	13226.33
764.449	13175.71
764.785	13133
765.122	13091.65
765.458	12997.19
765.795	12937.08
766.131	12935.95
766.467	12897.3
766.804	12850.98
767.14	12714.26
767.476	12809.62
767.812	12664.77
768.148	12801.71
768.485	12592.23
768.821	12676.74
769.157	12563.53
769.492	12565.11
769.828	12532.79
770.164	12393.81
770.5	12418.67
770.836	12322.18
771.171	12274.49
771.507	12283.53
771.842	12225.68
772.178	12214.16
772.513	12079.7
772.849	12121.28
773.184	12133.25
773.519	12062.75
773.855	11938.23
774.19	11885.13
774.525	11844.45
774.86	11902.98
775.195	11919.7
775.53	11777.11
775.865	11798.12
776.2	11667.28
776.535	11651.23
776.87	11535.08
777.205	11564.68
777.539	11518.13
777.874	11545.93
778.209	11438.36
778.543	11405.36
778.878	11347.51
779.212	11298.47
779.547	11266.84
779.881	11282.43
780.215	11154.07
780.55	11232.71
780.884	11104.13
781.218	11049.67
781.552	11100.29
781.886	11025.26
782.22	10922.66
782.554	10945.49
782.888	10815.55
783.222	10820.97
783.556	10756.57
783.889	10711.82
784.223	10663.69
784.557	10626.18
784.89	10672.95
785.224	10563.35
785.557	10506.18
785.891	10495.78
786.224	10439.97
786.558	10445.62
786.891	10432.96
787.224	10305.73
787.557	10318.16
787.891	10277.03
788.224	10273.42
788.557	10189.58
788.89	10194.1
789.223	10134.21
789.556	10108.22
789.888	10154.1
790.221	10001.56
790.554	9981.22
790.887	10012.41
791.219	10032.52
791.552	9863.71
791.884	9880.21
792.217	9844.28
792.549	9866.42
792.882	9813.77
793.214	9734.9
793.546	9762.92
793.879	9668.46
794.211	9595.69
794.543	9617.39
794.875	9552.76
795.207	9622.36
795.539	9568.35
795.871	9544.4
796.203	9460.78
796.535	9418.98
796.867	9401.8
797.198	9382.14
797.53	9365.87
797.862	9279.77
798.193	9300.79
798.525	9254.23
798.856	9326.32
799.188	9146.21
799.519	9120.45
799.85	9114.8
800.182	9147.8
800.513	9056.5
800.844	9007.69
801.175	9035.03
801.506	9030.29
801.837	8969.72
802.168	8958.87
802.499	8895.15
802.83	8878.2
803.161	8815.38
803.491	8800.46
803.822	8759.78
804.153	8825.77
804.483	8749.61
804.814	8686.11
805.145	8656.51
805.475	8661.48
805.805	8675.94
806.136	8576.06
806.466	8609.51
806.796	8577.87
807.126	8519.56
807.457	8542.84
807.787	8440.24
808.117	8413.8
808.447	8467.36
808.777	8523.63
809.107	8336.97
809.436	8395.5
809.766	8376.74
810.096	8362.51
810.426	8262.17
810.755	8308.72
811.085	8265.11
811.414	8275.05
811.744	8222.85
812.073	8196.41
812.403	8127.48
812.732	8152.12
813.061	8157.77
813.39	8091.55
813.719	8098.78
814.049	8157.99
814.378	8104.21
814.707	8011.33
815.036	7984.66
815.365	7998.9
815.693	7938.79
816.022	7939.92
816.351	7869.19
816.68	7844.78
817.008	7876.42
817.337	7765.01
817.665	7770.21
817.994	7830.99
818.322	7768.62
818.651	7746.03
818.979	7703.77
819.307	7750.77
819.636	7741.96
819.964	7678.23
820.292	7690.89
820.62	7628.97
820.948	7667.16
821.276	7638.91
821.604	7640.04
821.932	7653.37
822.259	7716.65
822.587	7758.45
822.915	7618.57
823.243	7686.14
823.57	7604.79
823.898	7635.07
824.225	7635.29
824.553	7622.19
824.88	7594.39
825.207	7636.2
825.535	7602.98
825.862	7661.51
826.189	7607.27
826.516	7630.32
826.843	7724.1
827.17	7620.38
827.497	7615.86
827.824	7592.58
828.151	7648.85
828.478	7640.04
828.805	7675.52
829.131	7651.11
829.458	7603.43
829.785	7618.34
830.111	7634.16
830.438	7619.02
830.764	7642.75
831.09	7528.18
831.417	7553.04
831.743	7600.04
832.069	7545.58
832.395	7580.38
832.722	7598.23
833.048	7564.79
833.374	7556.88
833.7	7555.3
834.026	7559.82
834.351	7509.87
834.677	7555.07
835.003	7509.87
835.329	7535.64
835.654	7502.87
835.98	7467.16
836.306	7528.86
836.631	7437.11
836.956	7483.43
837.282	7480.27
837.607	7407.05
837.932	7370.67
838.258	7363.21
838.583	7372.93
838.908	7351.91
839.233	7354.17
839.558	7364.11
839.883	7334.06
840.208	7326.6
840.533	7277.56
840.858	7277.56
841.182	7287.96
841.507	7301.52
841.832	7230.78
842.156	7202.76
842.481	7249.99
842.805	7212.71
843.13	7183.33
843.454	7204.8
843.778	7156.66
844.103	7107.17
844.427	7082.99
844.751	7091.58
845.075	7057.68
845.399	7102.2
845.723	7058.59
846.047	7074.86
846.371	6947.63
846.695	6941.53
847.019	6871.02
847.343	6933.17
847.666	6850.68
847.99	6812.49
848.313	6844.35
848.637	6771.36
848.96	6768.42
849.284	6807.29
849.607	6682.32
849.931	6729.78
850.254	6639.39
850.577	6674.19
850.9	6612.72
851.223	6612.5
851.546	6595.32
851.869	6518.71
852.192	6523.46
852.515	6499.96
852.838	6482.56
853.161	6447.75
853.483	6418.83
853.806	6451.37
854.129	6434.65
854.451	6393.97
854.774	6351.03
855.096	6337.25
855.419	6344.93
855.741	6294.76
856.063	6240.98
856.385	6200.98
856.708	6213.64
857.03	6233.3
857.352	6195.78
857.674	6163.02
857.996	6221.77
858.318	6171.38
858.64	6126.18
858.961	6041.89
859.283	6099.74
859.605	6083.92
859.926	6089.35
860.248	6076.92
860.57	6022.68
860.891	5991.27
861.212	6040.08
861.534	5986.3
861.855	5975
862.176	6000.53
862.498	5967.09
862.819	5946.75
863.14	5923.47
863.461	5946.3
863.782	5890.71
864.103	5960.08
864.424	5916.47
864.745	5884.61
865.065	5880.76
865.386	5893.19
865.707	5817.49
866.027	5844.38
866.348	5874.44
866.668	5849.13
866.989	5863.36
867.309	5757.38
867.63	5772.74
867.95	5755.79
868.27	5738.85
868.59	5733.42
868.91	5789.24
869.23	5724.38
869.55	5671.5
869.87	5774.1
870.19	5729.81
870.51	5721.45
870.83	5691.16
871.15	5650.04
871.469	5719.64
871.789	5692.29
872.109	5657.49
872.428	5692.29
872.748	5638.51
873.067	5658.85
873.386	5660.66
873.706	5692.07
874.025	5627.44
874.344	5652.75
874.663	5634.67
874.982	5598.51
875.301	5587.66
875.62	5567.78
875.939	5513.09
876.258	5580.88
876.577	5522.13
876.896	5553.09
877.214	5546.53
877.533	5542.24
877.852	5524.61
878.17	5494.78
878.489	5504.95
878.807	5474.9
879.125	5494.33
879.444	5453.66
879.762	5496.82
880.08	5462.02
880.398	5452.53
880.716	5424.28
881.034	5431.96
881.352	5452.3
881.67	5389.7
881.988	5390.15
882.306	5380.21
882.624	5429.02
882.941	5415.46
883.259	5359.87
883.577	5377.5
883.894	5348.35
884.212	5301.12
884.529	5314.9
884.846	5333.21
885.164	5367.33
885.481	5327.11
885.798	5301.12
886.115	5277.62
886.432	5291.85
886.75	5232.19
887.067	5282.81
887.383	5223.15
887.7	5228.58
888.017	5205.98
888.334	5193.78
888.651	5187.45
888.967	5193.78
889.284	5160.33
889.6	5096.83
889.917	5152.87
890.233	5118.98
890.55	5074.23
890.866	5119.65
891.182	5081.91
891.498	5066.32
891.815	5073.1
892.131	5041.46
892.447	5016.38
892.763	5081.46
893.079	4985.87
893.395	4977.06
893.71	4998.98
894.026	4936.61
894.342	4977.51
894.657	4947.23
894.973	4888.93
895.289	4910.62
895.604	4942.26
895.92	4886.21
896.235	4863.62
896.55	4846.21
896.865	4832.66
897.181	4845.76
897.496	4790.4
897.811	4772.09
898.126	4762.83
898.441	4754.47
898.756	4760.57
899.071	4723.28
899.386	4702.49
899.7	4691.19
900.015	4643.06
900.33	4632.66
900.644	4627.46
900.959	4676.5
901.273	4663.39
901.588	4646.9
901.902	4606.67
902.216	4601.48
902.531	4588.37
902.845	4502.49
903.159	4533.23
903.473	4522.61
903.787	4492.78
904.101	4521.7
904.415	4511.76
904.729	4446.45
905.042	4443.51
905.356	4418.66
905.67	4412.78
905.984	4395.6
906.297	4391.31
906.611	4361.26
906.924	4348.6
907.237	4370.75
907.551	4316.74
907.864	4340.69
908.177	4308.6
908.491	4288.71
908.804	4269.05
909.117	4235.83
909.43	4235.16
909.743	4197.19
910.056	4227.25
910.368	4194.93
910.681	4151.54
910.994	4129.4
911.307	4165.33
911.619	4124.43
911.932	4130.08
912.244	4081.26
912.557	4085.56
912.869	4060.92
913.181	4084.2
913.494	4062.73
913.806	4011.66
914.118	3972.11
914.43	3968.95
914.742	3982.51
915.054	3951.32
915.366	3939.35
915.678	3970.31
915.99	3915.39
916.302	3926.01
916.613	3886.47
916.925	3904.54
917.236	3867.48
917.548	3856.18
917.859	3850.99
918.171	3822.96
918.482	3810.99
918.794	3785.9
919.105	3818.67
919.416	3772.12
919.727	3730.09
920.038	3735.74
920.349	3743.87
920.66	3733.7
920.971	3684.44
921.282	3667.94
921.593	3702.29
921.903	3653.25
922.214	3592.91
922.525	3646.92
922.835	3655.29
923.146	3613.7
923.456	3626.36
923.767	3574.61
924.077	3589.75
924.387	3556.53
924.697	3536.42
925.008	3552.24
925.318	3510.88
925.628	3480.15
925.938	3503.88
926.248	3477.89
926.558	3475.85
926.867	3444.67
927.177	3383.2
927.487	3437.21
927.796	3375.07
928.106	3392.92
928.416	3375.97
928.725	3387.95
929.034	3340.49
929.344	3354.28
929.653	3342.07
929.962	3309.76
930.271	3315.41
930.581	3313.6
930.89	3231.12
931.199	3245.8
931.508	3212.36
931.817	3258.69
932.125	3237.9
932.434	3194.28
932.743	3174.62
933.051	3192.7
933.36	3159.03
933.669	3160.61
933.977	3160.38
934.286	3137.33
934.594	3133.04
934.902	3130.1
935.21	3095.75
935.519	3117.45
935.827	3088.75
936.135	3056.66
936.443	3062.31
936.751	3026.83
937.059	3029.99
937.367	3023.66
937.674	2980.27
937.982	3014.17
938.29	3013.72
938.597	2980.27
938.905	2948.86
939.213	2950.45
939.52	2912.93
939.827	2950.9
940.135	2916.55
940.442	2916.1
940.749	2877
941.056	2926.94
941.363	2873.61
941.67	2848.75
941.977	2798.58
942.284	2828.19
942.591	2829.09
942.898	2799.71
943.205	2850.11
943.511	2793.16
943.818	2786.38
944.125	2777.12
944.431	2763.33
944.738	2755.2
945.044	2716.78
945.35	2742.09
945.657	2748.19
945.963	2681.53
946.269	2709.1
946.575	2703.9
946.881	2652.6
947.187	2680.62
947.493	2656.44
947.799	2670.68
948.105	2690.56
948.41	2632.49
948.716	2635.43
949.022	2609.89
949.327	2655.09
949.633	2591.36
949.938	2607.63
950.244	2605.82
950.549	2586.84
950.854	2547.07
951.16	2550.91
951.465	2531.02
951.77	2484.69
952.075	2516.11
952.38	2493.28
952.685	2514.3
952.99	2497.12
953.294	2465.03
953.599	2484.47
953.904	2462.77
954.209	2432.04
954.513	2419.39
954.818	2437.92
955.122	2438.82
955.426	2432.04
955.731	2408.76
956.035	2406.73
956.339	2387.07
956.643	2374.19
956.948	2396.34
957.252	2358.37
957.556	2308.2
957.86	2333.29
958.163	2346.39
958.467	2349.33
958.771	2322.21
959.075	2298.03
959.378	2307.07
959.682	2258.94
959.985	2241.99
960.289	2247.64
960.592	2258.94
960.896	2225.49
961.199	2258.03
961.502	2207.41
961.805	2237.24
962.108	2229.11
962.411	2194.98
962.714	2191.59
963.017	2186.4
963.32	2213.97
963.623	2181.2
963.926	2157.02
964.228	2157.25
964.531	2134.42
964.833	2144.36
965.136	2137.36
965.438	2128.09
965.741	2116.57
966.043	2123.57
966.345	2118.83
966.648	2101.2
966.95	2098.72
967.252	2072.28
967.554	2079.73
967.856	2079.96
968.158	2052.84
968.46	2037.47
968.761	2024.37
969.063	2033.63
969.365	2039.73
969.666	2011.03
969.968	1999.06
970.269	2007.64
970.571	2016.23
970.872	1997.93
971.174	1970.36
971.475	1966.52
971.776	1943.01
972.077	1951.6
972.378	1987.98
972.679	1952.28
972.98	1934.2
973.281	1918.16
973.582	1960.64
973.883	1916.8
974.183	1914.31
974.484	1905.27
974.785	1895.11
975.085	1940.98
975.386	1898.72
975.686	1856.91
975.986	1855.78
976.287	1851.49
976.587	1838.84
976.887	1851.26
977.187	1847.42
977.487	1848.78
977.787	1789.12
978.087	1811.04
978.387	1812.17
978.687	1792.74
978.987	1779.18
979.286	1784.6
979.586	1793.64
979.885	1778.72
980.185	1747.09
980.484	1761.1
980.784	1729.46
981.083	1748.44
981.382	1740.99
981.682	1764.94
981.981	1725.84
982.28	1697.82
982.579	1695.56
982.878	1726.3
983.177	1693.98
983.475	1731.95
983.774	1677.26
984.073	1681.78
984.372	1669.35
984.67	1661.21
984.969	1678.16
985.267	1666.86
985.566	1653.08
985.864	1613.98
986.162	1610.37
986.461	1613.53
986.759	1603.14
987.057	1596.81
987.355	1590.48
987.653	1585.06
987.951	1598.39
988.249	1564.04
988.547	1580.99
988.844	1567.66
989.142	1589.35
989.44	1541.67
989.737	1550.48
990.035	1562.68
990.332	1555.91
990.63	1526.3
990.927	1563.59
991.224	1561.33
991.521	1532.63
991.819	1522.46
992.116	1522.69
992.413	1504.61
992.71	1489.69
993.006	1512.97
993.303	1489.69
993.6	1497.38
993.897	1482.01
994.193	1469.81
994.49	1472.29
994.787	1452.41
995.083	1449.02
995.379	1447.66
995.676	1441.78
995.972	1420.54
996.268	1422.8
996.565	1402.01
996.861	1415.8
997.157	1380.09
997.453	1374.89
997.749	1375.35
998.044	1391.16
998.34	1380.32
998.636	1378.73
998.932	1385.74
999.227	1369.24
999.523	1383.71
999.818	1349.58
1000.114	1350.04
1000.409	1358.4
1000.704	1312.97
1001	1352.97
1001.295	1330.83
1001.59	1317.49
1001.885	1324.5
1002.18	1306.87
1002.475	1308
1002.77	1276.82
1003.065	1284.95
1003.359	1268
1003.654	1286.99
1003.949	1284.05
1004.243	1284.73
1004.538	1256.25
1004.832	1248.34
1005.127	1244.05
1005.421	1246.54
1005.715	1235.46
1006.009	1228
1006.304	1226.65
1006.598	1225.07
1006.892	1179.64
1007.186	1209.47
1007.48	1175.8
1007.773	1179.19
1008.067	1188.68
1008.361	1163.37
1008.655	1175.12
1008.948	1186.88
1009.242	1164.05
1009.535	1166.76
1009.829	1139.19
1010.122	1112.53
1010.415	1145.29
1010.708	1114.56
1011.001	1130.83
1011.295	1119.53
1011.588	1124.5
1011.881	1068.69
1012.173	1084.05
1012.466	1106.2
1012.759	1091.51
1013.052	1061.23
1013.344	1075.69
1013.637	1063.04
1013.93	1076.6
1014.222	1051.74
1014.514	1051.74
1014.807	1053.77
1015.099	1065.3
1015.391	1053.09
1015.683	1057.39
1015.976	1032.53
1016.268	1029.37
1016.56	1034.11
1016.851	1031.63
1017.143	1038.4
1017.435	1015.35
1017.727	975.81
1018.018	1018.29
1018.31	969.71
1018.602	996.37
1018.893	964.28
1019.185	972.87
1019.476	963.38
1019.767	967.9
1020.058	954.11
1020.35	962.7
1020.641	952.76
1020.932	977.62
1021.223	939.88
1021.514	949.59
1021.804	914.34
1022.095	898.97
1022.386	946.66
1022.677	922.7
1022.967	922.25
1023.258	894
1023.548	911.63
1023.839	915.47
1024.129	875.7
1024.419	902.36
1024.709	860.56
1025	889.26
1025.29	867.56
1025.58	864.17
1025.87	876.83
1026.16	863.72
1026.449	864.4
1026.739	845.87
1027.029	828.69
1027.319	841.12
1027.608	826.43
1027.898	826.21
1028.187	837.05
1028.477	817.85
1028.766	836.38
1029.055	788.02
1029.344	802.93
1029.634	800.22
1029.923	795.7
1030.212	798.64
1030.501	807
1030.79	797.51
1031.078	772.65
1031.367	790.95
1031.656	787.34
1031.945	788.24
1032.233	772.65
1032.522	761.35
1032.81	759.09
1033.099	766.77
1033.387	751.86
1033.675	741.46
1033.963	733.1
1034.251	739.2
1034.54	736.72
1034.828	744.85
1035.116	722.48
1035.403	716.15
1035.691	725.42
1035.979	754.8
1036.267	722.26
1036.554	687.23
1036.842	698.3
1037.129	722.26
1037.417	713.89
1037.704	688.58
1037.992	688.58
1038.279	684.52
1038.566	698.98
1038.853	698.98
1039.14	698.98
