Data from tablewood_brown_FLMS001491_036.txt Node
Date: Tue Feb 07 11:10:23 GMT 2017
User: dcchb
Spectrometer: FLMS00149
Trigger mode: 0
Integration Time (sec): 2.000000E-2
Scans to average: 10
Electric dark correction enabled: true
Nonlinearity correction enabled: false
Boxcar width: 0
XAxis mode: Wavelengths
Number of Pixels in Spectrum: 2048
>>>>>Begin Spectral Data<<<<<
341.393	2.64
341.776	2.64
342.16	2.64
342.543	-65.15
342.927	-60.41
343.31	-68.77
343.693	-82.55
344.077	-55.21
344.46	-51.82
344.843	-62.22
345.226	-30.58
345.61	-22.67
345.993	-34.65
346.376	-2.33
346.759	-1.43
347.142	31.12
347.525	58.68
347.908	54.84
348.291	62.3
348.674	89.42
349.057	115.86
349.44	140.72
349.823	138.23
350.206	163.09
350.588	204.9
350.971	193.14
351.354	223.43
351.737	245.57
352.119	247.61
352.502	250.77
352.884	277.44
353.267	294.38
353.65	282.41
354.032	301.39
354.414	306.59
354.797	322.18
355.179	346.81
355.562	315.85
355.944	328.28
356.326	338
356.709	327.83
357.091	350.43
357.473	345.01
357.855	342.52
358.238	355.85
358.62	355.63
359.002	363.54
359.384	359.24
359.766	369.19
360.148	320.15
360.53	362.41
360.912	345.68
361.294	356.98
361.676	356.53
362.057	364.89
362.439	357.66
362.821	343.65
363.203	334.16
363.584	332.58
363.966	338.45
364.348	329.41
364.729	343.42
365.111	320.37
365.493	340.03
365.874	336.64
366.256	326.25
366.637	336.42
367.019	342.52
367.4	327.6
367.781	324.89
368.163	342.75
368.544	326.93
368.925	318.34
369.306	328.28
369.688	340.71
370.069	331.9
370.45	315.85
370.831	335.29
371.212	325.34
371.593	331.45
371.974	331.67
372.355	338
372.736	347.94
373.117	335.06
373.498	349.98
373.879	360.6
374.26	318.34
374.641	344.55
375.021	329.64
375.402	349.98
375.783	361.73
376.163	369.64
376.544	353.37
376.925	361.95
377.305	344.33
377.686	329.64
378.066	355.63
378.447	363.54
378.827	368.73
379.208	367.15
379.588	370.99
379.968	370.09
380.349	378
380.729	381.16
381.109	361.5
381.489	385.46
381.87	388.17
382.25	385.68
382.63	375.29
383.01	405.57
383.39	381.39
383.77	368.51
384.15	383.42
384.53	402.63
384.91	392.24
385.29	380.48
385.67	388.85
386.049	408.96
386.429	415.06
386.809	422.52
387.189	413.03
387.568	403.53
387.948	399.92
388.328	398.34
388.707	439.92
389.087	424.33
389.466	416.87
389.846	425.23
390.225	424.78
390.605	424.78
390.984	450.54
391.363	431.56
391.743	446.47
392.122	450.76
392.501	453.93
392.881	461.16
393.26	466.81
393.639	451.89
394.018	477.2
394.397	460.71
394.776	456.87
395.155	472.69
395.534	476.53
395.913	481.27
396.292	481.05
396.671	472.23
397.05	477.2
397.429	499.13
397.808	489.18
398.186	480.82
398.565	510.88
398.944	481.27
399.323	490.99
399.701	502.74
400.08	504.55
400.458	526.47
400.837	515.62
401.215	544.55
401.594	514.72
401.972	513.81
402.351	538.67
402.729	536.41
403.107	560.59
403.486	543.87
403.864	537.54
404.242	556.52
404.62	546.81
404.999	548.16
405.377	585.9
405.755	588.61
406.133	551.78
406.511	588.61
406.889	601.27
407.267	589.74
407.645	591.55
408.023	585.9
408.401	578.9
408.779	614.15
409.156	620.03
409.534	625.45
409.912	638.33
410.29	622.06
410.667	642.85
411.045	626.58
411.422	632.23
411.8	655.28
412.178	658.9
412.555	669.06
412.933	676.07
413.31	692.79
413.687	663.64
414.065	685.56
414.442	695.73
414.819	702.06
415.197	705.67
415.574	717.88
415.951	725.33
416.328	727.82
416.705	743.64
417.082	702.06
417.46	723.07
417.837	756.75
418.214	733.47
418.591	751.1
418.967	761.49
419.344	768.95
419.721	781.38
420.098	758.78
420.475	780.02
420.852	765.56
421.228	802.39
421.605	806.91
421.982	801.94
422.358	803.3
422.735	827.03
423.111	820.02
423.488	843.3
423.864	839.91
424.241	854.14
424.617	856.63
424.994	860.25
425.37	859.57
425.746	853.69
426.123	885.1
426.499	883.07
426.875	886.01
427.251	927.36
427.627	920.13
428.003	930.3
428.379	957.87
428.756	941.83
429.132	957.42
429.507	959
429.883	972.56
430.259	958.55
430.635	1006.68
431.011	983.86
431.387	997.64
431.763	1029.05
432.138	1022.28
432.514	1056.17
432.89	1076.06
433.265	1078.55
433.641	1082.61
434.016	1084.19
434.392	1112.89
434.767	1121.48
435.143	1113.57
435.518	1143.85
435.894	1170.29
436.269	1153.57
436.644	1186.79
437.02	1205.1
437.395	1193.8
437.77	1218.43
438.145	1196.06
438.52	1241.03
438.895	1244.19
439.271	1240.35
439.646	1274.92
440.021	1291.65
440.395	1277.41
440.77	1262.27
441.145	1270.63
441.52	1327.8
441.895	1316.05
442.27	1322.61
442.645	1326.22
443.019	1349.72
443.394	1326.67
443.769	1377.52
444.143	1375.49
444.518	1370.74
444.892	1373.68
445.267	1364.64
445.641	1366
446.016	1400.34
446.39	1415.71
446.764	1420.01
447.139	1432.89
447.513	1443.28
447.887	1453.22
448.262	1445.99
448.636	1456.39
449.01	1511.53
449.384	1493.22
449.758	1504.97
450.132	1479.44
450.506	1502.94
450.88	1532.09
451.254	1505.88
451.628	1556.72
452.002	1556.05
452.376	1614.12
452.75	1601.24
453.123	1617.06
453.497	1645.76
453.871	1609.83
454.244	1673.33
454.618	1668.36
454.992	1722.37
455.365	1709.04
455.739	1723.05
456.112	1769.83
456.486	1757.4
456.859	1787.23
457.232	1812.99
457.606	1810.96
457.979	1825.87
458.352	1869.03
458.725	1903.16
459.099	1900.67
459.472	1933.89
459.845	1941.8
460.218	1975.7
460.591	2014.79
460.964	2003.04
461.337	2052.53
461.71	2056.6
462.083	2068.8
462.456	2115.13
462.829	2143.38
463.201	2152.42
463.574	2159.19
463.947	2187.22
464.32	2266.76
464.692	2273.54
465.065	2306.54
465.438	2325.74
465.81	2320.77
466.183	2377.72
466.555	2417.27
466.928	2455.68
467.3	2483.48
467.672	2520.99
468.045	2576.58
468.417	2563.25
468.789	2573.65
469.161	2635.79
469.534	2711.04
469.906	2701.78
470.278	2756.02
470.65	2771.83
471.022	2858.84
471.394	2873.75
471.766	2909.68
472.138	2962.79
472.51	3033.3
472.882	3083.46
473.253	3127.3
473.625	3194.87
473.997	3223.8
474.369	3271.26
474.74	3372.95
475.112	3406.85
475.484	3446.39
475.855	3565.49
476.227	3546.5
476.598	3646.84
476.97	3722.32
477.341	3799.83
477.713	3870.34
478.084	3901.3
478.455	4015.87
478.827	4052.25
479.198	4146.26
479.569	4202.3
479.94	4349.87
480.311	4344.45
480.682	4502.18
481.053	4576.08
481.424	4701.95
481.795	4726.58
482.166	4830.99
482.537	4888.84
482.908	4936.97
483.279	5064.88
483.65	5180.36
484.021	5253.35
484.391	5313.01
484.762	5422.61
485.133	5454.48
485.503	5537.41
485.874	5678.42
486.244	5709.38
486.615	5829.15
486.985	5902.6
487.356	6047.91
487.726	6083.84
488.097	6217.62
488.467	6259.65
488.837	6399.76
489.207	6504.17
489.578	6551.4
489.948	6626.2
490.318	6690.6
490.688	6749.13
491.058	6871.61
491.428	6997.26
491.798	7037.26
492.168	7179.63
492.538	7265.05
492.908	7322.45
493.278	7409.23
493.648	7410.81
494.017	7536.68
494.387	7538.49
494.757	7602.89
495.126	7774.41
495.496	7788.88
495.866	7862.77
496.235	7966.5
496.605	8007.4
496.974	8102.99
497.344	8150
497.713	8221.63
498.082	8304.57
498.452	8401.06
498.821	8428.63
499.19	8446.94
499.559	8522.19
499.928	8611.68
500.298	8636.99
500.667	8721.96
501.036	8758.34
501.405	8888.06
501.774	8876.08
502.143	8994.72
502.512	9082.85
502.88	9117.2
503.249	9127.15
503.618	9214.83
503.987	9212.12
504.356	9290.31
504.724	9453.24
505.093	9414.82
505.462	9495.95
505.83	9586.34
506.199	9676.74
506.567	9775.94
506.936	9757.19
507.304	9874.25
507.672	9920.35
508.041	10040.12
508.409	10139.32
508.777	10155.37
509.145	10260.45
509.514	10266.78
509.882	10405.31
510.25	10417.96
510.618	10591.97
510.986	10610.27
511.354	10685.07
511.722	10744.28
512.09	10880.32
512.458	10865.86
512.826	11063.59
513.193	11133.2
513.561	11138.85
513.929	11273.76
514.297	11375.45
514.664	11445.5
515.032	11465.62
515.4	11573.64
515.767	11660.19
516.135	11767.08
516.502	11755.55
516.869	11925.27
517.237	11949.45
517.604	12041.87
517.972	12152.15
518.339	12296.56
518.706	12351.24
519.073	12384.69
519.44	12552.59
519.808	12682.31
520.175	12669.43
520.542	12826.03
520.909	12988.97
521.276	13002.07
521.643	13156.42
522.009	13195.29
522.376	13405.9
522.743	13486.13
523.11	13586.01
523.477	13738.78
523.843	13852.9
524.21	14020.58
524.577	14001.82
524.943	14112.1
525.31	14235.49
525.676	14323.17
526.043	14544.41
526.409	14563.84
526.776	14759.32
527.142	14762.48
527.508	14897.16
527.874	14986.65
528.241	15121.11
528.607	15277.04
528.973	15298.06
529.339	15270.26
529.705	15405.85
530.071	15588.22
530.437	15722.91
530.803	15750.93
531.169	15930.36
531.535	15871.6
531.901	15983.69
532.267	16010.36
532.632	16132.61
532.998	16195.21
533.364	16366.05
533.73	16434.07
534.095	16524.69
534.461	16561.3
534.826	16744.12
535.192	16786.83
535.557	16902.08
535.923	16944.34
536.288	17057.56
536.653	17044.45
537.019	16947.51
537.384	17186.14
537.749	17238.57
538.114	17303.2
538.479	17246.48
538.845	17427.72
539.21	17406.25
539.575	17561.73
539.94	17675.17
540.305	17775.51
540.67	17629.75
541.034	17798.56
541.399	17930.98
541.764	17920.59
542.129	17995.16
542.494	18049.4
542.858	18067.02
543.223	18069.74
543.587	18302.95
543.952	18236.96
544.316	18297.98
544.681	18344.53
545.045	18449.84
545.41	18558.99
545.774	18620.46
546.138	18743.17
546.503	18823.39
546.867	18839.66
547.231	18971.41
547.595	18994.68
547.959	19125.75
548.324	19086.21
548.688	19194.9
549.052	19250.27
549.416	19310.83
549.779	19339.08
550.143	19387.67
550.507	19549.02
550.871	19675.12
551.235	19737.94
551.599	19904.72
551.962	20030.36
552.326	19979.74
552.689	20165.95
553.053	20100.42
553.417	20195.56
553.78	20521.88
554.143	20401.88
554.507	20591.7
554.87	20640.52
555.234	20954.63
555.597	20855.2
555.96	21064.01
556.323	21201.86
556.686	21209.54
557.05	21441.17
557.413	21514.62
557.776	21593.71
558.139	21788.96
558.502	21965.68
558.865	21927.94
559.228	22162.74
559.59	22352.11
559.953	22471.43
560.316	22733.57
560.679	22723.63
561.041	22876.39
561.404	23083.16
561.767	23309.6
562.129	23351.86
562.492	23567.67
562.854	23661.68
563.217	23695.8
563.579	23978.28
563.941	24064.61
564.304	24327.65
564.666	24499.85
565.028	24589.57
565.39	24713.18
565.753	24857.81
566.115	25150.45
566.477	25189.1
566.839	25421.63
567.201	25601.74
567.563	25722.87
567.925	25919.7
568.287	26003.54
568.648	26204.66
569.01	26345.23
569.372	26662.73
569.734	26670.41
570.095	26885.78
570.457	27169.61
570.819	27213.45
571.18	27334.58
571.542	27601.46
571.903	27745.19
572.265	27968.69
572.626	28008.91
572.987	28162.35
573.349	28455
573.71	28559.86
574.071	28671.04
574.432	28832.84
574.794	29035.1
575.155	29091.14
575.516	29191.7
575.877	29386.5
576.238	29528.87
576.599	29706.49
576.96	29786.72
577.32	29988.29
577.681	30113.04
578.042	30254.28
578.403	30363.42
578.763	30612.46
579.124	30582.85
579.485	30857.88
579.845	30895.39
580.206	30927.7
580.566	31126.34
580.927	31117.08
581.287	31460.12
581.648	31310.52
582.008	31553.9
582.368	31545.09
582.728	31559.33
583.089	31708.93
583.449	31688.36
583.809	31903.27
584.169	31868.47
584.529	31924.29
584.889	32196.14
585.249	32032.53
585.609	32087.67
585.969	32335.8
586.329	32250.15
586.688	32427.33
587.048	32368.57
587.408	32317.5
587.768	32428.23
588.127	32566.98
588.487	32447.21
588.846	32718.17
589.206	32471.62
589.565	32528.79
589.925	32790.03
590.284	32645.17
590.643	32771.5
591.003	32867.99
591.362	32904.15
591.721	32950.25
592.08	33031.6
592.44	33043.35
592.799	32992.28
593.158	32964.26
593.517	33149.79
593.876	33132.39
594.235	32968.1
594.593	33130.36
594.952	33133.07
595.311	33135.1
595.67	33079.51
596.029	33253.07
596.387	33374.19
596.746	33365.38
597.104	33253.97
597.463	33377.58
597.822	33556.79
598.18	33346.17
598.538	33484.47
598.897	33721.53
599.255	33377.81
599.613	33907.29
599.972	33576.67
600.33	33588.42
600.688	33480.4
601.046	33622.77
601.404	33817.8
601.762	33692.38
602.12	33830
602.478	33903.44
602.836	33845.82
603.194	33656.9
603.552	33907.74
603.91	33837.23
604.268	34048.53
604.625	33848.98
604.983	33963.56
605.341	33840.4
605.698	34071.8
606.056	34187.73
606.413	34105.7
606.771	34176.66
607.128	34226.15
607.485	34036.55
607.843	34185.7
608.2	34244.68
608.557	34433.37
608.914	34197.22
609.272	34463.2
609.629	34510.89
609.986	34460.49
610.343	34311.34
610.7	34732.12
611.057	34549.3
611.414	34624.1
611.771	34722.41
612.127	34768.28
612.484	34782.97
612.841	34795.85
613.198	34797.66
613.554	34920.37
613.911	35074.94
614.267	34924.43
614.624	34926.24
614.98	35140.02
615.337	35130.08
615.693	35281.49
616.05	35106.58
616.406	35351.54
616.762	35293.46
617.118	35216.18
617.475	35050.31
617.831	35209.4
618.187	35265.67
618.543	35318.77
618.899	35495.04
619.255	35347.93
619.611	35440.81
619.967	35507.7
620.323	35559.22
620.678	35493.23
621.034	35492.56
621.39	35426.12
621.746	35499.56
622.101	35777.07
622.457	35530.52
622.812	35657.97
623.168	35570.75
623.523	35612.78
623.879	35683.74
624.234	35503.4
624.589	35601.25
624.945	35598.99
625.3	35680.8
625.655	35574.81
626.01	35747.69
626.365	35710.4
626.72	35773.23
627.075	35696.39
627.43	35599.67
627.785	35489.39
628.14	35575.04
628.495	35594.7
628.85	35480.58
629.205	35425.89
629.559	35536.4
629.914	35402.84
630.269	35512.89
630.623	35457.53
630.978	35382.5
631.332	35458.21
631.687	35582.95
632.041	35404.87
632.396	35314.26
632.75	35354.93
633.104	35321.49
633.459	35279
633.813	35254.37
634.167	35300.24
634.521	35196.97
634.875	35223.86
635.229	35108.38
635.583	34950.2
635.937	34875.85
636.291	34992.68
636.645	34912.46
636.999	34674.05
637.352	34815.51
637.706	34687.6
638.06	34771.9
638.413	34723.08
638.767	34795.17
639.121	34752.69
639.474	34590.21
639.828	34678.79
640.181	34752.46
640.534	34577.1
640.888	34512.47
641.241	34467.5
641.594	34387.27
641.947	34532.13
642.301	34467.72
642.654	34449.19
643.007	34448.29
643.36	34231.12
643.713	34255.98
644.066	34396.99
644.419	34285.13
644.771	34011.69
645.124	33772.37
645.477	33568.31
645.83	33476.56
646.182	33277.25
646.535	33197.02
646.888	33323.35
647.24	33144.59
647.593	33318.38
647.945	33332.84
648.298	33065.5
648.65	33052.85
649.002	32785.06
649.355	33126.97
649.707	33043.13
650.059	33213.97
650.411	33564.02
650.763	33581.87
651.115	33891.92
651.467	33776.22
651.819	33755.43
652.171	33735.09
652.523	33752.71
652.875	33812.15
653.227	33568.54
653.578	33825.71
653.93	33732.83
654.282	33592.72
654.633	33542.32
654.985	33701.64
655.337	33586.84
655.688	33627.29
656.039	33822.54
656.391	33387.98
656.742	33590.23
657.094	33468.65
657.445	33719.27
657.796	33620.97
658.147	33486.73
658.498	33511.14
658.849	33472.27
659.2	33523.12
659.551	33263.91
659.902	33627.75
660.253	33492.16
660.604	33470.24
660.955	33343.23
661.306	33566.5
661.656	33383.46
662.007	33414.19
662.358	33412.61
662.708	33440.63
663.059	33417.58
663.409	33239.51
663.76	33458.94
664.11	33367.41
664.461	33486.73
664.811	33406.28
665.161	33468.65
665.511	33327.19
665.862	33468.65
666.212	33417.81
666.562	33432.04
666.912	33397.47
667.262	33286.51
667.612	33391.82
667.962	33417.36
668.312	33379.84
668.662	33460.29
669.011	33302.56
669.361	33290.13
669.711	33232.28
670.06	33237.93
670.41	33157.48
670.76	33139.4
671.109	33346.62
671.459	33178.27
671.808	33106.63
672.157	33043.81
672.507	32915.22
672.856	32986.86
673.205	33004.03
673.554	33119.28
673.904	32947.76
674.253	33127.87
674.602	33061.21
674.951	32484.5
675.3	32329.7
675.649	32899.18
675.998	32770.59
676.346	32824.38
676.695	32939.85
677.044	32646.3
677.393	32801.33
677.741	32824.15
678.09	32791.84
678.438	32564.5
678.787	32569.47
679.135	32596.81
679.484	32355.24
679.832	32631.16
680.181	32383.03
680.529	32415.12
680.877	32334.67
681.225	32244.05
681.573	32420.77
681.922	32246.54
682.27	32161.8
682.618	32175.13
682.966	32083.38
683.314	32227.33
683.661	32043.61
684.009	31936.26
684.357	31704.63
684.705	31670.74
685.053	31818.08
685.4	31687.01
685.748	31583.96
686.095	31542.83
686.443	31402.95
686.79	31286.79
687.138	31464.64
687.485	31483.85
687.832	31277.07
688.18	31335.15
688.527	31109.39
688.874	31101.48
689.221	31086.57
689.568	30915.5
689.915	30762.28
690.262	30849.74
690.609	30723.42
690.956	30569.75
691.303	30620.37
691.65	30362.52
691.997	30486.36
692.344	30181.06
692.69	30179.47
693.037	30242.98
693.383	29927.05
693.73	29984.45
694.077	29837.34
694.423	29849.99
694.769	29707.85
695.116	29656.78
695.462	29642.09
695.808	29406.61
696.155	29537.23
696.501	29154.87
696.847	29214.3
697.193	28962.11
697.539	29002.56
697.885	28827.42
698.231	28724.37
698.577	28685.05
698.923	28706.52
699.269	28689.8
699.614	28408.22
699.96	28349.24
700.306	28387.66
700.651	28203.48
700.997	28191.5
701.342	28062.92
701.688	28106.31
702.033	27878.97
702.379	27750.39
702.724	27906.54
703.069	27807.33
703.415	27368.7
703.76	27407.12
704.105	27390.17
704.45	27479.88
704.795	27210.51
705.14	27116.73
705.485	27154.7
705.83	26911.09
706.175	27058.2
706.52	26928.49
706.865	26964.64
707.209	26818.66
707.554	26622.05
707.899	26712.9
708.243	26544.54
708.588	26546.35
708.932	26327.82
709.277	26319.92
709.621	26260.93
709.966	26107.72
710.31	26187.49
710.654	25963.99
710.998	26039.92
711.342	26051.9
711.687	25903.66
712.031	25847.61
712.375	25784.79
712.719	25725.13
713.063	25630.89
713.407	25793.15
713.75	25634.51
714.094	25639.93
714.438	25444.68
714.782	25521.29
715.125	25298.93
715.469	25442.2
715.812	25232.71
716.156	25127.86
716.499	25279.04
716.843	25303.9
717.186	25099.83
717.53	25155.2
717.873	25147.97
718.216	25058.48
718.559	24998.82
718.902	24849.67
719.246	24970.12
719.589	24868.43
719.932	24801.76
720.275	24799.05
720.617	24712.95
720.96	24759.96
721.303	24779.84
721.646	24799.05
721.989	24625.04
722.331	24613.97
722.674	24477.93
723.016	24589.11
723.359	24481.55
723.701	24559.28
724.044	24447.87
724.386	24280.87
724.729	24396.35
725.071	24399.97
725.413	24385.5
725.755	24389.8
726.097	24358.84
726.439	24190.71
726.782	24336.92
727.124	24341.44
727.465	24242.23
727.807	24255.11
728.149	24092.63
728.491	24116.81
728.833	24225.73
729.175	24082.46
729.516	24080.2
729.858	24112.52
730.199	24198.16
730.541	23940.54
730.882	24012.18
731.224	23999.98
731.565	23964.05
731.906	23863.93
732.248	23966.3
732.589	23875.23
732.93	23799.08
733.271	23920.66
733.612	23847.21
733.953	23839.08
734.294	23786.65
734.635	23761.11
734.976	23852.18
735.317	23695.35
735.658	23695.58
735.999	23816.25
736.339	23735.12
736.68	23823.03
737.021	23782.13
737.361	23727.22
737.702	23847.21
738.042	23681.34
738.383	23724.28
738.723	23802.24
739.063	23752.3
739.404	23733.32
739.744	23744.39
740.084	23630.04
740.424	23692.41
740.764	23562.02
741.104	23695.8
741.444	23572.64
741.784	23603.38
742.124	23575.81
742.464	23636.14
742.804	23612.19
743.143	23429.14
743.483	23595.24
743.823	23471.18
744.162	23420.1
744.502	23522.02
744.841	23431.18
745.181	23534.68
745.52	23408.81
745.86	23478.18
746.199	23557.28
746.538	23526.77
746.877	23501.91
747.216	23570.16
747.556	23650.83
747.895	23550.5
748.234	23367
748.573	23402.7
748.911	23430.05
749.25	23405.87
749.589	23246.32
749.928	23386.43
750.267	23382.37
750.605	23181.24
750.944	23352.99
751.283	23093.33
751.621	23298.53
751.96	23096.05
752.298	23107.12
752.636	23115.25
752.975	23047.01
753.313	23112.32
753.651	23176.95
753.989	22894.47
754.327	23004.52
754.666	22901.93
755.004	22914.13
755.342	22970.17
755.679	22879.78
756.017	22760.69
756.355	22774.02
756.693	22689.28
757.031	22841.59
757.368	22561.14
757.706	22748.48
758.044	22659.9
758.381	22573.57
758.719	22562.5
759.056	22566.57
759.394	22507.81
759.731	22299.46
760.068	22347.36
760.405	22192.34
760.743	22208.16
761.08	22225.33
761.417	22096.52
761.754	22087.94
762.091	22129.52
762.428	21987.6
762.765	21836.42
763.102	21926.36
763.438	21751.67
763.775	21801.16
764.112	21771.56
764.449	21669.64
764.785	21702.18
765.122	21492.47
765.458	21363.21
765.795	21398.69
766.131	21349.42
766.467	21160.95
766.804	21193.5
767.14	21097
767.476	21108.75
767.812	21033.27
768.148	21023.78
768.485	20934.75
768.821	20850.23
769.157	20719.61
769.492	20596.68
769.828	20700.63
770.164	20433.74
770.5	20486.62
770.836	20393.74
771.171	20320.07
771.507	20251.6
771.842	20147.2
772.178	20196.23
772.513	20129.57
772.849	20030.36
773.184	19918.05
773.519	19849.35
773.855	19786.08
774.19	19831.95
774.525	19646.87
774.86	19682.12
775.195	19566.42
775.53	19522.81
775.865	19418.85
776.2	19308.57
776.535	19280.55
776.87	19201.01
777.205	19095.7
777.539	19083.72
777.874	19093.21
778.209	18882.37
778.543	18788.14
778.878	18792.88
779.212	18723.96
779.547	18662.26
779.881	18658.2
780.215	18530.06
780.55	18536.39
780.884	18269.05
781.218	18324.42
781.552	18397.64
781.886	18299.34
782.22	18160.13
782.554	18056.4
782.888	17874.26
783.222	17919.46
783.556	17861.15
783.889	17762.85
784.223	17690.54
784.557	17702.29
784.89	17632.91
785.224	17556.98
785.557	17571.22
785.891	17487.15
786.224	17450.32
786.558	17334.61
786.891	17185.92
787.224	17166.71
787.557	17096.65
787.891	17164.68
788.224	16995.87
788.557	17064.11
788.89	16911.35
789.223	16900.5
789.556	16761.52
789.888	16681.75
790.221	16740.28
790.554	16524.69
790.887	16615.31
791.219	16419.38
791.552	16396.33
791.884	16391.81
792.217	16233.17
792.549	16178.04
792.882	16108.66
793.214	16100.75
793.546	16150.69
793.879	16088.09
794.211	16009.9
794.543	16081.31
794.875	15988.66
795.207	16011.03
795.539	15893.07
795.871	15902.56
796.203	15748.67
796.535	15637.26
796.867	15616.24
797.198	15558.62
797.53	15576.92
797.862	15578.05
798.193	15523.81
798.525	15345.74
798.856	15386.87
799.188	15213.09
799.519	15141.9
799.85	15122.47
800.182	15175.12
800.513	15065.07
800.844	14874.57
801.175	15011.51
801.506	14957.95
801.837	14895.36
802.168	14814.23
802.499	14845.19
802.83	14740.33
803.161	14768.81
803.491	14738.52
803.822	14731.07
804.153	14611.52
804.483	14483.16
804.814	14434.8
805.145	14430.74
805.475	14343.28
805.805	14338.99
806.136	14441.36
806.466	14307.8
806.796	14361.81
807.126	14187.35
807.457	14160.69
807.787	14106
808.117	14071.42
808.447	13972.22
808.777	14052.22
809.107	14004.31
809.436	13989.17
809.766	13926.79
810.096	13904.42
810.426	13858.55
810.755	13790.98
811.085	13853.12
811.414	13755.27
811.744	13616.52
812.073	13637.08
812.403	13668.04
812.732	13538.56
813.061	13600.25
813.39	13477.09
813.719	13389.41
814.049	13531.78
814.378	13409.52
814.707	13486.58
815.036	13353.48
815.365	13350.99
815.693	13167.72
816.022	13188.96
816.351	13126.82
816.68	13078.46
817.008	13081.17
817.337	12964.79
817.665	12976.09
817.994	13089.3
818.322	13046.37
818.651	12960.94
818.979	12906.93
819.307	12990.1
819.636	12866.71
819.964	12830.78
820.292	12880.04
820.62	12822.19
820.948	12850.89
821.276	12831.23
821.604	12810.44
821.932	12890.66
822.259	12781.51
822.587	12735.87
822.915	12690.67
823.243	12773.15
823.57	12753.72
823.898	12763.89
824.225	12623.78
824.553	12719.59
824.88	12748.07
825.207	12797.56
825.535	12792.81
825.862	12795.07
826.189	12688.86
826.516	12772.02
826.843	12867.39
827.17	12749.88
827.497	12834.39
827.824	12791.01
828.151	12744
828.478	12700.39
828.805	12836.88
829.131	12716.21
829.458	12678.24
829.785	12631.24
830.111	12711.01
830.438	12800.95
830.764	12717.79
831.09	12676.43
831.417	12711.46
831.743	12683.89
832.069	12668.3
832.395	12631.46
832.722	12666.94
833.048	12652.48
833.374	12634.63
833.7	12555.76
834.026	12581.07
834.351	12564.8
834.677	12548.98
835.003	12518.7
835.329	12496.1
835.654	12553.27
835.98	12516.66
836.306	12529.77
836.631	12427.4
836.956	12472.6
837.282	12527.96
837.607	12405.48
837.932	12383.78
838.258	12483.22
838.583	12361.41
838.908	12276.44
839.233	12355.08
839.558	12334.75
839.883	12293.39
840.208	12243.45
840.533	12275.09
840.858	12188.31
841.182	12223.11
841.507	12182.66
841.832	12159.84
842.156	12140.4
842.481	12106.05
842.805	12091.36
843.13	12099.95
843.454	12019.5
843.778	11917.81
844.103	12028.54
844.427	11856.57
844.751	11899.28
845.075	11848.66
845.399	11857.92
845.723	11789.9
846.047	11767.76
846.371	11717.59
846.695	11651.37
847.019	11604.14
847.343	11511.27
847.666	11453.87
847.99	11440.08
848.313	11418.16
848.637	11335.68
848.96	11375.68
849.284	11311.95
849.607	11252.51
849.931	11277.37
850.254	11143.59
850.577	11086.19
850.9	11096.36
851.223	11044.38
851.546	11006.65
851.869	10840.1
852.192	11010.04
852.515	10737.5
852.838	10763.71
853.161	10826.09
853.483	10697.5
853.806	10659.54
854.129	10716.26
854.451	10623.38
854.774	10552.19
855.096	10525.08
855.419	10506.09
855.741	10449.37
856.063	10457.96
856.385	10364.18
856.708	10316.27
857.03	10387.9
857.352	10328.25
857.674	10358.3
857.996	10313.78
858.318	10253.22
858.64	10180.68
858.961	10157.63
859.283	10183.84
859.605	10159.66
859.926	10184.29
860.248	10052.77
860.57	10021.36
860.891	10043.96
861.212	10019.78
861.534	10014.81
861.855	9921.93
862.176	9963.74
862.498	9915.15
862.819	9944.98
863.14	9893
863.461	9860.24
863.782	9828.82
864.103	9789.28
864.424	9784.98
864.745	9864.3
865.065	9799.67
865.386	9686.68
865.707	9682.16
866.027	9726.68
866.348	9778.66
866.668	9674.25
866.989	9710.63
867.309	9540.24
867.63	9566.46
867.95	9591.54
868.27	9589.51
868.59	9584.76
868.91	9535.72
869.23	9509.96
869.55	9564.42
869.87	9533.92
870.19	9469.51
870.51	9545.44
870.83	9481.04
871.15	9416.63
871.469	9445.56
871.789	9467.7
872.109	9433.58
872.428	9446.01
872.748	9474.71
873.067	9431.55
873.386	9366.46
873.706	9369.17
874.025	9342.51
874.344	9298.22
874.663	9326.69
874.982	9310.87
875.301	9311.1
875.62	9233.58
875.939	9260.25
876.258	9200.37
876.577	9239.23
876.896	9203.98
877.214	9206.92
877.533	9161.04
877.852	9138.9
878.17	9134.83
878.489	9180.93
878.807	9148.16
879.125	9074.95
879.444	9088.73
879.762	9072.23
880.08	9002.63
880.398	9003.76
880.716	8966.02
881.034	8974.38
881.352	9034.95
881.67	8921.5
881.988	8905.23
882.306	8953.37
882.624	8912.01
882.941	8834.73
883.259	8775.07
883.577	8884.67
883.894	8864.78
884.212	8737.33
884.529	8774.61
884.846	8672.47
885.164	8682.19
885.481	8658.46
885.798	8698.01
886.115	8641.51
886.432	8668.4
886.75	8695.52
887.067	8687.38
887.383	8531
887.7	8644
888.017	8560.16
888.334	8606.48
888.651	8453.04
888.967	8527.84
889.284	8497.79
889.6	8484
889.917	8390.44
890.233	8396.54
890.55	8368.97
890.866	8358.13
891.182	8342.76
891.498	8301.63
891.815	8280.39
892.131	8245.81
892.447	8195.65
892.763	8210.33
893.079	8187.96
893.395	8150.45
893.71	8121.3
894.026	8136.21
894.342	8064.12
894.657	8108.42
894.973	8070.23
895.289	8030.68
895.604	8055.31
895.92	7985.71
896.235	7925.14
896.55	7995.65
896.865	7922.21
897.181	7845.82
897.496	7823
897.811	7822.55
898.126	7806.5
898.441	7765.37
898.756	7682.21
899.071	7703.23
899.386	7704.59
899.7	7625.72
900.015	7648.77
900.33	7517.7
900.644	7538.49
900.959	7510.69
901.273	7437.25
901.588	7484.03
901.902	7434.99
902.216	7411.94
902.531	7362.45
902.845	7390.24
903.159	7329.45
903.473	7277.25
903.787	7255.78
904.101	7253.98
904.415	7252.39
904.729	7277.03
905.042	7144.37
905.356	7117.03
905.67	7103.92
905.984	7159.97
906.297	7086.3
906.611	7060.31
906.924	7053.3
907.237	7011.27
907.551	7003.36
907.864	6943.93
908.177	6936.02
908.491	6917.26
908.804	6858.96
909.117	6877.26
909.43	6857.38
909.743	6777.38
910.056	6764.5
910.368	6720.66
910.681	6665.06
910.994	6656.7
911.307	6708.68
911.619	6667.1
911.932	6627.55
912.244	6566.99
912.557	6583.94
912.869	6567.89
913.181	6475.01
913.494	6475.69
913.806	6459.65
914.118	6452.87
914.43	6366.99
914.742	6419.87
915.054	6326.99
915.366	6273.66
915.678	6295.58
915.99	6299.2
916.302	6232.08
916.613	6238.86
916.925	6208.13
917.236	6156.6
917.548	6143.95
917.859	6194.12
918.171	6047.68
918.482	6077.06
918.794	6068.92
919.105	6038.19
919.416	6003.61
919.727	5985.08
920.038	5921.13
920.349	5948.7
920.66	5950.06
920.971	5867.57
921.282	5791.87
921.593	5816.05
921.903	5772.88
922.214	5744.41
922.525	5761.36
922.835	5780.12
923.146	5708.93
923.456	5666.67
923.767	5696.05
924.077	5657.86
924.387	5633
924.697	5605.43
925.008	5549.39
925.318	5495.6
925.628	5529.05
925.938	5468.49
926.248	5453.35
926.558	5429.84
926.867	5453.12
927.177	5411.31
927.487	5373.35
927.796	5349.85
928.106	5308.04
928.416	5340.35
928.725	5312.78
929.034	5257.42
929.344	5295.84
929.653	5223.97
929.962	5214.71
930.271	5253.58
930.581	5195.05
930.89	5109.17
931.199	5137.87
931.508	5056.97
931.817	5066.24
932.125	5051.77
932.434	5082.51
932.743	4984.43
933.051	4989.63
933.36	4942.17
933.669	4940.59
933.977	4942.85
934.286	4913.92
934.594	4942.62
934.902	4879.35
935.21	4830.31
935.519	4871.89
935.827	4828.95
936.135	4773.59
936.443	4781.72
936.751	4746.02
937.059	4758.67
937.367	4725.45
937.674	4693.14
937.982	4610.2
938.29	4653.37
938.597	4676.64
938.905	4544.44
939.213	4554.39
939.52	4567.72
939.827	4557.1
940.135	4501.96
940.442	4483.65
940.749	4514.16
941.056	4486.59
941.363	4492.01
941.67	4459.93
941.977	4452.92
942.284	4385.35
942.591	4387.61
942.898	4404.33
943.205	4318.91
943.511	4332.02
943.818	4346.26
944.125	4326.14
944.431	4239.59
944.738	4275.07
945.044	4258.8
945.35	4275.07
945.657	4208.63
945.963	4212.93
946.269	4153.27
946.575	4152.36
946.881	4096.32
947.187	4117.11
947.493	4096.77
947.799	4091.35
948.105	4082.99
948.41	4005.02
948.716	4035.98
949.022	4024
949.327	3998.24
949.633	3951.92
949.938	3974.29
950.244	3951.24
950.549	3900.39
950.854	3903.33
951.16	3900.39
951.465	3872.82
951.77	3824.24
952.075	3819.49
952.38	3821.07
952.685	3824.46
952.99	3763.9
953.294	3787.4
953.599	3727.51
953.904	3708.98
954.209	3727.51
954.513	3702.2
954.818	3692.04
955.122	3708.98
955.426	3694.75
955.731	3635.54
956.035	3641.64
956.339	3619.04
956.643	3639.38
956.948	3585.15
957.252	3611.36
957.556	3575.2
957.86	3540.63
958.163	3515.54
958.467	3512.38
958.771	3496.11
959.075	3475.54
959.378	3446.62
959.682	3465.37
959.985	3459.73
960.289	3426.73
960.592	3443.45
960.896	3416.34
961.199	3368.65
961.502	3352.61
961.805	3358.26
962.108	3311.93
962.411	3315.77
962.714	3268.77
963.017	3313.74
963.32	3310.58
963.623	3226.74
963.926	3266.51
964.228	3245.27
964.531	3261.31
964.833	3219.51
965.136	3216.79
965.438	3213.86
965.741	3179.05
966.043	3157.36
966.345	3147.19
966.648	3130.02
966.95	3121.43
967.252	3112.62
967.554	3095.67
967.856	3090.02
968.158	3068.55
968.46	3035.78
968.761	3041.21
969.063	3060.64
969.365	2984.94
969.666	3058.61
969.968	2979.29
970.269	2977.7
970.571	2946.74
970.872	2941.77
971.174	2938.16
971.475	2934.77
971.776	2914.88
972.077	2914.88
972.378	2846.41
972.679	2862.23
972.98	2857.71
973.281	2868.55
973.582	2857.71
973.883	2870.36
974.183	2799.63
974.484	2822
974.785	2775.45
975.085	2771.83
975.386	2780.65
975.686	2742.91
975.986	2754.21
976.287	2733.87
976.587	2704.27
976.887	2708.78
977.187	2654.77
977.487	2665.85
977.787	2673.31
978.087	2685.96
978.387	2635.79
978.687	2650.26
978.987	2649.8
979.286	2599.64
979.586	2607.77
979.885	2589.92
980.185	2612.97
980.484	2528.9
980.784	2575.23
981.083	2565.51
981.382	2564.16
981.682	2526.42
981.981	2525.96
982.28	2484.61
982.579	2488.23
982.878	2500.2
983.177	2475.8
983.475	2488.9
983.774	2437.61
984.073	2449.81
984.372	2409.36
984.67	2392.41
984.969	2454.55
985.267	2417.27
985.566	2397.38
985.864	2378.4
986.162	2393.31
986.461	2336.59
986.759	2309.02
987.057	2331.17
987.355	2338.4
987.653	2301.11
987.951	2305.18
988.249	2273.09
988.547	2291.85
988.844	2272.64
989.142	2283.71
989.44	2256.37
989.737	2247.55
990.035	2232.19
990.332	2200.1
990.63	2197.84
990.927	2209.36
991.224	2205.75
991.521	2182.47
991.819	2180.21
992.116	2157.39
992.413	2164.84
992.71	2149.25
993.006	2131.4
993.303	2116.03
993.6	2128.24
993.897	2121.23
994.193	2127.33
994.49	2117.84
994.787	2117.84
995.083	2067.67
995.379	2090.5
995.676	2056.82
995.972	2036.49
996.268	2045.07
996.565	2027.22
996.861	2005.3
997.157	2013.66
997.453	1977.28
997.749	2010.27
998.044	1960.78
998.34	1967.34
998.636	1935.02
998.932	1947.22
999.227	1930.73
999.523	1918.97
999.818	1927.34
1000.114	1897.73
1000.409	1901.35
1000.704	1889.82
1001	1864.51
1001.295	1884.17
1001.59	1847.79
1001.885	1815.47
1002.18	1839.66
1002.475	1817.96
1002.77	1844.4
1003.065	1818.64
1003.359	1786.32
1003.654	1755.36
1003.949	1797.4
1004.243	1781.8
1004.538	1742.48
1004.832	1725.76
1005.127	1750.84
1005.421	1729.83
1005.715	1757.85
1006.009	1718.75
1006.304	1729.83
1006.598	1697.74
1006.892	1684.18
1007.186	1667.91
1007.48	1675.37
1007.773	1679.66
1008.067	1643.5
1008.361	1643.28
1008.655	1651.41
1008.948	1589.27
1009.242	1630.39
1009.535	1590.4
1009.829	1582.94
1010.122	1591.07
1010.415	1582.03
1010.708	1560.34
1011.001	1554.69
1011.295	1552.88
1011.588	1551.08
1011.881	1521.47
1012.173	1526.44
1012.466	1516.05
1012.759	1498.42
1013.052	1501.58
1013.344	1508.59
1013.637	1514.24
1013.93	1487.8
1014.222	1458.65
1014.514	1466.78
1014.807	1470.4
1015.099	1462.04
1015.391	1454.58
1015.683	1435.82
1015.976	1403.06
1016.268	1416.62
1016.56	1414.81
1016.851	1405.99
1017.143	1382.72
1017.435	1329.61
1017.727	1364.87
1018.018	1359.89
1018.31	1344.07
1018.602	1353.57
1018.893	1334.58
1019.185	1331.65
1019.476	1339.78
1019.767	1304.3
1020.058	1331.65
1020.35	1284.42
1020.641	1269.95
1020.932	1262.95
1021.223	1275.38
1021.514	1258.65
1021.804	1265.66
1022.095	1260.91
1022.386	1249.61
1022.677	1208.71
1022.967	1202.61
1023.258	1213.91
1023.548	1212.33
1023.839	1198.99
1024.129	1188.37
1024.419	1171.42
1024.709	1168.03
1025	1191.99
1025.29	1154.02
1025.58	1159.22
1025.87	1150.18
1026.16	1150.41
1026.449	1144.08
1026.739	1128.49
1027.029	1103.86
1027.319	1110.63
1027.608	1104.76
1027.898	1094.36
1028.187	1120.58
1028.477	1116.06
1028.766	1082.16
1029.055	1097.98
1029.344	1034.25
1029.634	1055.49
1029.923	1059.56
1030.212	1054.59
1030.501	1072.44
1030.79	1056.62
1031.078	1040.81
1031.367	1042.84
1031.656	1021.82
1031.945	1027.7
1032.233	997.42
1032.522	988.6
1032.81	1016.4
1033.099	984.99
1033.387	974.14
1033.675	980.02
1033.963	944.09
1034.251	987.25
1034.54	970.98
1034.828	931.66
1035.116	967.36
1035.403	945.67
1035.691	918.1
1035.979	931.66
1036.267	931.66
1036.554	928.04
1036.842	907.48
1037.129	918.32
1037.417	905.67
1037.704	900.7
1037.992	884.65
1038.279	889.17
1038.566	878.55
1038.853	878.55
1039.14	878.55
