Data from tablewood_dark_bookshelf_FLMS001491_00041.txt Node
Date: Wed Feb 08 14:14:47 GMT 2017
User: dcchb
Spectrometer: FLMS00149
Trigger mode: 0
Integration Time (sec): 2.000000E-2
Scans to average: 10
Electric dark correction enabled: true
Nonlinearity correction enabled: false
Boxcar width: 0
XAxis mode: Wavelengths
Number of Pixels in Spectrum: 2048
>>>>>Begin Spectral Data<<<<<
341.393	-28.7
341.776	-28.7
342.16	-28.7
342.543	-57.17
342.927	-44.29
343.31	-78.87
343.693	-59.66
344.077	-59.89
344.46	-63.5
344.843	-37.06
345.226	-35.71
345.61	-25.76
345.993	-18.53
346.376	-5.65
346.759	16.95
347.142	28.93
347.525	32.09
347.908	54.69
348.291	63.73
348.674	84.97
349.057	103.27
349.44	119.09
349.823	137.62
350.206	148.47
350.588	185.31
350.971	200.22
351.354	179.88
351.737	243.84
352.119	250.61
352.502	249.71
352.884	260.33
353.267	277.96
353.65	284.06
354.032	280.44
354.414	289.26
354.797	307.11
355.179	317.51
355.562	302.36
355.944	306.21
356.326	328.35
356.709	321.8
357.091	319.09
357.473	345.08
357.855	321.57
358.238	322.03
358.62	333.1
359.002	319.31
359.384	331.97
359.766	339.65
360.148	323.38
360.53	322.93
360.912	325.64
361.294	310.27
361.676	326.55
362.057	299.2
362.439	312.99
362.821	297.85
363.203	303.72
363.584	310.95
363.966	307.34
364.348	303.27
364.729	313.21
365.111	293.78
365.493	298.52
365.874	317.28
366.256	312.08
366.637	295.36
367.019	309.37
367.4	297.39
367.781	304.17
368.163	292.2
368.544	301.01
368.925	319.54
369.306	299.2
369.688	306.88
370.069	309.6
370.45	299.43
370.831	305.53
371.212	303.95
371.593	298.75
371.974	308.01
372.355	329.93
372.736	310.95
373.117	303.72
373.498	299.2
373.879	297.17
374.26	312.31
374.641	284.06
375.021	281.12
375.402	315.25
375.783	317.05
376.163	325.64
376.544	319.09
376.925	323.16
377.305	327.22
377.686	330.61
378.066	330.84
378.447	339.43
378.827	338.3
379.208	326.77
379.588	317.51
379.968	326.09
380.349	337.84
380.729	333.78
381.109	317.73
381.489	335.13
381.87	330.39
382.25	318.86
382.63	347.56
383.01	334.68
383.39	315.25
383.77	345.98
384.15	347.11
384.53	334.23
384.91	337.39
385.29	358.63
385.67	314.79
386.049	360.44
386.429	352.53
386.809	343.95
387.189	358.86
387.568	357.96
387.948	347.79
388.328	361.12
388.707	352.76
389.087	346.66
389.466	378.07
389.846	368.35
390.225	355.92
390.605	359.99
390.984	369.48
391.363	366.77
391.743	352.53
392.122	358.63
392.501	350.5
392.881	361.57
393.26	375.13
393.639	374.45
394.018	380.55
394.397	384.17
394.776	385.75
395.155	392.53
395.534	369.48
395.913	380.55
396.292	394.34
396.671	402.25
397.05	393.89
397.429	406.09
397.808	388.46
398.186	402.02
398.565	393.89
398.944	403.61
399.323	413.32
399.701	416.71
400.08	404.74
400.458	398.18
400.837	423.49
401.215	386.43
401.594	426.43
401.972	423.04
402.351	424.85
402.729	420.78
403.107	442.93
403.486	413.77
403.864	426.88
404.242	412.42
404.62	444.28
404.999	423.27
405.377	421.46
405.755	451.97
406.133	451.29
406.511	468.24
406.889	465.07
407.267	437.73
407.645	451.97
408.023	480.67
408.401	475.69
408.779	461.23
409.156	456.03
409.534	466.65
409.912	500.1
410.29	463.26
410.667	489.93
411.045	478.86
411.422	492.19
411.8	508.24
412.178	503.26
412.555	514.11
412.933	511.4
413.31	507.56
413.687	500.78
414.065	530.61
414.442	522.47
414.819	526.31
415.197	542.81
415.574	514.34
415.951	550.95
416.328	538.06
416.705	561.34
417.082	556.6
417.46	530.38
417.837	556.82
418.214	565.41
418.591	568.57
418.967	567.89
419.344	560.44
419.721	583.49
420.098	592.3
420.475	584.39
420.852	584.62
421.228	590.27
421.605	581.91
421.982	581.45
422.358	586.43
422.735	608.35
423.111	628.01
423.488	602.47
423.864	627.78
424.241	621.68
424.617	646.08
424.994	631.85
425.37	634.33
425.746	639.53
426.123	656.71
426.499	633.43
426.875	656.48
427.251	653.32
427.627	673.88
428.003	683.37
428.379	664.84
428.756	682.92
429.132	702.13
429.507	712.98
429.883	715.24
430.259	729.47
430.635	718.85
431.011	731.51
431.387	728.57
431.763	751.39
432.138	757.04
432.514	757.95
432.89	787.55
433.265	773.31
433.641	777.38
434.016	757.72
434.392	783.71
434.767	797.72
435.143	801.11
435.518	828.68
435.894	825.06
436.269	810.15
436.644	823.71
437.02	814.44
437.395	845.85
437.77	850.37
438.145	858.06
438.52	848.57
438.895	852.86
439.271	884.95
439.646	900.32
440.021	885.4
440.395	902.8
440.77	886.76
441.145	907.09
441.52	943.25
441.895	931.5
442.27	921.11
442.645	926.98
443.019	947.77
443.394	958.62
443.769	950.26
444.143	929.47
444.518	967.66
444.892	942.35
445.267	958.39
445.641	969.92
446.016	984.38
446.39	966.53
446.764	977.15
447.139	985.51
447.513	1012.18
447.887	1003.59
448.262	1035
448.636	1034.78
449.01	1018.73
449.384	1039.52
449.758	1043.36
450.132	1035.45
450.506	1067.54
450.88	1073.42
451.254	1074.32
451.628	1087.43
452.002	1074.55
452.376	1126.07
452.75	1101.89
453.123	1126.07
453.497	1111.38
453.871	1141.66
454.244	1151.61
454.618	1171.49
454.992	1185.05
455.365	1200.19
455.739	1217.14
456.112	1231.83
456.486	1260.76
456.859	1253.75
457.232	1284.71
457.606	1280.87
457.979	1276.35
458.352	1278.16
458.725	1288.1
459.099	1348.44
459.472	1328.78
459.845	1337.82
460.218	1352.05
460.591	1357.93
460.964	1378.04
461.337	1406.52
461.71	1424.37
462.083	1439.51
462.456	1433.86
462.829	1437.25
463.201	1481.09
463.574	1471.83
463.947	1508.66
464.32	1514.76
464.692	1555.67
465.065	1530.36
465.438	1561.54
465.81	1597.02
466.183	1593.63
466.555	1643.57
466.928	1620.3
467.3	1627.3
467.672	1678.6
468.045	1693.97
468.417	1744.59
468.789	1716.34
469.161	1748.2
469.534	1790.01
469.906	1789.33
470.278	1838.6
470.65	1858.71
471.022	1865.49
471.394	1884.7
471.766	1887.41
472.138	1929.89
472.51	1962.21
472.882	1989.78
473.253	1985.94
473.625	2039.04
473.997	2082.88
474.369	2080.4
474.74	2106.84
475.112	2152.94
475.484	2189.55
475.855	2255.53
476.227	2250.79
476.598	2285.82
476.97	2301.63
477.341	2319.04
477.713	2369.43
478.084	2393.84
478.455	2484
478.827	2474.51
479.198	2564.68
479.569	2551.8
479.94	2612.59
480.311	2612.59
480.682	2698.01
481.053	2722.87
481.424	2778.68
481.795	2828.4
482.166	2892.58
482.537	2881.73
482.908	2925.12
483.279	2963.54
483.65	3052.35
484.021	3066.59
484.391	3126.02
484.762	3152.01
485.133	3164.21
485.503	3252.34
485.874	3315.17
486.244	3341.38
486.615	3391.1
486.985	3393.58
487.356	3464.32
487.726	3477.87
488.097	3549.96
488.467	3546.12
488.837	3646.23
489.207	3676.74
489.578	3728.04
489.948	3752.44
490.318	3831.54
490.688	3821.37
491.058	3908.15
491.428	3900.01
491.798	3960.8
492.168	4011.19
492.538	4043.96
492.908	4133.45
493.278	4169.83
493.648	4153.79
494.017	4217.74
494.387	4220.91
494.757	4309.49
495.126	4344.07
495.496	4366.44
495.866	4436.49
496.235	4429.71
496.605	4415.25
496.974	4462.93
497.344	4581.35
497.713	4576.83
498.082	4641.69
498.452	4650.05
498.821	4641.91
499.19	4676.71
499.559	4768.91
499.928	4743.6
500.298	4839.65
500.667	4876.93
501.036	4805.75
501.405	4919.64
501.774	4906.99
502.143	4939.31
502.512	5002.35
502.88	5043.71
503.249	5041
503.618	5069.7
503.987	5066.99
504.356	5150.83
504.724	5202.12
505.093	5213.2
505.462	5209.13
505.83	5260.65
506.199	5313.53
506.567	5344.94
506.936	5324.61
507.304	5434.21
507.672	5441.21
508.041	5491.83
508.409	5525.5
508.777	5615.67
509.145	5678.72
509.514	5617.03
509.882	5714.88
510.25	5699.96
510.618	5764.37
510.986	5789.9
511.354	5810.47
511.722	5859.28
512.09	5969.79
512.458	5950.13
512.826	5960.07
513.193	6047.52
513.561	6043.23
513.929	6108.54
514.297	6197.35
514.664	6186.73
515.032	6229.21
515.4	6289.55
515.767	6348.31
516.135	6374.97
516.502	6308.53
516.869	6483.45
517.237	6457.01
517.604	6493.16
517.972	6589.43
518.339	6635.76
518.706	6584.69
519.073	6628.98
519.44	6708.75
519.808	6796.66
520.175	6834.17
520.542	6878.46
520.909	6876.2
521.276	6980.16
521.643	7051.11
522.009	7068.51
522.376	7132.24
522.743	7200.49
523.11	7197.1
523.477	7297.89
523.843	7360.03
524.21	7377.66
524.577	7488.62
524.943	7481.84
525.31	7620.36
525.676	7665.56
526.043	7686.8
526.409	7744.66
526.776	7797.54
527.142	7827.36
527.508	7905.1
527.874	7955.95
528.241	8050.86
528.607	7957.98
528.973	8143.97
529.339	8107.36
529.705	8245.66
530.071	8225.55
530.437	8295.6
530.803	8350.29
531.169	8411.76
531.535	8387.8
531.901	8477.97
532.267	8513.9
532.632	8520.45
532.998	8562.26
533.364	8562.49
533.73	8654.01
534.095	8728.13
534.461	8760
534.826	8865.3
535.192	8840.45
535.557	8934
535.923	8958.18
536.288	8978.52
536.653	9032.98
537.019	8948.47
537.384	9069.14
537.749	9113.66
538.114	9141.23
538.479	9114.56
538.845	9146.2
539.21	9172.19
539.575	9174.9
539.94	9226.65
540.305	9288.8
540.67	9298.06
541.034	9341.9
541.399	9407.44
541.764	9425.06
542.129	9433.88
542.494	9488.56
542.858	9507.32
543.223	9605.85
543.587	9588
543.952	9589.58
544.316	9665.06
544.681	9660.31
545.045	9715.22
545.41	9663.7
545.774	9803.81
546.138	9817.82
546.503	9862.57
546.867	9877.25
547.231	9892.4
547.595	10029.79
547.959	9962.22
548.324	9992.96
548.688	9965.16
549.052	10074.76
549.416	10085.38
549.779	10140.75
550.143	10099.4
550.507	10182.56
550.871	10204.48
551.235	10242.67
551.599	10302.55
551.962	10331.03
552.326	10397.92
552.689	10439.95
553.053	10393.4
553.417	10411.48
553.78	10629.55
554.143	10531.7
554.507	10603.11
554.87	10641.75
555.234	10747.29
555.597	10745.48
555.96	10717.46
556.323	10872.71
556.686	10820.05
557.05	10881.07
557.413	10941.41
557.776	11014.17
558.139	11048.98
558.502	11127.39
558.865	11075.42
559.228	11226.82
559.59	11248.29
559.953	11296.88
560.316	11405.58
560.679	11388.63
561.041	11441.51
561.404	11549.98
561.767	11643.76
562.129	11582.97
562.492	11721.73
562.854	11669.3
563.217	11757.43
563.579	11784.55
563.941	11942.06
564.304	11947.93
564.666	12062.06
565.028	11984.77
565.39	12053.47
565.753	12159
566.115	12209.62
566.477	12268.38
566.839	12289.62
567.201	12347.47
567.563	12472.67
567.925	12447.58
568.287	12502.5
568.648	12619.1
569.01	12657.75
569.372	12680.12
569.734	12729.38
570.095	12862.49
570.457	12843.96
570.819	12943.61
571.18	12988.59
571.542	13054.12
571.903	13041.69
572.265	13157.85
572.626	13209.6
572.987	13177.28
573.349	13266.77
573.71	13240.56
574.071	13349.93
574.432	13437.16
574.794	13468.57
575.155	13531.85
575.516	13484.39
575.877	13619.3
576.238	13653.43
576.599	13687.32
576.96	13678.74
577.32	13720.32
577.681	13745.18
578.042	13800.77
578.403	13878.73
578.763	13850.94
579.124	13928.67
579.485	13957.15
579.845	14048.44
580.206	14046.41
580.566	14051.61
580.927	14134.32
581.287	14188.1
581.648	14163.92
582.008	14254.54
582.368	14208.89
582.728	14297.7
583.089	14316.23
583.449	14299.51
583.809	14357.36
584.169	14404.59
584.529	14407.3
584.889	14536.34
585.249	14438.04
585.609	14420.41
585.969	14500.86
586.329	14441.43
586.688	14540.63
587.048	14583.57
587.408	14479.39
587.768	14586.74
588.127	14614.98
588.487	14540.63
588.846	14683.46
589.206	14518.71
589.565	14694.98
589.925	14767.07
590.284	14775.66
590.643	14709.22
591.003	14731.14
591.362	14769.56
591.721	14779.72
592.08	14820.63
592.44	14921.87
592.799	14822.66
593.158	14879.61
593.517	14887.29
593.876	14953.51
594.235	14873.96
594.593	14983.56
594.952	14942.43
595.311	14972.71
595.67	15045.93
596.029	15140.17
596.387	15071.02
596.746	15186.95
597.104	15082.99
597.463	15141.97
597.822	15212.71
598.18	15093.16
598.538	15147.4
598.897	15311.91
599.255	15126.61
599.613	15390.33
599.972	15370.9
600.33	15320.73
600.688	15219.03
601.046	15284.8
601.404	15395.98
601.762	15383.32
602.12	15470.55
602.478	15480.27
602.836	15532.47
603.194	15485.47
603.552	15432.36
603.91	15409.99
604.268	15575.41
604.625	15528.63
604.983	15587.61
605.341	15553.94
605.698	15553.49
606.056	15616.54
606.413	15680.04
606.771	15687.05
607.128	15693.15
607.485	15713.71
607.843	15772.47
608.2	15810.43
608.557	15904.67
608.914	15874.61
609.272	15888.17
609.629	15868.28
609.986	15889.75
610.343	15950.99
610.7	16024.89
611.057	15995.96
611.414	15903.76
611.771	15969.75
612.127	16127.49
612.484	16057.43
612.841	16209.29
613.198	16094.72
613.554	16202.06
613.911	16194.38
614.267	16108.05
614.624	16200.03
614.98	16113.25
615.337	16212.68
615.693	16281.15
616.05	16263.75
616.406	16317.09
616.762	16261.27
617.118	16310.08
617.475	16311.21
617.831	16411.55
618.187	16311.89
618.543	16440.02
618.899	16484.54
619.255	16469.85
619.611	16416.74
619.967	16523.41
620.323	16440.25
620.678	16452.9
621.034	16443.64
621.39	16418.1
621.746	16453.35
622.101	16591.88
622.457	16475.72
622.812	16527.25
623.168	16494.26
623.523	16541.71
623.879	16550.98
624.234	16431.66
624.589	16488.15
624.945	16568.83
625.3	16599.34
625.655	16559.79
626.01	16501.26
626.365	16616.06
626.72	16613.57
627.075	16561.15
627.43	16565.67
627.785	16587.59
628.14	16603.18
628.495	16635.49
628.85	16556.63
629.205	16457.87
629.559	16512.56
629.914	16505.78
630.269	16462.62
630.623	16446.8
630.978	16402.73
631.332	16519.34
631.687	16487.93
632.041	16454.48
632.396	16508.72
632.75	16398.44
633.104	16474.14
633.459	16470.3
633.813	16419.68
634.167	16383.75
634.521	16424.88
634.875	16459
635.229	16375.84
635.583	16285.9
635.937	16360.7
636.291	16314.83
636.645	16338.33
636.999	16286.35
637.352	16225.11
637.706	16167.48
638.06	16317.54
638.413	16206.81
638.767	16172.68
639.121	16116.86
639.474	16048.84
639.828	16077.54
640.181	16107.37
640.534	16084.55
640.888	16044.55
641.241	16001.84
641.594	16011.33
641.947	16096.75
642.301	16018.34
642.654	15968.85
643.007	16045.45
643.36	16041.84
643.713	16048.62
644.066	16014.49
644.419	16011.78
644.771	15903.08
645.124	15768.85
645.477	15779.02
645.83	15651.11
646.182	15566.37
646.535	15424.91
646.888	15425.58
647.24	15381.06
647.593	15391.46
647.945	15333.83
648.298	15379.03
648.65	15246.6
649.002	15237.34
649.355	15324.79
649.707	15378.35
650.059	15429.88
650.411	15586.03
650.763	15683.43
651.115	15767.72
651.467	15722.3
651.819	15752.58
652.171	15724.56
652.523	15629.87
652.875	15597.1
653.227	15557.56
653.578	15616.54
653.93	15659.7
654.282	15621.51
654.633	15561.17
654.985	15620.83
655.337	15609.99
655.688	15567.5
656.039	15597.1
656.391	15509.42
656.742	15528.86
657.094	15573.38
657.445	15507.16
657.796	15595.97
658.147	15551.68
658.498	15521.85
658.849	15554.62
659.2	15601.17
659.551	15495.64
659.902	15598.91
660.253	15456.54
660.604	15546.26
660.955	15475.98
661.306	15522.53
661.656	15513.49
662.007	15561.4
662.358	15471.01
662.708	15566.14
663.059	15570.44
663.409	15424.68
663.76	15516.65
664.11	15494.51
664.461	15582.19
664.811	15558.23
665.161	15553.94
665.511	15528.86
665.862	15472.14
666.212	15551
666.562	15431.23
666.912	15492.7
667.262	15440.5
667.612	15555.75
667.962	15503.32
668.312	15473.49
668.662	15537.22
669.011	15426.04
669.361	15450.67
669.711	15440.05
670.06	15498.35
670.41	15475.53
670.76	15359.14
671.109	15428.97
671.459	15428.97
671.808	15466.71
672.157	15381.52
672.507	15396.21
672.856	15389.65
673.205	15338.35
673.554	15381.06
673.904	15345.81
674.253	15439.59
674.602	15358.92
674.951	15141.52
675.3	15109.89
675.649	15269.88
675.998	15363.21
676.346	15402.53
676.695	15384
677.044	15319.15
677.393	15294.06
677.741	15393.95
678.09	15238.92
678.438	15219.03
678.787	15235.08
679.135	15300.39
679.484	15127.29
679.832	15165.7
680.181	15072.37
680.529	15153.27
680.877	15116.21
681.225	15061.07
681.573	15187.85
681.922	15110.56
682.27	15048.64
682.618	15057.23
682.966	15034.86
683.314	15140.39
683.661	15052.94
684.009	14875.77
684.357	14882.09
684.705	14859.04
685.053	14859.27
685.4	14804.58
685.748	14801.64
686.095	14715.09
686.443	14751.02
686.79	14752.15
687.138	14789.22
687.485	14737.01
687.832	14694.98
688.18	14636.68
688.527	14612.27
688.874	14558.71
689.221	14628.99
689.568	14528.66
689.915	14555.32
690.262	14553.29
690.609	14462.22
690.956	14447.08
691.303	14393.97
691.65	14358.94
691.997	14312.62
692.344	14197.14
692.69	14245.28
693.037	14254.77
693.383	14167.31
693.73	14143.36
694.077	14104.26
694.423	14131.83
694.769	13994.21
695.116	14007.32
695.462	13970.03
695.808	13977.71
696.155	14033.08
696.501	13869.69
696.847	13911.5
697.193	13776.81
697.539	13750.37
697.885	13718.74
698.231	13644.84
698.577	13662.69
698.923	13620.21
699.269	13621.11
699.614	13519.42
699.96	13499.08
700.306	13556.93
700.651	13489.81
700.997	13398.52
701.342	13363.04
701.688	13399.87
702.033	13312.42
702.379	13293.66
702.724	13240.1
703.069	13243.49
703.415	13066.1
703.76	13080.33
704.105	13082.59
704.45	13038.08
704.795	13008.47
705.14	12971.41
705.485	12988.36
705.83	12912.2
706.175	12897.29
706.52	12894.58
706.865	12830.17
707.209	12765.31
707.554	12843.5
707.899	12753.56
708.243	12757.86
708.588	12741.13
708.932	12686.22
709.277	12692.55
709.621	12671.08
709.966	12605.09
710.31	12621.82
710.654	12433.8
710.998	12585.21
711.342	12510.18
711.687	12504.98
712.031	12457.53
712.375	12440.8
712.719	12434.48
713.063	12456.62
713.407	12447.58
713.75	12401.48
714.094	12359.22
714.438	12243.97
714.782	12249.62
715.125	12295.27
715.469	12231.77
715.812	12286
716.156	12153.13
716.499	12174.14
716.843	12233.12
717.186	12140.25
717.53	12121.49
717.873	12162.17
718.216	12107.7
718.559	12057.08
718.902	12022.73
719.246	11926.24
719.589	11969.18
719.932	11966.01
720.275	11951.32
720.617	11933.7
720.96	11915.62
721.303	11941.83
721.646	11893.7
721.989	11879.24
722.331	11901.61
722.674	11937.54
723.016	11913.36
723.359	11872
723.701	11911.33
724.044	11820.48
724.386	11755.62
724.729	11871.55
725.071	11781.16
725.413	11805.79
725.755	11799.01
726.097	11698.45
726.439	11664.55
726.782	11648.73
727.124	11712.46
727.465	11627.94
727.807	11664.55
728.149	11615.74
728.491	11611.67
728.833	11615.06
729.175	11598.11
729.516	11534.84
729.858	11576.64
730.199	11615.51
730.541	11606.7
730.882	11639.69
731.224	11633.59
731.565	11574.16
731.906	11517.66
732.248	11561.73
732.589	11465.01
732.93	11431.11
733.271	11501.84
733.612	11445.12
733.953	11469.3
734.294	11457.55
734.635	11431.56
734.976	11534.16
735.317	11424.33
735.658	11440.6
735.999	11449.64
736.339	11436.76
736.68	11411.23
737.021	11414.84
737.361	11341.17
737.702	11408.29
738.042	11338.46
738.383	11402.86
738.723	11323.54
739.063	11304.56
739.404	11360.15
739.744	11422.52
740.084	11416.42
740.424	11404.22
740.764	11317.44
741.104	11428.4
741.444	11300.72
741.784	11281.96
742.124	11231.34
742.464	11321.06
742.804	11238.35
743.143	11269.76
743.483	11306.37
743.823	11226.15
744.162	11257.56
744.502	11279.7
744.841	11128.97
745.181	11199.93
745.52	11197.45
745.86	11201.74
746.199	11169.65
746.538	11137.79
746.877	11252.81
747.216	11134.62
747.556	11185.92
747.895	11183.66
748.234	11116.77
748.573	11092.82
748.911	11092.59
749.25	11164.23
749.589	11070.9
749.928	11079.48
750.267	11114.06
750.605	11078.13
750.944	11024.12
751.283	10999.03
751.621	11037.9
751.96	10967.85
752.298	11009.88
752.636	11033.16
752.975	11022.08
753.313	10966.94
753.651	11004
753.989	10994.51
754.327	10886.49
754.666	10775.99
755.004	10891.24
755.342	10875.65
755.679	10860.96
756.017	10843.1
756.355	10839.26
756.693	10835.87
757.031	10812.15
757.368	10736.89
757.706	10717.46
758.044	10735.08
758.381	10702.77
758.719	10634.52
759.056	10594.07
759.394	10665.26
759.731	10596.33
760.068	10597.46
760.405	10544.36
760.743	10567.86
761.08	10514.3
761.417	10402.89
761.754	10481.53
762.091	10374.64
762.428	10420.29
762.765	10328.32
763.102	10409.22
763.438	10338.94
763.775	10196.12
764.112	10303.23
764.449	10226.4
764.785	10203.8
765.122	10123.12
765.458	10117.02
765.795	10035.22
766.131	10127.42
766.467	10057.59
766.804	10075.67
767.14	9982.79
767.476	9919.06
767.812	9980.98
768.148	9949.57
768.485	9836.58
768.821	9836.13
769.157	9785.96
769.492	9709.58
769.828	9770.82
770.164	9714.55
770.5	9595.45
770.836	9615.57
771.171	9627.54
771.507	9566.98
771.842	9488.56
772.178	9531.95
772.513	9510.03
772.849	9536.02
773.184	9426.64
773.519	9391.62
773.855	9316.14
774.19	9336.93
774.525	9273.88
774.86	9274.56
775.195	9223.49
775.53	9158.86
775.865	9162.92
776.2	9077.5
776.535	9053.77
776.87	9025.3
777.205	9014.68
777.539	8987.33
777.874	8995.24
778.209	8936.04
778.543	8960.89
778.878	8852.65
779.212	8834.57
779.547	8775.14
779.881	8799.32
780.215	8750.05
780.55	8676.38
780.884	8639.77
781.218	8652.65
781.552	8614.69
781.886	8621.92
782.22	8614.46
782.554	8550.74
782.888	8464.64
783.222	8455.37
783.556	8413.79
783.889	8390.06
784.223	8314.58
784.557	8297.63
784.89	8260.12
785.224	8246.79
785.557	8222.61
785.891	8248.14
786.224	8143.29
786.558	8164.53
786.891	8099.67
787.224	8052.67
787.557	8038.21
787.891	8047.92
788.224	8043.18
788.557	8041.6
788.89	8025.78
789.223	7945.33
789.556	7913.69
789.888	7880.7
790.221	7818.1
790.554	7800.02
790.887	7792.79
791.219	7694.71
791.552	7734.71
791.884	7635.05
792.217	7722.06
792.549	7639.57
792.882	7585.79
793.214	7520.03
793.546	7566.81
793.879	7514.6
794.211	7494.72
794.543	7507.37
794.875	7472.57
795.207	7444.1
795.539	7377.89
795.871	7429.18
796.203	7355.29
796.535	7313.03
796.867	7278.9
797.198	7234.61
797.53	7296.31
797.862	7232.13
798.193	7228.96
798.525	7172.24
798.856	7169.3
799.188	7074.16
799.519	7046.82
799.85	7057.67
800.182	7015.86
800.513	7055.18
800.844	6951.68
801.175	7015.18
801.506	7012.24
801.837	6993.94
802.168	6962.98
802.499	6974.28
802.83	6841.18
803.161	6880.27
803.491	6876.43
803.822	6875.07
804.153	6802.31
804.483	6801.63
804.814	6747.39
805.145	6707.39
805.475	6795.53
805.805	6694.29
806.136	6741.52
806.466	6693.38
806.796	6698.81
807.126	6683.67
807.457	6591.92
807.787	6644.12
808.117	6569.09
808.447	6541.97
808.777	6569.32
809.107	6527.96
809.436	6543.33
809.766	6516.89
810.096	6438.25
810.426	6410.68
810.755	6446.16
811.085	6404.8
811.414	6408.65
811.744	6341.75
812.073	6346.27
812.403	6398.48
812.732	6344.92
813.061	6356.22
813.39	6259.5
813.719	6272.38
814.049	6303.56
814.378	6270.57
814.707	6194.87
815.036	6265.15
815.365	6205.71
815.693	6155.54
816.022	6157.35
816.351	6143.12
816.68	6086.17
817.008	6110.57
817.337	6100.86
817.665	6056.56
817.994	6083.23
818.322	6087.52
818.651	6019.95
818.979	5997.13
819.307	6001.42
819.636	5968.88
819.964	5992.61
820.292	5987.64
820.62	6001.88
820.948	5934.99
821.276	6025.38
821.604	5963.46
821.932	5944.48
822.259	5947.41
822.587	5940.86
822.915	5923.91
823.243	5974.76
823.57	5927.3
823.898	5919.62
824.225	5939.5
824.553	5906.96
824.88	5926.4
825.207	5986.96
825.535	5935.89
825.862	5954.19
826.189	5911.93
826.516	5955.32
826.843	5979.96
827.17	5971.37
827.497	5969.33
827.824	5974.08
828.151	5972.05
828.478	5944.02
828.805	5947.87
829.131	5901.31
829.458	5909.22
829.785	5852.05
830.111	5898.38
830.438	5924.14
830.764	5913.97
831.09	5920.97
831.417	5911.26
831.743	5894.53
832.069	5893.63
832.395	5874.2
832.722	5904.48
833.048	5848.21
833.374	5850.69
833.7	5862.9
834.026	5832.16
834.351	5876.23
834.677	5847.08
835.003	5849.34
835.329	5811.15
835.654	5793.29
835.98	5795.1
836.306	5812.95
836.631	5805.05
836.956	5821.32
837.282	5796.68
837.607	5769.34
837.932	5750.81
838.258	5764.37
838.583	5760.53
838.908	5710.58
839.233	5724.82
839.558	5746.74
839.883	5707.87
840.208	5729.34
840.533	5716.46
840.858	5676.23
841.182	5712.17
841.507	5636.24
841.832	5614.32
842.156	5589.91
842.481	5631.04
842.805	5584.49
843.13	5520.31
843.454	5540.65
843.778	5560.98
844.103	5501.32
844.427	5474.66
844.751	5504.49
845.075	5524.83
845.399	5493.41
845.723	5425.17
846.047	5440.31
846.371	5430.14
846.695	5377.71
847.019	5372.97
847.343	5347.66
847.666	5304.72
847.99	5313.31
848.313	5307.43
848.637	5286.87
848.96	5306.08
849.284	5273.76
849.607	5219.07
849.931	5207.09
850.254	5196.25
850.577	5176.81
850.9	5151.05
851.223	5137.49
851.546	5123.48
851.869	5078.74
852.192	5117.61
852.515	5103.82
852.838	5063.6
853.161	5043.94
853.483	5016.37
853.806	4967.1
854.129	5004.61
854.451	5024.73
854.774	4961
855.096	4901.11
855.419	4954.45
855.741	4928.91
856.063	4876.26
856.385	4865.18
856.708	4828.8
857.03	4812.53
857.352	4829.48
857.674	4841.68
857.996	4804.39
858.318	4721.23
858.64	4741.12
858.961	4794
859.283	4758.74
859.605	4719.2
859.926	4716.49
860.248	4759.2
860.57	4697.96
860.891	4712.87
861.212	4693.66
861.534	4711.06
861.855	4642.82
862.176	4700.44
862.498	4658.63
862.819	4659.76
863.14	4644.85
863.461	4655.92
863.782	4609.82
864.103	4639.88
864.424	4646.66
864.745	4599.43
865.065	4588.35
865.386	4561.01
865.707	4573.21
866.027	4550.84
866.348	4580.67
866.668	4575.92
866.989	4528.92
867.309	4508.36
867.63	4507
867.95	4500.22
868.27	4476.72
868.59	4502.93
868.91	4488.47
869.23	4521.01
869.55	4471.29
869.87	4511.29
870.19	4465.42
870.51	4461.8
870.83	4462.93
871.15	4446.89
871.469	4462.48
871.789	4451.86
872.109	4432.88
872.428	4454.8
872.748	4389.94
873.067	4422.48
873.386	4388.81
873.706	4376.38
874.025	4359.89
874.344	4377.29
874.663	4374.35
874.982	4354.91
875.301	4414.35
875.62	4346.1
875.939	4351.07
876.258	4328.02
876.577	4328.47
876.896	4370.28
877.214	4338.42
877.533	4306.33
877.852	4351.07
878.17	4326.21
878.489	4310.62
878.807	4319.66
879.125	4318.53
879.444	4317.17
879.762	4263.39
880.08	4277.4
880.398	4272.43
880.716	4294.58
881.034	4264.07
881.352	4271.75
881.67	4227.46
881.988	4201.47
882.306	4207.8
882.624	4233.79
882.941	4191.75
883.259	4199.21
883.577	4147.69
883.894	4174.58
884.212	4186.56
884.529	4189.72
884.846	4190.85
885.164	4163.51
885.481	4114.92
885.798	4151.53
886.115	4141.81
886.432	4108.59
886.75	4103.62
887.067	4143.62
887.383	4140.91
887.7	4102.49
888.017	4097.29
888.334	4036.28
888.651	4081.02
888.967	4067.46
889.284	4006.45
889.6	4021.14
889.917	4015.49
890.233	4025.66
890.55	3949.95
890.866	3959.67
891.182	3979.56
891.498	3970.52
891.815	3949.27
892.131	3956.05
892.447	3922.83
892.763	3935.72
893.079	3949.27
893.395	3903.63
893.71	3916.28
894.026	3895.94
894.342	3906.56
894.657	3856.85
894.973	3841.48
895.289	3855.04
895.604	3818.88
895.92	3828.6
896.235	3816.85
896.55	3798.54
896.865	3832.67
897.181	3807.58
897.496	3773.69
897.811	3812.1
898.126	3768.94
898.441	3729.85
898.756	3740.47
899.071	3741.82
899.386	3706.34
899.7	3687.13
900.015	3672.67
900.33	3649.4
900.644	3669.06
900.959	3665.89
901.273	3623.18
901.588	3658.43
901.902	3650.3
902.216	3602.62
902.531	3604.88
902.845	3586.12
903.159	3573.01
903.473	3523.52
903.787	3513.58
904.101	3518.33
904.415	3525.78
904.729	3507.03
905.042	3531.88
905.356	3515.84
905.67	3469.51
905.984	3475.61
906.297	3466.12
906.611	3481.49
906.924	3489.17
907.237	3428.61
907.551	3482.85
907.864	3401.04
908.177	3413.7
908.491	3380.02
908.804	3359.69
909.117	3352.45
909.43	3326.24
909.743	3398.78
910.056	3353.36
910.368	3322.85
910.681	3303.19
910.994	3321.04
911.307	3274.94
911.619	3253.47
911.932	3241.95
912.244	3218.45
912.557	3240.14
912.869	3226.36
913.181	3186.36
913.494	3207.83
913.806	3202.18
914.118	3205.79
914.43	3160.14
914.742	3189.97
915.054	3148.84
915.366	3132.35
915.678	3108.84
915.99	3121.5
916.302	3095.96
916.613	3071.78
916.925	3113.14
917.236	3082.18
917.548	3034.72
917.859	3045.57
918.171	3041.73
918.482	3051.67
918.794	3006.47
919.105	3035.85
919.416	3020.71
919.727	2974.16
920.038	2935.97
920.349	2947.95
920.66	2942.97
920.971	2960.83
921.282	2910.43
921.593	2907.49
921.903	2855.52
922.214	2919.92
922.525	2887.83
922.835	2872.01
923.146	2861.62
923.456	2858.23
923.767	2843.09
924.077	2839.02
924.387	2822.52
924.697	2844.44
925.008	2826.37
925.318	2797.44
925.628	2780.27
925.938	2780.04
926.248	2773.94
926.558	2749.08
926.867	2763.77
927.177	2711.34
927.487	2708.63
927.796	2717.22
928.106	2712.7
928.416	2685.35
928.725	2703.66
929.034	2687.84
929.344	2673.6
929.653	2680.83
929.962	2663.43
930.271	2647.84
930.581	2623.66
930.89	2643.09
931.199	2618.24
931.508	2608.74
931.817	2601.97
932.125	2573.72
932.434	2574.4
932.743	2584.56
933.051	2546.83
933.36	2560.84
933.669	2532.36
933.977	2562.87
934.286	2519.03
934.594	2525.13
934.902	2463.66
935.21	2495.98
935.519	2505.7
935.827	2486.71
936.135	2438.81
936.443	2424.12
936.751	2437.45
937.059	2437
937.367	2418.24
937.674	2450.11
937.982	2404.68
938.29	2413.04
938.597	2367.4
938.905	2365.81
939.213	2390.9
939.52	2381.18
939.827	2387.06
940.135	2362.42
940.442	2321.52
940.749	2320.16
941.056	2323.78
941.363	2299.6
941.67	2283.1
941.977	2291.01
942.284	2253.05
942.591	2305.93
942.898	2290.79
943.205	2271.35
943.511	2208.3
943.818	2269.32
944.125	2244.91
944.431	2203.33
944.738	2221.18
945.044	2218.02
945.35	2185.71
945.657	2198.81
945.963	2213.28
946.269	2180.06
946.575	2150.45
946.881	2192.48
947.187	2200.62
947.493	2171.69
947.799	2143.45
948.105	2130.79
948.41	2131.92
948.716	2133.05
949.022	2109.32
949.327	2123.56
949.633	2083.34
949.938	2098.25
950.244	2114.75
950.549	2078.36
950.854	2070.23
951.16	2065.48
951.465	2068.42
951.77	2055.77
952.075	2049.21
952.38	2045.37
952.685	2048.99
952.99	2020.06
953.294	2008.53
953.599	2022.09
953.904	2003.34
954.209	1961.53
954.513	1980.29
954.818	2004.24
955.122	1987.74
955.426	1941.64
955.731	1961.76
956.035	1965.82
956.339	1943.45
956.643	1954.98
956.948	1951.36
957.252	1882.89
957.556	1899.61
957.86	1927.18
958.163	1900.97
958.467	1893.28
958.771	1882.44
959.075	1878.82
959.378	1864.36
959.682	1884.92
959.985	1856
960.289	1860.06
960.592	1839.95
960.896	1828.2
961.199	1838.82
961.502	1846.73
961.805	1820.97
962.108	1816.68
962.411	1813.74
962.714	1816.22
963.017	1819.61
963.32	1773.96
963.623	1797.01
963.926	1798.82
964.228	1763.34
964.531	1760.63
964.833	1764.02
965.136	1757.69
965.438	1762.67
965.741	1773.06
966.043	1721.08
966.345	1724.93
966.648	1699.16
966.95	1721.76
967.252	1714.98
967.554	1681.54
967.856	1689
968.158	1684.02
968.46	1725.15
968.761	1690.8
969.063	1658.26
969.365	1682.44
969.666	1654.87
969.968	1651.03
970.269	1655.78
970.571	1631.14
970.872	1644.48
971.174	1616.91
971.475	1621.65
971.776	1607.42
972.077	1603.8
972.378	1605.83
972.679	1635.66
972.98	1605.16
973.281	1593.86
973.582	1612.39
973.883	1599.51
974.183	1580.52
974.484	1569.9
974.785	1568.09
975.085	1559.96
975.386	1560.18
975.686	1552.5
975.986	1523.35
976.287	1513.86
976.587	1533.97
976.887	1519.51
977.187	1534.2
977.487	1526.51
977.787	1486.06
978.087	1491.03
978.387	1492.84
978.687	1498.27
978.987	1485.16
979.286	1484.03
979.586	1481.54
979.885	1472.28
980.185	1468.21
980.484	1468.21
980.784	1453.75
981.083	1464.37
981.382	1445.16
981.682	1449.23
981.981	1438.83
982.28	1417.59
982.579	1429.11
982.878	1391.38
983.177	1403.35
983.475	1392.73
983.774	1436.8
984.073	1387.31
984.372	1381.66
984.67	1387.76
984.969	1379.17
985.267	1381.66
985.566	1383.01
985.864	1372.85
986.162	1347.31
986.461	1355.22
986.759	1357.7
987.057	1352.96
987.355	1329.68
987.653	1346.63
987.951	1339.63
988.249	1336.46
988.547	1336.24
988.844	1322.45
989.142	1315.9
989.44	1296.24
989.737	1305.95
990.035	1291.04
990.332	1288.78
990.63	1288.33
990.927	1296.92
991.224	1303.24
991.521	1274.54
991.819	1300.3
992.116	1279.74
992.413	1269.12
992.71	1252.4
993.006	1223.7
993.303	1261.21
993.6	1245.39
993.897	1255.33
994.193	1211.95
994.49	1227.76
994.787	1227.99
995.083	1209.46
995.379	1209.46
995.676	1221.44
995.972	1207.88
996.268	1207.88
996.565	1182.79
996.861	1195.67
997.157	1193.64
997.453	1160.65
997.749	1151.16
998.044	1199.74
998.34	1161.78
998.636	1157.03
998.932	1160.2
999.227	1161.55
999.523	1154.77
999.818	1157.26
1000.114	1150.03
1000.409	1138.95
1000.704	1104.15
1001	1121.78
1001.295	1121.1
1001.59	1122.46
1001.885	1139.18
1002.18	1121.55
1002.475	1081.78
1002.77	1103.93
1003.065	1094.43
1003.359	1081.1
1003.654	1074.1
1003.949	1067.54
1004.243	1065.96
1004.538	1044.72
1004.832	1054.66
1005.127	1075.68
1005.421	1069.58
1005.715	1075.45
1006.009	1031.84
1006.304	1035.68
1006.598	1008.56
1006.892	1011.5
1007.186	1031.61
1007.48	1023.48
1007.773	1019.41
1008.067	1018.5
1008.361	987.32
1008.655	993.87
1008.948	977.15
1009.242	992.52
1009.535	991.16
1009.829	952.97
1010.122	974.44
1010.415	971.5
1010.708	972.4
1011.001	942.35
1011.295	938.96
1011.588	973.76
1011.881	958.62
1012.173	938.28
1012.466	959.52
1012.759	938.73
1013.052	919.75
1013.344	943.7
1013.637	901.22
1013.93	906.64
1014.222	919.52
1014.514	932.4
1014.807	904.38
1015.099	896.02
1015.391	884.72
1015.683	889.69
1015.976	898.51
1016.268	856.25
1016.56	895.34
1016.851	874.78
1017.143	871.84
1017.435	849.7
1017.727	839.75
1018.018	856.47
1018.31	848.79
1018.602	864.38
1018.893	826.87
1019.185	837.94
1019.476	820.32
1019.767	836.59
1020.058	831.62
1020.35	810.83
1020.641	802.46
1020.932	801.79
1021.223	809.92
1021.514	800.88
1021.804	825.06
1022.095	797.49
1022.386	791.17
1022.677	777.83
1022.967	797.04
1023.258	793.43
1023.548	791.17
1023.839	785.97
1024.129	773.09
1024.419	765.63
1024.709	751.17
1025	765.86
1025.29	780.77
1025.58	773.31
1025.87	746.42
1026.16	733.31
1026.449	738.96
1026.739	719.53
1027.029	719.3
1027.319	713.65
1027.608	713.65
1027.898	750.94
1028.187	741.45
1028.477	699.87
1028.766	708.46
1029.055	703.03
1029.344	712.3
1029.634	695.12
1029.923	715.24
1030.212	708.46
1030.501	696.48
1030.79	698.06
1031.078	695.12
1031.367	708.68
1031.656	696.25
1031.945	680.66
1032.233	687.44
1032.522	670.26
1032.81	682.02
1033.099	656.48
1033.387	659.42
1033.675	658.97
1033.963	686.99
1034.251	649.02
1034.54	669.59
1034.828	661.9
1035.116	625.52
1035.403	633.66
1035.691	649.7
1035.979	632.07
1036.267	626.42
1036.554	637.95
1036.842	602.47
1037.129	636.82
1037.417	626.2
1037.704	619.19
1037.992	615.58
1038.279	608.35
1038.566	616.93
1038.853	616.93
1039.14	616.93
