Data from tablewood_brown_FLMS001491_056.txt Node
Date: Tue Feb 07 11:10:42 GMT 2017
User: dcchb
Spectrometer: FLMS00149
Trigger mode: 0
Integration Time (sec): 2.000000E-2
Scans to average: 10
Electric dark correction enabled: true
Nonlinearity correction enabled: false
Boxcar width: 0
XAxis mode: Wavelengths
Number of Pixels in Spectrum: 2048
>>>>>Begin Spectral Data<<<<<
341.393	6.96
341.776	6.96
342.16	6.96
342.543	-66.93
342.927	-53.6
343.31	-65.8
343.693	-49.31
344.077	-67.61
344.46	-65.13
344.843	-49.76
345.226	-34.84
345.61	-41.85
345.993	-17.9
346.376	-16.31
346.759	1.99
347.142	9
347.525	41.09
347.908	52.84
348.291	94.42
348.674	107.53
349.057	101.65
349.44	116.34
349.823	131.48
350.206	173.29
350.588	210.35
350.971	214.87
351.354	222.55
351.737	240.86
352.119	271.14
352.502	252.61
352.884	255.09
353.267	302.77
353.65	305.26
354.032	302.1
354.414	304.36
354.797	319.95
355.179	347.07
355.562	311.59
355.944	346.62
356.326	343.68
356.709	349.78
357.091	346.16
357.473	333.51
357.855	352.26
358.238	335.77
358.62	347.75
359.002	337.12
359.384	336.45
359.766	353.85
360.148	352.26
360.53	354.98
360.912	345.03
361.294	329.21
361.676	326.28
362.057	362.21
362.439	358.82
362.821	346.39
363.203	332.38
363.584	347.29
363.966	344.36
364.348	345.71
364.729	327.41
365.111	345.03
365.493	328.08
365.874	328.31
366.256	342.77
366.637	341.19
367.019	323.79
367.4	347.29
367.781	322.44
368.163	315.2
368.544	330.12
368.925	316.33
369.306	322.89
369.688	350.68
370.069	340.06
370.45	332.15
370.831	335.54
371.212	319.72
371.593	355.65
371.974	354.98
372.355	351.36
372.736	326.05
373.117	316.79
373.498	343.23
373.879	347.07
374.26	343.9
374.641	350.23
375.021	337.58
375.402	349.78
375.783	371.47
376.163	375.31
376.544	369.67
376.925	353.85
377.305	359.95
377.686	358.37
378.066	365.82
378.447	372.15
378.827	377.57
379.208	378.03
379.588	372.38
379.968	369.21
380.349	370.57
380.729	356.56
381.109	368.54
381.489	380.29
381.87	390.46
382.25	398.37
382.63	383.68
383.01	386.61
383.39	387.74
383.77	390.46
384.15	377.35
384.53	387.97
384.91	415.31
385.29	407.18
385.67	400.85
386.049	413.05
386.429	406.95
386.809	409.44
387.189	417.35
387.568	402.66
387.948	418.25
388.328	415.99
388.707	413.73
389.087	409.89
389.466	436.78
389.846	429.55
390.225	422.55
390.605	419.38
390.984	437.69
391.363	441.75
391.743	452.6
392.122	465.93
392.501	448.08
392.881	466.61
393.26	453.28
393.639	469.1
394.018	467.52
394.397	478.14
394.776	454.41
395.155	478.59
395.534	474.3
395.913	486.05
396.292	483.33
396.671	513.84
397.05	497.8
397.429	482.88
397.808	516.55
398.186	504.35
398.565	512.49
398.944	517.68
399.323	517.91
399.701	524.92
400.08	544.35
400.458	517.23
400.837	549.1
401.215	534.18
401.594	549.1
401.972	549.77
402.351	521.98
402.729	551.81
403.107	578.25
403.486	564.69
403.864	570.11
404.242	581.64
404.62	580.51
404.999	544.8
405.377	597
405.755	607.85
406.133	610.56
406.511	582.77
406.889	598.13
407.267	603.56
407.645	629.55
408.023	642.88
408.401	637.68
408.779	630.68
409.156	638.81
409.534	656.44
409.912	655.53
410.29	669.09
410.667	683.78
411.045	686.49
411.422	696.89
411.8	706.15
412.178	701.18
412.555	711.58
412.933	731.24
413.31	741.63
413.687	713.61
414.065	735.53
414.442	733.72
414.819	728.75
415.197	734.18
415.574	749.99
415.951	768.98
416.328	747.06
416.705	774.85
417.082	775.3
417.46	784.12
417.837	782.08
418.214	819.82
418.591	800.39
418.967	809.2
419.344	819.6
419.721	823.21
420.098	834.96
420.475	834.06
420.852	843.1
421.228	851.69
421.605	868.41
421.982	847.62
422.358	897.79
422.735	877
423.111	866.6
423.488	905.24
423.864	895.75
424.241	921.97
424.617	933.04
424.994	928.29
425.37	920.16
425.746	902.98
426.123	959.48
426.499	962.42
426.875	949.99
427.251	979.82
427.627	1011.23
428.003	1001.29
428.379	1035.86
428.756	1034.05
429.132	1035.86
429.507	1025.92
429.883	1052.59
430.259	1064.34
430.635	1063.88
431.011	1080.16
431.387	1095.52
431.763	1131.91
432.138	1120.61
432.514	1145.92
432.89	1123.77
433.265	1156.99
433.641	1174.16
434.016	1192.92
434.392	1192.24
434.767	1205.12
435.143	1229.76
435.518	1273.14
435.894	1251
436.269	1254.39
436.644	1255.97
437.02	1285.12
437.395	1313.6
437.77	1297.55
438.145	1331
438.52	1326.93
438.895	1359.47
439.271	1352.24
439.646	1387.04
440.021	1388.62
440.395	1428.39
440.77	1395.85
441.145	1407.83
441.52	1457.32
441.895	1446.93
442.27	1478.34
442.645	1473.82
443.019	1484.89
443.394	1472.24
443.769	1478.34
444.143	1481.27
444.518	1491.67
444.892	1527.6
445.267	1547.71
445.641	1528.05
446.016	1557.88
446.39	1564.44
446.764	1588.39
447.139	1589.52
447.513	1601.72
447.887	1591.78
448.262	1624.1
448.636	1616.86
449.01	1641.72
449.384	1647.6
449.758	1658.22
450.132	1662.74
450.506	1697.54
450.88	1700.93
451.254	1713.36
451.628	1737.54
452.002	1735.96
452.376	1764.43
452.75	1765.79
453.123	1783.41
453.497	1799.23
453.871	1803.98
454.244	1855.28
454.618	1871.09
454.992	1876.74
455.365	1915.84
455.739	1907.48
456.112	1940.92
456.486	1976.18
456.859	1976.63
457.232	2019.57
457.606	2013.46
457.979	2022.73
458.352	2087.81
458.725	2119.45
459.099	2116.74
459.472	2157.64
459.845	2175.49
460.218	2224.31
460.591	2216.4
460.964	2253.23
461.337	2294.59
461.71	2309.95
462.083	2372.1
462.456	2375.49
462.829	2378.65
463.201	2418.43
463.574	2447.8
463.947	2482.83
464.32	2519.21
464.692	2515.37
465.065	2552.21
465.438	2606.44
465.81	2617.06
466.183	2656.61
466.555	2684.18
466.928	2700.68
467.3	2756.5
467.672	2806.44
468.045	2907.9
468.417	2868.58
468.789	2884.85
469.161	2953.1
469.534	3000.33
469.906	3081.01
470.278	3092.31
470.65	3146.54
471.022	3193.09
471.394	3266.54
471.766	3335.01
472.138	3399.42
472.51	3432.64
472.882	3463.14
473.253	3505.18
473.625	3622.01
473.997	3703.82
474.369	3725.96
474.74	3777.03
475.112	3830.82
475.484	3879.63
475.855	3944.94
476.227	4009.57
476.598	4161.66
476.97	4206.63
477.341	4343.8
477.713	4368.88
478.084	4391.25
478.455	4544.47
478.827	4566.39
479.198	4744.69
479.569	4754.86
479.94	4845.03
480.311	4944.69
480.682	5082.54
481.053	5224.9
481.424	5265.81
481.795	5305.58
482.166	5450.89
482.537	5487.95
482.908	5663.99
483.279	5759.81
483.65	5835.74
484.021	5983.3
484.391	6058.78
484.762	6106.01
485.133	6192.34
485.503	6263.52
485.874	6395.95
486.244	6481.82
486.615	6577.86
486.985	6772.21
487.356	6816.5
487.726	6897.18
488.097	7063.95
488.467	7027.8
488.837	7271.63
489.207	7316.6
489.578	7528.57
489.948	7475.24
490.318	7665.74
490.688	7664.61
491.058	7811.73
491.428	7933.53
491.798	8001.78
492.168	8136.92
492.538	8169.46
492.908	8267.31
493.278	8422.56
493.648	8465.72
494.017	8561.31
494.387	8615.1
494.757	8679.28
495.126	8832.04
495.496	8859.16
495.866	8970.8
496.235	9054.41
496.605	9073.84
496.974	9190.45
497.344	9312.26
497.713	9333.5
498.082	9436.77
498.452	9579.59
498.821	9589.76
499.19	9629.76
499.559	9689.87
499.928	9835.63
500.298	9787.04
500.667	9952.69
501.036	9938.45
501.405	10053.03
501.774	10130.54
502.143	10182.97
502.512	10285.79
502.88	10405.33
503.249	10448.5
503.618	10460.7
503.987	10600.81
504.356	10689.85
504.724	10751.31
505.093	10785.21
505.462	10853.68
505.83	10955.83
506.199	10998.09
506.567	11233.79
506.936	11222.71
507.304	11352.88
507.672	11407.12
508.041	11355.14
508.409	11550.84
508.777	11605.3
509.145	11726.43
509.514	11825.86
509.882	11937.5
510.25	11968.46
510.618	11979.3
510.986	12108.11
511.354	12220.88
511.722	12352.63
512.09	12472.17
512.458	12473.3
512.826	12676.69
513.193	12784.25
513.561	12789.45
513.929	12947.64
514.297	12977.7
514.664	13173.85
515.032	13312.83
515.4	13308.53
515.767	13436.21
516.135	13412.94
516.502	13523.67
516.869	13707.39
517.237	13765.7
517.604	13859.71
517.972	13969.76
518.339	14111.9
518.706	14158.91
519.073	14340.6
519.44	14388.96
519.808	14534.72
520.175	14491.55
520.542	14801.15
520.909	14864.65
521.276	14936.74
521.643	15087.24
522.009	15151.88
522.376	15286.79
522.743	15353
523.11	15517.74
523.477	15711.63
523.843	15848.35
524.21	16074.79
524.577	16114.34
524.943	16191.17
525.31	16415.12
525.676	16472.97
526.043	16613.98
526.409	16703.25
526.776	16872.28
527.142	16941.66
527.508	17117.25
527.874	17257.58
528.241	17349.11
528.607	17450.35
528.973	17628.87
529.339	17594.07
529.705	17727.85
530.071	18002.87
530.437	18052.59
530.803	18240.83
531.169	18322.87
531.535	18332.58
531.901	18337.1
532.267	18511.34
532.632	18543.2
532.998	18752.23
533.364	18751.55
533.73	18921.72
534.095	19017.08
534.461	19107.03
534.826	19182.96
535.192	19299.79
535.557	19486.9
535.923	19440.58
536.288	19579.78
536.653	19640.12
537.019	19636.28
537.384	19744.98
537.749	19817.29
538.114	19888.47
538.479	20007.79
538.845	20064.51
539.21	20083.95
539.575	20171.86
539.94	20244.4
540.305	20363.72
540.67	20320.78
541.034	20423.15
541.399	20576.82
541.764	20654.56
542.129	20688.23
542.494	20747.66
542.858	20925.96
543.223	20870.6
543.587	21100.65
543.952	21010.93
544.316	21063.13
544.681	21212.06
545.045	21301.54
545.41	21333.41
545.774	21441.2
546.138	21537.02
546.503	21486.17
546.867	21541.54
547.231	21755.09
547.595	21860.17
547.959	21887.74
548.324	21943.34
548.688	22017.23
549.052	22179.04
549.416	22274.85
549.779	22323.66
550.143	22395.53
550.507	22586.03
550.871	22682.53
551.235	22584.45
551.599	22862.63
551.962	22844.1
552.326	22966.59
552.689	23126.36
553.053	23043.42
553.417	23326.8
553.78	23623.29
554.143	23549.17
554.507	23730.41
554.87	23753.91
555.234	24068.25
555.597	23926.79
555.96	24124.52
556.323	24354.35
556.686	24442.93
557.05	24584.85
557.413	24705.52
557.776	24887.89
558.139	24909.13
558.502	25199.07
558.865	25207.88
559.228	25523.81
559.59	25526.07
559.953	25758.15
560.316	26046.5
560.679	26083.11
561.041	26281.75
561.404	26407.4
561.767	26617.79
562.129	26669.54
562.492	27054.16
562.854	26959.7
563.217	27220.71
563.579	27338.67
563.941	27574.83
564.304	27735.27
564.666	27986.11
565.028	28018.43
565.39	28264.07
565.753	28529.6
566.115	28749.26
566.477	28834.91
566.839	28856.6
567.201	29241.22
567.563	29315.57
567.925	29730.48
568.287	29720.08
568.648	29669.91
569.01	30055.44
569.372	30262.89
569.734	30307.86
570.095	30626.5
570.457	30869.2
570.819	31037.11
571.18	31181.28
571.542	31457.44
571.903	31596.41
572.265	31756.18
572.626	31969.51
572.987	32181.48
573.349	32269.39
573.71	32433.23
574.071	32659.44
574.432	32718.19
574.794	33064.62
575.155	33214.68
575.516	33091.29
575.877	33520.21
576.238	33660.77
576.599	33796.58
576.96	33891.5
577.32	33980.99
577.681	34183.69
578.042	34359.05
578.403	34338.72
578.763	34529.45
579.124	34534.42
579.485	34773.05
579.845	35028.42
580.206	35085.59
580.566	34990.22
580.927	35155.87
581.287	35418.46
581.648	35358.58
582.008	35685.12
582.368	35664.56
582.728	35821.39
583.089	35824.78
583.449	35918.79
583.809	35959.24
584.169	36177.09
584.529	35938.22
584.889	36354.03
585.249	36173.7
585.609	36092.79
585.969	36402.39
586.329	36343.63
586.688	36469.96
587.048	36557.19
587.408	36588.37
587.768	36534.14
588.127	36562.84
588.487	36553.35
588.846	36843.73
589.206	36689.39
589.565	36649.39
589.925	36945.88
590.284	36863.4
590.643	36904.3
591.003	37082.82
591.362	36980.91
591.721	37031.3
592.08	37173.44
592.44	37203.95
592.799	37162.14
593.158	37175.25
593.517	37231.97
593.876	37261.35
594.235	37142.03
594.593	37373.21
594.952	37485.75
595.311	37295.93
595.67	37399.65
596.029	37520.55
596.387	37546.77
596.746	37696.59
597.104	37548.8
597.463	37549.48
597.822	37742.69
598.18	37578.63
598.538	37553.77
598.897	37929.81
599.255	37493.21
599.613	38074.89
599.972	37818.85
600.33	37867.66
600.688	37824.73
601.046	37908.57
601.404	38152.17
601.762	37999.18
602.12	38258.61
602.478	38132.51
602.836	38215.22
603.194	38045.74
603.552	38175.45
603.91	37989.47
604.268	38271.95
604.625	38149.01
604.983	38330.48
605.341	38202.34
605.698	38303.58
606.056	38464.03
606.413	38383.36
606.771	38543.12
607.128	38495.67
607.485	38440.53
607.843	38554.2
608.2	38584.48
608.557	38726.85
608.914	38639.17
609.272	38778.82
609.629	38801.2
609.986	38891.82
610.343	38781.99
610.7	38986.96
611.057	38934.53
611.414	38913.28
611.771	39043.22
612.127	39169.32
612.484	39057.69
612.841	39271.92
613.198	39191.7
613.554	39183.11
613.911	39430.56
614.267	39405.7
614.624	39316.44
614.98	39315.08
615.337	39340.62
615.693	39421.97
616.05	39471.24
616.406	39663.77
616.762	39616.54
617.118	39475.08
617.475	39551.69
617.831	39628.75
618.187	39659.48
618.543	39824.45
618.899	39895.18
619.255	39843.66
619.611	39806.14
619.967	40140.15
620.323	39999.58
620.678	39969.53
621.034	39819.7
621.39	39846.82
621.746	39846.14
622.101	40224.21
622.457	39889.98
622.812	39885.69
623.168	40233.93
623.523	40008.17
623.879	40205.23
624.234	39889.08
624.589	40027.15
624.945	40108.51
625.3	40198.67
625.655	40214.49
626.01	40167.49
626.365	40283.87
626.72	40049.3
627.075	39953.48
627.43	40035.74
627.785	40121.84
628.14	40039.13
628.495	40039.81
628.85	39922.07
629.205	39938.79
629.559	40029.64
629.914	39877.78
630.269	39911.45
630.623	39941.73
630.978	39782.19
631.332	39920.49
631.687	40023.76
632.041	39738.12
632.396	39800.95
632.75	39607.96
633.104	39803.2
633.459	39571.57
633.813	39634.4
634.167	39659.71
634.521	39525.92
634.875	39595.07
635.229	39594.4
635.583	39447.28
635.937	39340.17
636.291	39398.24
636.645	39426.72
636.999	39148.76
637.352	39363.67
637.706	39181.3
638.06	39159.38
638.413	39189.21
638.767	39119.16
639.121	39123
639.474	38948.76
639.828	38829.9
640.181	38769.33
640.534	38885.26
640.888	38774.53
641.241	38673.52
641.594	38700.18
641.947	38770.24
642.301	38684.59
642.654	38652.5
643.007	38567.76
643.36	38618.15
643.713	38487.08
644.066	38755.55
644.419	38600.3
644.771	38205.28
645.124	38100.88
645.477	37910.83
645.83	37670.15
646.182	37480.1
646.535	37394.91
646.888	37408.47
647.24	37266.77
647.593	37467.45
647.945	37308.13
648.298	37096.61
648.65	37120.56
649.002	37031.75
649.355	37165.31
649.707	37203.73
650.059	37305.42
650.411	37832.41
650.763	37856.14
651.115	38012.52
651.467	38009.81
651.819	38026.75
652.171	38008.22
652.523	37917.83
652.875	37943.14
653.227	37759.19
653.578	38038.28
653.93	37840.09
654.282	37764.16
654.633	37667.67
654.985	37791.96
655.337	37644.84
655.688	37761.22
656.039	37887.1
656.391	37691.85
656.742	37605.97
657.094	37646.88
657.445	37707.44
657.796	37592.87
658.147	37562.81
658.498	37528.24
658.849	37700.89
659.2	37490.27
659.551	37614.56
659.902	37704.05
660.253	37591.51
660.604	37629.7
660.955	37404.17
661.306	37514.68
661.656	37366.66
662.007	37530.27
662.358	37483.72
662.708	37497.95
663.059	37423.61
663.409	37210.73
663.76	37524.62
664.11	37403.72
664.461	37496.15
664.811	37525.98
665.161	37317.17
665.511	37379.77
665.862	37420.44
666.212	37499.31
666.562	37518.07
666.912	37394
667.262	37396.49
667.612	37322.37
667.962	37461.57
668.312	37242.14
668.662	37562.59
669.011	37251.86
669.361	37251.41
669.711	37217.06
670.06	37085.76
670.41	37117.4
670.76	37118.53
671.109	37230.17
671.459	37208.47
671.808	37100
672.157	37215.02
672.507	36896.61
672.856	36905.88
673.205	37038.31
673.554	37080.34
673.904	36889.84
674.253	37165.99
674.602	37045.99
674.951	36428.15
675.3	36286.91
675.649	36915.82
675.998	36880.12
676.346	36952.88
676.695	36919.21
677.044	36570.07
677.393	36683.51
677.741	36730.97
678.09	36660.91
678.438	36604.64
678.787	36644.19
679.135	36767.13
679.484	36250.3
679.832	36531.2
680.181	36329.85
680.529	36387.93
680.877	36390.41
681.225	36183.19
681.573	36462.5
681.922	36026.35
682.27	35987.26
682.618	35974.83
682.966	35912.23
683.314	35930.31
683.661	35848.51
684.009	35643.54
684.357	35736.19
684.705	35567.84
685.053	35622.07
685.4	35611.45
685.748	35544.79
686.095	35453.71
686.443	35260.5
686.79	35147.06
687.138	35246.04
687.485	35287.62
687.832	35096.66
688.18	35011.24
688.527	34844.47
688.874	34894.18
689.221	34797.69
689.568	34484.25
689.915	34456.68
690.262	34474.53
690.609	34470.24
690.956	34251.71
691.303	34240.19
691.65	34106.86
691.997	34020.53
692.344	33949.35
692.69	33963.13
693.037	33826.41
693.383	33499.64
693.73	33754.78
694.077	33532.86
694.423	33435.46
694.769	33341.23
695.116	33376.26
695.462	33209.71
695.808	33182.14
696.155	33118.86
696.501	32745.76
696.847	32789.38
697.193	32667.12
697.539	32768.36
697.885	32467.35
698.231	32335.83
698.577	32311.2
698.923	32279.11
699.269	32006.8
699.614	31847.48
699.96	31873.7
700.306	31936.29
700.651	31622.4
700.997	31708.05
701.342	31587.38
701.688	31542.41
702.033	31305.35
702.379	31208.63
702.724	31175.86
703.069	31262.19
703.415	30867.85
703.76	30951.69
704.105	30943.55
704.45	30863.33
704.795	30609.55
705.14	30554.18
705.485	30407.07
705.83	30382.89
706.175	30339.72
706.52	30348.31
706.865	30201.2
707.209	30109
707.554	30038.94
707.899	30025.83
708.243	29784.94
708.588	29751.27
708.932	29634.43
709.277	29519.18
709.621	29639.4
709.966	29527.32
710.31	29416.59
710.654	29238.28
710.998	29252.97
711.342	29196.03
711.687	29112.41
712.031	29067.67
712.375	29017.5
712.719	29029.48
713.063	29008.23
713.407	29006.88
713.75	28736.15
714.094	28792.87
714.438	28692.54
714.782	28732.99
715.125	28543.61
715.469	28703.38
715.812	28605.31
716.156	28460.9
716.499	28296.61
716.843	28314.24
717.186	28158.99
717.53	28327.35
717.873	28401.92
718.216	28154.92
718.559	28146.56
718.902	28007.81
719.246	28046.9
719.589	27908.38
719.932	27937.3
720.275	27829.51
720.617	27863.41
720.96	27801.03
721.303	27770.98
721.646	27815.05
721.989	27653.24
722.331	27660.7
722.674	27711.55
723.016	27708.16
723.359	27653.24
723.701	27614.6
724.044	27546.35
724.386	27436.52
724.729	27465.9
725.071	27363.31
725.413	27330.31
725.755	27404.43
726.097	27372.35
726.439	27126.93
726.782	27206.02
727.124	27361.5
727.465	27200.6
727.807	27286.02
728.149	27088.28
728.491	27048.96
728.833	27222.07
729.175	27036.08
729.516	27028.4
729.858	27064.1
730.199	27069.53
730.541	27048.06
730.882	26839.25
731.224	27043.09
731.565	26886.93
731.906	26929.65
732.248	26876.99
732.589	26770.78
732.93	26726.94
733.271	26767.16
733.612	26801.96
733.953	26915.41
734.294	26550.67
734.635	26604.91
734.976	26730.55
735.317	26598.58
735.658	26667.05
735.999	26717.22
736.339	26511.58
736.68	26671.57
737.021	26597.9
737.361	26434.74
737.702	26692.59
738.042	26680.16
738.383	26519.26
738.723	26583.44
739.063	26599.26
739.404	26565.13
739.744	26453.73
740.084	26450.79
740.424	26460.5
740.764	26448.53
741.104	26416.89
741.444	26387.96
741.784	26439.04
742.124	26474.74
742.464	26371.69
742.804	26390.22
743.143	26404.46
743.483	26198.36
743.823	26206.95
744.162	26317.46
744.502	26408.3
744.841	26299.83
745.181	26327.17
745.52	26216.67
745.86	26342.77
746.199	26204.24
746.538	26221.64
746.877	26357
747.216	26273.17
747.556	26060.06
747.895	26079.95
748.234	26154.52
748.573	26100.06
748.911	26000.86
749.25	26047.18
749.589	25998.82
749.928	25981.2
750.267	25990.69
750.605	25887.41
750.944	25818.71
751.283	25796.12
751.621	25853.97
751.96	25799.28
752.298	25858.03
752.636	25844.48
752.975	25714.99
753.313	25551.38
753.651	25722.67
753.989	25510.25
754.327	25490.59
754.666	25402.45
755.004	25507.76
755.342	25431.61
755.679	25387.09
756.017	25387.09
756.355	25464.15
756.693	25329.69
757.031	25244.04
757.368	25225.28
757.706	25248.56
758.044	24998.85
758.381	24979.41
758.719	24914.78
759.056	24902.81
759.394	24828.23
759.731	24779.42
760.068	24746.43
760.405	24745.75
760.743	24551.4
761.08	24633.21
761.417	24580.55
761.754	24437.96
762.091	24378.3
762.428	24364.29
762.765	24187.57
763.102	24364.97
763.438	24138.53
763.775	24105.54
764.112	24026.44
764.449	24119.32
764.785	23964.75
765.122	23787.13
765.458	23746.9
765.795	23655.83
766.131	23571.99
766.467	23547.59
766.804	23478.89
767.14	23370.87
767.476	23386.01
767.812	23203.64
768.148	23318.44
768.485	23068.5
768.821	22897.66
769.157	22946.7
769.492	22906.47
769.828	22927.94
770.164	22628.06
770.5	22686.14
770.836	22636.88
771.171	22459.71
771.507	22425.13
771.842	22261.29
772.178	22312.82
772.513	22219.71
772.849	22192.37
773.184	22015.88
773.519	22115.99
773.855	21993.5
774.19	21821.98
774.525	21793.73
774.86	21805.71
775.195	21625.15
775.53	21583.57
775.865	21520.07
776.2	21455.66
776.535	21266.52
776.87	21153.07
777.205	21199.85
777.539	20961.21
777.874	21183.81
778.209	20778.62
778.543	20715.12
778.878	20737.72
779.212	20756.93
779.547	20542.69
779.881	20634.67
780.215	20436.71
780.55	20542.69
780.884	20291.18
781.218	20234.91
781.552	20191.52
781.886	20154.91
782.22	19883.05
782.554	19983.39
782.888	19785.65
783.222	19715.6
783.556	19727.8
783.889	19669.27
784.223	19427.24
784.557	19505.89
784.89	19444.19
785.224	19387.47
785.557	19316.51
785.891	19279.22
786.224	19135.73
786.558	19127.59
786.891	19004.88
787.224	18936.41
787.557	18914.04
787.891	18919.69
788.224	18809.41
788.557	18870.65
788.89	18689.64
789.223	18673.59
789.556	18518.11
789.888	18446.25
790.221	18513.37
790.554	18316.54
790.887	18290.78
791.219	18156.54
791.552	18224.56
791.884	18035.64
792.217	18067.73
792.549	17980.05
792.882	17958.81
793.214	17813.73
793.546	17873.84
793.879	17755.42
794.211	17640.17
794.543	17714.29
794.875	17579.38
795.207	17602.43
795.539	17525.37
795.871	17488.31
796.203	17323.34
796.535	17276.57
796.867	17214.42
797.198	17201.99
797.53	17155.89
797.862	17067.98
798.193	17013.3
798.525	16944.37
798.856	17018.95
799.188	16857.59
799.519	16735.56
799.85	16669.35
800.182	16683.81
800.513	16653.98
800.844	16542.35
801.175	16530.6
801.506	16473.2
801.837	16529.69
802.168	16465.29
802.499	16353.2
802.83	16232.75
803.161	16139.42
803.491	16242.47
803.822	16086.09
804.153	16070.95
804.483	15996.15
804.814	15917.73
805.145	15946.66
805.475	15930.61
805.805	15912.31
806.136	15813.55
806.466	15926.54
806.796	15825.53
807.126	15576.27
807.457	15590.28
807.787	15619.66
808.117	15528.59
808.447	15497.86
808.777	15422.38
809.107	15433.22
809.436	15390.97
809.766	15373.34
810.096	15350.97
810.426	15297.63
810.755	15235.72
811.085	15249.95
811.414	15047.47
811.744	15045.44
812.073	15033.01
812.403	15117.75
812.732	14969.51
813.061	14915.27
813.39	14850.41
813.719	14857.87
814.049	14885.89
814.378	14819.91
814.707	14872.79
815.036	14746.91
815.365	14620.36
815.693	14490.2
816.022	14600.48
816.351	14512.12
816.68	14397.55
817.008	14439.13
817.337	14396.42
817.665	14266.93
817.994	14389.86
818.322	14254.27
818.651	14199.13
818.979	14157.78
819.307	14187.61
819.636	14203.2
819.964	14088.17
820.292	14152.13
820.62	14184.22
820.948	14105.35
821.276	14158.68
821.604	14132.24
821.932	14109.42
822.259	14057.67
822.587	14039.14
822.915	14020.15
823.243	14070.1
823.57	14018.8
823.898	14058.8
824.225	13982.87
824.553	14033.49
824.88	14017.67
825.207	14088.63
825.535	13975.41
825.862	14027.16
826.189	13983.09
826.516	14000.72
826.843	14071.45
827.17	14069.64
827.497	14039.59
827.824	14060.15
828.151	13986.03
828.478	14099.25
828.805	14089.53
829.131	14041.17
829.458	13973.15
829.785	13927.28
830.111	13927.5
830.438	14046.37
830.764	13900.16
831.09	14017.44
831.417	13934.05
831.743	13897.22
832.069	13928.18
832.395	13916.88
832.722	13956.43
833.048	13854.96
833.374	13956.43
833.7	13854.96
834.026	13930.44
834.351	13881.4
834.677	13855.86
835.003	13836.43
835.329	13799.37
835.654	13766.83
835.98	13723.44
836.306	13708.98
836.631	13685.93
836.956	13773.61
837.282	13733.61
837.607	13611.8
837.932	13579.26
838.258	13633.05
838.583	13549.21
838.908	13500.85
839.233	13596.66
839.558	13480.28
839.883	13432.82
840.208	13377.23
840.533	13408.64
840.858	13483.22
841.182	13483.44
841.507	13427.4
841.832	13367.29
842.156	13304.47
842.481	13286.16
842.805	13278.25
843.13	13267.86
843.454	13242.1
843.778	13174.75
844.103	13090.69
844.427	13085.49
844.751	13145.37
845.075	13037.35
845.399	13009.11
845.723	12963.01
846.047	12920.97
846.371	12767.31
846.695	12844.59
847.019	12714.43
847.343	12675.1
847.666	12602.79
847.99	12531.38
848.313	12495
848.637	12415.22
848.96	12424.72
849.284	12353.08
849.607	12339.75
849.931	12306.98
850.254	12238.73
850.577	12113.76
850.9	12123.93
851.223	12103.59
851.546	12046.87
851.869	11902.92
852.192	12012.75
852.515	11852.3
852.838	11860.21
853.161	11781.12
853.483	11785.41
853.806	11746.09
854.129	11776.37
854.451	11677.39
854.774	11571.18
855.096	11581.12
855.419	11559.65
855.741	11544.96
856.063	11472.65
856.385	11391.75
856.708	11384.07
857.03	11337.29
857.352	11330.73
857.674	11394.91
857.996	11255.25
858.318	11208.7
858.64	11267.46
858.961	11208.25
859.283	11168.03
859.605	11024.07
859.926	11150.17
860.248	11068.37
860.57	11049.61
860.891	11066.11
861.212	10986.56
861.534	10991.76
861.855	10889.16
862.176	10960.57
862.498	10957.18
862.819	10832.22
863.14	10815.94
863.461	10871.31
863.782	10824.98
864.103	10739.34
864.424	10727.81
864.745	10820.46
865.065	10649.85
865.386	10691.65
865.707	10628.83
866.027	10694.37
866.348	10680.81
866.668	10630.86
866.989	10584.31
867.309	10492.11
867.63	10582.96
867.95	10491.43
868.27	10453.47
868.59	10537.53
868.91	10399.46
869.23	10483.52
869.55	10470.42
869.87	10474.71
870.19	10425.9
870.51	10479.23
870.83	10387.03
871.15	10357.88
871.469	10369.63
871.789	10355.84
872.109	10295.28
872.428	10266.81
872.748	10241.5
873.067	10262.51
873.386	10279.46
873.706	10303.19
874.025	10163.98
874.344	10218.22
874.663	10185.45
874.982	10226.81
875.301	10175.28
875.62	10079.01
875.939	10150.88
876.258	10079.47
876.577	10018
876.896	10073.14
877.214	9967.83
877.533	9984.1
877.852	10027.72
878.17	10013.03
878.489	9997.21
878.807	9961.73
879.125	9874.73
879.444	9984.55
879.762	9935.97
880.08	9891
880.398	9832.92
880.716	9854.84
881.034	9769.64
881.352	9761.28
881.67	9793.37
881.988	9836.54
882.306	9817.55
882.624	9795.18
882.941	9738.91
883.259	9676.54
883.577	9611.46
883.894	9591.57
884.212	9609.65
884.529	9576.2
884.846	9541.18
885.164	9568.52
885.481	9538.69
885.798	9529.65
886.115	9489.43
886.432	9470.9
886.75	9435.64
887.067	9482.65
887.383	9377.56
887.7	9426.38
888.017	9312.93
888.334	9353.16
888.651	9364.23
888.967	9311.8
889.284	9193.16
889.6	9217.79
889.917	9155.42
890.233	9201.52
890.55	9104.13
890.866	9176.67
891.182	9087.63
891.498	9042.43
891.815	9019.16
892.131	8993.62
892.447	8952.04
892.763	8967.18
893.079	8954.3
893.395	8931.7
893.71	8919.95
894.026	8905.94
894.342	8859.61
894.657	8806.73
894.973	8774.19
895.289	8733.29
895.604	8738.03
895.92	8672.95
896.235	8629.34
896.55	8667.75
896.865	8648.77
897.181	8564.48
897.496	8550.47
897.811	8533.07
898.126	8533.07
898.441	8519.28
898.756	8403.13
899.071	8326.07
899.386	8425.5
899.7	8287.65
900.015	8284.03
900.33	8326.97
900.644	8222.79
900.959	8205.39
901.273	8200.19
901.588	8145.96
901.902	8075
902.216	8123.36
902.531	8119.07
902.845	8095.11
903.159	8031.84
903.473	8024.83
903.787	8024.83
904.101	7932.18
904.415	8011.72
904.729	7851.5
905.042	7868
905.356	7773.76
905.67	7787.55
905.984	7816.7
906.297	7749.13
906.611	7703.48
906.924	7647.21
907.237	7689.7
907.551	7609.02
907.864	7624.16
908.177	7593.2
908.491	7569.48
908.804	7552.98
909.117	7509.82
909.43	7447.67
909.743	7392.53
910.056	7430.95
910.368	7396.15
910.681	7301.23
910.994	7315.7
911.307	7246.77
911.619	7195.93
911.932	7196.6
912.244	7130.39
912.557	7146.66
912.869	7096.95
913.181	7092.88
913.494	7075.48
913.806	7078.19
914.118	7047.23
914.43	6971.53
914.742	6952.09
915.054	6845.65
915.366	6889.49
915.678	6816.73
915.99	6759.33
916.302	6741.25
916.613	6747.8
916.925	6765.66
917.236	6765.43
917.548	6678.65
917.859	6714.81
918.171	6641.36
918.482	6543.06
918.794	6551.88
919.105	6576.73
919.416	6519.56
919.727	6517.98
920.038	6530.86
920.349	6463.29
920.66	6394.59
920.971	6424.2
921.282	6391.65
921.593	6281.37
921.903	6380.81
922.214	6283.41
922.525	6289.28
922.835	6251.09
923.146	6174.26
923.456	6216.52
923.767	6154.82
924.077	6126.12
924.387	6102.85
924.697	6084.54
925.008	6070.98
925.318	5964.09
925.628	6034.38
925.938	5983.08
926.248	5968.61
926.558	5960.48
926.867	5981.95
927.177	5921.38
927.487	5881.38
927.796	5798.22
928.106	5845
928.416	5786.7
928.725	5750.77
929.034	5738.34
929.344	5762.29
929.653	5671.22
929.962	5659.7
930.271	5671.22
930.581	5594.39
930.89	5636.19
931.199	5619.92
931.508	5594.61
931.817	5565.01
932.125	5500.83
932.434	5536.08
932.743	5442.75
933.051	5489.53
933.36	5415.18
933.669	5339.7
933.977	5341.51
934.286	5309.65
934.594	5344.22
934.902	5293.38
935.21	5360.49
935.519	5258.58
935.827	5232.81
936.135	5187.17
936.443	5130.67
936.751	5133.38
937.059	5184.23
937.367	5113.95
937.674	5138.81
937.982	5073.95
938.29	5012.03
938.597	5030.11
938.905	5012.03
939.213	4945.59
939.52	4952.37
939.827	4905.14
940.135	4922.99
940.442	4868.08
940.749	4889.55
941.056	4922.54
941.363	4813.84
941.67	4815.42
941.977	4812.26
942.284	4760.28
942.591	4769.1
942.898	4744.47
943.205	4724.35
943.511	4685.03
943.818	4650.91
944.125	4642.1
944.431	4586.05
944.738	4590.12
945.044	4583.57
945.35	4534.75
945.657	4552.61
945.963	4534.98
946.269	4514.64
946.575	4488.65
946.881	4442.78
947.187	4497.24
947.493	4407.75
947.799	4410.69
948.105	4396.23
948.41	4336.11
948.716	4394.42
949.022	4342.22
949.327	4341.76
949.633	4327.08
949.938	4273.07
950.244	4264.25
950.549	4224.93
950.854	4281.88
951.16	4200.53
951.465	4213.86
951.77	4137.02
952.075	4138.83
952.38	4149
952.685	4145.16
952.99	4087.76
953.294	4094.99
953.599	4064.48
953.904	4010.02
954.209	3995.33
954.513	4034.65
954.818	4012.73
955.122	3972.96
955.426	3955.56
955.731	3946.29
956.035	3932.28
956.339	3921.21
956.643	3928.44
956.948	3897.93
957.252	3853.87
957.556	3901.55
957.86	3876.92
958.163	3856.35
958.467	3769.58
958.771	3792.17
959.075	3749.24
959.378	3751.27
959.682	3748.11
959.985	3724.83
960.289	3723.93
960.592	3690.71
960.896	3699.97
961.199	3668.11
961.502	3656.81
961.805	3651.61
962.108	3615.23
962.411	3613.42
962.714	3529.36
963.017	3528.9
963.32	3565.74
963.623	3485.52
963.926	3520.32
964.228	3512.86
964.531	3480.32
964.833	3500.2
965.136	3456.14
965.438	3441
965.741	3424.95
966.043	3396.25
966.345	3397.16
966.648	3433.54
966.95	3380.89
967.252	3353.99
967.554	3339.08
967.856	3339.3
968.158	3303.83
968.46	3328.68
968.761	3280.78
969.063	3282.58
969.365	3281
969.666	3266.76
969.968	3249.82
970.269	3218.4
970.571	3219.31
970.872	3165.98
971.174	3168.91
971.475	3165.3
971.776	3166.65
972.077	3125.75
972.378	3166.65
972.679	3092.98
972.98	3094.57
973.281	3092.76
973.582	3073.78
973.883	3042.82
974.183	3044.4
974.484	3036.71
974.785	3014.57
975.085	2996.49
975.386	2995.36
975.686	2958.52
975.986	2947
976.287	2983.83
976.587	2941.58
976.887	2896.38
977.187	2949.94
977.487	2926.66
977.787	2900.9
978.087	2872.42
978.387	2871.07
978.687	2869.26
978.987	2871.29
979.286	2831.97
979.586	2822.03
979.885	2812.31
980.185	2761.69
980.484	2771.18
980.784	2765.08
981.083	2732.99
981.382	2734.57
981.682	2709.04
981.981	2739.09
982.28	2701.36
982.579	2669.49
982.878	2704.75
983.177	2659.55
983.475	2638.98
983.774	2626.78
984.073	2596.5
984.372	2591.08
984.67	2575.48
984.969	2584.3
985.267	2590.62
985.566	2601.25
985.864	2551.53
986.162	2535.26
986.461	2571.42
986.759	2548.37
987.057	2492.32
987.355	2493.68
987.653	2514.92
987.951	2442.38
988.249	2470.4
988.547	2451.19
988.844	2448.93
989.142	2418.65
989.44	2403.96
989.737	2394.7
990.035	2398.31
990.332	2384.3
990.63	2373.91
990.927	2383.17
991.224	2366.68
991.521	2336.17
991.819	2340.69
992.116	2298.65
992.413	2309.73
992.71	2292.55
993.006	2265.21
993.303	2269.73
993.6	2276.06
993.897	2261.59
994.193	2271.08
994.49	2270.86
994.787	2236.06
995.083	2193.8
995.379	2213.91
995.676	2198.54
995.972	2214.36
996.268	2172.56
996.565	2159.9
996.861	2145.21
997.157	2146.34
997.453	2137.98
997.749	2143.18
998.044	2099.56
998.34	2086.23
998.636	2091.88
998.932	2088.72
999.227	2071.54
999.523	2030.64
999.818	2025.44
1000.114	2026.8
1000.409	2045.55
1000.704	2046.91
1001	2019.57
1001.295	2012.33
1001.59	2017.08
1001.885	1993.13
1002.18	1960.13
1002.475	1972.56
1002.77	1931.43
1003.065	1919.23
1003.359	1901.83
1003.654	1924.43
1003.949	1897.53
1004.243	1904.31
1004.538	1904.77
1004.832	1864.09
1005.127	1858.21
1005.421	1858.44
1005.715	1848.27
1006.009	1829.29
1006.304	1839.01
1006.598	1816.86
1006.892	1817.76
1007.186	1785
1007.48	1784.32
1007.773	1776.41
1008.067	1763.53
1008.361	1757.43
1008.655	1742.96
1008.948	1756.07
1009.242	1729.86
1009.535	1712.23
1009.829	1722.62
1010.122	1683.3
1010.415	1679.46
1010.708	1680.14
1011.001	1663.87
1011.295	1670.42
1011.588	1657.32
1011.881	1672.46
1012.173	1637.88
1012.466	1634.26
1012.759	1601.27
1013.052	1603.76
1013.344	1599.24
1013.637	1566.24
1013.93	1587.26
1014.222	1545.45
1014.514	1557.2
1014.807	1552.69
1015.099	1528.96
1015.391	1507.94
1015.683	1547.49
1015.976	1527.6
1016.268	1526.7
1016.56	1490.09
1016.851	1447.38
1017.143	1469.3
1017.435	1435.4
1017.727	1443.99
1018.018	1456.87
1018.31	1428.17
1018.602	1438.56
1018.893	1407.38
1019.185	1412.58
1019.476	1409.86
1019.767	1412.12
1020.058	1360.15
1020.35	1374.16
1020.641	1374.84
1020.932	1366.7
1021.223	1361.96
1021.514	1347.04
1021.804	1321.96
1022.095	1324.44
1022.386	1362.18
1022.677	1321.28
1022.967	1310.21
1023.258	1291.45
1023.548	1296.19
1023.839	1260.04
1024.129	1275.18
1024.419	1267.95
1024.709	1247.38
1025	1232.02
1025.29	1215.97
1025.58	1209.19
1025.87	1221.39
1026.16	1198.8
1026.449	1191.34
1026.739	1187.72
1027.029	1169.42
1027.319	1168.97
1027.608	1208.51
1027.898	1183.43
1028.187	1188.17
1028.477	1181.4
1028.766	1145.46
1029.055	1135.52
1029.344	1149.53
1029.634	1121.06
1029.923	1121.06
1030.212	1137.55
1030.501	1110.89
1030.79	1102.08
1031.078	1098.23
1031.367	1108.86
1031.656	1083.77
1031.945	1066.82
1032.233	1091.23
1032.522	1065.24
1032.81	1059.14
1033.099	1043.77
1033.387	1032.25
1033.675	1037.9
1033.963	1021.85
1034.251	1031.34
1034.54	1033.83
1034.828	990.67
1035.116	995.19
1035.403	977.33
1035.691	986.82
1035.979	985.24
1036.267	982.98
1036.554	985.47
1036.842	970.1
1037.129	931.01
1037.417	947.28
1037.704	928.97
1037.992	925.81
1038.279	919.93
1038.566	931.91
1038.853	931.91
1039.14	931.91
