Data from tablewood_dark_bookshelf_FLMS001491_00049.txt Node
Date: Wed Feb 08 14:14:49 GMT 2017
User: dcchb
Spectrometer: FLMS00149
Trigger mode: 0
Integration Time (sec): 2.000000E-2
Scans to average: 10
Electric dark correction enabled: true
Nonlinearity correction enabled: false
Boxcar width: 0
XAxis mode: Wavelengths
Number of Pixels in Spectrum: 2048
>>>>>Begin Spectral Data<<<<<
341.393	-18.52
341.776	-18.52
342.16	-18.52
342.543	-63.26
342.927	-79.31
343.31	-79.08
343.693	-61.68
344.077	-77.95
344.46	-71.85
344.843	-44.73
345.226	-30.95
345.61	-40.66
345.993	-29.82
346.376	-9.93
346.759	2.95
347.142	29.84
347.525	56.74
347.908	50.86
348.291	94.02
348.674	102.38
349.057	109.84
349.44	124.53
349.823	162.04
350.206	148.71
350.588	193
350.971	195.72
351.354	215.15
351.737	190.74
352.119	222.16
352.502	251.76
352.884	243.62
353.267	251.53
353.65	267.13
354.032	282.04
354.414	301.48
354.797	314.81
355.179	291.76
355.562	300.12
355.944	305.32
356.326	306.45
356.709	320.91
357.091	305.09
357.473	303.06
357.855	302.61
358.238	326.79
358.62	322.72
359.002	321.59
359.384	334.24
359.766	320.01
360.148	324.53
360.53	301.25
360.912	321.81
361.294	343.06
361.676	320.01
362.057	294.24
362.439	312.77
362.821	327.92
363.203	306.22
363.584	298.99
363.966	311.87
364.348	310.06
364.729	311.19
365.111	298.31
365.493	290.85
365.874	318.88
366.256	316.62
366.637	308.25
367.019	298.54
367.4	299.22
367.781	298.09
368.163	312.77
368.544	301.25
368.925	287.46
369.306	313.68
369.688	301.02
370.069	298.09
370.45	283.85
370.831	295.6
371.212	302.15
371.593	329.27
371.974	296.73
372.355	295.37
372.736	318.42
373.117	292.44
373.498	317.75
373.879	291.31
374.26	304.19
374.641	294.47
375.021	298.54
375.402	313.23
375.783	292.21
376.163	337.86
376.544	325.66
376.925	322.04
377.305	306.22
377.686	307.8
378.066	322.94
378.447	318.88
378.827	325.88
379.208	333.11
379.588	332.21
379.968	312.55
380.349	315.26
380.729	330.85
381.109	338.08
381.489	323.4
381.87	330.17
382.25	327.24
382.63	360.23
383.01	339.67
383.39	333.56
383.77	321.81
384.15	345.32
384.53	343.06
384.91	330.63
385.29	342.15
385.67	350.74
386.049	358.2
386.429	343.96
386.809	342.6
387.189	357.97
387.568	351.42
387.948	353.68
388.328	348.71
388.707	347.8
389.087	367.91
389.466	355.49
389.846	379.21
390.225	369.04
390.605	370.17
390.984	355.49
391.363	370.17
391.743	368.37
392.122	385.99
392.501	370.85
392.881	374.24
393.26	408.82
393.639	374.69
394.018	377.86
394.397	389.61
394.776	370.63
395.155	386.44
395.534	388.03
395.913	394.35
396.292	397.97
396.671	423.28
397.05	415.37
397.429	392.55
397.808	394.58
398.186	398.87
398.565	403.85
398.944	404.3
399.323	424.64
399.701	389.38
400.08	419.89
400.458	420.12
400.837	412.88
401.215	410.4
401.594	425.09
401.972	402.04
402.351	447.46
402.729	413.79
403.107	429.83
403.486	416.73
403.864	422.38
404.242	422.38
404.62	421.47
404.999	440.23
405.377	441.81
405.755	450.62
406.133	455.82
406.511	463.05
406.889	450.62
407.267	458.53
407.645	487.68
408.023	460.12
408.401	465.31
408.779	467.8
409.156	464.18
409.534	462.37
409.912	494.01
410.29	500.79
410.667	461.92
411.045	515.71
411.422	477.97
411.8	491.75
412.178	494.92
412.555	504.63
412.933	517.29
413.31	520
413.687	524.29
414.065	522.26
414.442	525.88
414.819	528.36
415.197	550.51
415.574	544.18
415.951	547.12
416.328	550.96
416.705	534.24
417.082	537.4
417.46	537.4
417.837	569.26
418.214	537.85
418.591	551.86
418.967	565.42
419.344	575.82
419.721	568.81
420.098	590.73
420.475	577.63
420.852	590.28
421.228	593.22
421.605	609.94
421.982	581.92
422.358	603.39
422.735	586.21
423.111	639.55
423.488	628.02
423.864	614.91
424.241	606.78
424.617	624.18
424.994	611.07
425.37	635.25
425.746	650.84
426.123	656.49
426.499	642.26
426.875	652.2
427.251	637.96
427.627	672.09
428.003	660.11
428.379	668.02
428.756	688.36
429.132	723.84
429.507	705.76
429.883	708.02
430.259	716.15
430.635	723.38
431.011	717.96
431.387	725.19
431.763	745.53
432.138	745.98
432.514	757.28
432.89	762.25
433.265	766.77
433.641	772.88
434.016	782.82
434.392	778.07
434.767	781.69
435.143	803.61
435.518	826.21
435.894	784.17
436.269	812.42
436.644	841.8
437.02	844.74
437.395	859.65
437.77	866.66
438.145	861.69
438.52	865.98
438.895	870.5
439.271	874.57
439.646	899.88
440.021	903.49
440.395	911.63
440.77	907.11
441.145	913.44
441.52	897.17
441.895	933.55
442.27	930.39
442.645	942.36
443.019	943.94
443.394	957.73
443.769	950.72
444.143	958.41
444.518	961.12
444.892	966.54
445.267	977.62
445.641	974.68
446.016	950.95
446.39	976.03
446.764	1016.48
447.139	1005.41
447.513	991.4
447.887	1026.88
448.262	1029.14
448.636	1000.21
449.01	1049.03
449.384	1048.12
449.758	1035.47
450.132	1051.06
450.506	1057.84
450.88	1070.72
451.254	1097.39
451.628	1086.77
452.002	1109.36
452.376	1106.88
452.75	1138.74
453.123	1102.81
453.497	1123.37
453.871	1155.24
454.244	1170.83
454.618	1142.81
454.992	1180.32
455.365	1207.44
455.739	1202.24
456.112	1171.96
456.486	1209.7
456.859	1236.82
457.232	1247.89
457.606	1259.64
457.979	1282.24
458.352	1280.66
458.725	1301.45
459.099	1324.27
459.472	1353.42
459.845	1350.94
460.218	1336.7
460.591	1343.71
460.964	1371.73
461.337	1430.26
461.71	1439.75
462.083	1439.75
462.456	1472.74
462.829	1443.14
463.201	1462.8
463.574	1463.03
463.947	1502.57
464.32	1521.1
464.692	1529.47
465.065	1571.27
465.438	1532.63
465.81	1562.68
466.183	1606.07
466.555	1657.15
466.928	1630.03
467.3	1646.07
467.672	1679.97
468.045	1729.01
468.417	1689.24
468.789	1705.51
469.161	1723.36
469.534	1761.32
469.906	1818.05
470.278	1792.74
470.65	1833.64
471.022	1882.68
471.394	1907.76
471.766	1925.61
472.138	1954.09
472.51	1980.98
472.882	1990.02
473.253	1997.25
473.625	2028.21
473.997	2067.08
474.369	2067.3
474.74	2094.2
475.112	2154.99
475.484	2175.55
475.855	2196.34
476.227	2232.72
476.598	2261.42
476.97	2304.36
477.341	2335.55
477.713	2405.15
478.084	2435.66
478.455	2465.26
478.827	2480.4
479.198	2573.05
479.569	2546.16
479.94	2606.27
480.311	2635.88
480.682	2685.14
481.053	2739.6
481.424	2819.15
481.795	2770.34
482.166	2872.03
482.537	2911.58
482.908	2939.15
483.279	2966.49
483.65	3024.79
484.021	3033.15
484.391	3099.59
484.762	3159.71
485.133	3178.24
485.503	3243.54
485.874	3248.74
486.244	3296.42
486.615	3383.43
486.985	3408.96
487.356	3491
487.726	3470.66
488.097	3560.37
488.467	3541.62
488.837	3595.17
489.207	3657.32
489.578	3749.29
489.948	3766.47
490.318	3822.74
490.688	3821.61
491.058	3880.36
491.428	3930.76
491.798	3982.96
492.168	4035.61
492.538	4056.63
492.908	4128.04
493.278	4150.41
493.648	4173.24
494.017	4209.62
494.387	4239.68
494.757	4313.8
495.126	4329.17
495.496	4348.6
495.866	4404.87
496.235	4443.74
496.605	4460.91
496.974	4443.51
497.344	4518.54
497.713	4615.26
498.082	4629.04
498.452	4656.61
498.821	4682.83
499.19	4707.23
499.559	4733
499.928	4782.26
500.298	4784.75
500.667	4885.08
501.036	4832.43
501.405	4885.31
501.774	4937.74
502.143	4940.22
502.512	4941.13
502.88	5010.05
503.249	5018.87
503.618	5103.61
503.987	5059.09
504.356	5124.63
504.724	5169.37
505.093	5180.22
505.462	5226.77
505.83	5250.72
506.199	5303.15
506.567	5405.3
506.936	5370.95
507.304	5474.67
507.672	5396.93
508.041	5453.88
508.409	5513.77
508.777	5604.16
509.145	5602.58
509.514	5647.55
509.882	5667.89
510.25	5653.88
510.618	5777.26
510.986	5767.09
511.354	5810.48
511.722	5861.33
512.09	5930.93
512.458	5923.02
512.826	5972.06
513.193	6010.25
513.561	6071.72
513.929	6105.16
514.297	6145.84
514.664	6230.81
515.032	6217.7
515.4	6293.41
515.767	6349
516.135	6365.72
516.502	6357.14
516.869	6468.77
517.237	6484.82
517.604	6459.05
517.972	6520.52
518.339	6584.02
518.706	6612.72
519.073	6650.91
519.44	6709.67
519.808	6770.46
520.175	6829.89
520.542	6898.82
520.909	6907.86
521.276	6958.25
521.643	7000.06
522.009	7008.87
522.376	7139.26
522.743	7142.88
523.11	7231.01
523.477	7355.98
523.843	7351.01
524.21	7449.99
524.577	7493.15
524.943	7455.64
525.31	7559.36
525.676	7604.56
526.043	7681.85
526.409	7694.05
526.776	7821.28
527.142	7868.96
527.508	7959.13
527.874	7968.17
528.241	8035.06
528.607	7990.99
528.973	8101.5
529.339	8063.98
529.705	8181.04
530.071	8268.5
530.437	8258.55
530.803	8321.6
531.169	8348.95
531.535	8400.47
531.901	8431.66
532.267	8410.41
532.632	8544.2
532.998	8563.18
533.364	8606.34
533.73	8578.55
534.095	8720.91
534.461	8715.72
534.826	8814.02
535.192	8793.91
535.557	8914.36
535.923	8885.66
536.288	8952.32
536.653	8972.66
537.019	8962.94
537.384	9009.04
537.749	9071.19
538.114	9046.78
538.479	9173.78
538.845	9231.86
539.21	9168.59
539.575	9256.27
539.94	9240.22
540.305	9267.12
540.67	9301.46
541.034	9323.61
541.399	9413.33
541.764	9397.28
542.129	9421.69
542.494	9455.58
542.858	9479.54
543.223	9532.19
543.587	9571.97
543.952	9628.46
544.316	9594.56
544.681	9635.92
545.045	9692.41
545.41	9738.74
545.774	9787.33
546.138	9834.56
546.503	9840.43
546.867	9841.79
547.231	9912.3
547.595	9928.57
547.959	9973.31
548.324	9970.83
548.688	10056.25
549.052	10071.39
549.416	10106.19
549.779	10131.27
550.143	10211.72
550.507	10246.75
550.871	10175.57
551.235	10230.48
551.599	10326.75
551.962	10361.55
552.326	10379.4
552.689	10504.37
553.053	10452.39
553.417	10418.27
553.78	10601.32
554.143	10558.61
554.507	10573.75
554.87	10718.15
555.234	10701.65
555.597	10692.61
555.96	10724.7
556.323	10841.54
556.686	10853.74
557.05	10913.63
557.413	10973.06
557.776	10933.06
558.139	11008.31
558.502	11124.69
558.865	11118.37
559.228	11306.61
559.59	11206.5
559.953	11237.46
560.316	11349.09
560.679	11298.25
561.041	11382.77
561.404	11532.82
561.767	11574.63
562.129	11546.83
562.492	11719.93
562.854	11753.6
563.217	11728.29
563.579	11713.15
563.941	11856.2
564.304	11940.72
564.666	12007.61
565.028	12035.4
565.39	12141.62
565.753	12126.02
566.115	12241.27
566.477	12290.09
566.839	12328.73
567.201	12389.74
567.563	12335.06
567.925	12462.29
568.287	12523.07
568.648	12529.85
569.01	12634.48
569.372	12694.6
569.734	12726.69
570.095	12816.4
570.457	12826.8
570.819	12915.83
571.18	12885.33
571.542	12974.59
571.903	13042.84
572.265	13087.58
572.626	13078.77
572.987	13228.82
573.349	13274.47
573.71	13322.6
574.071	13312.88
574.432	13364.41
574.794	13443.95
575.155	13479.66
575.516	13516.27
575.877	13543.84
576.238	13562.14
576.599	13685.98
576.96	13681.46
577.32	13772.53
577.681	13721.01
578.042	13824.96
578.403	13794.23
578.763	13901.8
579.124	13875.13
579.485	13954.45
579.845	13968.01
580.206	13997.61
580.566	14096.59
580.927	14058.63
581.287	14164.84
581.648	14147.21
582.008	14195.35
582.368	14193.54
582.728	14238.51
583.089	14233.31
583.449	14261.33
583.809	14372.97
584.169	14330.71
584.529	14321.67
584.889	14504.72
585.249	14417.04
585.609	14396.25
585.969	14515.11
586.329	14504.94
586.688	14490.48
587.048	14525.28
587.408	14628.1
587.768	14504.27
588.127	14540.65
588.487	14479.86
588.846	14677.82
589.206	14602.57
589.565	14584.94
589.925	14687.76
590.284	14544.94
590.643	14739.97
591.003	14779.29
591.362	14757.14
591.721	14886.18
592.08	14850.02
592.44	14879.4
592.799	14874.88
593.158	14825.39
593.517	14871.49
593.876	14872.84
594.235	14940.41
594.593	14951.71
594.952	14947.64
595.311	14869
595.67	14956.23
596.029	15068.09
596.387	15134.08
596.746	15112.84
597.104	15137.24
597.463	15085.04
597.822	15197.81
598.18	15083.23
598.538	15191.03
598.897	15230.12
599.255	15227.41
599.613	15397.35
599.972	15259.5
600.33	15285.26
600.688	15327.52
601.046	15327.29
601.404	15472.38
601.762	15419.5
602.12	15493.17
602.478	15484.58
602.836	15470.12
603.194	15455.43
603.552	15523.67
603.91	15386.5
604.268	15443.45
604.625	15448.42
604.983	15472.15
605.341	15534.29
605.698	15641.18
606.056	15597.12
606.413	15594.86
606.771	15738.58
607.128	15722.54
607.485	15651.81
607.843	15623.11
608.2	15713.95
608.557	15799.15
608.914	15746.94
609.272	15807.96
609.629	15940.16
609.986	15946.71
610.343	15931.35
610.7	16014.51
611.057	15927.5
611.414	15938.35
611.771	15961.63
612.127	16070.78
612.484	16059.03
612.841	16106.48
613.198	16039.37
613.554	16130.44
613.911	16129.99
614.267	16212.02
614.624	16147.61
614.98	16126.37
615.337	16266.71
615.693	16316.65
616.05	16184.45
616.406	16321.39
616.762	16184.45
617.118	16271.22
617.475	16262.64
617.831	16368.4
618.187	16430.77
618.543	16344.67
618.899	16516.87
619.255	16487.49
619.611	16407.72
619.967	16471.9
620.323	16528.85
620.678	16388.06
621.034	16347.38
621.39	16452.46
621.746	16490.43
622.101	16545.12
622.457	16462.41
622.812	16532.46
623.168	16582.63
623.523	16556.41
623.879	16570.2
624.234	16447.49
624.589	16494.72
624.945	16591.22
625.3	16577.21
625.655	16452.91
626.01	16571.33
626.365	16598.22
626.72	16600.93
627.075	16502.41
627.43	16502.86
627.785	16483.87
628.14	16541.73
628.495	16620.82
628.85	16567.94
629.205	16568.17
629.559	16512.8
629.914	16416.53
630.269	16515.29
630.623	16443.42
630.978	16490.43
631.332	16537.43
631.687	16571.1
632.041	16438.9
632.396	16492.01
632.75	16368.17
633.104	16492.69
633.459	16414.27
633.813	16342.18
634.167	16376.76
634.521	16404.33
634.875	16337.89
635.229	16322.3
635.583	16292.47
635.937	16167.72
636.291	16307.83
636.645	16291.11
636.999	16227.16
637.352	16310.09
637.706	16182.64
638.06	16191.23
638.413	16218.12
638.767	16024.68
639.121	16183.09
639.474	16121.4
639.828	16169.08
640.181	16090.66
640.534	16037.56
640.888	16047.5
641.241	15983.32
641.594	16008.41
641.947	15983.55
642.301	15955.3
642.654	16091.12
643.007	16023.77
643.36	16051.8
643.713	15939.26
644.066	15982.42
644.419	15983.32
644.771	15871.91
645.124	15672.37
645.477	15678.25
645.83	15582.66
646.182	15483.22
646.535	15496.78
646.888	15492.04
647.24	15276.9
647.593	15469.66
647.945	15369.33
648.298	15295.21
648.65	15281.87
649.002	15239.61
649.355	15302.89
649.707	15358.93
650.059	15456.78
650.411	15705.82
650.763	15605.48
651.115	15793.27
651.467	15720.28
651.819	15667.17
652.171	15674.4
652.523	15661.07
652.875	15679.6
653.227	15676.89
653.578	15711.24
653.93	15692.93
654.282	15447.97
654.633	15630.56
654.985	15544.24
655.337	15543.56
655.688	15494.97
656.039	15631.47
656.391	15445.26
656.742	15454.97
657.094	15500.62
657.445	15538.81
657.796	15561.41
658.147	15551.47
658.498	15535.65
658.849	15524.8
659.2	15382.66
659.551	15452.49
659.902	15576.55
660.253	15554.41
660.604	15591.24
660.955	15424.92
661.306	15570.23
661.656	15441.19
662.007	15523.9
662.358	15533.39
662.708	15569.77
663.059	15464.69
663.409	15423.34
663.76	15587.4
664.11	15502.21
664.461	15541.07
664.811	15518.02
665.161	15427.86
665.511	15398.25
665.862	15418.59
666.212	15500.17
666.562	15544.01
666.912	15473.73
667.262	15456.78
667.612	15468.31
667.962	15511.02
668.312	15397.12
668.662	15423.11
669.011	15516.44
669.361	15493.84
669.711	15452.72
670.06	15426.73
670.41	15366.62
670.76	15403.45
671.109	15422.21
671.459	15442.77
671.808	15310.35
672.157	15422.66
672.507	15287.52
672.856	15321.42
673.205	15362.77
673.554	15390.34
673.904	15314.87
674.253	15458.36
674.602	15359.16
674.951	15124.14
675.3	15054.76
675.649	15353.06
675.998	15317.13
676.346	15279.61
676.695	15271.03
677.044	15184.25
677.393	15295.21
677.741	15250.46
678.09	15245.04
678.438	15205.94
678.787	15203.68
679.135	15118.03
679.484	15231.7
679.832	15183.8
680.181	15127.07
680.529	15165.49
680.877	15120.29
681.225	15076
681.573	15148.32
681.922	15044.36
682.27	15018.38
682.618	14988.55
682.966	15026.06
683.314	15071.93
683.661	14941.54
684.009	14979.73
684.357	14877.14
684.705	14776.12
685.053	14865.84
685.4	14875.78
685.748	14788.1
686.095	14762.34
686.443	14711.27
686.79	14653.64
687.138	14693.41
687.485	14669.01
687.832	14560.54
688.18	14617.26
688.527	14537.71
688.874	14635.11
689.221	14584.04
689.568	14483.7
689.915	14452.74
690.262	14488.45
690.609	14519.18
690.956	14360.54
691.303	14394.66
691.65	14320.32
691.997	14324.16
692.344	14181.34
692.69	14247.78
693.037	14166.87
693.383	14089.36
693.73	14121.22
694.077	14011.85
694.423	14102.02
694.769	13951.51
695.116	13948.8
695.462	13958.97
695.808	13976.37
696.155	13979.53
696.501	13910.16
696.847	13868.35
697.193	13763.49
697.539	13733.66
697.885	13676.26
698.231	13674
698.577	13652.99
698.923	13663.61
699.269	13614.57
699.614	13529.38
699.96	13540
700.306	13505.42
700.651	13365.99
700.997	13362.6
701.342	13304.52
701.688	13381.81
702.033	13267.01
702.379	13245.99
702.724	13222.04
703.069	13227.01
703.415	13095.71
703.76	13022.95
704.105	13087.13
704.45	13012.55
704.795	13008.94
705.14	12893.46
705.485	12913.57
705.83	12949.73
706.175	12850.52
706.52	12865.21
706.865	12750.64
707.209	12779.57
707.554	12792.22
707.899	12778.21
708.243	12693.69
708.588	12698.21
708.932	12650.75
709.277	12670.42
709.621	12657.53
709.966	12556.29
710.31	12675.61
710.654	12572.56
710.998	12505.22
711.342	12556.29
711.687	12505.22
712.031	12482.4
712.375	12374.38
712.719	12412.57
713.063	12364.43
713.407	12363.08
713.75	12274.04
714.094	12363.08
714.438	12232.69
714.782	12269.07
715.125	12296.87
715.469	12313.81
715.812	12142.07
716.156	12169.19
716.499	12191.78
716.843	12169.86
717.186	12042.18
717.53	12150.2
717.873	12206.47
718.216	12058
718.559	12082.86
718.902	11987.95
719.246	12057.1
719.589	12046.03
719.932	11950.66
720.275	11908.4
720.617	11988.4
720.96	11878.12
721.303	11939.36
721.646	11966.71
721.989	11862.53
722.331	11785.01
722.674	11909.08
723.016	11800.16
723.359	11868.63
723.701	11876.54
724.044	11815.3
724.386	11745.47
724.729	11834.73
725.071	11738.01
725.413	11675.64
725.755	11791.34
726.097	11648.52
726.439	11609.88
726.782	11611.91
727.124	11720.61
727.465	11608.07
727.807	11642.65
728.149	11636.09
728.491	11658.24
728.833	11618.92
729.175	11515.64
729.516	11575.98
729.858	11538.92
730.199	11561.52
730.541	11549.54
730.882	11540.05
731.224	11534.17
731.565	11505.93
731.906	11537.56
732.248	11558.81
732.589	11422.99
732.93	11423.22
733.271	11456.44
733.612	11442.43
733.953	11547.06
734.294	11518.36
734.635	11383.9
734.976	11465.48
735.317	11446.49
735.658	11368.75
735.999	11384.57
736.339	11431.8
736.68	11363.56
737.021	11405.36
737.361	11299.15
737.702	11398.36
738.042	11321.52
738.383	11330.11
738.723	11345.48
739.063	11289.89
739.404	11298.02
739.744	11321.98
740.084	11334.18
740.424	11366.04
740.764	11347.74
741.104	11352.94
741.444	11323.11
741.784	11239.04
742.124	11283.11
742.464	11243.79
742.804	11347.06
743.143	11282.66
743.483	11224.58
743.823	11278.59
744.162	11139.83
744.502	11231.81
744.841	11157.46
745.181	11239.04
745.52	11197.69
745.86	11105.48
746.199	11235.42
746.538	11183.9
746.877	11197.46
747.216	11069.55
747.556	11121.08
747.895	11154.75
748.234	11121.53
748.573	11123.11
748.911	11036.11
749.25	11053.06
749.589	11100.51
749.928	11116.33
750.267	11135.54
750.605	11059.16
750.944	11056.67
751.283	11008.76
751.621	11098.48
751.96	10982.78
752.298	10942.1
752.636	11020.06
752.975	10991.14
753.313	10949.33
753.651	10996.79
753.989	10911.59
754.327	10887.64
754.666	10836.79
755.004	10868.43
755.342	10882.21
755.679	10877.92
756.017	10830.24
756.355	10830.69
756.693	10762.44
757.031	10780.3
757.368	10726.29
757.706	10684.25
758.044	10746.62
758.381	10681.32
758.719	10627.76
759.056	10647.87
759.394	10615.55
759.731	10590.24
760.068	10589.34
760.405	10578.49
760.743	10521.77
761.08	10545.05
761.417	10433.19
761.754	10409.91
762.091	10430.47
762.428	10460.08
762.765	10398.84
763.102	10392.06
763.438	10363.36
763.775	10351.83
764.112	10276.13
764.449	10266.18
764.785	10271.38
765.122	10120.88
765.458	10093.99
765.795	10089.92
766.131	10006.98
766.467	10054.67
766.804	9976.93
767.14	9928.79
767.476	9972.41
767.812	9898.96
768.148	9914.56
768.485	9828
768.821	9767.67
769.157	9759.98
769.492	9718.85
769.828	9812.41
770.164	9646.99
770.5	9657.16
770.836	9628.69
771.171	9574.45
771.507	9544.4
771.842	9480.44
772.178	9445.19
772.513	9441.8
772.849	9431.63
773.184	9372.2
773.519	9377.85
773.855	9379.2
774.19	9322.25
774.525	9258.98
774.86	9290.17
775.195	9306.66
775.53	9173.33
775.865	9104.63
776.2	9063.96
776.535	9007.23
776.87	9019.66
777.205	8971.08
777.539	8966.11
777.874	9028.7
778.209	9027.8
778.543	8858.76
778.878	8838.88
779.212	8829.16
779.547	8784.87
779.881	8793
780.215	8731.54
780.55	8733.12
780.884	8701.48
781.218	8682.72
781.552	8652.67
781.886	8633.91
782.22	8590.52
782.554	8516.63
782.888	8489.06
783.222	8412.22
783.556	8357.76
783.889	8329.06
784.223	8304.88
784.557	8294.26
784.89	8322.06
785.224	8258.33
785.557	8219.69
785.891	8187.6
786.224	8183.3
786.558	8129.74
786.891	8100.82
787.224	8076.41
787.557	7977.21
787.891	8064.21
788.224	7988.28
788.557	7956.87
788.89	7937.88
789.223	7921.84
789.556	7879.13
789.888	7884.55
790.221	7808.85
790.554	7808.85
790.887	7736.08
791.219	7721.84
791.552	7720.72
791.884	7688.63
792.217	7659.7
792.549	7587.16
792.882	7533.83
793.214	7527.73
793.546	7609.31
793.879	7537.44
794.211	7460.61
794.543	7510.1
794.875	7422.87
795.207	7418.12
795.539	7391.46
795.871	7417.67
796.203	7311.69
796.535	7345.36
796.867	7280.27
797.198	7222.42
797.53	7268.52
797.862	7161.18
798.193	7206.38
798.525	7220.39
798.856	7174.97
799.188	7094.97
799.519	7053.16
799.85	7029.21
800.182	7062.2
800.513	7043.44
800.844	7020.85
801.175	7013.16
801.506	7033.73
801.837	6947.4
802.168	7003.45
802.499	6840.51
802.83	6877.35
803.161	6888.65
803.491	6900.4
803.822	6879.38
804.153	6833.28
804.483	6736.33
804.814	6749.22
805.145	6743.11
805.475	6738.14
805.805	6691.14
806.136	6690.69
806.466	6695.66
806.796	6671.93
807.126	6630.12
807.457	6645.49
807.787	6692.04
808.117	6529.79
808.447	6576.79
808.777	6578.15
809.107	6526.62
809.436	6566.85
809.766	6528.88
810.096	6495.21
810.426	6487.08
810.755	6439.39
811.085	6451.6
811.414	6377.93
811.744	6382.67
812.073	6369.11
812.403	6383.35
812.732	6312.62
813.061	6306.97
813.39	6215.44
813.719	6293.18
814.049	6366.63
814.378	6255.22
814.707	6254.31
815.036	6220.19
815.365	6157.59
815.693	6115.11
816.022	6196.46
816.351	6122.79
816.68	6118.72
817.008	6082.57
817.337	6023.13
817.665	6022.23
817.994	6083.92
818.322	6040.76
818.651	6037.14
818.979	5940.87
819.307	6047.09
819.636	6015.68
819.964	6033.3
820.292	5996.47
820.62	6007.77
820.948	5942.91
821.276	5917.6
821.604	5956.02
821.932	6007.09
822.259	5955.11
822.587	5961.44
822.915	5882.8
823.243	5930.93
823.57	5901.78
823.898	5906.3
824.225	5918.95
824.553	5896.58
824.88	5902.01
825.207	5929.8
825.535	5918.5
825.862	5953.3
826.189	5949.01
826.516	5922.57
826.843	5934.1
827.17	5946.3
827.497	5943.81
827.824	5897.94
828.151	5960.08
828.478	5908.79
828.805	5883.02
829.131	5888.67
829.458	5914.43
829.785	5870.14
830.111	5940.65
830.438	5906.98
830.764	5881.44
831.09	5870.59
831.417	5899.75
831.743	5904.72
832.069	5871.27
832.395	5860.65
832.722	5885.28
833.048	5897.03
833.374	5914.66
833.7	5866.98
834.026	5821.1
834.351	5868.33
834.677	5867.43
835.003	5862.46
835.329	5789.92
835.654	5858.62
835.98	5780.2
836.306	5844.83
836.631	5766.42
836.956	5771.39
837.282	5848
837.607	5788.56
837.932	5712.41
838.258	5762.12
838.583	5759.41
838.908	5717.6
839.233	5733.87
839.558	5702.69
839.883	5700.66
840.208	5678.96
840.533	5656.14
840.858	5682.8
841.182	5673.54
841.507	5608.68
841.832	5607.55
842.156	5572.07
842.481	5597.83
842.805	5545.86
843.13	5566.42
843.454	5527.33
843.778	5541.56
844.103	5544.5
844.427	5509.02
844.751	5547.44
845.075	5487.55
845.399	5490.04
845.723	5436.03
846.047	5483.03
846.371	5422.02
846.695	5410.72
847.019	5442.81
847.343	5366.88
847.666	5293.43
847.99	5304.96
848.313	5342.25
848.637	5300.21
848.96	5262.02
849.284	5244.4
849.607	5233.77
849.931	5219.99
850.254	5131.4
850.577	5137.96
850.9	5127.34
851.223	5132.76
851.546	5099.32
851.869	5080.11
852.192	5136.15
852.515	5057.51
852.838	5022.93
853.161	5043.05
853.483	5010.73
853.806	4979.77
854.129	4977.96
854.451	4981.58
854.774	4987.68
855.096	4905.65
855.419	4918.98
855.741	4910.62
856.063	4851.41
856.385	4865.2
856.708	4867.68
857.03	4845.54
857.352	4862.26
857.674	4792.2
857.996	4791.3
858.318	4775.93
858.64	4805.99
858.961	4788.36
859.283	4817.74
859.605	4718.31
859.926	4738.19
860.248	4721.7
860.57	4727.35
860.891	4719.21
861.212	4667.91
861.534	4695.26
861.855	4698.42
862.176	4613.68
862.498	4642.38
862.819	4650.51
863.14	4626.79
863.461	4599.22
863.782	4554.92
864.103	4604.64
864.424	4621.59
864.745	4615.94
865.065	4511.53
865.386	4582.49
865.707	4580.91
866.027	4612.1
866.348	4560.57
866.668	4579.78
866.989	4545.43
867.309	4536.62
867.63	4537.3
867.95	4495.72
868.27	4524.64
868.59	4515.6
868.91	4491.2
869.23	4516.96
869.55	4457.75
869.87	4486.22
870.19	4476.73
870.51	4457.52
870.83	4433.12
871.15	4448.71
871.469	4439.9
871.789	4450.97
872.109	4391.31
872.428	4447.13
872.748	4440.35
873.067	4421.37
873.386	4410.52
873.706	4348.15
874.025	4384.31
874.344	4398.54
874.663	4408.03
874.982	4415.72
875.301	4385.66
875.62	4359.67
875.939	4386.34
876.258	4328.94
876.577	4362.84
876.896	4365.1
877.214	4320.8
877.533	4328.71
877.852	4317.87
878.17	4308.15
878.489	4302.27
878.807	4340.92
879.125	4259.79
879.444	4292.33
879.762	4278.09
880.08	4319.22
880.398	4283.74
880.716	4288.71
881.034	4246.23
881.352	4287.13
881.67	4250.52
881.988	4244.65
882.306	4223.41
882.624	4235.83
882.941	4220.47
883.259	4226.57
883.577	4177.53
883.894	4227.25
884.212	4154.48
884.529	4170.53
884.846	4171.43
885.164	4133.24
885.481	4135.72
885.798	4139.57
886.115	4130.08
886.432	4090.75
886.75	4142.73
887.067	4143.86
887.383	4059.12
887.7	4093.24
888.017	4056.63
888.334	4051.21
888.651	4080.58
888.967	4038.55
889.284	3971.44
889.6	4020.47
889.917	4002.85
890.233	4024.32
890.55	4036.07
890.866	3994.94
891.182	3940.48
891.498	3973.02
891.815	3924.2
892.131	3921.72
892.447	3911.78
892.763	3923.75
893.079	3959.68
893.395	3925.11
893.71	3913.58
894.026	3897.54
894.342	3874.71
894.657	3879.46
894.973	3919.01
895.289	3840.59
895.604	3873.81
895.92	3835.85
896.235	3793.13
896.55	3821.38
896.865	3812.34
897.181	3807.82
897.496	3761.95
897.811	3756.53
898.126	3738.45
898.441	3761.95
898.756	3774.15
899.071	3735.74
899.386	3687.83
899.7	3656.42
900.015	3690.31
900.33	3643.53
900.644	3643.99
900.959	3643.08
901.273	3661.61
901.588	3656.19
901.902	3629.52
902.216	3585.23
902.531	3602.41
902.845	3588.17
903.159	3604.44
903.473	3542.97
903.787	3546.59
904.101	3533.71
904.415	3522.41
904.729	3524.22
905.042	3519.24
905.356	3495.97
905.67	3491.9
905.984	3491.9
906.297	3458.91
906.611	3444.22
906.924	3444.22
907.237	3450.32
907.551	3437.89
907.864	3422.97
908.177	3413.71
908.491	3384.33
908.804	3354.5
909.117	3373.94
909.43	3286.71
909.743	3333.49
910.056	3337.1
910.368	3287.39
910.681	3345.01
910.994	3289.65
911.307	3259.36
911.619	3253.04
911.932	3231.12
912.244	3239.03
912.557	3240.83
912.869	3234.51
913.181	3170.55
913.494	3217.78
913.806	3201.96
914.118	3175.98
914.43	3129.42
914.742	3155.19
915.054	3164.22
915.366	3142.3
915.678	3116.54
915.99	3081.52
916.302	3128.52
916.613	3086.71
916.925	3080.39
917.236	3074.96
917.548	3058.24
917.859	3042.65
918.171	3032.7
918.482	3011.23
918.794	3039.26
919.105	3006.94
919.416	2969.43
919.727	2959.26
920.038	2989.09
920.349	2937.34
920.66	2981.18
920.971	2911.58
921.282	2944.8
921.593	2911.8
921.903	2936.89
922.214	2921.29
922.525	2896.44
922.835	2860.96
923.146	2866.61
923.456	2876.32
923.767	2815.53
924.077	2827.28
924.387	2836.1
924.697	2843.1
925.008	2801.52
925.318	2817.12
925.628	2783.9
925.938	2798.13
926.248	2739.15
926.558	2750.68
926.867	2729.21
927.177	2704.12
927.487	2722.88
927.796	2693.05
928.106	2704.8
928.416	2700.73
928.725	2669.32
929.034	2667.97
929.344	2663.45
929.653	2655.76
929.962	2653.05
930.271	2641.53
930.581	2613.05
930.89	2585.71
931.199	2608.31
931.508	2608.31
931.817	2589.32
932.125	2570.79
932.434	2568.99
932.743	2539.83
933.051	2553.85
933.36	2527.63
933.669	2531.25
933.977	2540.74
934.286	2514.98
934.594	2518.82
934.902	2521.76
935.21	2484.02
935.519	2490.57
935.827	2472.04
936.135	2479.72
936.443	2432.94
936.751	2418.03
937.059	2424.13
937.367	2439.5
937.674	2413.06
937.982	2448.54
938.29	2396.56
938.597	2416.67
938.905	2372.83
939.213	2370.57
939.52	2351.36
939.827	2383.91
940.135	2350.01
940.442	2326.28
940.749	2334.42
941.056	2336.22
941.363	2327.86
941.67	2332.16
941.977	2267.75
942.284	2250.12
942.591	2267.98
942.898	2260.07
943.205	2235.66
943.511	2262.33
943.818	2248.99
944.125	2242.89
944.431	2283.8
944.738	2242.67
945.044	2213.74
945.35	2190.24
945.657	2184.14
945.963	2211.71
946.269	2195.44
946.575	2196.34
946.881	2163.8
947.187	2169.22
947.493	2160.64
947.799	2140.3
948.105	2122.67
948.41	2141.43
948.716	2132.61
949.022	2155.44
949.327	2086.29
949.633	2112.95
949.938	2107.08
950.244	2074.76
950.549	2045.38
950.854	2041.09
951.16	2025.05
951.465	2044.71
951.77	2058.49
952.075	2029.79
952.38	2022.33
952.685	2016.46
952.99	2001.09
953.294	2013.07
953.599	1989.11
953.904	1946.63
954.209	2004.03
954.513	1992.73
954.818	1963.8
955.122	1974.43
955.426	1978.27
955.731	1928.33
956.035	1938.04
956.339	1953.64
956.643	1899.63
956.948	1918.38
957.252	1904.82
957.556	1911.83
957.86	1905.5
958.163	1906.18
958.467	1922
958.771	1903.01
959.075	1880.42
959.378	1869.8
959.682	1864.15
959.985	1832.51
960.289	1850.59
960.592	1855.56
960.896	1858.04
961.199	1839.06
961.502	1834.54
961.805	1814.43
962.108	1802.45
962.411	1830.7
962.714	1798.16
963.017	1791.38
963.32	1785.5
963.623	1764.71
963.926	1779.4
964.228	1755
964.531	1770.14
964.833	1759.06
965.136	1720.87
965.438	1726.3
965.741	1724.26
966.043	1739.4
966.345	1731.04
966.648	1704.38
966.95	1727.65
967.252	1714.77
967.554	1704.6
967.856	1677.48
968.158	1673.42
968.46	1655.34
968.761	1683.13
969.063	1663.47
969.365	1677.71
969.666	1661.67
969.968	1646.07
970.269	1626.19
970.571	1677.94
970.872	1651.72
971.174	1637.49
971.475	1655.11
971.776	1626.86
972.077	1610.37
972.378	1596.81
972.679	1619.41
972.98	1619.63
973.281	1599.97
973.582	1590.03
973.883	1577.83
974.183	1583.02
974.484	1557.49
974.785	1555.45
975.085	1524.95
975.386	1545.51
975.686	1560.2
975.986	1541.44
976.287	1515.23
976.587	1512.97
976.887	1540.76
977.187	1514.55
977.487	1539.18
977.787	1507.32
978.087	1506.64
978.387	1536.7
978.687	1510.93
978.987	1474.78
979.286	1474.1
979.586	1469.13
979.885	1477.49
980.185	1478.85
980.484	1430.26
980.784	1445.17
981.083	1476.13
981.382	1435.23
981.682	1439.75
981.981	1447.43
982.28	1454.21
982.579	1402.69
982.878	1409.69
983.177	1413.08
983.475	1402.69
983.774	1394.55
984.073	1407.89
984.372	1384.38
984.67	1380.54
984.969	1392.75
985.267	1375.35
985.566	1365.63
985.864	1384.61
986.162	1357.49
986.461	1363.59
986.759	1330.37
987.057	1325.18
987.355	1367.44
987.653	1369.47
987.951	1329.7
988.249	1318.4
988.547	1319.98
988.844	1306.19
989.142	1321.11
989.44	1293.31
989.737	1304.39
990.035	1308.45
990.332	1319.98
990.63	1265.74
990.927	1250.83
991.224	1264.61
991.521	1273.43
991.819	1263.71
992.116	1261.45
992.413	1263.71
992.71	1253.99
993.006	1262.58
993.303	1231.17
993.6	1216.03
993.897	1210.15
994.193	1240.43
994.49	1209.93
994.787	1213.77
995.083	1203.82
995.379	1219.87
995.676	1196.37
995.972	1209.47
996.268	1214.45
996.565	1180.55
996.861	1184.62
997.157	1172.19
997.453	1164.96
997.749	1157.72
998.044	1134.45
998.34	1164.05
998.636	1167.89
998.932	1184.84
999.227	1125.63
999.523	1127.44
999.818	1112.3
1000.114	1140.78
1000.409	1112.75
1000.704	1144.16
1001	1097.16
1001.295	1098.29
1001.59	1093.77
1001.885	1111.4
1002.18	1116.14
1002.475	1098.06
1002.77	1079.76
1003.065	1114.11
1003.359	1083.83
1003.654	1069.59
1003.949	1071.85
1004.243	1084.05
1004.538	1053.77
1004.832	1072.08
1005.127	1055.13
1005.421	1038.4
1005.715	1049.03
1006.009	1041.12
1006.304	1034.79
1006.598	1037.95
1006.892	1024.39
1007.186	1027.56
1007.48	1033.43
1007.773	986.65
1008.067	1009.93
1008.361	1007.67
1008.655	993.66
1008.948	1002.25
1009.242	983.04
1009.535	949.37
1009.829	976.03
1010.122	969.71
1010.415	971.51
1010.708	954.34
1011.001	981.23
1011.295	956.15
1011.588	944.17
1011.881	930.16
1012.173	955.47
1012.466	929.71
1012.759	923.38
1013.052	917.28
1013.344	917.05
1013.637	941.01
1013.93	908.92
1014.222	915.02
1014.514	908.92
1014.807	933.77
1015.099	888.8
1015.391	881.35
1015.683	901.46
1015.976	880.44
1016.268	870.5
1016.56	861.69
1016.851	884.06
1017.143	881.8
1017.435	853.1
1017.727	860.56
1018.018	858.97
1018.31	861.01
1018.602	844.51
1018.893	843.38
1019.185	818.07
1019.476	830.05
1019.767	829.37
1020.058	830.27
1020.35	840.9
1020.641	806.09
1020.932	815.81
1021.223	811.74
1021.514	807.22
1021.804	805.42
1022.095	792.08
1022.386	804.29
1022.677	810.84
1022.967	800.9
1023.258	786.43
1023.548	789.6
1023.839	762.93
1024.129	753.44
1024.419	751.86
1024.709	765.42
1025	745.08
1025.29	778.98
1025.58	767.9
1025.87	744.4
1026.16	753.89
1026.449	760.22
1026.739	735.81
1027.029	748.24
1027.319	731.29
1027.608	727.45
1027.898	751.41
1028.187	719.09
1028.477	726.55
1028.766	725.19
1029.055	705.98
1029.344	698.07
1029.634	693.1
1029.923	694.23
1030.212	716.83
1030.501	706.89
1030.79	685.87
1031.078	690.39
1031.367	715.7
1031.656	688.81
1031.945	696.27
1032.233	675.93
1032.522	679.09
1032.81	658.98
1033.099	671.63
1033.387	671.86
1033.675	688.81
1033.963	638.87
1034.251	645.42
1034.54	660.34
1034.828	652.2
1035.116	643.16
1035.403	634.57
1035.691	602.48
1035.979	626.89
1036.267	627.79
1036.554	629.83
1036.842	642.03
1037.129	632.09
1037.417	616.72
1037.704	616.72
1037.992	604.07
1038.279	617.4
1038.566	583.5
1038.853	583.5
1039.14	583.5
