Data from tablewood_brown_FLMS001491_037.txt Node
Date: Tue Feb 07 11:10:23 GMT 2017
User: dcchb
Spectrometer: FLMS00149
Trigger mode: 0
Integration Time (sec): 2.000000E-2
Scans to average: 10
Electric dark correction enabled: true
Nonlinearity correction enabled: false
Boxcar width: 0
XAxis mode: Wavelengths
Number of Pixels in Spectrum: 2048
>>>>>Begin Spectral Data<<<<<
341.393	-17.53
341.776	-17.53
342.16	-17.53
342.543	-53.46
342.927	-69.05
343.31	-63.63
343.693	-65.66
344.077	-55.27
344.46	-86.45
344.843	-48.71
345.226	-44.65
345.61	-26.57
345.993	-9.17
346.376	-23.4
346.759	9.36
347.142	31.06
347.525	36.48
347.908	57.5
348.291	75.13
348.674	98.18
349.057	115.8
349.44	125.52
349.823	136.37
350.206	162.58
350.588	202.81
350.971	217.95
351.354	235.35
351.737	253.65
352.119	259.3
352.502	278.06
352.884	274.89
353.267	291.62
353.65	326.42
354.032	316.93
354.414	320.09
354.797	310.37
355.179	330.03
355.562	319.41
355.944	342.69
356.326	351.73
356.709	343.59
357.091	348.11
357.473	360.99
357.855	350.82
358.238	346.3
358.62	333.2
359.002	363.71
359.384	369.35
359.766	360.09
360.148	332.29
360.53	348.56
360.912	358.51
361.294	342.46
361.676	364.38
362.057	351.05
362.439	325.29
362.821	352.41
363.203	349.02
363.584	341.11
363.966	343.59
364.348	346.76
364.729	350.6
365.111	324.61
365.493	338.4
365.874	325.06
366.256	318.06
366.637	344.27
367.019	329.13
367.4	327.77
367.781	349.69
368.163	326.42
368.544	352.18
368.925	339.3
369.306	310.15
369.688	344.95
370.069	337.94
370.45	340.43
370.831	346.53
371.212	342.24
371.593	334.1
371.974	362.35
372.355	315.57
372.736	322.12
373.117	343.82
373.498	342.91
373.879	354.44
374.26	347.66
374.641	335.46
375.021	338.4
375.402	344.27
375.783	352.18
376.163	379.52
376.544	359.64
376.925	337.04
377.305	341.56
377.686	365.06
378.066	360.09
378.447	353.31
378.827	369.13
379.208	376.13
379.588	380.2
379.968	360.09
380.349	361.45
380.729	382.24
381.109	376.59
381.489	371.39
381.87	346.3
382.25	417.72
382.63	401.44
383.01	396.02
383.39	381.56
383.77	377.49
384.15	387.66
384.53	397.6
384.91	403.93
385.29	403.7
385.67	404.83
386.049	390.37
386.429	395.79
386.809	413.87
387.189	385.4
387.568	391.05
387.948	424.95
388.328	420.65
388.707	411.84
389.087	419.07
389.466	435.34
389.846	433.76
390.225	419.97
390.605	428.79
390.984	445.28
391.363	435.12
391.743	431.5
392.122	420.65
392.501	452.97
392.881	448.9
393.26	451.61
393.639	455.23
394.018	475.79
394.397	454.55
394.776	448
395.155	492.06
395.534	474.44
395.913	462.91
396.292	463.82
396.671	477.6
397.05	491.16
397.429	492.06
397.808	466.98
398.186	491.84
398.565	501.1
398.944	485.06
399.323	497.26
399.701	518.05
400.08	496.13
400.458	514.89
400.837	488.22
401.215	525.28
401.594	520.76
401.972	530.48
402.351	518.96
402.729	512.63
403.107	539.52
403.486	546.3
403.864	540.42
404.242	521.44
404.62	556.92
404.999	557.6
405.377	551.95
405.755	562.34
406.133	575.45
406.511	567.32
406.889	583.81
407.267	588.78
407.645	606.41
408.023	611.16
408.401	579.52
408.779	592.4
409.156	630.36
409.534	599.86
409.912	625.85
410.29	626.52
410.667	636.69
411.045	649.35
411.422	659.29
411.8	657.26
412.178	669.46
412.555	673.75
412.933	661.78
413.31	678.27
413.687	684.37
414.065	693.64
414.442	687.54
414.819	713.98
415.197	686.63
415.574	728.22
415.951	720.53
416.328	726.41
416.705	726.86
417.082	743.36
417.46	734.54
417.837	748.78
418.214	760.08
418.591	750.36
418.967	755.79
419.344	800.3
419.721	737.71
420.098	757.59
420.475	776.12
420.852	789
421.228	800.76
421.605	795.11
421.982	793.3
422.358	837.59
422.735	824.03
423.111	829.46
423.488	825.39
423.864	827.87
424.241	853.86
424.617	875.78
424.994	867.65
425.37	881.43
425.746	865.84
426.123	869.68
426.499	875.78
426.875	883.47
427.251	926.18
427.627	898.38
428.003	927.31
428.379	938.15
428.756	933.41
429.132	928.44
429.507	962.33
429.883	978.83
430.259	989.45
430.635	970.92
431.011	981.99
431.387	1012.73
431.763	1027.19
432.138	1039.62
432.514	1044.82
432.89	1058.6
433.265	1084.14
433.641	1071.94
434.016	1069.22
434.392	1088.88
434.767	1128.66
435.143	1151.48
435.518	1142.44
435.894	1141.09
436.269	1160.52
436.644	1165.27
437.02	1199.62
437.395	1175.21
437.77	1197.81
438.145	1224.02
438.52	1250.46
438.895	1227.86
439.271	1258.6
439.646	1252.04
440.021	1290.01
440.395	1265.6
440.77	1275.32
441.145	1310.8
441.52	1319.39
441.895	1312.83
442.27	1333.85
442.645	1340.63
443.019	1356.9
443.394	1339.5
443.769	1347.86
444.143	1359.16
444.518	1379.72
444.892	1382.66
445.267	1367.29
445.641	1421.98
446.016	1390.57
446.39	1403.23
446.764	1433.73
447.139	1431.47
447.513	1426.95
447.887	1455.88
448.262	1462.21
448.636	1475.31
449.01	1467.18
449.384	1492.26
449.758	1492.26
450.132	1490.91
450.506	1524.8
450.88	1543.34
451.254	1561.19
451.628	1572.49
452.002	1575.42
452.376	1596.67
452.75	1626.5
453.123	1615.2
453.497	1622.43
453.871	1665.14
454.244	1683.22
454.618	1658.36
454.992	1711.47
455.365	1737.91
455.739	1748.3
456.112	1777
456.486	1782.42
456.859	1774.29
457.232	1807.73
457.606	1817.9
457.979	1859.94
458.352	1868.07
458.725	1888.18
459.099	1867.39
459.472	1938.58
459.845	1962.53
460.218	1954.17
460.591	1982.42
460.964	2009.99
461.337	2036.88
461.71	2042.76
462.083	2060.61
462.456	2127.5
462.829	2111.23
463.201	2161.4
463.574	2159.82
463.947	2202.75
464.32	2263.77
464.692	2263.09
465.065	2297.44
465.438	2335.18
465.81	2385.12
466.183	2368.4
466.555	2413.59
466.928	2447.04
467.3	2454.72
467.672	2474.84
468.045	2547.38
468.417	2582.86
468.789	2570.2
469.161	2649.75
469.534	2675.96
469.906	2721.84
470.278	2761.38
470.65	2783.75
471.022	2828.95
471.394	2882.51
471.766	2951.89
472.138	2949.17
472.51	3016.52
472.882	3091.09
473.253	3101.94
473.625	3169.96
473.997	3270.75
474.369	3265.78
474.74	3309.84
475.112	3389.16
475.484	3454.7
475.855	3506.45
476.227	3566.33
476.598	3695.37
476.97	3705.54
477.341	3802.48
477.713	3876.83
478.084	3887.91
478.455	3997.51
478.827	4040.67
479.198	4157.5
479.569	4195.92
479.94	4289.48
480.311	4407.44
480.682	4514.78
481.053	4603.14
481.424	4650.15
481.795	4736.25
482.166	4799.52
482.537	4876.81
482.908	5011.04
483.279	5059.17
483.65	5180.3
484.021	5250.81
484.391	5317.7
484.762	5378.94
485.133	5490.12
485.503	5587.75
485.874	5669.55
486.244	5734.19
486.615	5825.93
486.985	5935.76
487.356	6036.1
487.726	6091.92
488.097	6216.43
488.467	6201.74
488.837	6382.3
489.207	6404.22
489.578	6539.81
489.948	6630.21
490.318	6717.66
490.688	6742.52
491.058	6858
491.428	6929.18
491.798	7025
492.168	7123.98
492.538	7190.19
492.908	7287.14
493.278	7392.9
493.648	7363.52
494.017	7563.52
494.387	7603.74
494.757	7698.2
495.126	7777.75
495.496	7786.33
495.866	7896.84
496.235	7936.39
496.605	8020.23
496.974	8051.41
497.344	8102.03
497.713	8208.92
498.082	8308.58
498.452	8333.44
498.821	8457.73
499.19	8464.74
499.559	8546.99
499.928	8642.81
500.298	8683.71
500.667	8761
501.036	8773.88
501.405	8912.63
501.774	8870.37
502.143	8966.19
502.512	8997.38
502.88	9102.68
503.249	9159.86
503.618	9208.67
503.987	9302
504.356	9302.68
504.724	9388.78
505.093	9426.52
505.462	9550.13
505.83	9575.44
506.199	9646.62
506.567	9713.06
506.936	9756.23
507.304	9880.52
507.672	9946.05
508.041	10051.81
508.409	10063.11
508.777	10164.35
509.145	10273.5
509.514	10248.42
509.882	10437.11
510.25	10497.9
510.618	10541.29
510.986	10634.62
511.354	10666.49
511.722	10695.86
512.09	10852.02
512.458	10914.84
512.826	10973.82
513.193	11151.9
513.561	11169.97
513.929	11315.73
514.297	11368.16
514.664	11409.06
515.032	11507.37
515.4	11643.18
515.767	11666.68
516.135	11810.18
516.502	11713.92
516.869	11948.94
517.237	12006.56
517.604	11980.12
517.972	12186.45
518.339	12304.41
518.706	12323.62
519.073	12439.77
519.44	12495.82
519.808	12684.74
520.175	12708.69
520.542	12881.57
520.909	12968.12
521.276	12977.84
521.643	13129.25
522.009	13229.13
522.376	13321.33
522.743	13448.11
523.11	13619.4
523.477	13778.27
523.843	13843.58
524.21	13947.98
524.577	14053.51
524.943	14171.93
525.31	14251.48
525.676	14368.76
526.043	14438.14
526.409	14557.23
526.776	14652.14
527.142	14689.88
527.508	14866.15
527.874	15057.1
528.241	15084.67
528.607	15153.15
528.973	15364.44
529.339	15316.31
529.705	15521.27
530.071	15600.59
530.437	15692.12
530.803	15766.01
531.169	15837.87
531.535	15899.57
531.901	15955.16
532.267	16020.69
532.632	16174.36
532.998	16308.82
533.364	16329.61
533.73	16341.36
534.095	16530.96
534.461	16603.96
534.826	16690.06
535.192	16822.93
535.557	16896.38
535.923	16902.48
536.288	17027.9
536.653	17095.92
537.019	17088.24
537.384	17139.99
537.749	17224.05
538.114	17437.38
538.479	17365.97
538.845	17438.28
539.21	17390.15
539.575	17476.48
539.94	17568.9
540.305	17740.2
540.67	17829.46
541.034	17821.55
541.399	17898.84
541.764	17877.59
542.129	18089.11
542.494	18069
542.858	18131.15
543.223	18092.5
543.587	18294.53
543.952	18238.94
544.316	18321.43
544.681	18273.97
545.045	18415.21
545.41	18638.48
545.774	18665.82
546.138	18729.55
546.503	18787.63
546.867	18779.04
547.231	19060.84
547.595	18950.11
547.959	19073.27
548.324	19082.99
548.688	19198.01
549.052	19357.1
549.416	19328.63
549.779	19384.9
550.143	19375.18
550.507	19537.66
550.871	19687.04
551.235	19699.92
551.599	19870.08
551.962	19955.28
552.326	20025.79
552.689	20075.5
553.053	20168.83
553.417	20273.46
553.78	20454.93
554.143	20427.13
554.507	20527.24
554.87	20718.2
555.234	20953.9
555.597	20859.66
555.96	21104.85
556.323	21084.52
556.686	21227.11
557.05	21457.39
557.413	21442.7
557.776	21627.1
558.139	21891.27
558.502	21911.84
558.865	22051.5
559.228	22192.06
559.59	22281.09
559.953	22436.12
560.316	22750.46
560.679	22711.37
561.041	22927.41
561.404	23101.64
561.767	23355.42
562.129	23277.23
562.492	23615.75
562.854	23706.14
563.217	23760.38
563.579	23869.3
563.941	24055.51
564.304	24222.06
564.666	24477.42
565.028	24582.28
565.39	24735.27
565.753	24968.71
566.115	25053.68
566.477	25245.31
566.839	25328.92
567.201	25624.74
567.563	25768.23
567.925	26013.2
568.287	26101.11
568.648	26155.57
569.01	26400.53
569.372	26697.93
569.734	26659.51
570.095	26856.12
570.457	27172.27
570.819	27255.2
571.18	27348.31
571.542	27596.89
571.903	27639.37
572.265	27974.05
572.626	27950.55
572.987	28227.61
573.349	28431.44
573.71	28640.93
574.071	28735.84
574.432	28863.97
574.794	29167.92
575.155	29293.79
575.516	29157.98
575.877	29412.88
576.238	29575.14
576.599	29677.28
576.96	29851.74
577.32	29956.83
577.681	30184.39
578.042	30344.39
578.403	30293.54
578.763	30459.64
579.124	30602.46
579.485	30924.94
579.845	31006.06
580.206	30962.45
580.566	31149.11
580.927	31204.25
581.287	31416.9
581.648	31316.34
582.008	31531.02
582.368	31578.7
582.728	31658.25
583.089	31683.33
583.449	31623.67
583.809	31905.93
584.169	31874.52
584.529	32059.14
584.889	32228.63
585.249	32014.17
585.609	32068.18
585.969	32234.05
586.329	32199.25
586.688	32312.7
587.048	32307.72
587.408	32342.07
587.768	32370.1
588.127	32434.05
588.487	32528.28
588.846	32731.44
589.206	32540.26
589.565	32658
589.925	32765.11
590.284	32772.8
590.643	32862.96
591.003	32727.15
591.362	33027.03
591.721	32972.57
592.08	32995.16
592.44	33146.35
592.799	33140.7
593.158	33013.24
593.517	33057.53
593.876	33088.72
594.235	33033.81
594.593	33124.43
594.952	33123.07
595.311	33144.76
595.67	33234.71
596.029	33250.75
596.387	33495.04
596.746	33485.77
597.104	33360.8
597.463	33308.83
597.822	33536.84
598.18	33447.36
598.538	33453.23
598.897	33741.81
599.255	33373.23
599.613	33827.91
599.972	33613.9
600.33	33744.07
600.688	33583.62
601.046	33586.33
601.404	33849.6
601.762	33777.97
602.12	33959.43
602.478	33844.41
602.836	33899.55
603.194	33734.35
603.552	33741.81
603.91	33814.35
604.268	33913.56
604.625	33761.47
604.983	34008.7
605.341	33942.94
605.698	34052.31
606.056	34204.4
606.413	34023.61
606.771	34304.28
607.128	34184.28
607.485	34045.53
607.843	34109.26
608.2	34333.21
608.557	34352.19
608.914	34236.71
609.272	34441.68
609.629	34371.85
609.986	34462.92
610.343	34422.24
610.7	34632.18
611.057	34566.65
611.414	34513.77
611.771	34702.92
612.127	34871.05
612.484	34819.52
612.841	34937.71
613.198	34864.04
613.554	34839.41
613.911	35090.02
614.267	35066.3
614.624	34972.74
614.98	34935.68
615.337	35147.65
615.693	35120.53
616.05	35111.94
616.406	35196.01
616.762	35231.94
617.118	35156.01
617.475	35148.1
617.831	35295.89
618.187	35380.64
618.543	35325.05
618.899	35478.04
619.255	35416.12
619.611	35275.56
619.967	35441.88
620.323	35519.62
620.678	35335.21
621.034	35488.43
621.39	35313.75
621.746	35389.22
622.101	35800.74
622.457	35638.26
622.812	35683.23
623.168	35639.61
623.523	35608.88
623.879	35760.74
624.234	35485.95
624.589	35543.57
624.945	35684.13
625.3	35667.64
625.655	35626.73
626.01	35689.78
626.365	35647.98
626.72	35740.85
627.075	35652.49
627.43	35577.02
627.785	35504.02
628.14	35495.89
628.495	35550.58
628.85	35546.96
629.205	35490.69
629.559	35617.24
629.914	35391.94
630.269	35572.27
630.623	35360.07
630.978	35409.79
631.332	35537.02
631.687	35542.67
632.041	35405.5
632.396	35380.86
632.75	35261.54
633.104	35376.12
633.459	35279.4
633.813	35205.5
634.167	35129.12
634.521	35279.62
634.875	35196.46
635.229	35017.71
635.583	34838.73
635.937	35044.6
636.291	34944.72
636.645	35076.46
636.999	34698.85
637.352	34814.1
637.706	34740.2
638.06	34874.66
638.413	34697.27
638.767	34783.37
639.121	34845.96
639.474	34608.23
639.828	34642.8
640.181	34769.35
640.534	34629.47
640.888	34341.57
641.241	34504.95
641.594	34490.72
641.947	34433.54
642.301	34317.39
642.654	34439.65
643.007	34411.4
643.36	34353.55
643.713	34356.48
644.066	34281.68
644.419	34170.73
644.771	34075.36
645.124	33671.3
645.477	33713.34
645.83	33464.76
646.182	33203.29
646.535	33234.93
646.888	33297.75
647.24	33074.26
647.593	33325.1
647.945	33380.01
648.298	33140.24
648.65	32947.03
649.002	32947.71
649.355	33096.86
649.707	33094.37
650.059	33036.74
650.411	33485.09
650.763	33506.34
651.115	33867
651.467	33750.4
651.819	33827.68
652.171	33784.07
652.523	33727.8
652.875	33738.42
653.227	33680.34
653.578	33877.4
653.93	33709.95
654.282	33537.75
654.633	33521.93
654.985	33679.67
655.337	33582.94
655.688	33731.42
656.039	33683.06
656.391	33462.27
656.742	33540.91
657.094	33647.8
657.445	33529.84
657.796	33597.18
658.147	33428.6
658.498	33444.64
658.849	33592.66
659.2	33556.5
659.551	33443.97
659.902	33524.19
660.253	33396.96
660.604	33566.67
660.955	33411.2
661.306	33563.28
661.656	33440.35
662.007	33498.88
662.358	33386.79
662.708	33476.96
663.059	33302.5
663.409	33373.23
663.76	33402.61
664.11	33390.63
664.461	33476.28
664.811	33429.5
665.161	33383.63
665.511	33345.21
665.862	33440.35
666.212	33478.09
666.562	33429.05
666.912	33338.66
667.262	33299.11
667.612	33381.82
667.962	33359
668.312	33324.87
668.662	33495.94
669.011	33276.74
669.361	33397.64
669.711	33321.93
670.06	33198.32
670.41	33126.69
670.76	33168.49
671.109	33352.22
671.459	33167.59
671.808	33130.3
672.157	33149.74
672.507	33021.6
672.856	32943.87
673.205	32928.27
673.554	33105.9
673.904	32845.11
674.253	33210.53
674.602	32943.19
674.951	32548.17
675.3	32373.03
675.649	32941.38
675.998	32854.6
676.346	32821.83
676.695	32901.15
677.044	32691.89
677.393	32866.35
677.741	32827.26
678.09	32670.43
678.438	32698.9
678.787	32681.27
679.135	32610.77
679.484	32449.87
679.832	32506.14
680.181	32189.76
680.529	32443.99
680.877	32283.77
681.225	32187.73
681.573	32494.16
681.922	32303.43
682.27	32144.11
682.618	32228.63
682.966	32081.29
683.314	32196.99
683.661	31985.02
684.009	31864.8
684.357	31762.65
684.705	31667.29
685.053	31764.24
685.4	31712.71
685.748	31660.74
686.095	31555.43
686.443	31362.21
686.79	31362.21
687.138	31519.04
687.485	31300.97
687.832	31274.76
688.18	31234.76
688.527	31239.28
688.874	31188.43
689.221	31096.46
689.568	30855.78
689.915	30826.86
690.262	30821.89
690.609	30732.4
690.956	30626.86
691.303	30554.55
691.65	30460.99
691.997	30359.75
692.344	30167.22
692.69	30126.76
693.037	30203.15
693.383	29896.26
693.73	30014.9
694.077	29813.55
694.423	29780.11
694.769	29627.34
695.116	29563.62
695.462	29472.77
695.808	29407.01
696.155	29450.17
696.501	29322.49
696.847	29237.97
697.193	28948.49
697.539	28942.39
697.885	28835.95
698.231	28607.48
698.577	28664.66
698.923	28749.63
699.269	28585.11
699.614	28405.45
699.96	28318.68
700.306	28316.64
700.651	28238.9
700.997	28080.72
701.342	28054.95
701.688	28089.98
702.033	27882.98
702.379	27814.06
702.724	27744.23
703.069	27827.39
703.415	27436.67
703.76	27473.05
704.105	27405.48
704.45	27408.87
704.795	27143.57
705.14	27215.43
705.485	27073.29
705.83	27035.32
706.175	27031.25
706.52	26935.21
706.865	26866.74
707.209	26798.04
707.554	26625.84
707.899	26759.4
708.243	26612.28
708.588	26525.05
708.932	26263.14
709.277	26343.81
709.621	26314.44
709.966	26211.61
710.31	26293.87
710.654	26031.28
710.998	26033.99
711.342	26026.76
711.687	25867.89
712.031	25754
712.375	25714
712.719	25852.53
713.063	25636.94
713.407	25726.43
713.75	25674.9
714.094	25570.95
714.438	25449.6
714.782	25415.7
715.125	25339.09
715.469	25346.78
715.812	25184.75
716.156	25165.31
716.499	25195.59
716.843	25178.87
717.186	25050.06
717.53	25196.5
717.873	25144.3
718.216	25157.4
718.559	25029.27
718.902	24874.25
719.246	25019.1
719.589	24856.85
719.932	24794.25
720.275	24726.91
720.617	24778.43
720.96	24756.96
721.303	24732.33
721.646	24803.74
721.989	24615.04
722.331	24684.65
722.674	24575.05
723.016	24561.26
723.359	24562.39
723.701	24573.46
724.044	24403.98
724.386	24305.67
724.729	24431.32
725.071	24401.49
725.413	24283.3
725.755	24439.68
726.097	24237.88
726.439	24243.08
726.782	24198.11
727.124	24366.01
727.465	24265
727.807	24112.46
728.149	24098.45
728.491	24140.93
728.833	24246.02
729.175	24068.39
729.516	23981.16
729.858	24093.93
730.199	24076.53
730.541	24116.3
730.882	23881.05
731.224	23972.8
731.565	23912.46
731.906	23970.32
732.248	23947.04
732.589	23886.48
732.93	23850.32
733.271	23795.18
733.612	23969.86
733.953	23867.27
734.294	23901.84
734.635	23846.25
734.976	23845.8
735.317	23694.84
735.658	23736.65
735.999	23811
736.339	23743.2
736.68	23835.86
737.021	23811
737.361	23580.04
737.702	23864.56
738.042	23765.58
738.383	23767.38
738.723	23867.04
739.063	23738.46
739.404	23775.29
739.744	23740.27
740.084	23702.98
740.424	23598.12
740.764	23739.36
741.104	23735.97
741.444	23533.04
741.784	23575.75
742.124	23631.12
742.464	23518.58
742.804	23492.59
743.143	23488.75
743.483	23561.74
743.823	23479.48
744.162	23471.57
744.502	23497.11
744.841	23454.17
745.181	23508.18
745.52	23413.72
745.86	23599.93
746.199	23490.55
746.538	23413.95
746.877	23615.75
747.216	23556.99
747.556	23435.87
747.895	23529.2
748.234	23458.69
748.573	23476.77
748.911	23313.61
749.25	23286.49
749.589	23337.11
749.928	23378.69
750.267	23259.37
750.605	23267.51
750.944	23319.26
751.283	23262.54
751.621	23232.26
751.96	23115.2
752.298	23172.6
752.636	23195.2
752.975	23086.05
753.313	23011.02
753.651	23130.56
753.989	22996.1
754.327	22920.4
754.666	22783.45
755.004	22910.68
755.342	22991.58
755.679	22923.79
756.017	22837.01
756.355	22767.18
756.693	22747.75
757.031	22745.94
757.368	22562.9
757.706	22607.64
758.044	22648.77
758.381	22608.77
758.719	22550.24
759.056	22563.35
759.394	22449.68
759.731	22374.43
760.068	22321.09
760.405	22277.03
760.743	22233.64
761.08	22202.68
761.417	22124.94
761.754	22042.91
762.091	22013.31
762.428	21963.14
762.765	21818.73
763.102	21858.06
763.438	21813.99
763.775	21679.53
764.112	21678.62
764.449	21668.23
764.785	21553.2
765.122	21537.84
765.458	21413.55
765.795	21344.17
766.131	21315.92
766.467	21225.08
766.804	21168.58
767.14	21128.36
767.476	21083.61
767.812	21035.7
768.148	21030.05
768.485	20976.04
768.821	20803.62
769.157	20750.51
769.492	20735.15
769.828	20727.92
770.164	20481.14
770.5	20395.04
770.836	20360.92
771.171	20359.11
771.507	20366.34
771.842	20151.89
772.178	20164.09
772.513	20054.71
772.849	20021.72
773.184	19938.11
773.519	19975.84
773.855	19679.81
774.19	19756.42
774.525	19698.79
774.86	19581.28
775.195	19580.83
775.53	19416.54
775.865	19499.47
776.2	19313.94
776.535	19129.09
776.87	19222.42
777.205	19069.88
777.539	19088.64
777.874	19069.88
778.209	18811.13
778.543	18790.34
778.878	18725.48
779.212	18752.6
779.547	18565.03
779.881	18626.05
780.215	18526.39
780.55	18523.23
780.884	18396.45
781.218	18319.62
781.552	18376.79
781.886	18193.74
782.22	18182.9
782.554	18101.32
782.888	17929.57
783.222	17888.22
783.556	17775
783.889	17743.59
784.223	17638.28
784.557	17654.55
784.89	17589.24
785.224	17564.38
785.557	17488.9
785.891	17412.3
786.224	17430.83
786.558	17330.72
786.891	17201.45
787.224	17064.73
787.557	17186.99
787.891	17175.69
788.224	17106.77
788.557	16922.14
788.89	16931.41
789.223	16944.29
789.556	16765.76
789.888	16773.9
790.221	16670.4
790.554	16592.43
790.887	16537.29
791.219	16560.57
791.552	16437.41
791.884	16356.28
792.217	16256.39
792.549	16262.72
792.882	16156.06
793.214	16090.52
793.546	16141.14
793.879	16093.91
794.211	15962.17
794.543	16013.46
794.875	15919.91
795.207	15925.78
795.539	15862.96
795.871	15826.35
796.203	15718.56
796.535	15640.37
796.867	15627.48
797.198	15577.09
797.53	15568.28
797.862	15535.51
798.193	15464.1
798.525	15367.15
798.856	15409.64
799.188	15258.45
799.519	15167.38
799.85	15088.52
800.182	15078.8
800.513	15084.67
800.844	15021.4
801.175	15060.04
801.506	15038.12
801.837	14907.73
802.168	14854.17
802.499	14839.93
802.83	14758.35
803.161	14691.92
803.491	14638.36
803.822	14651.01
804.153	14665.7
804.483	14473.16
804.814	14577.34
805.145	14412.38
805.475	14430.68
805.805	14359.72
806.136	14375.31
806.466	14335.32
806.796	14342.09
807.126	14263.68
807.457	14172.38
807.787	14203.79
808.117	14075.21
808.447	14012.84
808.777	14038.83
809.107	13979.84
809.436	13928.32
809.766	13967.19
810.096	13920.64
810.426	13837.25
810.755	13991.82
811.085	13802.67
811.414	13835.89
811.744	13647.2
812.073	13693.52
812.403	13618.27
812.732	13538.95
813.061	13608.33
813.39	13487.88
813.719	13443.59
814.049	13500.99
814.378	13432.29
814.707	13403.14
815.036	13439.07
815.365	13302.57
815.693	13158.85
816.022	13162.92
816.351	13168.79
816.68	13143.03
817.008	13130.6
817.337	13032.3
817.665	12986.88
817.994	13030.26
818.322	13093.77
818.651	12928.35
818.979	12906.88
819.307	12947.1
819.636	12854.45
819.964	12789.37
820.292	12851.29
820.62	12839.54
820.948	12771.51
821.276	12811.51
821.604	12767.45
821.932	12759.54
822.259	12834.34
822.587	12788.24
822.915	12657.85
823.243	12782.81
823.57	12737.17
823.898	12758.41
824.225	12682.25
824.553	12753.44
824.88	12758.18
825.207	12765.64
825.535	12779.2
825.862	12784.85
826.189	12782.36
826.516	12790.27
826.843	12838.18
827.17	12824.85
827.497	12736.26
827.824	12756.15
828.151	12787.11
828.478	12676.15
828.805	12734.68
829.131	12713.89
829.458	12712.53
829.785	12631.86
830.111	12708.69
830.438	12813.1
830.764	12734.45
831.09	12732.87
831.417	12556.6
831.743	12718.18
832.069	12708.01
832.395	12643.38
832.722	12657.17
833.048	12668.92
833.374	12615.59
833.7	12567
834.026	12565.42
834.351	12537.4
834.677	12515.48
835.003	12566.1
835.329	12551.18
835.654	12448.36
835.98	12524.52
836.306	12484.52
836.631	12421.47
836.956	12528.13
837.282	12453.1
837.607	12392.54
837.932	12396.38
838.258	12396.16
838.583	12393.45
838.908	12326.33
839.233	12381.47
839.558	12348.47
839.883	12250.85
840.208	12274.13
840.533	12270.06
840.858	12235.71
841.182	12175.82
841.507	12258.08
841.832	12137.86
842.156	12122.72
842.481	12129.5
842.805	12044.98
843.13	12084.07
843.454	12057.18
843.778	11937.86
844.103	11925.44
844.427	11924.31
844.751	11878.43
845.075	11905.77
845.399	11845.89
845.723	11697.64
846.047	11832.78
846.371	11674.37
846.695	11740.81
847.019	11572
847.343	11606.12
847.666	11497.2
847.99	11375.17
848.313	11407.26
848.637	11320.03
848.96	11339.91
849.284	11260.37
849.607	11230.54
849.931	11237.77
850.254	11219.24
850.577	11049.98
850.9	11012.46
851.223	11028.28
851.546	10960.49
851.869	10903.32
852.192	10964.33
852.515	10878.91
852.838	10797.78
853.161	10794.84
853.483	10707.16
853.806	10660.16
854.129	10660.84
854.451	10611.57
854.774	10546.04
855.096	10435.98
855.419	10460.16
855.741	10471.01
856.063	10344.46
856.385	10430.79
856.708	10382.42
857.03	10329.54
857.352	10317.34
857.674	10321.64
857.996	10387.17
858.318	10238.47
858.64	10285.25
858.961	10211.81
859.283	10172.49
859.605	10134.52
859.926	10161.19
860.248	10123
860.57	10055.65
860.891	10073.96
861.212	10032.38
861.534	9993.06
861.855	9975.43
862.176	9912.15
862.498	9953.96
862.819	9948.99
863.14	9943.79
863.461	9864.02
863.782	9841.42
864.103	9822.89
864.424	9771.82
864.745	9864.25
865.065	9760.75
865.386	9695.21
865.707	9689.79
866.027	9716.23
866.348	9633.97
866.668	9718.71
866.989	9655.66
867.309	9586.29
867.63	9614.76
867.95	9602.78
868.27	9517.14
868.59	9559.17
868.91	9543.12
869.23	9552.16
869.55	9550.58
869.87	9541.54
870.19	9522.79
870.51	9478.49
870.83	9532.28
871.15	9473.3
871.469	9529.57
871.789	9538.38
872.109	9467.42
872.428	9382.9
872.748	9393.98
873.067	9380.19
873.386	9389.23
873.706	9364.15
874.025	9299.06
874.344	9262.23
874.663	9301.78
874.982	9312.17
875.301	9236.24
875.62	9250.25
875.939	9271.95
876.258	9249.12
876.577	9138.16
876.896	9195.79
877.214	9227.2
877.533	9217.03
877.852	9164.15
878.17	9140.65
878.489	9096.13
878.807	9115.79
879.125	9059.52
879.444	9056.13
879.762	9061.1
880.08	9101.55
880.398	8982.24
880.716	8981.78
881.034	9046.19
881.352	8978.17
881.67	8932.07
881.988	8984.04
882.306	8926.42
882.624	8880.09
882.941	8883.26
883.259	8824.73
883.577	8846.19
883.894	8795.8
884.212	8788.57
884.529	8727.1
884.846	8683.94
885.164	8667.44
885.481	8669.7
885.798	8765.74
886.115	8601.91
886.432	8715.35
886.75	8631.06
887.067	8636.03
887.383	8639.42
887.7	8599.65
888.017	8552.64
888.334	8553.32
888.651	8528.91
888.967	8474
889.284	8415.24
889.6	8421.8
889.917	8365.3
890.233	8448.01
890.55	8424.51
890.866	8393.55
891.182	8326.89
891.498	8249.83
891.815	8302.71
892.131	8280.79
892.447	8252.31
892.763	8145.65
893.079	8207.57
893.395	8157.4
893.71	8142.94
894.026	8114.69
894.342	8125.76
894.657	8022.03
894.973	8045.99
895.289	8065.42
895.604	8011.64
895.92	7965.31
896.235	7939.78
896.55	7947.23
896.865	7856.62
897.181	7889.61
897.496	7787.69
897.811	7811.87
898.126	7751.99
898.441	7694.36
898.756	7698.2
899.071	7703.63
899.386	7679.9
899.7	7614.81
900.015	7612.78
900.33	7531.88
900.644	7538.66
900.959	7552.89
901.273	7512.44
901.588	7466.57
901.902	7493.01
902.216	7424.54
902.531	7445.55
902.845	7391.54
903.159	7328.95
903.473	7289.4
903.787	7311.55
904.101	7339.79
904.415	7217.76
904.729	7145
905.042	7168.72
905.356	7182.28
905.67	7105.9
905.984	7167.14
906.297	7037.88
906.611	7086.01
906.924	7013.02
907.237	7029.97
907.551	6965.34
907.864	6901.16
908.177	6928.96
908.491	6971.22
908.804	6890.31
909.117	6847.83
909.43	6812.12
909.743	6789.52
910.056	6785.01
910.368	6750.66
910.681	6725.12
910.994	6687.15
911.307	6653.94
911.619	6629.98
911.932	6631.34
912.244	6590.21
912.557	6625.46
912.869	6559.02
913.181	6540.04
913.494	6503.66
913.806	6464.34
914.118	6412.59
914.43	6365.36
914.742	6433.38
915.054	6335.3
915.366	6307.96
915.678	6316.09
915.99	6251.69
916.302	6237
916.613	6225.7
916.925	6203.55
917.236	6147.96
917.548	6144.12
917.859	6153.16
918.171	6067.06
918.482	6097.11
918.794	6072.26
919.105	6074.29
919.416	6022.31
919.727	5981.64
920.038	6012.37
920.349	5984.57
920.66	5910
920.971	5877.68
921.282	5875.42
921.593	5842.66
921.903	5783.22
922.214	5801.75
922.525	5722.43
922.835	5719.04
923.146	5687.86
923.456	5677.92
923.767	5656
924.077	5605.15
924.387	5625.26
924.697	5569.67
925.008	5578.94
925.318	5590.23
925.628	5554.08
925.938	5517.02
926.248	5458.94
926.558	5425.49
926.867	5441.54
927.177	5409.22
927.487	5430.46
927.796	5341.65
928.106	5395.66
928.416	5316.34
928.725	5333.97
929.034	5305.04
929.344	5284.25
929.653	5261.66
929.962	5216.01
930.271	5177.36
930.581	5169.68
930.89	5139.62
931.199	5082.9
931.508	5087.2
931.817	5107.08
932.125	5055.79
932.434	5058.95
932.743	5000.42
933.051	5006.97
933.36	5006.97
933.669	4926.3
933.977	4928.56
934.286	4973.3
934.594	4905.51
934.902	4874.77
935.21	4822.57
935.519	4832.29
935.827	4758.84
936.135	4825.06
936.443	4769.46
936.751	4688.11
937.059	4734.44
937.367	4715
937.674	4718.84
937.982	4675.91
938.29	4638.62
938.597	4645.17
938.905	4590.94
939.213	4583.93
939.52	4536.7
939.827	4543.03
940.135	4529.92
940.442	4498.74
940.749	4540.09
941.056	4483.6
941.363	4430.04
941.67	4416.48
941.977	4404.05
942.284	4389.36
942.591	4359.31
942.898	4395.46
943.205	4327.44
943.511	4344.39
943.818	4300.1
944.125	4313.21
944.431	4281.34
944.738	4247.67
945.044	4261
945.35	4268.69
945.657	4226.65
945.963	4176.03
946.269	4164.74
946.575	4152.53
946.881	4078.64
947.187	4110.95
947.493	4132.42
947.799	4060.11
948.105	4038.18
948.41	4000.45
948.716	4004.74
949.022	3974.46
949.327	4017.17
949.633	3941.92
949.938	3941.46
950.244	3950.05
950.549	3920.67
950.854	3909.6
951.16	3896.04
951.465	3851.07
951.77	3865.31
952.075	3812.65
952.38	3849.04
952.685	3804.97
952.99	3789.6
953.294	3754.8
953.599	3758.64
953.904	3755.71
954.209	3701.7
954.513	3720.9
954.818	3691.08
955.122	3650.85
955.426	3663.73
955.731	3633.22
956.035	3603.39
956.339	3637.74
956.643	3562.27
956.948	3586.45
957.252	3532.44
957.556	3550.74
957.86	3546.22
958.163	3538.76
958.467	3519.78
958.771	3507.8
959.075	3476.17
959.378	3471.65
959.682	3468.71
959.985	3463.96
960.289	3427.35
960.592	3396.39
960.896	3383.06
961.199	3381.7
961.502	3396.39
961.805	3391.65
962.108	3347.81
962.411	3273.91
962.714	3309.62
963.017	3342.38
963.32	3321.37
963.623	3231.2
963.926	3237.3
964.228	3261.93
964.531	3259.45
964.833	3208.38
965.136	3177.42
965.438	3182.61
965.741	3176.51
966.043	3190.98
966.345	3119.11
966.648	3135.16
966.95	3117.53
967.252	3081.37
967.554	3095.84
967.856	3081.37
968.158	3079.11
968.46	3041.15
968.761	3036.18
969.063	3036.18
969.365	3009.29
969.666	3017.65
969.968	2967.93
970.269	2979.46
970.571	2980.81
970.872	2943.3
971.174	2956.41
971.475	2943.52
971.776	2883.41
972.077	2916.86
972.378	2902.17
972.679	2868.5
972.98	2866.46
973.281	2846.58
973.582	2840.7
973.883	2851.1
974.183	2825.11
974.484	2819.69
974.785	2784.88
975.085	2777.2
975.386	2807.03
975.686	2754.6
975.986	2733.13
976.287	2725.68
976.587	2703.98
976.887	2723.87
977.187	2712.8
977.487	2669.41
977.787	2679.12
978.087	2678.9
978.387	2636.87
978.687	2644.55
978.987	2602.97
979.286	2604.1
979.586	2597.54
979.885	2579.24
980.185	2583.53
980.484	2554.38
980.784	2600.26
981.083	2565
981.382	2562.29
981.682	2550.77
981.981	2541.73
982.28	2531.78
982.579	2505.8
982.878	2477.55
983.177	2466.25
983.475	2478.68
983.774	2465.57
984.073	2448.85
984.372	2426.48
984.67	2383.09
984.969	2403.88
985.267	2392.35
985.566	2407.49
985.864	2398.23
986.162	2348.74
986.461	2348.06
986.759	2334.95
987.057	2345.35
987.355	2321.39
987.653	2332.47
987.951	2313.71
988.249	2287.95
988.547	2287.5
988.844	2277.1
989.142	2243.2
989.44	2274.62
989.737	2259.25
990.035	2237.1
990.332	2227.84
990.63	2196.2
990.927	2203.88
991.224	2219.25
991.521	2196.2
991.819	2182.64
992.116	2151.68
992.413	2150.1
992.71	2134.73
993.006	2156.88
993.303	2105.58
993.6	2109.42
993.897	2117.78
994.193	2081.4
994.49	2112.81
994.787	2090.67
995.083	2085.47
995.379	2064.45
995.676	2000.27
995.972	2061.06
996.268	2035.75
996.565	1989.65
996.861	2004.57
997.157	1987.84
997.453	1995.07
997.749	1976.77
998.044	1972.7
998.34	1992.59
998.636	1958.47
998.932	1915.75
999.227	1931.57
999.523	1937.68
999.818	1926.83
1000.114	1893.16
1000.409	1904.68
1000.704	1860.39
1001	1877.11
1001.295	1889.54
1001.59	1887.73
1001.885	1814.97
1002.18	1820.39
1002.475	1819.49
1002.77	1810.67
1003.065	1819.71
1003.359	1810.45
1003.654	1782.88
1003.949	1775.65
1004.243	1789.88
1004.538	1771.35
1004.832	1758.7
1005.127	1768.64
1005.421	1689.77
1005.715	1689.77
1006.009	1722.77
1006.304	1711.69
1006.598	1713.73
1006.892	1685.25
1007.186	1682.09
1007.48	1670.11
1007.773	1676.44
1008.067	1676.44
1008.361	1618.59
1008.655	1642.32
1008.948	1628.3
1009.242	1608.19
1009.535	1608.19
1009.829	1598.02
1010.122	1561.64
1010.415	1573.84
1010.708	1552.6
1011.001	1569.32
1011.295	1557.57
1011.588	1579.49
1011.881	1546.27
1012.173	1544.01
1012.466	1518.7
1012.759	1539.04
1013.052	1506.73
1013.344	1489.1
1013.637	1520.96
1013.93	1450.91
1014.222	1454.07
1014.514	1453.62
1014.807	1450.23
1015.099	1430.12
1015.391	1421.98
1015.683	1421.3
1015.976	1434.19
1016.268	1422.21
1016.56	1391.47
1016.851	1385.6
1017.143	1406.16
1017.435	1395.09
1017.727	1357.58
1018.018	1350.57
1018.31	1352.15
1018.602	1357.58
1018.893	1308.54
1019.185	1334.98
1019.476	1304.47
1019.767	1304.47
1020.058	1314.19
1020.35	1313.51
1020.641	1287.3
1020.932	1304.7
1021.223	1280.52
1021.514	1274.87
1021.804	1245.49
1022.095	1246.85
1022.386	1260.4
1022.677	1221.76
1022.967	1214.76
1023.258	1205.04
1023.548	1192.84
1023.839	1201.2
1024.129	1223.8
1024.419	1190.35
1024.709	1172.72
1025	1200.29
1025.29	1160.07
1025.58	1153.29
1025.87	1158.03
1026.16	1151.03
1026.449	1162.33
1026.739	1107.64
1027.029	1108.54
1027.319	1104.48
1027.608	1124.36
1027.898	1100.18
1028.187	1104.48
1028.477	1091.6
1028.766	1065.16
1029.055	1085.27
1029.344	1067.87
1029.634	1097.92
1029.923	1085.04
1030.212	1069.68
1030.501	1049.56
1030.79	1073.07
1031.078	1030.81
1031.367	1024.03
1031.656	1021.31
1031.945	1006.4
1032.233	978.15
1032.522	996
1032.81	992.39
1033.099	992.16
1033.387	982.45
1033.675	972.05
1033.963	966.63
1034.251	963.24
1034.54	962.11
1034.828	960.98
1035.116	958.72
1035.403	944.71
1035.691	920.3
1035.979	913.52
1036.267	918.49
1036.554	917.81
1036.842	906.52
1037.129	906.29
1037.417	885.73
1037.704	921.66
1037.992	915.33
1038.279	869.91
1038.566	905.39
1038.853	905.39
1039.14	905.39
