Data from tablewood_dark_bookshelf_FLMS001491_00081.txt Node
Date: Wed Feb 08 14:15:49 GMT 2017
User: dcchb
Spectrometer: FLMS00149
Trigger mode: 0
Integration Time (sec): 2.000000E-2
Scans to average: 10
Electric dark correction enabled: true
Nonlinearity correction enabled: false
Boxcar width: 0
XAxis mode: Wavelengths
Number of Pixels in Spectrum: 2048
>>>>>Begin Spectral Data<<<<<
341.393	-6.14
341.776	-6.14
342.16	-6.14
342.543	-33.26
342.927	-87.27
343.31	-72.58
343.693	-59.02
344.077	-59.93
344.46	-54.73
344.843	-47.5
345.226	-46.82
345.61	-25.8
345.993	-27.16
346.376	-11.34
346.759	6.06
347.142	16
347.525	44.02
347.908	52.39
348.291	63.46
348.674	105.04
349.057	117.92
349.44	111.37
349.823	120.63
350.206	149.33
350.588	188.65
350.971	211.03
351.354	210.35
351.737	237.01
352.119	242.21
352.502	253.28
352.884	267.3
353.267	265.94
353.65	271.14
354.032	273.85
354.414	296
354.797	288.54
355.179	303.45
355.562	324.69
355.944	309.78
356.326	316.56
356.709	317.24
357.091	308.2
357.473	328.99
357.855	348.42
358.238	344.58
358.62	345.03
359.002	333.96
359.384	327.63
359.766	343
360.148	323.56
360.53	301.42
360.912	326.28
361.294	330.34
361.676	329.67
362.057	334.64
362.439	324.24
362.821	328.76
363.203	331.02
363.584	313.4
363.966	324.24
364.348	326.28
364.729	303.23
365.111	305.26
365.493	319.27
365.874	317.01
366.256	325.37
366.637	320.18
367.019	326.05
367.4	303.68
367.781	306.16
368.163	327.41
368.544	313.62
368.925	318.59
369.306	326.73
369.688	327.18
370.069	316.11
370.45	339.61
370.831	303.45
371.212	328.08
371.593	330.34
371.974	310.01
372.355	314.53
372.736	325.6
373.117	334.19
373.498	313.62
373.879	345.94
374.26	319.27
374.641	319.27
375.021	323.56
375.402	329.89
375.783	322.66
376.163	352.94
376.544	352.49
376.925	349.33
377.305	329.67
377.686	339.61
378.066	350.23
378.447	339.16
378.827	356.78
379.208	349.55
379.588	340.06
379.968	364.47
380.349	359.04
380.729	354.3
381.109	354.07
381.489	361.3
381.87	366.95
382.25	352.49
382.63	362.89
383.01	372.15
383.39	364.92
383.77	374.41
384.15	356.78
384.53	369.67
384.91	371.93
385.29	381.87
385.67	394.75
386.049	382.09
386.429	407.63
386.809	398.14
387.189	390.46
387.568	393.85
387.948	388.2
388.328	404.01
388.707	406.27
389.087	411.47
389.466	390.91
389.846	412.15
390.225	404.01
390.605	422.32
390.984	404.69
391.363	418.7
391.743	397.91
392.122	425.48
392.501	420.29
392.881	436.33
393.26	447.18
393.639	420.51
394.018	419.16
394.397	445.82
394.776	412.15
395.155	445.37
395.534	433.62
395.913	453.05
396.292	471.36
396.671	452.83
397.05	468.87
397.429	446.27
397.808	460.51
398.186	475.88
398.565	451.25
398.944	444.92
399.323	483.79
399.701	494.18
400.08	474.52
400.458	466.39
400.837	475.65
401.215	504.8
401.594	508.87
401.972	492.37
402.351	505.26
402.729	488.08
403.107	498.25
403.486	515.2
403.864	498.93
404.242	511.81
404.62	508.64
404.999	517.68
405.377	524.69
405.755	523.11
406.133	539.6
406.511	535.31
406.889	520.62
407.267	553.39
407.645	536.67
408.023	572.6
408.401	564.24
408.779	561.52
409.156	576.67
409.534	580.73
409.912	562.65
410.29	573.95
410.667	567.63
411.045	599.72
411.422	578.47
411.8	602.88
412.178	601.98
412.555	599.26
412.933	615.31
413.31	637
413.687	615.76
414.065	630
414.442	627.06
414.819	632.94
415.197	644.69
415.574	662.31
415.951	651.24
416.328	658.92
416.705	659.83
417.082	685.59
417.46	688.75
417.837	677.23
418.214	688.08
418.591	693.27
418.967	728.07
419.344	704.57
419.721	705.48
420.098	719.94
420.475	715.42
420.852	738.02
421.228	727.85
421.605	753.16
421.982	749.09
422.358	742.31
422.735	753.38
423.111	750.22
423.488	778.02
423.864	796.77
424.241	789.77
424.617	794.74
424.994	770.78
425.37	812.59
425.746	803.1
426.123	795.19
426.499	819.15
426.875	823.44
427.251	815.08
427.627	840.84
428.003	883.55
428.379	870.44
428.756	869.54
429.132	880.39
429.507	885.58
429.883	901.85
430.259	891.46
430.635	925.58
431.011	928.07
431.387	948.86
431.763	948.63
432.138	954.06
432.514	960.61
432.89	982.98
433.265	986.37
433.641	1004.45
434.016	998.58
434.392	992.93
434.767	1041.96
435.143	1034.51
435.518	1026.82
435.894	1064.79
436.269	1041.29
436.644	1078.12
437.02	1096.2
437.395	1116.76
437.77	1133.71
438.145	1117.44
438.52	1105.24
438.895	1128.74
439.271	1107.73
439.646	1181.85
440.021	1194.05
440.395	1176.65
440.77	1166.93
441.145	1202.19
441.52	1202.41
441.895	1206.71
442.27	1218.68
442.645	1229.53
443.019	1238.34
443.394	1231.34
443.769	1246.48
444.143	1232.24
444.518	1251
444.892	1268.85
445.267	1271.11
445.641	1298.45
446.016	1275.4
446.39	1287.61
446.764	1315.86
447.139	1292.13
447.513	1329.87
447.887	1342.52
448.262	1329.41
448.636	1314.05
449.01	1373.93
449.384	1359.92
449.758	1348.62
450.132	1389.75
450.506	1382.29
450.88	1400.15
451.254	1404.21
451.628	1429.98
452.002	1437.43
452.376	1452.8
452.75	1468.62
453.123	1459.58
453.497	1513.59
453.871	1525.79
454.244	1539.58
454.618	1529.18
454.992	1589.75
455.365	1565.57
455.739	1598.79
456.112	1613.47
456.486	1655.73
456.859	1640.59
457.232	1639.91
457.606	1693.25
457.979	1689.63
458.352	1697.54
458.725	1721.27
459.099	1782.51
459.472	1808.72
459.845	1779.12
460.218	1840.14
460.591	1832
460.964	1820.7
461.337	1893.69
461.71	1888.04
462.083	1894.37
462.456	1932.11
462.829	1921.94
463.201	1945.44
463.574	2007.36
463.947	2000.36
464.32	2055.27
464.692	2059.34
465.065	2085.1
465.438	2135.27
465.81	2153.57
466.183	2184.98
466.555	2181.37
466.928	2211.42
467.3	2236.51
467.672	2248.94
468.045	2293.23
468.417	2296.17
468.789	2340.46
469.161	2337.52
469.534	2358.09
469.906	2413.45
470.278	2445.09
470.65	2478.54
471.022	2541.81
471.394	2599.66
471.766	2581.36
472.138	2639.66
472.51	2695.03
472.882	2740.22
473.253	2728.25
473.625	2764.18
473.997	2824.52
474.369	2824.29
474.74	2874.91
475.112	2906.55
475.484	2973.44
475.855	3019.31
476.227	3047.56
476.598	3144.73
476.97	3104.28
477.341	3226.54
477.713	3244.62
478.084	3264.28
478.455	3365.74
478.827	3395.35
479.198	3482.8
479.569	3485.97
479.94	3544.95
480.311	3612.74
480.682	3724.61
481.053	3757.37
481.424	3812.74
481.795	3859.74
482.166	3906.52
482.537	3984.26
482.908	4027.42
483.279	4066.97
483.65	4105.61
484.021	4213.86
484.391	4242.11
484.762	4262.9
485.133	4352.84
485.503	4416.56
485.874	4494.3
486.244	4558.48
486.615	4628.54
486.985	4674.41
487.356	4763.45
487.726	4779.04
488.097	4887.06
488.467	4913.05
488.837	4954.4
489.207	5077.34
489.578	5144
489.948	5131.12
490.318	5199.37
490.688	5268.29
491.058	5335.86
491.428	5412.24
491.798	5463.54
492.168	5562.98
492.538	5564.78
492.908	5662.18
493.278	5750.54
493.648	5729.07
494.017	5829.41
494.387	5860.14
494.757	5880.03
495.126	5934.49
495.496	5978.78
495.866	6062.17
496.235	6133.36
496.605	6142.17
496.974	6164.32
497.344	6261.04
497.713	6329.73
498.082	6373.12
498.452	6422.84
498.821	6424.65
499.19	6501.48
499.559	6557.07
499.928	6572.44
500.298	6593.46
500.667	6649.05
501.036	6720.91
501.405	6730.63
501.774	6800
502.143	6859.89
502.512	6901.7
502.88	6966.55
503.249	6898.53
503.618	7000.23
503.987	7047.46
504.356	7102.6
504.724	7095.14
505.093	7172.65
505.462	7194.57
505.83	7275.7
506.199	7401.34
506.567	7421.23
506.936	7443.38
507.304	7524.28
507.672	7544.62
508.041	7560.44
508.409	7688.12
508.777	7685.41
509.145	7775.8
509.514	7794.33
509.882	7920.65
510.25	7871.62
510.618	7948.45
510.986	7980.54
511.354	8045.62
511.722	8107.32
512.09	8243.36
512.458	8181.21
512.826	8235.22
513.193	8306.18
513.561	8349.79
513.929	8424.37
514.297	8480.64
514.664	8583.46
515.032	8623.91
515.4	8731.48
515.767	8689.9
516.135	8789.33
516.502	8767.41
516.869	8979.83
517.237	8989.78
517.604	8936.67
517.972	9076.1
518.339	9158.59
518.706	9192.94
519.073	9231.13
519.44	9370.56
519.808	9428.64
520.175	9373.5
520.542	9487.17
520.909	9525.13
521.276	9549.54
521.643	9715.41
522.009	9720.15
522.376	9807.16
522.743	9862.3
523.11	9985.46
523.477	10060.71
523.843	10168.05
524.21	10208.5
524.577	10335.73
524.943	10366.46
525.31	10474.48
525.676	10536.4
526.043	10612.11
526.409	10687.36
526.776	10788.37
527.142	10782.5
527.508	10929.84
527.874	10937.75
528.241	11057.29
528.607	11071.76
528.973	11201.7
529.339	11198.08
529.705	11314.46
530.071	11373.44
530.437	11388.13
530.803	11492.08
531.169	11643.04
531.535	11593.33
531.901	11625.64
532.267	11660.89
532.632	11732.3
532.998	11811.17
533.364	11882.81
533.73	11982.02
534.095	12057.72
534.461	12049.36
534.826	12197.83
535.192	12194.89
535.557	12234.89
535.923	12202.8
536.288	12369.35
536.653	12457.94
537.019	12444.38
537.384	12484.83
537.749	12558.27
538.114	12612.51
538.479	12611.83
538.845	12627.42
539.21	12659.74
539.575	12753.07
539.94	12841.43
540.305	12848.66
540.67	12847.3
541.034	12910.58
541.399	12979.05
541.764	13000.07
542.129	13086.39
542.494	13085.04
542.858	13230.57
543.223	13205.71
543.587	13254.98
543.952	13301.75
544.316	13364.13
544.681	13360.28
545.045	13423.11
545.41	13440.28
545.774	13535.42
546.138	13517.34
546.503	13643.44
546.867	13594.63
547.231	13769.31
547.595	13725.02
547.959	13857.9
548.324	13826.94
548.688	13795.98
549.052	13900.16
549.416	13872.81
549.779	13984.67
550.143	14032.58
550.507	14109.64
550.871	14186.7
551.235	14231.9
551.599	14302.41
551.962	14379.92
552.326	14390.31
552.689	14528.84
553.053	14447.71
553.417	14526.81
553.78	14689.06
554.143	14685
554.507	14803.86
554.87	14836.18
555.234	14840.47
555.597	14904.2
555.96	14895.16
556.323	15000.92
556.686	15052.67
557.05	15146.45
557.413	15176.28
557.776	15234.59
558.139	15303.51
558.502	15373.56
558.865	15511.87
559.228	15489.72
559.59	15534.69
559.953	15690.62
560.316	15805.87
560.679	15746.89
561.041	15931.74
561.404	15926.32
561.767	16121.34
562.129	16048.8
562.492	16269.36
562.854	16215.35
563.217	16268.46
563.579	16470.49
563.941	16443.14
564.304	16562.23
564.666	16688.56
565.028	16644.04
565.39	16752.96
565.753	16792.96
566.115	16887.88
566.477	17042
566.839	17065.5
567.201	17120.86
567.563	17184.36
567.925	17246.74
568.287	17342.1
568.648	17402.21
569.01	17469.55
569.372	17605.6
569.734	17609.21
570.095	17782.54
570.457	17793.84
570.819	17840.39
571.18	17848.98
571.542	17980.5
571.903	18012.14
572.265	18165.81
572.626	18181.4
572.987	18166.49
573.349	18370.1
573.71	18394.5
574.071	18408.29
574.432	18434.05
574.794	18596.53
575.155	18616.19
575.516	18612.8
575.877	18666.59
576.238	18780.71
576.599	18982.51
576.96	18896.18
577.32	19001.49
577.681	19115.84
578.042	19046.01
578.403	19095.27
578.763	19185.22
579.124	19214.82
579.485	19307.92
579.845	19403.74
580.206	19323.29
580.566	19312.67
580.927	19468.15
581.287	19524.42
581.648	19473.12
582.008	19593.11
582.368	19584.3
582.728	19633.34
583.089	19653.68
583.449	19631.76
583.809	19653.68
584.169	19674.47
584.529	19700.23
584.889	19778.42
585.249	19714.47
585.609	19711.53
585.969	19924.18
586.329	19911.98
586.688	19922.82
587.048	19911.07
587.408	19883.5
587.768	19935.93
588.127	20064.97
588.487	19864.07
588.846	20155.13
589.206	20027.91
589.565	20019.77
589.925	20066.55
590.284	20130.73
590.643	20153.78
591.003	20212.76
591.362	20258.41
591.721	20165.76
592.08	20289.59
592.44	20317.84
592.799	20248.01
593.158	20253.21
593.517	20341.57
593.876	20295.7
594.235	20352.42
594.593	20433.54
594.952	20536.82
595.311	20372.3
595.67	20464.05
596.029	20595.35
596.387	20613.65
596.746	20639.41
597.104	20499.76
597.463	20641.45
597.822	20691.84
598.18	20680.32
598.538	20655.91
598.897	20770.71
599.255	20658.62
599.613	20966.86
599.972	20667.89
600.33	20867.88
600.688	20727.55
601.046	20995.34
601.404	20945.17
601.762	20955.56
602.12	21104.71
602.478	21081.21
602.836	20993.98
603.194	20937.26
603.552	21048.67
603.91	20939.29
604.268	21066.07
604.625	20982.91
604.983	21222.68
605.341	21055
605.698	21205.73
606.056	21228.55
606.413	21235.56
606.771	21277.82
607.128	21262.22
607.485	21204.37
607.843	21210.93
608.2	21434.42
608.557	21515.55
608.914	21341.09
609.272	21494.08
609.629	21596.45
609.986	21681.2
610.343	21511.26
610.7	21731.36
611.057	21609.11
611.414	21621.08
611.771	21756.67
612.127	21853.39
612.484	21765.04
612.841	21833.96
613.198	21840.06
613.554	21807.29
613.911	21924.8
614.267	21953.05
614.624	21835.09
614.98	21889.33
615.337	22162.09
615.693	22010.23
616.05	21998.48
616.406	22005.03
616.762	22043.22
617.118	22067.63
617.475	22012.03
617.831	22197.57
618.187	22162.99
618.543	22220.16
618.899	22354.4
619.255	22261.97
619.611	22228.98
619.967	22329.99
620.323	22329.54
620.678	22280.5
621.034	22270.78
621.39	22254.51
621.746	22143.56
622.101	22476.65
622.457	22222.42
622.812	22400.05
623.168	22347.62
623.523	22394.62
623.879	22551
624.234	22274.85
624.589	22347.39
624.945	22421.97
625.3	22414.51
625.655	22436.2
626.01	22409.76
626.365	22470.55
626.72	22411.57
627.075	22423.32
627.43	22353.04
627.785	22366.38
628.14	22430.33
628.495	22329.31
628.85	22316.21
629.205	22282.76
629.559	22407.96
629.914	22328.18
630.269	22411.12
630.623	22286.15
630.978	22185.81
631.332	22327.96
631.687	22334.74
632.041	22223.55
632.396	22235.08
632.75	22193.95
633.104	22257.9
633.459	22138.36
633.813	22202.76
634.167	22010.68
634.521	22115.76
634.875	22098.36
635.229	22095.2
635.583	22036.89
635.937	21948.53
636.291	21930
636.645	22034.18
636.999	21886.16
637.352	22020.62
637.706	21826.95
638.06	21889.1
638.413	21841.87
638.767	21829.44
639.121	21810.91
639.474	21759.16
639.828	21776.79
640.181	21680.97
640.534	21757.35
640.888	21644.59
641.241	21551.48
641.594	21636.22
641.947	21687.52
642.301	21618.82
642.654	21541.99
643.007	21640.97
643.36	21545.38
643.713	21558.49
644.066	21534.98
644.419	21372.95
644.771	21293.86
645.124	21063.58
645.477	21110.14
645.83	21057.26
646.182	20856.58
646.535	20867.88
646.888	20812.52
647.24	20675.12
647.593	20757.15
647.945	20789.69
648.298	20595.57
648.65	20555.12
649.002	20535.24
649.355	20720.77
649.707	20649.81
650.059	20775.91
650.411	21012.96
650.763	21001.44
651.115	21294.09
651.467	21179.74
651.819	21162.57
652.171	21055
652.523	21064.94
652.875	20991.5
653.227	20928.45
653.578	21127.31
653.93	20998.28
654.282	20967.99
654.633	20981.33
654.985	20875.57
655.337	20925.51
655.688	20899.97
656.039	20994.21
656.391	20697.27
656.742	20803.93
657.094	20864.49
657.445	20975
657.796	20833.99
658.147	20815
658.498	20798.96
658.849	20845.29
659.2	20888.9
659.551	20796.92
659.902	20867.21
660.253	20999.63
660.604	20826.75
660.955	20771.84
661.306	20861.33
661.656	20759.64
662.007	20897.71
662.358	20799.86
662.708	20781.56
663.059	20648
663.409	20590.15
663.76	20810.48
664.11	20718.06
664.461	20778.85
664.811	20753.31
665.161	20770.26
665.511	20772.07
665.862	20714.67
666.212	20868.34
666.562	20747.43
666.912	20721.9
667.262	20644.61
667.612	20694.78
667.962	20742.01
668.312	20634.9
668.662	20789.92
669.011	20731.16
669.361	20690.26
669.711	20744.04
670.06	20536.82
670.41	20546.99
670.76	20582.69
671.109	20744.27
671.459	20649.36
671.808	20479.87
672.157	20552.86
672.507	20493.2
672.856	20485.52
673.205	20533.2
673.554	20600.32
673.904	20488.46
674.253	20642.35
674.602	20492.98
674.951	20278.75
675.3	20231.97
675.649	20519.42
675.998	20442.58
676.346	20418.18
676.695	20465.41
677.044	20248.69
677.393	20344.06
677.741	20428.8
678.09	20450.04
678.438	20343.38
678.787	20360.1
679.135	20358.07
679.484	20159.2
679.832	20311.06
680.181	20175.47
680.529	20378.86
680.877	20188.13
681.225	20171.18
681.573	20254.57
681.922	20178.64
682.27	20056.15
682.618	20056.83
682.966	19975.48
683.314	20039.88
683.661	19963.95
684.009	19978.64
684.357	19904.74
684.705	19906.33
685.053	19928.93
685.4	19768.48
685.748	19720.8
686.095	19728.48
686.443	19693
686.79	19591.53
687.138	19639.44
687.485	19700
687.832	19670.85
688.18	19622.04
688.527	19548.37
688.874	19519.67
689.221	19487.35
689.568	19438.09
689.915	19326.23
690.262	19369.17
690.609	19293.24
690.956	19248.72
691.303	19304.99
691.65	19100.47
691.997	19093.69
692.344	18989.06
692.69	18981.61
693.037	19058.67
693.383	18834.94
693.73	18922.62
694.077	18834.72
694.423	18865.45
694.769	18756.07
695.116	18757.2
695.462	18722.4
695.808	18566.48
696.155	18529.41
696.501	18517.66
696.847	18459.59
697.193	18418
697.539	18388.63
697.885	18265.01
698.231	18212.13
698.577	18213.04
698.923	18150.44
699.269	18220.72
699.614	18047.39
699.96	18079.93
700.306	18081.29
700.651	18016.43
700.997	17790.68
701.342	17834.74
701.688	17863.67
702.033	17743.45
702.379	17849.66
702.724	17712.71
703.069	17788.64
703.415	17465.94
703.76	17492.38
704.105	17554.75
704.45	17446.05
704.795	17423.91
705.14	17318.6
705.485	17269.33
705.83	17301.88
706.175	17299.16
706.52	17277.47
706.865	17140.75
707.209	17196.12
707.554	17054.88
707.899	17128.77
708.243	17057.81
708.588	17002
708.932	16795.67
709.277	16955.9
709.621	16776.69
709.966	16744.38
710.31	16859.18
710.654	16662.57
710.998	16713.64
711.342	16598.17
711.687	16640.65
712.031	16564.95
712.375	16576.47
712.719	16555.68
713.063	16509.81
713.407	16642.68
713.75	16531.05
714.094	16422.12
714.438	16320.21
714.782	16498.05
715.125	16338.29
715.469	16321.11
715.812	16263.03
716.156	16145.52
716.499	16214.22
716.843	16254.22
717.186	16171.51
717.53	16177.84
717.873	16143.26
718.216	16126.77
718.559	16143.71
718.902	15931.97
719.246	16066.2
719.589	15981.91
719.932	15884.29
720.275	15883.38
720.617	15919.99
720.96	15986.66
721.303	15894.91
721.646	15832.76
721.989	15775.59
722.331	15893.33
722.674	15877.73
723.016	15824.17
723.359	15738.3
723.701	15799.99
724.044	15638.19
724.386	15576.72
724.729	15746.66
725.071	15710.05
725.413	15664.86
725.755	15554.35
726.097	15603.84
726.439	15529.72
726.782	15394.36
727.124	15500.12
727.465	15553.67
727.807	15464.64
728.149	15356.39
728.491	15398.65
728.833	15400.91
729.175	15301.7
729.516	15363.17
729.858	15312.32
730.199	15376.05
730.541	15257.64
730.882	15255.6
731.224	15315.71
731.565	15260.35
731.906	15279.78
732.248	15332.89
732.589	15173.34
732.93	15259.22
733.271	15166.79
733.612	15167.47
733.953	15159.79
734.294	15067.13
734.635	15096.74
734.976	15127.7
735.317	15145.1
735.658	15106
735.999	15043.18
736.339	15072.56
736.68	15043.18
737.021	14986.91
737.361	14912.11
737.702	14977.42
738.042	14898.32
738.383	14920.47
738.723	14986.91
739.063	14841.6
739.404	15047.92
739.744	14875.95
740.084	14835.5
740.424	14896.52
740.764	14854.93
741.104	14901.71
741.444	14783.3
741.784	14749.17
742.124	14775.39
742.464	14795.05
742.804	14823.3
743.143	14829.62
743.483	14785.11
743.823	14652.45
744.162	14675.28
744.502	14653.81
744.841	14599.35
745.181	14775.39
745.52	14572.23
745.86	14625.34
746.199	14558.67
746.538	14542.63
746.877	14653.13
747.216	14637.54
747.556	14580.59
747.895	14520.71
748.234	14472.57
748.573	14467.6
748.911	14490.2
749.25	14457.43
749.589	14412.91
749.928	14395.96
750.267	14414.04
750.605	14430.76
750.944	14332.24
751.283	14290.66
751.621	14364.1
751.96	14204.1
752.298	14294.95
752.636	14253.82
752.975	14188.74
753.313	14169.3
753.651	14194.61
753.989	14143.09
754.327	14085.24
754.666	13974.05
755.004	14080.94
755.342	14120.72
755.679	14080.49
756.017	13979.25
756.355	13984
756.693	13960.04
757.031	13971.12
757.368	13892.25
757.706	13873.04
758.044	13838.92
758.381	13769.99
758.719	13796.66
759.056	13740.39
759.394	13653.16
759.731	13660.39
760.068	13548.08
760.405	13599.15
760.743	13495.2
761.08	13501.98
761.417	13442.32
761.754	13484.8
762.091	13425.59
762.428	13331.81
762.765	13342.66
763.102	13275.77
763.438	13312.15
763.775	13155.09
764.112	13165.04
764.449	13192.38
764.785	13094.3
765.122	12997.36
765.458	13004.14
765.795	12925.49
766.131	12919.39
766.467	12927.98
766.804	12873.07
767.14	12823.35
767.476	12814.31
767.812	12676.01
768.148	12727.08
768.485	12669.46
768.821	12549.68
769.157	12653.64
769.492	12624.26
769.828	12490.25
770.164	12455.9
770.5	12394.89
770.836	12450.93
771.171	12280.31
771.507	12327.77
771.842	12294.32
772.178	12238.51
772.513	12193.08
772.849	12068.57
773.184	12068.11
773.519	12126.42
773.855	12016.14
774.19	11902.47
774.525	11905.41
774.86	11883.26
775.195	11813.88
775.53	11751.06
775.865	11680.33
776.2	11714.68
776.535	11608.47
776.87	11551.74
777.205	11551.97
777.539	11504.97
777.874	11543.83
778.209	11397.62
778.543	11396.04
778.878	11310.17
779.212	11310.17
779.547	11220.23
779.881	11238.08
780.215	11173.22
780.55	11212.32
780.884	11129.38
781.218	11120.57
781.552	11073.34
781.886	11012.55
782.22	10987.69
782.554	10926.22
782.888	10860.46
783.222	10789.28
783.556	10806.68
783.889	10732.56
784.223	10673.8
784.557	10648.72
784.89	10705.66
785.224	10573.01
785.557	10558.55
785.891	10549.28
786.224	10457.54
786.558	10474.48
786.891	10348.61
787.224	10419.34
787.557	10340.02
787.891	10315.39
788.224	10244.43
788.557	10274.26
788.89	10277.43
789.223	10205.11
789.556	10113.59
789.888	10102.52
790.221	10070.88
790.554	10034.95
790.887	9998.11
791.219	9988.85
791.552	9954.72
791.884	9858
792.217	9909.53
792.549	9808.06
792.882	9762.64
793.214	9765.58
793.546	9852.58
793.879	9611
794.211	9549.54
794.543	9648.29
794.875	9571.46
795.207	9631.57
795.539	9548.18
795.871	9547.5
796.203	9464.57
796.535	9395.42
796.867	9370.33
797.198	9357.45
797.53	9405.81
797.862	9290.11
798.193	9223.22
798.525	9292.59
798.856	9288.07
799.188	9166.72
799.519	9123.11
799.85	9117.23
800.182	9074.52
800.513	9038.14
800.844	8939.61
801.175	9042.21
801.506	8970.57
801.837	8989.55
802.168	8870.91
802.499	8856.9
802.83	8861.87
803.161	8837.24
803.491	8858.71
803.822	8828.2
804.153	8727.86
804.483	8711.59
804.814	8704.36
805.145	8693.74
805.475	8691.25
805.805	8611.93
806.136	8680.63
806.466	8584.14
806.796	8577.81
807.126	8515.44
807.457	8533.97
807.787	8458.49
808.117	8410.58
808.447	8384.14
808.777	8483.58
809.107	8460.98
809.436	8340.98
809.766	8380.08
810.096	8345.27
810.426	8294.65
810.755	8334.65
811.085	8250.36
811.414	8232.51
811.744	8164.04
812.073	8182.34
812.403	8164.04
812.732	8129.91
813.061	8188.44
813.39	8090.14
813.719	8058.05
814.049	8083.13
814.378	8098.05
814.707	7995.23
815.036	7999.3
815.365	7988.45
815.693	7879.3
816.022	7901.9
816.351	7876.59
816.68	7896.93
817.008	7854.21
817.337	7800.88
817.665	7789.36
817.994	7807.89
818.322	7796.81
818.651	7741.45
818.979	7682.69
819.307	7743.26
819.636	7681.34
819.964	7621.23
820.292	7679.98
820.62	7698.51
820.948	7622.36
821.276	7680.21
821.604	7637.04
821.932	7681.11
822.259	7671.85
822.587	7694.44
822.915	7670.04
823.243	7637.04
823.57	7687.67
823.898	7603.37
824.225	7615.35
824.553	7646.54
824.88	7607.44
825.207	7672.3
825.535	7613.32
825.862	7638.63
826.189	7588.01
826.516	7648.34
826.843	7607.89
827.17	7655.8
827.497	7640.89
827.824	7620.55
828.151	7666.42
828.478	7658.74
828.805	7659.87
829.131	7592.98
829.458	7611.28
829.785	7623.71
830.111	7584.62
830.438	7609.25
830.764	7575.35
831.09	7572.41
831.417	7553.66
831.743	7587.1
832.069	7551.85
832.395	7577.61
832.722	7533.09
833.048	7550.49
833.374	7511.85
833.7	7543.94
834.026	7563.15
834.351	7548.23
834.677	7482.47
835.003	7572.19
835.329	7531.74
835.654	7491.96
835.98	7446.09
836.306	7497.39
836.631	7424.4
836.956	7473.66
837.282	7440.44
837.607	7458.97
837.932	7360.22
838.258	7458.29
838.583	7420.33
838.908	7312.76
839.233	7359.09
839.558	7356.15
839.883	7300.33
840.208	7335.81
840.533	7328.8
840.858	7238.64
841.182	7252.2
841.507	7270.5
841.832	7221.01
842.156	7264.85
842.481	7247.9
842.805	7230.95
843.13	7150.05
843.454	7185.31
843.778	7214.01
844.103	7170.39
844.427	7101.24
844.751	7116.83
845.075	7097.62
845.399	7069.83
845.723	7042.71
846.047	7035.25
846.371	6966.78
846.695	6938.98
847.019	6856.95
847.343	6878.19
847.666	6838.87
847.99	6813.56
848.313	6800.68
848.637	6784.41
848.96	6798.87
849.284	6738.76
849.607	6742.38
849.931	6693.57
850.254	6693.57
850.577	6609.73
850.9	6592.55
851.223	6602.72
851.546	6566.11
851.869	6509.17
852.192	6566.56
852.515	6456.51
852.838	6454.93
853.161	6487.92
853.483	6416.51
853.806	6384.65
854.129	6376.06
854.451	6403.86
854.774	6365.21
855.096	6271.43
855.419	6254.93
855.741	6310.53
856.063	6215.61
856.385	6242.05
856.708	6220.36
857.03	6222.17
857.352	6198.66
857.674	6186.24
857.996	6168.16
858.318	6121.38
858.64	6127.48
858.961	6103.53
859.283	6059.46
859.605	6064.2
859.926	6043.19
860.248	6060.82
860.57	6060.14
860.891	5999.12
861.212	5985.11
861.534	6026.01
861.855	5964.09
862.176	5954.38
862.498	5959.8
862.819	5974.49
863.14	5938.56
863.461	5953.02
863.782	5941.72
864.103	5925.9
864.424	5913.93
864.745	5893.36
865.065	5889.29
865.386	5851.56
865.707	5850.2
866.027	5875.51
866.348	5814.95
866.668	5824.44
866.989	5848.62
867.309	5758.45
867.63	5803.19
867.95	5758.68
868.27	5760.03
868.59	5756.42
868.91	5738.79
869.23	5771.56
869.55	5699.47
869.87	5697.89
870.19	5758.9
870.51	5696.53
870.83	5727.49
871.15	5709.64
871.469	5708.51
871.789	5721.39
872.109	5691.11
872.428	5659.02
872.748	5668.28
873.067	5629.41
873.386	5585.8
873.706	5700.15
874.025	5629.87
874.344	5573.14
874.663	5607.49
874.982	5594.84
875.301	5548.96
875.62	5572.01
875.939	5553.26
876.258	5557.55
876.577	5487.27
876.896	5496.08
877.214	5542.86
877.533	5485.24
877.852	5503.32
878.17	5548.74
878.489	5467.61
878.807	5507.38
879.125	5499.93
879.444	5505.58
879.762	5404.34
880.08	5496.08
880.398	5426.71
880.716	5458.57
881.034	5425.8
881.352	5479.59
881.67	5435.75
881.988	5426.03
882.306	5427.39
882.624	5374.51
882.941	5358.46
883.259	5394.17
883.577	5323.89
883.894	5384.9
884.212	5337.9
884.529	5295.86
884.846	5308.29
885.164	5245.02
885.481	5256.32
885.798	5301.97
886.115	5234.62
886.432	5302.87
886.75	5235.07
887.067	5213.15
887.383	5244.34
887.7	5219.26
888.017	5180.16
888.334	5199.37
888.651	5192.36
888.967	5169.77
889.284	5129.99
889.6	5160.27
889.917	5106.94
890.233	5109.65
890.55	5128.86
890.866	5096.55
891.182	5090.22
891.498	5042.54
891.815	5055.87
892.131	5050.9
892.447	5003.44
892.763	4997.79
893.079	4985.59
893.395	4966.61
893.71	4938.58
894.026	4967.28
894.342	4931.13
894.657	4907.85
894.973	4885.7
895.289	4886.38
895.604	4847.06
895.92	4815.65
896.235	4823.56
896.55	4859.94
896.865	4831.92
897.181	4817.01
897.496	4792.37
897.811	4805.71
898.126	4784.92
898.441	4776.78
898.756	4731.13
899.071	4686.84
899.386	4692.49
899.7	4732.26
900.015	4683.9
900.33	4638.71
900.644	4632.15
900.959	4630.12
901.273	4637.35
901.588	4588.76
901.902	4578.14
902.216	4556.67
902.531	4556.9
902.845	4580.63
903.159	4536.79
903.473	4537.92
903.787	4441.87
904.101	4448.43
904.415	4461.54
904.729	4414.76
905.042	4427.86
905.356	4388.32
905.67	4409.79
905.984	4442.33
906.297	4387.41
906.611	4401.42
906.924	4367.98
907.237	4349.22
907.551	4299.73
907.864	4297.7
908.177	4300.86
908.491	4297.25
908.804	4236.68
909.117	4230.58
909.43	4236.46
909.743	4210.69
910.056	4178.38
910.368	4210.47
910.681	4187.42
910.994	4142.9
911.307	4151.71
911.619	4155.78
911.932	4059.74
912.244	4107.42
912.557	4044.15
912.869	4078.95
913.181	4048.21
913.494	3991.04
913.806	4041.66
914.118	4018.61
914.43	3973.19
914.742	3982.45
915.054	3944.71
915.366	3927.76
915.678	3931.61
915.99	3885.28
916.302	3898.39
916.613	3874.43
916.925	3894.77
917.236	3865.39
917.548	3839.63
917.859	3849.57
918.171	3862.91
918.482	3758.95
918.794	3751.27
919.105	3800.54
919.416	3780.2
919.727	3764.6
920.038	3743.14
920.349	3741.1
920.66	3699.52
920.971	3700.88
921.282	3698.17
921.593	3630.14
921.903	3605.51
922.214	3631.27
922.525	3624.5
922.835	3586.53
923.146	3607.55
923.456	3598.28
923.767	3579.07
924.077	3563.71
924.387	3608
924.697	3541.11
925.008	3462.69
925.318	3513.31
925.628	3503.82
925.938	3489.13
926.248	3477.38
926.558	3454.56
926.867	3437.16
927.177	3441.9
927.487	3381.11
927.796	3375.46
928.106	3408.23
928.416	3350.15
928.725	3415.91
929.034	3376.59
929.344	3333.88
929.653	3323.71
929.962	3331.62
930.271	3306.99
930.581	3299.98
930.89	3284.84
931.199	3243.94
931.508	3273.54
931.817	3250.27
932.125	3199.65
932.434	3217.73
932.743	3170.72
933.051	3166.2
933.36	3174.56
933.669	3152.87
933.977	3126.88
934.286	3121.01
934.594	3156.26
934.902	3109.25
935.21	3101.12
935.519	3087.56
935.827	3109.48
936.135	3074.68
936.443	3046.66
936.751	3034.23
937.059	3023.83
937.367	3017.96
937.674	3002.59
937.982	2999.43
938.29	3009.37
938.597	2976.83
938.905	2950.84
939.213	2962.37
939.52	2930.95
939.827	2946.77
940.135	2929.37
940.442	2876.49
940.749	2893.89
941.056	2894.12
941.363	2866.1
941.67	2864.52
941.977	2874.46
942.284	2864.06
942.591	2819.09
942.898	2781.13
943.205	2789.71
943.511	2791.52
943.818	2770.73
944.125	2724.63
944.431	2745.65
944.738	2764.63
945.044	2746.55
945.35	2752.88
945.657	2700.23
945.963	2701.36
946.269	2671.75
946.575	2704.97
946.881	2683.73
947.187	2683.95
947.493	2689.6
947.799	2701.36
948.105	2689.6
948.41	2614.13
948.716	2615.71
949.022	2619.78
949.327	2621.58
949.633	2578.65
949.938	2581.36
950.244	2575.26
950.549	2558.99
950.854	2525.99
951.16	2544.3
951.465	2542.94
951.77	2523.51
952.075	2528.25
952.38	2496.84
952.685	2493
952.99	2473.34
953.294	2439.44
953.599	2485.32
953.904	2449.16
954.209	2448.71
954.513	2448.25
954.818	2415.04
955.122	2381.36
955.426	2427.24
955.731	2415.49
956.035	2371.19
956.339	2354.25
956.643	2392.21
956.948	2349.05
957.252	2363.06
957.556	2321.93
957.86	2317.86
958.163	2316.96
958.467	2342.27
958.771	2313.8
959.075	2319.44
959.378	2279.45
959.682	2295.26
959.985	2260.69
960.289	2323.06
960.592	2271.31
960.896	2253.68
961.199	2227.7
961.502	2236.51
961.805	2218.66
962.108	2208.04
962.411	2196.06
962.714	2200.35
963.017	2183.63
963.32	2188.15
963.623	2173.01
963.926	2162.84
964.228	2196.74
964.531	2136.4
964.833	2140.47
965.136	2110.18
965.438	2117.87
965.741	2122.61
966.043	2111.54
966.345	2117.42
966.648	2094.82
966.95	2101.37
967.252	2039.23
967.554	2099.11
967.856	2068.6
968.158	2050.07
968.46	2018.21
968.761	2051.2
969.063	2071.09
969.365	2030.41
969.666	1996.74
969.968	1986.12
970.269	1958.1
970.571	1999.45
970.872	1995.84
971.174	2003.52
971.475	1977.53
971.776	1942.28
972.077	1954.26
972.378	1957.19
972.679	1951.54
972.98	1917.2
973.281	1919.68
973.582	1929.62
973.883	1930.3
974.183	1903.86
974.484	1904.31
974.785	1894.6
975.085	1877.87
975.386	1865.9
975.686	1863.64
975.986	1826.35
976.287	1864.54
976.587	1855.28
976.887	1834.03
977.187	1827.25
977.487	1826.12
977.787	1823.86
978.087	1822.51
978.387	1829.74
978.687	1787.03
978.987	1808.72
979.286	1775.5
979.586	1801.49
979.885	1780.25
980.185	1749.29
980.484	1728.27
980.784	1754.49
981.083	1754.04
981.382	1727.37
981.682	1748.39
981.981	1728.27
982.28	1719.46
982.579	1677.65
982.878	1719.69
983.177	1705.9
983.475	1726.92
983.774	1672.46
984.073	1673.81
984.372	1660.25
984.67	1672
984.969	1632.46
985.267	1651.21
985.566	1659.8
985.864	1652.8
986.162	1634.26
986.461	1620.25
986.759	1610.76
987.057	1615.28
987.355	1595.85
987.653	1600.59
987.951	1638.78
988.249	1590.2
988.547	1587.71
988.844	1576.64
989.142	1604.66
989.44	1539.8
989.737	1552.46
990.035	1577.32
990.332	1526.92
990.63	1542.52
990.927	1559.46
991.224	1519.01
991.521	1530.09
991.819	1486.02
992.116	1524.44
992.413	1495.96
992.71	1527.83
993.006	1466.36
993.303	1462.52
993.6	1475.17
993.897	1480.6
994.193	1454.16
994.49	1437.66
994.787	1418.45
995.083	1457.77
995.379	1446.47
995.676	1420.94
995.972	1453.48
996.268	1391.79
996.565	1418.9
996.861	1416.19
997.157	1415.97
997.453	1392.69
997.749	1416.19
998.044	1395.85
998.34	1383.65
998.636	1377.1
998.932	1371.9
999.227	1348.4
999.523	1360.15
999.818	1361.28
1000.114	1331.22
1000.409	1341.17
1000.704	1328.06
1001	1320.15
1001.295	1330.77
1001.59	1298
1001.885	1319.02
1002.18	1293.71
1002.475	1299.13
1002.77	1259.13
1003.065	1270.21
1003.359	1280.6
1003.654	1278.79
1003.949	1282.64
1004.243	1255.52
1004.538	1280.6
1004.832	1266.37
1005.127	1233.15
1005.421	1234.73
1005.715	1211.68
1006.009	1210.55
1006.304	1213.71
1006.598	1208.51
1006.892	1198.57
1007.186	1171.68
1007.48	1187.5
1007.773	1165.12
1008.067	1184.79
1008.361	1173.03
1008.655	1188.17
1008.948	1145.92
1009.242	1130.1
1009.535	1162.86
1009.829	1131.68
1010.122	1129.65
1010.415	1156.76
1010.708	1138.23
1011.001	1122.64
1011.295	1117.67
1011.588	1107.05
1011.881	1137.78
1012.173	1109.08
1012.466	1093.71
1012.759	1093.04
1013.052	1076.54
1013.344	1061.85
1013.637	1091
1013.93	1096.2
1014.222	1048.97
1014.514	1075.64
1014.807	1069.76
1015.099	1054.85
1015.391	1042.64
1015.683	1062.53
1015.976	1053.94
1016.268	1030.21
1016.56	1025.02
1016.851	1015.75
1017.143	1013.04
1017.435	1024.79
1017.727	991.8
1018.018	998.35
1018.31	995.41
1018.602	973.04
1018.893	991.8
1019.185	967.62
1019.476	952.7
1019.767	945.7
1020.058	962.42
1020.35	936.66
1020.641	947.5
1020.932	959.03
1021.223	936.66
1021.514	927.39
1021.804	929.65
1022.095	911.57
1022.386	912.02
1022.677	889.2
1022.967	907.96
1023.258	920.39
1023.548	902.08
1023.839	899.14
1024.129	910.67
1024.419	887.39
1024.709	878.13
1025	905.92
1025.29	898.69
1025.58	884.23
1025.87	868.64
1026.16	833.83
1026.449	861.18
1026.739	835.42
1027.029	855.53
1027.319	878.8
1027.608	850.56
1027.898	829.99
1028.187	814.4
1028.477	832.25
1028.766	827.51
1029.055	828.64
1029.344	804.91
1029.634	801.07
1029.923	807.85
1030.212	792.48
1030.501	800.16
1030.79	789.77
1031.078	778.02
1031.367	780.28
1031.656	774.17
1031.945	779.37
1032.233	745.02
1032.522	766.72
1032.81	746.6
1033.099	749.99
1033.387	747.96
1033.675	746.15
1033.963	743.21
1034.251	738.24
1034.54	750.45
1034.828	735.98
1035.116	742.31
1035.403	714.74
1035.691	722.88
1035.979	721.97
1036.267	708.64
1036.554	686.27
1036.842	717.68
1037.129	683.33
1037.417	688.75
1037.704	702.31
1037.992	692.59
1038.279	697.34
1038.566	710.9
1038.853	710.9
1039.14	710.9
