Data from tablewood_brown_FLMS001491_095.txt Node
Date: Tue Feb 07 11:11:17 GMT 2017
User: dcchb
Spectrometer: FLMS00149
Trigger mode: 0
Integration Time (sec): 2.000000E-2
Scans to average: 10
Electric dark correction enabled: true
Nonlinearity correction enabled: false
Boxcar width: 0
XAxis mode: Wavelengths
Number of Pixels in Spectrum: 2048
>>>>>Begin Spectral Data<<<<<
341.393	11.78
341.776	11.78
342.16	11.78
342.543	-50.59
342.927	-70.93
343.31	-73.42
343.693	-69.12
344.077	-71.83
344.46	-46.07
344.843	-50.82
345.226	-49.01
345.61	-13.53
345.993	-19.41
346.376	-13.3
346.759	-4.94
347.142	35.96
347.525	43.87
347.908	68.95
348.291	76.86
348.674	80.7
349.057	105.11
349.44	114.38
349.823	139.46
350.206	176.75
350.588	194.83
350.971	218.1
351.354	243.19
351.737	253.35
352.119	245.67
352.502	254.71
352.884	273.02
353.267	285.22
353.65	296.07
354.032	286.8
354.414	327.7
354.797	317.99
355.179	316.18
355.562	327.7
355.944	304.65
356.326	357.98
356.709	343.52
357.091	326.35
357.473	338.32
357.855	346.46
358.238	338.78
358.62	323.18
359.002	342.84
359.384	350.08
359.766	355.95
360.148	353.01
360.53	350.98
360.912	334.48
361.294	349.4
361.676	352.11
362.057	358.44
362.439	339.91
362.821	338.78
363.203	341.26
363.584	334.26
363.966	321.15
364.348	334.03
364.729	321.38
365.111	334.26
365.493	337.87
365.874	320.92
366.256	320.92
366.637	320.47
367.019	346.69
367.4	319.79
367.781	310.75
368.163	341.26
368.544	325.44
368.925	317.99
369.306	345.78
369.688	337.87
370.069	334.48
370.45	332.45
370.831	350.98
371.212	318.21
371.593	321.6
371.974	343.07
372.355	350.53
372.736	331.09
373.117	350.75
373.498	341.49
373.879	350.75
374.26	328.38
374.641	369.74
375.021	325.44
375.402	334.26
375.783	333.13
376.163	354.82
376.544	358.66
376.925	343.52
377.305	350.53
377.686	323.86
378.066	357.53
378.447	357.53
378.827	349.4
379.208	360.47
379.588	356.4
379.968	359.57
380.349	357.53
380.729	343.97
381.109	370.87
381.489	380.81
381.87	360.02
382.25	372.9
382.63	377.42
383.01	370.19
383.39	384.88
383.77	352.34
384.15	378.55
384.53	398.44
384.91	386.68
385.29	392.11
385.67	389.17
386.049	392.11
386.429	389.4
386.809	392.33
387.189	373.8
387.568	404.54
387.948	408.15
388.328	401.37
388.707	419.45
389.087	421.26
389.466	398.89
389.846	414.93
390.225	433.01
390.605	436.17
390.984	427.14
391.363	441.6
391.743	420.81
392.122	433.92
392.501	432.56
392.881	427.36
393.26	454.48
393.639	442.73
394.018	437.08
394.397	443.18
394.776	449.51
395.155	468.49
395.534	472.33
395.913	491.31
396.292	458.1
396.671	480.69
397.05	492.44
397.429	490.64
397.808	467.36
398.186	468.04
398.565	508.26
398.944	488.15
399.323	501.94
399.701	491.99
400.08	495.61
400.458	508.72
400.837	488.83
401.215	499.45
401.594	518.43
401.972	539.68
402.351	526.57
402.729	543.06
403.107	537.19
403.486	541.93
403.864	543.74
404.242	541.93
404.62	556.17
404.999	526.57
405.377	554.59
405.755	557.98
406.133	577.64
406.511	561.14
406.889	594.14
407.267	583.29
407.645	582.39
408.023	597.3
408.401	581.26
408.779	599.56
409.156	607.7
409.534	608.83
409.912	598.43
410.29	614.7
410.667	634.81
411.045	632.33
411.422	653.12
411.8	663.29
412.178	636.4
412.555	651.76
412.933	691.54
413.31	672.78
413.687	679.56
414.065	691.31
414.442	692.67
414.819	694.25
415.197	683.17
415.574	729.5
415.951	700.35
416.328	734.25
416.705	724.98
417.082	728.82
417.46	718.43
417.837	731.08
418.214	725.88
418.591	761.59
418.967	760.23
419.344	786.67
419.721	780.8
420.098	761.36
420.475	770.4
420.852	773.57
421.228	818.54
421.605	757.97
421.982	790.06
422.358	818.99
422.735	814.24
423.111	814.47
423.488	828.71
423.864	820.8
424.241	829.84
424.617	836.84
424.994	844.53
425.37	838.65
425.746	836.39
426.123	866.9
426.499	860.12
426.875	870.06
427.251	886.33
427.627	905.32
428.003	917.07
428.379	896.73
428.756	921.36
429.132	955.26
429.507	935.6
429.883	965.43
430.259	983.05
430.635	990.51
431.011	994.8
431.387	1011.3
431.763	1006.1
432.138	1002.94
432.514	1032.54
432.89	1033.45
433.265	1041.81
433.641	1097.4
434.016	1064.63
434.392	1126.78
434.767	1133.11
435.143	1107.8
435.518	1136.5
435.894	1147.34
436.269	1127.91
436.644	1178.08
437.02	1180.56
437.395	1174.23
437.77	1214.69
438.145	1186.89
438.52	1207.23
438.895	1218.98
439.271	1238.64
439.646	1264.63
440.021	1263.72
440.395	1245.87
440.77	1270.28
441.145	1274.57
441.52	1300.11
441.895	1296.72
442.27	1317.28
442.645	1334.46
443.019	1319.99
443.394	1329.71
443.769	1353.21
444.143	1339.65
444.518	1382.14
444.892	1372.42
445.267	1373.1
445.641	1398.86
446.016	1397.73
446.39	1405.42
446.764	1384.17
447.139	1424.62
447.513	1423.72
447.887	1414.45
448.262	1433.44
448.636	1426.21
449.01	1454.91
449.384	1448.8
449.758	1490.84
450.132	1495.13
450.506	1527.67
450.88	1522.02
451.254	1510.05
451.628	1560.67
452.002	1543.94
452.376	1577.84
452.75	1594.34
453.123	1601.79
453.497	1616.93
453.871	1647.22
454.244	1633.21
454.618	1690.38
454.992	1678.18
455.365	1684.96
455.739	1713.43
456.112	1731.28
456.486	1754.11
456.859	1732.41
457.232	1802.47
457.606	1782.81
457.979	1829.81
458.352	1897.15
458.725	1877.04
459.099	1897.15
459.472	1943.71
459.845	1929.24
460.218	1957.94
460.591	1988.9
460.964	1990.48
461.337	2035.91
461.71	2089.92
462.083	2077.49
462.456	2110.71
462.829	2095.79
463.201	2163.14
463.574	2118.84
463.947	2181.44
464.32	2195.22
464.692	2247.88
465.065	2237.48
465.438	2280.19
465.81	2356.12
466.183	2345.28
466.555	2413.07
466.928	2401.32
467.3	2465.73
467.672	2469.79
468.045	2508.44
468.417	2545.95
468.789	2565.16
469.161	2611.94
469.534	2682.44
469.906	2726.74
470.278	2752.5
470.65	2759.28
471.022	2821.42
471.394	2882.66
471.766	2906.84
472.138	2955.43
472.51	3023.9
472.882	3050.8
473.253	3117.01
473.625	3175.31
473.997	3209.44
474.369	3281.75
474.74	3309.09
475.112	3376.89
475.484	3451.69
475.855	3526.72
476.227	3524.68
476.598	3690.78
476.97	3711.34
477.341	3772.81
477.713	3852.81
478.084	3910.43
478.455	3998.79
478.827	4088.28
479.198	4136.42
479.569	4170.99
479.94	4346.58
480.311	4346.58
480.682	4489.4
481.053	4601.49
481.424	4649.85
481.795	4724.65
482.166	4761.26
482.537	4860.47
482.908	4989.5
483.279	5050.74
483.65	5143.62
484.021	5284.41
484.391	5310.4
484.762	5339.32
485.133	5481.01
485.503	5497.51
485.874	5646.89
486.244	5701.57
486.615	5843.72
486.985	5874.45
487.356	6005.97
487.726	6062.02
488.097	6208.68
488.467	6220.66
488.837	6397.6
489.207	6454.77
489.578	6546.97
489.948	6640.31
490.318	6687.76
490.688	6763.01
491.058	6819.51
491.428	6981.99
491.798	7031.71
492.168	7119.84
492.538	7184.47
492.908	7264.7
493.278	7379.04
493.648	7436.44
494.017	7483.67
494.387	7594.18
494.757	7671.46
495.126	7768.41
495.496	7752.14
495.866	7830.1
496.235	7926.6
496.605	8014.96
496.974	8071.23
497.344	8120.04
497.713	8234.16
498.082	8372.92
498.452	8404.78
498.821	8450.65
499.19	8490.2
499.559	8536.53
499.928	8572.46
500.298	8664.66
500.667	8777.88
501.036	8765.45
501.405	8901.94
501.774	8884.31
502.143	8924.54
502.512	8997.53
502.88	9077.98
503.249	9108.72
503.618	9182.61
503.987	9241.59
504.356	9275.04
504.724	9435.71
505.093	9467.8
505.462	9497.86
505.83	9539.44
506.199	9688.81
506.567	9772.2
506.936	9736.04
507.304	9927.9
507.672	9963.16
508.041	9974.46
508.409	10148.69
508.777	10179.87
509.145	10236.37
509.514	10315.01
509.882	10425.52
510.25	10437.49
510.618	10534.44
510.986	10616.25
511.354	10717.49
511.722	10764.04
512.09	10858.73
512.458	10857.82
512.826	10995.22
513.193	11109.34
513.561	11138.94
513.929	11209.23
514.297	11413.74
514.664	11424.13
515.032	11641.98
515.4	11687.18
515.767	11746.16
516.135	11838.36
516.502	11734.86
516.869	12001.07
517.237	12028.19
517.604	12055.98
517.972	12282.19
518.339	12320.83
518.706	12345.47
519.073	12469.08
519.44	12603.99
519.808	12719.02
520.175	12709.3
520.542	12955.62
520.909	13153.13
521.276	13044.21
521.643	13194.48
522.009	13279.68
522.376	13441.03
522.743	13500.46
523.11	13583.4
523.477	13729.16
523.843	13868.59
524.21	14020.45
524.577	14040.79
524.943	14165.76
525.31	14277.39
525.676	14397.39
526.043	14612.3
526.409	14636.03
526.776	14749.02
527.142	14918.51
527.508	14956.02
527.874	15023.36
528.241	15196.01
528.607	15238.72
528.973	15440.53
529.339	15443.92
529.705	15537.25
530.071	15689.79
530.437	15726.85
530.803	15937.46
531.169	15953.73
531.535	15931.36
531.901	16069.66
532.267	16183.33
532.632	16277.11
532.998	16337.68
533.364	16411.35
533.73	16492.48
534.095	16619.48
534.461	16643.21
534.826	16763.66
535.192	16965.91
535.557	17029.41
535.923	17008.62
536.288	17085.45
536.653	17248.39
537.019	17202.06
537.384	17299.46
537.749	17325.22
538.114	17366.35
538.479	17390.53
538.845	17520.92
539.21	17526.12
539.575	17622.16
539.94	17769.96
540.305	17836.17
540.67	17794.59
541.034	17971.76
541.399	18033.9
541.764	17962.49
542.129	18125.65
542.494	18145.77
542.858	18304.41
543.223	18315.03
543.587	18380.11
543.952	18390.73
544.316	18545.08
544.681	18511.18
545.045	18620.78
545.41	18745.3
545.774	18797.95
546.138	18871.4
546.503	18901.23
546.867	18918.63
547.231	19117.72
547.595	19205.85
547.959	19203.82
548.324	19270.26
548.688	19235.23
549.052	19397.48
549.416	19458.05
549.779	19578.27
550.143	19521.32
550.507	19671.83
550.871	19790.69
551.235	19780.07
551.599	20083.57
551.962	20134.41
552.326	20152.04
552.689	20354.52
553.053	20274.07
553.417	20329.66
553.78	20677.45
554.143	20685.59
554.507	20789.31
554.87	20839.03
555.234	21104.33
555.597	21198.79
555.96	21178
556.323	21388.39
556.686	21482.18
557.05	21600.82
557.413	21794.71
557.776	21905.21
558.139	22001.94
558.502	22236.51
558.865	22264.08
559.228	22478.08
559.59	22490.96
559.953	22714.01
560.316	22945.19
560.679	22965.3
561.041	23220.89
561.404	23284.61
561.767	23591.72
562.129	23571.84
562.492	23810.7
562.854	23898.16
563.217	24013.41
563.579	24174.99
563.941	24453.4
564.304	24528.65
564.666	24720.06
565.028	24889.32
565.39	25034.17
565.753	25110.1
566.115	25303.32
566.477	25480.04
566.839	25596.42
567.201	25886.35
567.563	25911.44
567.925	26322.05
568.287	26336.96
568.648	26498.31
569.01	26785.31
569.372	27049.03
569.734	26974.46
570.095	27282.93
570.457	27453.09
570.819	27622.13
571.18	27662.35
571.542	27989.12
571.903	28011.5
572.265	28361.54
572.626	28333.97
572.987	28577.36
573.349	28661.87
573.71	28925.14
574.071	29085.14
574.432	29271.57
574.794	29505.92
575.155	29602.64
575.516	29608.29
575.877	29858.23
576.238	29984.1
576.599	30100.03
576.96	30326.69
577.32	30424.09
577.681	30563.74
578.042	30772.33
578.403	30819.78
578.763	31041.7
579.124	31017.52
579.485	31219.77
579.845	31411.63
580.206	31342.25
580.566	31442.14
580.927	31573.66
581.287	31653.89
581.648	31570.5
582.008	31880.77
582.368	31824.95
582.728	32092.07
583.089	32077.6
583.449	32121.9
583.809	32269.91
584.169	32470.36
584.529	32359.18
584.889	32668.55
585.249	32452.96
585.609	32529.57
585.969	32686.85
586.329	32641.43
586.688	32699.73
587.048	32679.39
587.408	32780.86
587.768	32873.29
588.127	32867.41
588.487	32825.15
588.846	33115.54
589.206	32902.21
589.565	33075.09
589.925	33243
590.284	33195.99
590.643	33230.11
591.003	33313.05
591.362	33322.77
591.721	33415.65
592.08	33426.72
592.44	33585.81
592.799	33524.34
593.158	33609.99
593.517	33537
593.876	33680.5
594.235	33592.59
594.593	33596.43
594.952	33596.43
595.311	33592.37
595.67	33641.86
596.029	33822.64
596.387	33922.07
596.746	33918.91
597.104	33785.58
597.463	33901.28
597.822	34004.78
598.18	33892.24
598.538	33923.43
598.897	34049.98
599.255	33751.46
599.613	34179.92
599.972	34081.84
600.33	34148.51
600.688	33956.2
601.046	34127.49
601.404	34413.81
601.762	34260.37
602.12	34376.98
602.478	34339.01
602.836	34408.39
603.194	34310.54
603.552	34315.96
603.91	34262.63
604.268	34513.92
604.625	34261.5
604.983	34448.16
605.341	34342.85
605.698	34512.79
606.056	34581.49
606.413	34510.53
606.771	34601.83
607.128	34791.43
607.485	34542.85
607.843	34660.36
608.2	34872.78
608.557	34856.29
608.914	34737.87
609.272	35049.28
609.629	34968.37
609.986	35055.15
610.343	34910.3
610.7	35154.81
611.057	35166.79
611.414	35202.94
611.771	35129.5
612.127	35250.85
612.484	35060.8
612.841	35270.51
613.198	35185.54
613.554	35235.03
613.911	35504.86
614.267	35535.59
614.624	35399.55
614.98	35500.11
615.337	35613.56
615.693	35543.95
616.05	35508.02
616.406	35726.55
616.762	35577.4
617.118	35689.03
617.475	35758.86
617.831	35796.38
618.187	35830.95
618.543	35861.23
618.899	36069.36
619.255	36048.35
619.611	35980.78
619.967	36005.64
620.323	36216.03
620.678	36025.97
621.034	36042.02
621.39	36038.4
621.746	35815.13
622.101	36325.85
622.457	35926.09
622.812	36016.26
623.168	36202.47
623.523	36043.37
623.879	36155.46
624.234	36011.96
624.589	36090.6
624.945	36195.69
625.3	36148.23
625.655	36176.25
626.01	36249.7
626.365	36206.99
626.72	36234.33
627.075	36138.51
627.43	36058.29
627.785	36111.4
628.14	36101
628.495	36152.98
628.85	36066.88
629.205	36028.69
629.559	36171.28
629.914	35967.22
630.269	36043.37
630.623	35986.2
630.978	36014.22
631.332	36042.02
631.687	36111.85
632.041	35942.13
632.396	35914.56
632.75	35872.76
633.104	35871.18
633.459	35727
633.813	35683.16
634.167	35790.05
634.521	35766.32
634.875	35712.76
635.229	35567.23
635.583	35516.61
635.937	35465.54
636.291	35473.9
636.645	35525.87
636.999	35362.49
637.352	35443.16
637.706	35153
638.06	35384.41
638.413	35262.38
638.767	35263.51
639.121	35222.83
639.474	35080.91
639.828	35048.6
640.181	35150.06
640.534	35293.79
640.888	35072.78
641.241	35114.36
641.594	35009.73
641.947	35057.64
642.301	34970.63
642.654	34883.63
643.007	35153.23
643.36	34889.05
643.713	34802.5
644.066	34993.46
644.419	34783.29
644.771	34512.34
645.124	34254.27
645.477	34192.8
645.83	33888.4
646.182	33947.84
646.535	33621.74
646.888	33746.94
647.24	33541.29
647.593	33747.84
647.945	33730.44
648.298	33434.86
648.65	33579.71
649.002	33320.96
649.355	33564.8
649.707	33614.51
650.059	33755.75
650.411	33981.28
650.763	34211.56
651.115	34515.28
651.467	34427.15
651.819	34313.25
652.171	34276.42
652.523	34108.28
652.875	34165.91
653.227	34119.81
653.578	34367.03
653.93	34169.3
654.282	34029.42
654.633	33990.77
654.985	34050.66
655.337	34010.66
655.688	34010.89
656.039	34135.18
656.391	33881.4
656.742	33962.75
657.094	34008.63
657.445	34123.2
657.796	34040.04
658.147	33970.66
658.498	33962.75
658.849	34066.93
659.2	33924.56
659.551	33876.43
659.902	33999.13
660.253	33922.3
660.604	33964.56
660.955	33776.32
661.306	33891.57
661.656	33865.35
662.007	33912.13
662.358	33952.58
662.708	33829.65
663.059	33864
663.409	33672.82
663.76	33911.68
664.11	33986.25
664.461	33942.19
664.811	33880.04
665.161	33806.82
665.511	33702.87
665.862	33798.24
666.212	33850.21
666.562	33939.02
666.912	33936.99
667.262	33860.61
667.612	33834.39
667.962	33898.57
668.312	33740.84
668.662	33885.46
669.011	33788.29
669.361	33699.48
669.711	33702.19
670.06	33664.45
670.41	33499.49
670.76	33553.95
671.109	33600.73
671.459	33529.09
671.808	33584.68
672.157	33526.15
672.507	33337.23
672.856	33471.92
673.205	33546.26
673.554	33609.77
673.904	33364.35
674.253	33616.32
674.602	33521.18
674.951	32838.71
675.3	32873.74
675.649	33343.11
675.998	33282.54
676.346	33208.42
676.695	33375.2
677.044	33086.16
677.393	33199.16
677.741	33188.99
678.09	33211.36
678.438	32973.85
678.787	33066.5
679.135	33064.47
679.484	32763.69
679.832	33027.18
680.181	32760.3
680.529	32793.29
680.877	32774.31
681.225	32773.18
681.573	32892.04
681.922	32741.09
682.27	32540.87
682.618	32486.18
682.966	32539.51
683.314	32510.59
683.661	32393.98
684.009	32311.5
684.357	32250.25
684.705	32237.82
685.053	32128
685.4	32073.54
685.748	31969.13
686.095	31933.2
686.443	31829.02
686.79	31679.42
687.138	31785.18
687.485	31690.27
687.832	31693.88
688.18	31643.94
688.527	31485.75
688.874	31371.86
689.221	31349.26
689.568	31181.58
689.915	31196.27
690.262	31162.37
690.609	31064.75
690.956	31085.54
691.303	30996.95
691.65	30702.5
691.997	30652.56
692.344	30507.7
692.69	30471.32
693.037	30519.23
693.383	30169.63
693.73	30408.49
694.077	30167.6
694.423	30078.56
694.769	30023.65
695.116	30012.12
695.462	29947.04
695.808	29755.18
696.155	29838.79
696.501	29526.03
696.847	29609.87
697.193	29343.21
697.539	29512.92
697.885	29197.45
698.231	29088.98
698.577	29080.62
698.923	29064.35
699.269	29079.49
699.614	28719.95
699.96	28716.11
700.306	28697.58
700.651	28542.78
700.997	28582.1
701.342	28394.08
701.688	28432.95
702.033	28173.3
702.379	28164.71
702.724	28007.2
703.069	28183.02
703.415	27866.64
703.76	27852.86
704.105	27864.61
704.45	27788.22
704.795	27513.43
705.14	27498.29
705.485	27493.09
705.83	27258.52
706.175	27363.83
706.52	27189.82
706.865	26948.25
707.209	27042.26
707.554	27000.45
707.899	26980.34
708.243	26842.49
708.588	26797.97
708.932	26570.63
709.277	26657.63
709.621	26604.07
709.966	26408.83
710.31	26559.1
710.654	26336.51
710.998	26499.22
711.342	26308.49
711.687	26265.1
712.031	26111.88
712.375	26006.8
712.719	26057.2
713.063	25961.61
713.407	26146.46
713.75	25965.9
714.094	25905.56
714.438	25732.68
714.782	25772.01
715.125	25596.87
715.469	25722.52
715.812	25652.01
716.156	25449.53
716.499	25490.88
716.843	25486.14
717.186	25411.56
717.53	25509.64
717.873	25443.65
718.216	25365.01
718.559	25260.61
718.902	25104.45
719.246	25159.37
719.589	25166.15
719.932	25035.75
720.275	25022.87
720.617	25045.7
720.96	25015.19
721.303	25007.05
721.646	25007.05
721.989	24804.8
722.331	24875.08
722.674	24893.61
723.016	24968.41
723.359	24826.49
723.701	24807.74
724.044	24719.38
724.386	24563.68
724.729	24824.01
725.071	24651.58
725.413	24558.7
725.755	24617.01
726.097	24490.91
726.439	24491.59
726.782	24525.26
727.124	24567.29
727.465	24398.71
727.807	24501.3
728.149	24313.51
728.491	24460.85
728.833	24403.23
729.175	24226.28
729.516	24354.64
729.858	24294.76
730.199	24295.21
730.541	24253.63
730.882	24212.72
731.224	24435.32
731.565	24213.85
731.906	24339.28
732.248	24250.01
732.589	24164.59
732.93	24029.9
733.271	24166.4
733.612	24095.21
733.953	24179.28
734.294	24041.2
734.635	23984.71
734.976	24166.62
735.317	24058.83
735.658	24035.55
735.999	24038.72
736.339	23972.05
736.68	24096.8
737.021	23950.36
737.361	23961.66
737.702	24031.94
738.042	23946.52
738.383	23988.55
738.723	24073.75
739.063	23932.73
739.404	23891.6
739.744	23927.31
740.084	23748.33
740.424	23913.98
740.764	23825.62
741.104	23906.29
741.444	23822.68
741.784	23797.14
742.124	23758.5
742.464	23858.16
742.804	23854.09
743.143	23763.92
743.483	23869.46
743.823	23767.31
744.162	23797.37
744.502	23830.81
744.841	23665.17
745.181	23866.07
745.52	23691.61
745.86	23693.87
746.199	23700.65
746.538	23648.67
746.877	23809.57
747.216	23775.45
747.556	23713.53
747.895	23644.6
748.234	23641.67
748.573	23626.98
748.911	23600.09
749.25	23616.81
749.589	23459.52
749.928	23632.85
750.267	23552.18
750.605	23539.97
750.944	23540.88
751.283	23489.81
751.621	23492.52
751.96	23332.3
752.298	23373.65
752.636	23277.83
752.975	23365.06
753.313	23224.28
753.651	23458.17
753.989	23259.76
754.327	23178.4
754.666	23109.93
755.004	23184.96
755.342	23268.79
755.679	23183.83
756.017	22954.9
756.355	23162.81
756.693	23043.72
757.031	23217.95
757.368	23001.46
757.706	22885.98
758.044	22843.95
758.381	22859.54
758.719	22746.77
759.056	22809.15
759.394	22673.33
759.731	22575.03
760.068	22642.37
760.405	22620.45
760.743	22450.96
761.08	22499.1
761.417	22329.16
761.754	22240.8
762.091	22260.23
762.428	22319.89
762.765	22171.87
763.102	22234.92
763.438	22056.17
763.775	21907.25
764.112	21964.87
764.449	22020.92
764.785	21789.96
765.122	21788.16
765.458	21736.41
765.795	21514.72
766.131	21685.56
766.467	21490.76
766.804	21360.14
767.14	21324.44
767.476	21419.8
767.812	21337.55
768.148	21252.8
768.485	21114.73
768.821	21035.41
769.157	20924.45
769.492	21005.13
769.828	20990.66
770.164	20726.71
770.5	20716.55
770.836	20716.77
771.171	20530.11
771.507	20576.21
771.842	20389.77
772.178	20430.23
772.513	20406.5
772.849	20105.71
773.184	20162.44
773.519	20086.51
773.855	19927.19
774.19	19900.75
774.525	19844.7
774.86	19907.53
775.195	19806.29
775.53	19790.69
775.865	19624.15
776.2	19561.1
776.535	19391.16
776.87	19428.22
777.205	19292.4
777.539	19147.1
777.874	19227.09
778.209	19140.99
778.543	19037.04
778.878	18982.13
779.212	18941
779.547	18893.77
779.881	18810.38
780.215	18664.4
780.55	18817.16
780.884	18584.17
781.218	18532.65
781.552	18481.12
781.886	18447.23
782.22	18360.22
782.554	18276.38
782.888	18083.17
783.222	18157.52
783.556	18001.81
783.889	18018.31
784.223	17783.06
784.557	17788.04
784.89	17873.23
785.224	17779.22
785.557	17712.33
785.891	17677.3
786.224	17612.45
786.558	17616.74
786.891	17381.94
787.224	17219.24
787.557	17263.98
787.891	17214.94
788.224	17221.27
788.557	17237.54
788.89	17214.49
789.223	17088.17
789.556	16964.1
789.888	16872.58
790.221	16853.37
790.554	16742.64
790.887	16703.77
791.219	16661.29
791.552	16600.27
791.884	16568.41
792.217	16628.07
792.549	16473.72
792.882	16320.05
793.214	16318.24
793.546	16415.19
793.879	16206.61
794.211	16128.87
794.543	16185.14
794.875	16186.72
795.207	16151.02
795.539	16061.53
795.871	16052.49
796.203	15932.04
796.535	15756.45
796.867	15665.38
797.198	15699.95
797.53	15754.64
797.862	15585.38
798.193	15696.34
798.525	15538.83
798.856	15559.17
799.188	15315.78
799.519	15325.73
799.85	15302.45
800.182	15191.95
800.513	15239.4
800.844	15172.96
801.175	15266.75
801.506	15111.27
801.837	15149.23
802.168	15053.87
802.499	15033.53
802.83	14972.29
803.161	14860.88
803.491	14775.68
803.822	14847.32
804.153	14684.84
804.483	14673.99
804.814	14674.67
805.145	14643.94
805.475	14620.43
805.805	14548.8
806.136	14538.18
806.466	14499.76
806.796	14457.95
807.126	14345.64
807.457	14256.6
807.787	14326.21
808.117	14274.91
808.447	14155.59
808.777	14152.88
809.107	14111.75
809.436	14158.53
809.766	14074.46
810.096	14027.68
810.426	14013.45
810.755	13930.51
811.085	13968.47
811.414	13913.33
811.744	13789.72
812.073	13750.85
812.403	13778.2
812.732	13552.21
813.061	13604.19
813.39	13631.99
813.719	13601.25
814.049	13581.82
814.378	13478.32
814.707	13487.36
815.036	13440.58
815.365	13449.62
815.693	13391.31
816.022	13342.95
816.351	13211.21
816.68	13226.8
817.008	13287.81
817.337	13083.3
817.665	13090.08
817.994	13192.45
818.322	13137.99
818.651	13072.68
818.979	12918.11
819.307	12999.46
819.636	12979.8
819.964	12967.37
820.292	12980.48
820.62	13022.06
820.948	12946.58
821.276	12956.07
821.604	12888.05
821.932	12921.04
822.259	12960.14
822.587	12906.81
822.915	12839.92
823.243	12928.73
823.57	12773.48
823.898	12897.54
824.225	12790.43
824.553	12820.71
824.88	12898.67
825.207	12922.85
825.535	12823.87
825.862	12900.03
826.189	12817.54
826.516	12912.23
826.843	12991.33
827.17	12876.75
827.497	12921.04
827.824	12844.44
828.151	12897.09
828.478	12838.33
828.805	12879.69
829.131	12821.84
829.458	12789.52
829.785	12697.55
830.111	12776.64
830.438	12802.86
830.764	12808.51
831.09	12831.78
831.417	12780.03
831.743	12761.73
832.069	12824.55
832.395	12733.93
832.722	12739.35
833.048	12764.21
833.374	12701.39
833.7	12702.07
834.026	12785
834.351	12677.44
834.677	12647.38
835.003	12643.99
835.329	12710.43
835.654	12554.05
835.98	12552.24
836.306	12578.23
836.631	12453.71
836.956	12530.09
837.282	12474.05
837.607	12460.27
837.932	12413.71
838.258	12453.71
838.583	12477.44
838.908	12259.14
839.233	12448.29
839.558	12360.16
839.883	12333.72
840.208	12304.79
840.533	12309.08
840.858	12388.86
841.182	12276.99
841.507	12254.85
841.832	12211.01
842.156	12206.49
842.481	12148.64
842.805	12206.71
843.13	12069.99
843.454	12102.31
843.778	12134.62
844.103	12004.01
844.427	12004.23
844.751	12005.59
845.075	12001.07
845.399	11826.38
845.723	11864.8
846.047	11867.51
846.371	11721.53
846.695	11821.19
847.019	11633.39
847.343	11732.15
847.666	11577.35
847.99	11525.83
848.313	11516.56
848.637	11420.97
848.96	11380.52
849.284	11316.11
849.607	11267.75
849.931	11254.42
850.254	11120.41
850.577	11157.7
850.9	11063.69
851.223	11031.83
851.546	10992.51
851.869	10922.68
852.192	10990.47
852.515	10907.31
852.838	10852.17
853.161	10842.68
853.483	10816.24
853.806	10787.54
854.129	10750.25
854.451	10745.51
854.774	10627.09
855.096	10653.53
855.419	10557.72
855.741	10573.54
856.063	10447.21
856.385	10475.23
856.708	10445.18
857.03	10447.44
857.352	10421.22
857.674	10386.2
857.996	10329.02
858.318	10300.1
858.64	10242.02
858.961	10278.4
859.283	10146.65
859.605	10247.89
859.926	10195.69
860.248	10179.42
860.57	10140.33
860.891	10023.04
861.212	10047.67
861.534	10007.9
861.855	10048.35
862.176	10056.04
862.498	9981.23
862.819	9939.65
863.14	9897.62
863.461	9916.15
863.782	9872.09
864.103	9918.41
864.424	9890.84
864.745	9917.51
865.065	9809.71
865.386	9797.51
865.707	9823.27
866.027	9798.41
866.348	9757.96
866.668	9770.84
866.989	9709.83
867.309	9690.17
867.63	9651.53
867.95	9697.63
868.27	9600.68
868.59	9655.59
868.91	9612.66
869.23	9614.69
869.55	9588.7
869.87	9583.51
870.19	9523.85
870.51	9503.73
870.83	9517.52
871.15	9457.18
871.469	9418.31
871.789	9474.13
872.109	9545.99
872.428	9411.76
872.748	9480.91
873.067	9438.2
873.386	9409.5
873.706	9400.69
874.025	9275.49
874.344	9384.41
874.663	9438.65
874.982	9323.85
875.301	9338.77
875.62	9256.06
875.939	9254.25
876.258	9231.2
876.577	9177.87
876.896	9180.35
877.214	9213.12
877.533	9198.66
877.852	9166.57
878.17	9184.42
878.489	9104.65
878.807	9117.75
879.125	9165.44
879.444	9164.99
879.762	9064.87
880.08	9115.27
880.398	9007.93
880.716	9059.23
881.034	9028.27
881.352	9009.96
881.67	8983.52
881.988	8954.6
882.306	8979.91
882.624	8917.08
882.941	8921.6
883.259	8884.99
883.577	8872.34
883.894	8842.73
884.212	8786.01
884.529	8784.66
884.846	8803.41
885.164	8754.15
885.481	8769.29
885.798	8736.3
886.115	8714.6
886.432	8716.64
886.75	8683.42
887.067	8661.27
887.383	8675.51
887.7	8610.88
888.017	8657.43
888.334	8625.34
888.651	8518.67
888.967	8541.5
889.284	8471.67
889.6	8470.09
889.917	8423.54
890.233	8472.8
890.55	8409.07
890.866	8421.5
891.182	8369.3
891.498	8373.82
891.815	8234.61
892.131	8270.55
892.447	8245.46
892.763	8229.87
893.079	8181.06
893.395	8195.52
893.71	8103.54
894.026	8122.53
894.342	8145.58
894.657	8077.56
894.973	8070.78
895.289	8028.97
895.604	8063.32
895.92	7983.55
896.235	7948.97
896.55	7943.32
896.865	7956.66
897.181	7854.74
897.496	7831.46
897.811	7781.52
898.126	7803.44
898.441	7867.62
898.756	7765.25
899.071	7715.53
899.386	7732.48
899.7	7677.57
900.015	7562.99
900.33	7576.78
900.644	7576.33
900.959	7631.92
901.273	7591.24
901.588	7498.59
901.902	7494.97
902.216	7462.2
902.531	7465.14
902.845	7418.82
903.159	7397.57
903.473	7297.92
903.787	7332.26
904.101	7312.38
904.415	7294.75
904.729	7256.33
905.042	7236.9
905.356	7162.1
905.67	7156.68
905.984	7151.48
906.297	7159.39
906.611	7067.19
906.924	7092.27
907.237	7056.57
907.551	7034.65
907.864	6974.76
908.177	6954.2
908.491	6926.63
908.804	6924.82
909.117	6880.75
909.43	6862.45
909.743	6802.56
910.056	6784.26
910.368	6806.4
910.681	6731.15
910.994	6657.48
911.307	6609.35
911.619	6645.05
911.932	6649.12
912.244	6588.78
912.557	6641.66
912.869	6538.39
913.181	6588.56
913.494	6562.34
913.806	6476.47
914.118	6486.64
914.43	6444.83
914.742	6438.5
915.054	6328.9
915.366	6349.92
915.678	6328
915.99	6266.98
916.302	6242.35
916.613	6227.21
916.925	6203.25
917.236	6219.75
917.548	6152.86
917.859	6152.63
918.171	6064.73
918.482	6101.11
918.794	6027.89
919.105	6020.66
919.416	5984.5
919.727	6000.55
920.038	5965.97
920.349	5928.91
920.66	5878.97
920.971	5868.8
921.282	5891.62
921.593	5789.48
921.903	5844.62
922.214	5770.5
922.525	5794.68
922.835	5782.7
923.146	5636.72
923.456	5699.99
923.767	5729.82
924.077	5654.79
924.387	5667.68
924.697	5606.43
925.008	5589.26
925.318	5586.32
925.628	5546.32
925.938	5519.43
926.248	5475.36
926.558	5469.71
926.867	5424.74
927.177	5456.38
927.487	5408.47
927.796	5344.75
928.106	5307.46
928.416	5327.57
928.725	5335.48
929.034	5287.8
929.344	5261.81
929.653	5286.89
929.962	5193.79
930.271	5187.24
930.581	5163.06
930.89	5115.6
931.199	5124.87
931.508	5092.55
931.817	5093
932.125	5076.73
932.434	5096.17
932.743	4987.92
933.051	4996.96
933.36	4994.25
933.669	4951.31
933.977	4939.33
934.286	4932.33
934.594	4900.01
934.902	4880.8
935.21	4875.61
935.519	4891.65
935.827	4802.16
936.135	4788.15
936.443	4758.77
936.751	4732.79
937.059	4745.89
937.367	4710.19
937.674	4714.71
937.982	4668.15
938.29	4630.19
938.597	4673.58
938.905	4599.23
939.213	4604.88
939.52	4563.07
939.827	4561.26
940.135	4534.6
940.442	4518.1
940.749	4554.03
941.056	4500.02
941.363	4437.43
941.67	4454.15
941.977	4427.03
942.284	4394.49
942.591	4389.29
942.898	4319.01
943.205	4367.6
943.511	4305.9
943.818	4308.16
944.125	4250.76
944.431	4307.03
944.738	4223.87
945.044	4269.97
945.35	4239.24
945.657	4199.69
945.963	4180.03
946.269	4198.34
946.575	4189.97
946.881	4144.55
947.187	4132.35
947.493	4081.95
947.799	4073.59
948.105	4094.38
948.41	4035.85
948.716	4056.42
949.022	3964.9
949.327	4000.83
949.633	4007.38
949.938	3964.67
950.244	3929.42
950.549	3968.51
950.854	3886.93
951.16	3899.13
951.465	3882.86
951.77	3891.45
952.075	3855.52
952.38	3839.02
952.685	3782.3
952.99	3814.62
953.294	3760.38
953.599	3754.05
953.904	3727.61
954.209	3679.71
954.513	3737.56
954.818	3672.47
955.122	3658.01
955.426	3627.28
955.731	3641.97
956.035	3634.28
956.339	3616.66
956.643	3632.93
956.948	3623.66
957.252	3604.23
957.556	3587.96
957.86	3545.02
958.163	3551.12
958.467	3545.02
958.771	3533.95
959.075	3532.82
959.378	3454.85
959.682	3468.86
959.985	3461.86
960.289	3406.94
960.592	3390.22
960.896	3389.77
961.199	3359.49
961.502	3328.53
961.805	3365.14
962.108	3335.31
962.411	3330.56
962.714	3306.61
963.017	3284.46
963.32	3300.51
963.623	3289.43
963.926	3262.32
964.228	3249.21
964.531	3212.83
964.833	3227.97
965.136	3212.83
965.438	3199.49
965.741	3165.14
966.043	3218.93
966.345	3178.48
966.648	3163.11
966.95	3165.82
967.252	3107.07
967.554	3062.55
967.856	3084.92
968.158	3090.57
968.46	3067.07
968.761	3035.43
969.063	3047.63
969.365	3003.79
969.666	2990.23
969.968	2978.93
970.269	2983.23
970.571	2984.58
970.872	2934.19
971.174	2889.9
971.475	2886.05
971.776	2904.36
972.077	2884.47
972.378	2880.63
972.679	2874.53
972.98	2848.77
973.281	2879.95
973.582	2836.56
973.883	2824.59
974.183	2812.16
974.484	2792.95
974.785	2804.93
975.085	2783.01
975.386	2751.14
975.686	2740.52
975.986	2736
976.287	2727.87
976.587	2721.54
976.887	2735.78
977.187	2684.7
977.487	2691.71
977.787	2670.69
978.087	2675.89
978.387	2679.96
978.687	2659.62
978.987	2625.72
979.286	2588.21
979.586	2622.11
979.885	2603.8
980.185	2604.48
980.484	2557.7
980.784	2560.19
981.083	2572.16
981.382	2527.87
981.682	2565.38
981.981	2558.61
982.28	2545.05
982.579	2505.5
982.878	2490.81
983.177	2515.44
983.475	2468.66
983.774	2436.57
984.073	2435.9
984.372	2423.69
984.67	2421.66
984.969	2426.41
985.267	2429.79
985.566	2381.21
985.864	2357.25
986.162	2369.46
986.461	2356.12
986.759	2336.46
987.057	2356.58
987.355	2339.4
987.653	2288.33
987.951	2322.45
988.249	2326.75
988.547	2267.31
988.844	2283.13
989.142	2282.91
989.44	2245.62
989.737	2252.17
990.035	2248.1
990.332	2263.25
990.63	2209.01
990.927	2221.89
991.224	2173.3
991.521	2216.24
991.819	2221.44
992.116	2144.6
992.413	2157.03
992.71	2112.06
993.006	2145.96
993.303	2137.15
993.6	2130.59
993.897	2105.06
994.193	2105.28
994.49	2080.88
994.787	2073.87
995.083	2041.1
995.379	2055.34
995.676	2073.87
995.972	2033.65
996.268	2032.07
996.565	2034.55
996.861	2037.71
997.157	2002.69
997.453	1990.26
997.749	1979.86
998.044	1981.22
998.34	1980.32
998.636	1952.07
998.932	1923.82
999.227	1927.44
999.523	1919.3
999.818	1910.26
1000.114	1871.84
1000.409	1899.64
1000.704	1912.75
1001	1886.76
1001.295	1843.82
1001.59	1843.37
1001.885	1842.24
1002.18	1797.72
1002.475	1834.1
1002.77	1796.14
1003.065	1796.82
1003.359	1819.42
1003.654	1784.16
1003.949	1781.45
1004.243	1760.21
1004.538	1740.1
1004.832	1764.28
1005.127	1751.85
1005.421	1710.94
1005.715	1677.05
1006.009	1739.64
1006.304	1709.14
1006.598	1690.61
1006.892	1669.59
1007.186	1677.72
1007.48	1623.71
1007.773	1633.88
1008.067	1651.51
1008.361	1647.89
1008.655	1616.48
1008.948	1620.32
1009.242	1626.43
1009.535	1601.57
1009.829	1591.4
1010.122	1604.96
1010.415	1576.26
1010.708	1580.33
1011.001	1558.41
1011.295	1557.73
1011.588	1562.47
1011.881	1530.38
1012.173	1511.63
1012.466	1503.49
1012.759	1503.94
1013.052	1542.36
1013.344	1471.85
1013.637	1482.48
1013.93	1454.23
1014.222	1454.23
1014.514	1430.73
1014.807	1441.35
1015.099	1449.93
1015.391	1463.72
1015.683	1453.1
1015.976	1428.92
1016.268	1429.82
1016.56	1421.91
1016.851	1408.13
1017.143	1378.98
1017.435	1372.42
1017.727	1371.07
1018.018	1368.13
1018.31	1327.22
1018.602	1334.91
1018.893	1341.01
1019.185	1301.24
1019.476	1325.42
1019.767	1305.08
1020.058	1308.47
1020.35	1287.45
1020.641	1291.07
1020.932	1274.12
1021.223	1313.89
1021.514	1250.62
1021.804	1251.75
1022.095	1245.87
1022.386	1251.07
1022.677	1249.49
1022.967	1221.92
1023.258	1207
1023.548	1197.28
1023.839	1196.83
1024.129	1190.28
1024.419	1180.79
1024.709	1180.79
1025	1161.81
1025.29	1174.46
1025.58	1174.23
1025.87	1137.4
1026.16	1140.79
1026.449	1140.11
1026.739	1124.29
1027.029	1130.62
1027.319	1121.13
1027.608	1144.4
1027.898	1116.84
1028.187	1078.87
1028.477	1060.34
1028.766	1085.88
1029.055	1068.25
1029.344	1054.69
1029.634	1072.54
1029.923	1082.94
1030.212	1070.73
1030.501	1029.83
1030.79	1027.35
1031.078	1022.83
1031.367	1018.98
1031.656	1018.08
1031.945	1003.84
1032.233	998.19
1032.522	968.59
1032.81	985.77
1033.099	994.58
1033.387	987.12
1033.675	958.87
1033.963	986.22
1034.251	979.89
1034.54	955.48
1034.828	971.98
1035.116	932.43
1035.403	969.95
1035.691	930.17
1035.979	918.42
1036.267	926.11
1036.554	949.16
1036.842	910.29
1037.129	920.46
1037.417	912.77
1037.704	880.23
1037.992	870.97
1038.279	878.42
1038.566	875.26
1038.853	875.26
1039.14	875.26
