Data from tablewood_brown_FLMS001491_030.txt Node
Date: Tue Feb 07 11:10:15 GMT 2017
User: dcchb
Spectrometer: FLMS00149
Trigger mode: 0
Integration Time (sec): 2.000000E-2
Scans to average: 10
Electric dark correction enabled: true
Nonlinearity correction enabled: false
Boxcar width: 0
XAxis mode: Wavelengths
Number of Pixels in Spectrum: 2048
>>>>>Begin Spectral Data<<<<<
341.393	-6.27
341.776	-6.27
342.16	-6.27
342.543	-63.22
342.927	-83.33
343.31	-61.64
343.693	-69.32
344.077	-70.45
344.46	-78.13
344.843	-61.18
345.226	-43.11
345.61	-33.84
345.993	-8.3
346.376	1.86
346.759	20.62
347.142	26.5
347.525	44.58
347.908	52.03
348.291	91.58
348.674	85.7
349.057	103.1
349.44	120.96
349.823	149.43
350.206	156.44
350.588	181.52
350.971	212.48
351.354	218.36
351.737	230.78
352.119	256.09
352.502	264.23
352.884	268.3
353.267	300.61
353.65	306.26
354.032	308.3
354.414	305.59
354.797	316.66
355.179	323.44
355.562	308.75
355.944	322.08
356.326	309.43
356.709	331.8
357.091	344.91
357.473	329.99
357.855	334.96
358.238	353.95
358.62	325.47
359.002	358.47
359.384	333.83
359.766	370.67
360.148	322.31
360.53	327.51
360.912	323.89
361.294	329.99
361.676	354.62
362.057	311.46
362.439	340.61
362.821	335.87
363.203	329.99
363.584	342.87
363.966	327.73
364.348	357.56
364.729	339.93
365.111	341.74
365.493	333.38
365.874	310.33
366.256	313.72
366.637	330.44
367.019	297.9
367.4	307.39
367.781	324.34
368.163	333.16
368.544	336.32
368.925	314.62
369.306	327.96
369.688	322.31
370.069	325.92
370.45	313.49
370.831	320.73
371.212	327.05
371.593	312.82
371.974	301.07
372.355	324.12
372.736	342.19
373.117	329.31
373.498	325.02
373.879	343.78
374.26	326.6
374.641	319.14
375.021	317.11
375.402	323.44
375.783	313.27
376.163	341.52
376.544	340.39
376.925	343.55
377.305	335.64
377.686	355.08
378.066	332.25
378.447	330.9
378.827	336.77
379.208	311.23
379.588	329.31
379.968	330.67
380.349	323.44
380.729	354.62
381.109	362.98
381.489	360.5
381.87	330.44
382.25	350.1
382.63	367.5
383.01	355.3
383.39	370.22
383.77	380.61
384.15	389.2
384.53	375.64
384.91	365.02
385.29	376.54
385.67	380.61
386.049	380.84
386.429	388.29
386.809	392.14
387.189	355.08
387.568	391.23
387.948	390.78
388.328	398.92
388.707	382.87
389.087	370.22
389.466	398.92
389.846	405.02
390.225	387.16
390.605	412.48
390.984	408.41
391.363	417.67
391.743	403.44
392.122	396.88
392.501	424.9
392.881	418.12
393.26	427.39
393.639	434.4
394.018	437.56
394.397	441.17
394.776	447.05
395.155	458.12
395.534	442.53
395.913	453.6
396.292	446.15
396.671	443.89
397.05	449.99
397.429	459.93
397.808	466.48
398.186	438.92
398.565	434.17
398.944	456.09
399.323	464.9
399.701	475.75
400.08	459.25
400.458	462.19
400.837	475.52
401.215	475.3
401.594	474.85
401.972	489.08
402.351	507.61
402.729	468.07
403.107	501.74
403.486	512.36
403.864	502.64
404.242	516.88
404.62	506.94
404.999	513.94
405.377	528.4
405.755	545.8
406.133	526.6
406.511	533.15
406.889	532.47
407.267	530.66
407.645	548.06
408.023	527.95
408.401	553.71
408.779	561.85
409.156	541.74
409.534	570.21
409.912	549.65
410.29	562.75
410.667	608.63
411.045	570.44
411.422	584.45
411.8	596.88
412.178	606.82
412.555	619.93
412.933	605.24
413.31	618.8
413.687	608.18
414.065	607.95
414.442	630.1
414.819	640.27
415.197	647.05
415.574	675.74
415.951	656.76
416.328	662.64
416.705	650.43
417.082	656.08
417.46	646.14
417.837	693.6
418.214	665.8
418.591	677.33
418.967	681.17
419.344	705.12
419.721	682.98
420.098	691.11
420.475	707.61
420.852	681.85
421.228	713.03
421.605	706.7
421.982	726.37
422.358	721.85
422.735	721.39
423.111	699.7
423.488	726.14
423.864	741.28
424.241	755.97
424.617	763.2
424.994	767.49
425.37	768.17
425.746	777.66
426.123	779.47
426.499	786.25
426.875	777.44
427.251	808.85
427.627	809.07
428.003	808.85
428.379	799.13
428.756	820.6
429.132	842.75
429.507	863.08
429.883	849.3
430.259	867.15
430.635	857.21
431.011	872.58
431.387	878.68
431.763	878.9
432.138	909.86
432.514	917.77
432.89	937.43
433.265	932.01
433.641	927.04
434.016	948.73
434.392	978.79
434.767	971.78
435.143	966.58
435.518	990.76
435.894	1016.3
436.269	995.06
436.644	1031.22
437.02	1026.7
437.395	1032.8
437.77	1037.09
438.145	1054.27
438.52	1044.1
438.895	1075.28
439.271	1069.18
439.646	1103.53
440.021	1104.21
440.395	1117.09
440.77	1085
441.145	1135.62
441.52	1133.59
441.895	1116.19
442.27	1147.14
442.645	1145.56
443.019	1142.17
443.394	1173.58
443.769	1165.45
444.143	1162.29
444.518	1216.3
444.892	1184.88
445.267	1231.21
445.641	1206.58
446.016	1220.82
446.39	1221.72
446.764	1247.03
447.139	1222.4
447.513	1248.84
447.887	1254.03
448.262	1257.42
448.636	1265.56
449.01	1279.57
449.384	1315.05
449.758	1326.35
450.132	1321.15
450.506	1295.62
450.88	1313.24
451.254	1332.68
451.628	1339.46
452.002	1368.16
452.376	1368.38
452.75	1372.9
453.123	1346.46
453.497	1426.23
453.871	1440.7
454.244	1426.23
454.618	1433.24
454.992	1455.61
455.365	1475.5
455.739	1487.02
456.112	1525.67
456.486	1476.85
456.859	1519.56
457.232	1542.84
457.606	1560.02
457.979	1573.57
458.352	1621.71
458.725	1615.83
459.099	1632.1
459.472	1671.2
459.845	1684.08
460.218	1710.07
460.591	1711.2
460.964	1714.36
461.337	1754.59
461.71	1762.72
462.083	1830.97
462.456	1813.57
462.829	1824.42
463.201	1874.81
463.574	1884.75
463.947	1905.09
464.32	1917.29
464.692	1953.9
465.065	1975.6
465.438	2014.01
465.81	2034.81
466.183	2036.84
466.555	2074.8
466.928	2088.36
467.3	2129.04
467.672	2153.45
468.045	2178.53
468.417	2200
468.789	2218.08
469.161	2258.53
469.534	2268.7
469.906	2335.81
470.278	2361.12
470.65	2384.4
471.022	2429.6
471.394	2497.17
471.766	2510.95
472.138	2510.5
472.51	2611.06
472.882	2674.34
473.253	2705.07
473.625	2760.21
473.997	2760.66
474.369	2823.26
474.74	2858.06
475.112	2918.17
475.484	3014.67
475.855	3005.18
476.227	3110.26
476.598	3173.76
476.97	3185.96
477.341	3286.75
477.713	3344.6
478.084	3378.72
478.455	3484.71
478.827	3531.26
479.198	3612.84
479.569	3631.6
479.94	3756.34
480.311	3825.04
480.682	3898.26
481.053	3992.49
481.424	4060.29
481.795	4107.97
482.166	4173.05
482.537	4274.52
482.908	4351.35
483.279	4409.66
483.65	4444.46
484.021	4569.2
484.391	4574.85
484.762	4682.87
485.133	4749.76
485.503	4758.12
485.874	4933.71
486.244	5003.09
486.615	5069.75
486.985	5158.79
487.356	5210.31
487.726	5297.09
488.097	5357.66
488.467	5437.43
488.837	5561.94
489.207	5571.66
489.578	5628.16
489.948	5736.85
490.318	5785.44
490.688	5831.32
491.058	5994.25
491.428	6035.83
491.798	6107.47
492.168	6205.09
492.538	6252.77
492.908	6354.01
493.278	6430.4
493.648	6454.8
494.017	6561.69
494.387	6636.94
494.757	6612.09
495.126	6747
495.496	6797.84
495.866	6769.6
496.235	6955.35
496.605	6950.16
496.974	6980.21
497.344	7048.23
497.713	7115.8
498.082	7166.87
498.452	7217.49
498.821	7256.59
499.19	7341.11
499.559	7396.47
499.928	7425.4
500.298	7472.18
500.667	7559.18
501.036	7596.92
501.405	7696.8
501.774	7670.82
502.143	7781.77
502.512	7885.95
502.88	7991.26
503.249	7933.41
503.618	7996.68
503.987	8000.98
504.356	8125.94
504.724	8162.1
505.093	8194.64
505.462	8225.15
505.83	8279.39
506.199	8405.71
506.567	8557.35
506.936	8518.48
507.304	8627.4
507.672	8659.26
508.041	8678.92
508.409	8742.88
508.777	8937.22
509.145	9016.09
509.514	8951.69
509.882	9077.78
510.25	9038.01
510.618	9089.31
510.986	9230.55
511.354	9299.92
511.722	9351.68
512.09	9496.08
512.458	9527.94
512.826	9609.3
513.193	9628.05
513.561	9733.36
513.929	9764.55
514.297	9898.55
514.664	10005.67
515.032	9993.47
515.4	10120.24
515.767	10199.34
516.135	10252.44
516.502	10202.95
516.869	10409.27
517.237	10532.21
517.604	10477.52
517.972	10600.91
518.339	10681.13
518.706	10715.93
519.073	10764.97
519.44	10903.5
519.808	11034.57
520.175	11019.65
520.542	11172.87
520.909	11330.83
521.276	11311.4
521.643	11465.29
522.009	11517.72
522.376	11557.94
522.743	11673.65
523.11	11877.48
523.477	11980.98
523.843	12029.8
524.21	12186.4
524.577	12271.82
524.943	12315.89
525.31	12422.33
525.676	12503.91
526.043	12679.05
526.409	12733.96
526.776	12855.54
527.142	12942.09
527.508	12904.58
527.874	13103.44
528.241	13174.63
528.607	13242.19
528.973	13310.21
529.339	13302.98
529.705	13455.97
530.071	13622.52
530.437	13656.42
530.803	13769.19
531.169	13826.59
531.535	13761.95
531.901	13950.88
532.267	13909.97
532.632	14208.27
532.998	14148.84
533.364	14259.57
533.73	14322.17
534.095	14410.3
534.461	14459.56
534.826	14537.08
535.192	14577.75
535.557	14697.75
535.923	14617.75
536.288	14756.5
536.653	14863.39
537.019	14884.86
537.384	14948.36
537.749	15044.63
538.114	15087.57
538.479	15059.55
538.845	15241.69
539.21	15174.57
539.575	15256.83
539.94	15285.53
540.305	15388.35
540.67	15360.78
541.034	15477.16
541.399	15532.53
541.764	15565.75
542.129	15680.32
542.494	15761.22
542.858	15828.11
543.223	15856.14
543.587	15959.41
543.952	15876.48
544.316	16075.79
544.681	15983.14
545.045	16042.57
545.41	16173.87
545.774	16225.17
546.138	16136.36
546.503	16363.92
546.867	16273.98
547.231	16541.32
547.595	16560.3
547.959	16597.59
548.324	16635.55
548.688	16637.81
549.052	16801.87
549.416	16823.57
549.779	16906.5
550.143	16940.4
550.507	17132.26
550.871	17178.59
551.235	17156.67
551.599	17322.31
551.962	17331.58
552.326	17389.88
552.689	17586.26
553.053	17584.45
553.417	17717.1
553.78	17973.14
554.143	17881.85
554.507	17995.29
554.87	18148.28
555.234	18280.71
555.597	18255.62
555.96	18361.61
556.323	18458.55
556.686	18646.57
557.05	18814.48
557.413	18897.64
557.776	18963.4
558.139	19172.21
558.502	19140.8
558.865	19286.78
559.228	19411.75
559.59	19535.59
559.953	19594.34
560.316	19905.97
560.679	19922.24
561.041	20140.32
561.404	20305.96
561.767	20470.93
562.129	20425.73
562.492	20638.84
562.854	20764.03
563.217	20825.05
563.579	20945.49
563.941	21196.79
564.304	21376.44
564.666	21486.95
565.028	21547.06
565.39	21669.77
565.753	21848.07
566.115	22012.81
566.477	22129.19
566.839	22300.26
567.201	22490.31
567.563	22558.33
567.925	22814.15
568.287	22838.1
568.648	22961.49
569.01	23166
569.372	23409.16
569.734	23464.75
570.095	23689.6
570.457	23842.82
570.819	24047.11
571.18	24113.55
571.542	24267.67
571.903	24439.87
572.265	24610.03
572.626	24751.95
572.987	24849.12
573.349	24963.02
573.71	25193.07
574.071	25336.11
574.432	25472.61
574.794	25807.06
575.155	25797.57
575.516	25721.19
575.877	26096.55
576.238	26253.15
576.599	26297.67
576.96	26395.07
577.32	26551.9
577.681	26698.34
578.042	26832.12
578.403	26883.19
578.763	26941.95
579.124	27119.34
579.485	27310.52
579.845	27353.91
580.206	27400.69
580.566	27490.63
580.927	27620.8
581.287	27770.17
581.648	27800.91
582.008	28004.07
582.368	28012.65
582.728	28112.09
583.089	28051.3
583.449	28162.03
583.809	28228.24
584.169	28251.97
584.529	28365.64
584.889	28537.39
585.249	28361.34
585.609	28377.39
585.969	28612.19
586.329	28561.57
586.688	28676.82
587.048	28736.7
587.408	28592.98
587.768	28780.09
588.127	28740.77
588.487	28678.4
588.846	29010.14
589.206	28860.99
589.565	28848.79
589.925	29079.97
590.284	29045.39
590.643	29060.76
591.003	29158.84
591.362	29275.44
591.721	29190.7
592.08	29271.15
592.44	29280.87
592.799	29382.33
593.158	29320.42
593.517	29378.27
593.876	29504.59
594.235	29349.79
594.593	29274.54
594.952	29501.43
595.311	29363.13
595.67	29438.15
596.029	29686.51
596.387	29745.26
596.746	29730.35
597.104	29745.72
597.463	29692.84
597.822	29742.33
598.18	29678.37
598.538	29665.27
598.897	29827.75
599.255	29477.25
599.613	29987.74
599.972	29930.34
600.33	29843.79
600.688	29790.91
601.046	29927.41
601.404	29943.9
601.762	29925.37
602.12	30113.16
602.478	30110.68
602.836	30187.29
603.194	29974.64
603.552	30039.49
603.91	30093.05
604.268	30207.85
604.625	30180.28
604.983	30132.6
605.341	30066.16
605.698	30263.44
606.056	30326.49
606.413	30093.73
606.771	30360.39
607.128	30450.78
607.485	30225.48
607.843	30412.82
608.2	30485.58
608.557	30560.38
608.914	30431.12
609.272	30505.24
609.629	30620.95
609.986	30767.61
610.343	30658.69
610.7	30845.12
611.057	30715.86
611.414	30734.39
611.771	30836.99
612.127	30844.44
612.484	30854.16
612.841	30984.33
613.198	30819.81
613.554	30866.59
613.911	31164.43
614.267	31006.7
614.624	30983.87
614.98	31189.74
615.337	31329.18
615.693	31133.25
616.05	31105.23
616.406	31336.18
616.762	31277.2
617.118	31225.22
617.475	31287.82
617.831	31405.11
618.187	31259.12
618.543	31432.45
618.899	31663.18
619.255	31561.94
619.611	31514.71
619.967	31520.36
620.323	31671.54
620.678	31536.4
621.034	31445.78
621.39	31584.54
621.746	31404.65
622.101	31856.62
622.457	31519.45
622.812	31659.79
623.168	31726
623.523	31669.05
623.879	31869.95
624.234	31594.93
624.589	31696.17
624.945	31700.24
625.3	31777.3
625.655	31653.91
626.01	31841.03
626.365	31800.8
626.72	31780.92
627.075	31685.1
627.43	31722.16
627.785	31584.76
628.14	31617.53
628.495	31739.33
628.85	31578.89
629.205	31563.75
629.559	31757.19
629.914	31601.94
630.269	31558.55
630.623	31453.92
630.978	31305.45
631.332	31643.97
631.687	31592.9
632.041	31549.06
632.396	31535.95
632.75	31354.03
633.104	31411.89
633.459	31236.98
633.813	31315.17
634.167	31102.52
634.521	31270.65
634.875	31230.87
635.229	31310.42
635.583	30966.47
635.937	31011.9
636.291	31021.61
636.645	31079.01
636.999	30933.93
637.352	31156.53
637.706	30786.59
638.06	30962.63
638.413	30891.9
638.767	30799.7
639.121	30807.38
639.474	30710.44
639.828	30706.59
640.181	30790.66
640.534	30811.22
640.888	30701.4
641.241	30537.78
641.594	30743.65
641.947	30680.15
642.301	30449.65
642.654	30637.67
643.007	30617.56
643.36	30482.42
643.713	30471.8
644.066	30561.51
644.419	30286.27
644.771	30174.86
645.124	29921.76
645.477	29881.76
645.83	29748.65
646.182	29609.9
646.535	29481.77
646.888	29670.91
647.24	29351.38
647.593	29603.8
647.945	29418.49
648.298	29397.7
648.65	29376.23
649.002	29237.93
649.355	29331.04
649.707	29444.71
650.059	29526.96
650.411	29810.12
650.763	29864.81
651.115	30126.5
651.467	30087.4
651.819	29995.2
652.171	30006.05
652.523	29910.68
652.875	30064.58
653.227	29757.01
653.578	30067.97
653.93	30078.36
654.282	29894.41
654.633	29882.21
654.985	29959.04
655.337	29806.28
655.688	29957.46
656.039	29920.85
656.391	29756.34
656.742	29655.1
657.094	29725.6
657.445	29886.5
657.796	29848.54
658.147	29815.32
658.498	29702.55
658.849	29872.94
659.2	29826.84
659.551	29679.95
659.902	29718.82
660.253	29772.83
660.604	29802.89
660.955	29504.37
661.306	29610.13
661.656	29658.26
662.007	29584.82
662.358	29653.51
662.708	29521.99
663.059	29664.36
663.409	29353.63
663.76	29777.13
664.11	29646.06
664.461	29716.79
664.811	29637.24
665.161	29707.75
665.511	29574.42
665.862	29744.13
666.212	29694.19
666.562	29813.51
666.912	29734.19
667.262	29722.21
667.612	29682.44
667.962	29681.31
668.312	29581.2
668.662	29728.31
669.011	29699.16
669.361	29526.06
669.711	29503.01
670.06	29456.46
670.41	29444.03
670.76	29416.23
671.109	29494.2
671.459	29364.93
671.808	29437.25
672.157	29448.55
672.507	29323.81
672.856	29393.41
673.205	29332.17
673.554	29404.71
673.904	29253.07
674.253	29293.3
674.602	29157.26
674.951	28895.57
675.3	28658.74
675.649	29208.78
675.998	28956.58
676.346	29048.56
676.695	29200.42
677.044	29012.63
677.393	29018.73
677.741	29020.76
678.09	29093.3
678.438	28982.35
678.787	28893.08
679.135	29010.82
679.484	28809.92
679.832	28899.18
680.181	28688.12
680.529	28849.02
680.877	28766.53
681.225	28564.73
681.573	28782.8
681.922	28677.27
682.27	28593.88
682.618	28598.63
682.966	28473.43
683.314	28524.5
683.661	28372.64
684.009	28170.39
684.357	28211.97
684.705	28273.66
685.053	28217.17
685.4	28043.84
685.748	27967.91
686.095	27904.63
686.443	27898.31
686.79	27828.7
687.138	27783.51
687.485	27706.67
687.832	27667.13
688.18	27648.37
688.527	27599.56
688.874	27558.65
689.221	27416.96
689.568	27241.15
689.915	27302.16
690.262	27301.71
690.609	27140.13
690.956	27119.12
691.303	27095.39
691.65	26950.99
691.997	26899.01
692.344	26737.88
692.69	26673.93
693.037	26760.03
693.383	26540.6
693.73	26695.17
694.077	26363.66
694.423	26416.99
694.769	26249.31
695.116	26193.27
695.462	26073.72
695.808	26113.27
696.155	26061.29
696.501	25796.89
696.847	25908.08
697.193	25644.13
697.539	25765.48
697.885	25508.54
698.231	25383.12
698.577	25542.89
698.923	25415.66
699.269	25278.26
699.614	25233.29
699.96	25052.05
700.306	25127.98
700.651	25048.66
700.997	24920.31
701.342	24790.37
701.688	24812.51
702.033	24797.82
702.379	24650.03
702.724	24481.67
703.069	24631.95
703.415	24288.68
703.76	24323.94
704.105	24280.32
704.45	24118.74
704.795	24119.65
705.14	23930.05
705.485	24005.3
705.83	23791.3
706.175	23910.16
706.52	23856.38
706.865	23640.56
707.209	23567.8
707.554	23541.81
707.899	23588.81
708.243	23455.94
708.588	23320.8
708.932	23220.24
709.277	23252.1
709.621	23291.2
709.966	23009.85
710.31	23194.02
710.654	22918.32
710.998	22959.23
711.342	22956.29
711.687	22996.97
712.031	22839.68
712.375	22858.21
712.719	22800.36
713.063	22659.8
713.407	22766.24
713.75	22610.99
714.094	22625.68
714.438	22469.75
714.782	22567.37
715.125	22381.39
715.469	22470.2
715.812	22425
716.156	22297.78
716.499	22260.04
716.843	22276.53
717.186	22058.01
717.53	22305.23
717.873	22255.06
718.216	22151.79
718.559	22088.97
718.902	21992.7
719.246	22060.04
719.589	22011.91
719.932	21990.44
720.275	21908.18
720.617	21961.06
720.96	21886.26
721.303	21835.87
721.646	21998.8
721.989	21784.79
722.331	21758.35
722.674	21718.13
723.016	21730.56
723.359	21604.01
723.701	21764.91
724.044	21700.28
724.386	21549.09
724.729	21654.85
725.071	21540.73
725.413	21459.61
725.755	21530.56
726.097	21391.36
726.439	21454.63
726.782	21448.98
727.124	21522.88
727.465	21311.59
727.807	21378.03
728.149	21389.1
728.491	21336.22
728.833	21390.23
729.175	21255.32
729.516	21261.64
729.858	21363.79
730.199	21367.18
730.541	21303.45
730.882	21251.25
731.224	21277.46
731.565	21184.13
731.906	21095.77
732.248	21245.83
732.589	21154.3
732.93	21157.01
733.271	21110.01
733.612	21181.65
733.953	21184.13
734.294	21027.98
734.635	21136.68
734.976	21157.69
735.317	21057.13
735.658	21039.05
735.999	21090.35
736.339	21053.06
736.68	21095.1
737.021	20976.23
737.361	20910.92
737.702	21145.94
738.042	20929.45
738.383	21100.52
738.723	21109.33
739.063	21015.1
739.404	20996.57
739.744	21039.5
740.084	20841.09
740.424	20976
740.764	20863.91
741.104	20936.68
741.444	20806.74
741.784	20907.3
742.124	20909.56
742.464	20933.97
742.804	20919.96
743.143	20795.89
743.483	20810.36
743.823	20846.51
744.162	20846.97
744.502	20865.72
744.841	20834.99
745.181	20893.74
745.52	20778.04
745.86	20880.19
746.199	20820.75
746.538	20759.06
746.877	20731.71
747.216	20813.29
747.556	20722.22
747.895	20801.09
748.234	20694.88
748.573	20698.5
748.911	20660.53
749.25	20627.31
749.589	20690.59
749.928	20573.3
750.267	20721.77
750.605	20581.44
750.944	20580.98
751.283	20557.48
751.621	20532.85
751.96	20442.68
752.298	20529.91
752.636	20535.34
752.975	20469.57
753.313	20402.68
753.651	20463.93
753.989	20341.22
754.327	20301.22
754.666	20258.28
755.004	20338.73
755.342	20332.4
755.679	20264.83
756.017	20153.88
756.355	20196.59
756.693	20105.52
757.031	20210.82
757.368	19966.54
757.706	20060.55
758.044	19870.95
758.381	19995.46
758.719	19972.19
759.056	19863.26
759.394	19941.68
759.731	19828.24
760.068	19770.61
760.405	19635.92
760.743	19635.02
761.08	19655.58
761.417	19484.29
761.754	19517.51
762.091	19396.61
762.428	19516.15
762.765	19240.23
763.102	19386.44
763.438	19233.45
763.775	19239.55
764.112	19169.5
764.449	19236.16
764.785	19153.9
765.122	19077.75
765.458	19014.25
765.795	18925.66
766.131	18961.59
766.467	18805.44
766.804	18662.62
767.14	18655.61
767.476	18614.26
767.812	18562.05
768.148	18605.44
768.485	18448.16
768.821	18329.74
769.157	18377.43
769.492	18390.53
769.828	18338.78
770.164	18082.52
770.5	18096.08
770.836	18093.82
771.171	17875.07
771.507	17953.93
771.842	17874.39
772.178	17910.32
772.513	17804.33
772.849	17668.29
773.184	17635.75
773.519	17586.94
773.855	17553.49
774.19	17423.33
774.525	17358.7
774.86	17465.36
775.195	17344.46
775.53	17305.82
775.865	17211.13
776.2	17050.91
776.535	17001.87
776.87	17008.2
777.205	16905.37
777.539	16868.99
777.874	16854.08
778.209	16704.25
778.543	16636
778.878	16572.05
779.212	16480.75
779.547	16492.28
779.881	16487.31
780.215	16295.67
780.55	16436.91
780.884	16231.04
781.218	16234.66
781.552	16139.75
781.886	16138.39
782.22	16061.56
782.554	15976.36
782.888	15791.73
783.222	15832.18
783.556	15730.49
783.889	15684.39
784.223	15521.46
784.557	15565.3
784.89	15554.45
785.224	15537.28
785.557	15427.45
785.891	15406.43
786.224	15339.77
786.558	15346.77
786.891	15210.05
787.224	15200.79
787.557	15178.19
787.891	15086.89
788.224	15083.05
788.557	14906.33
788.89	14996.05
789.223	14945.2
789.556	14868.37
789.888	14820.23
790.221	14746.79
790.554	14603.29
790.887	14617.07
791.219	14638.09
791.552	14633.12
791.884	14484.87
792.217	14395.84
792.549	14291.21
792.882	14202.62
793.214	14317.19
793.546	14287.14
793.879	14177.08
794.211	14121.04
794.543	14124.66
794.875	14081.49
795.207	14098.89
795.539	14033.81
795.871	14056.41
796.203	13801.28
796.535	13836.98
796.867	13717.21
797.198	13755.18
797.53	13723.54
797.862	13578.68
798.193	13672.24
798.525	13577.78
798.856	13575.74
799.188	13367.16
799.519	13450.1
799.85	13311.57
800.182	13283.1
800.513	13283.78
800.844	13173.5
801.175	13261.85
801.506	13258.92
801.837	13149.77
802.168	13078.81
802.499	13079.03
802.83	13000.84
803.161	13000.62
803.491	12948.19
803.822	12917.91
804.153	12785.03
804.483	12724.69
804.814	12750.91
805.145	12792.71
805.475	12749.78
805.805	12701.87
806.136	12741.19
806.466	12620.29
806.796	12626.39
807.126	12524.7
807.457	12594.08
807.787	12500.07
808.117	12484.47
808.447	12425.94
808.777	12460.75
809.107	12393.18
809.436	12357.25
809.766	12248.32
810.096	12304.14
810.426	12203.58
810.755	12233.18
811.085	12209.68
811.414	12174.2
811.744	12058.72
812.073	12037.48
812.403	12023.24
812.732	11928.56
813.061	11958.39
813.39	11830.71
813.719	11825.06
814.049	11904.38
814.378	11842.01
814.707	11804.49
815.036	11769.01
815.365	11778.73
815.693	11620.09
816.022	11641.78
816.351	11575.8
816.68	11520.66
817.008	11636.36
817.337	11475.01
817.665	11467.78
817.994	11472.07
818.322	11503.48
818.651	11395.46
818.979	11362.47
819.307	11413.09
819.636	11385.07
819.964	11280.21
820.292	11343.04
820.62	11311.85
820.948	11307.33
821.276	11328.8
821.604	11291.06
821.932	11291.74
822.259	11304.39
822.587	11202.93
822.915	11223.26
823.243	11186.88
823.57	11256.26
823.898	11295.58
824.225	11232.3
824.553	11217.84
824.88	11226.88
825.207	11257.84
825.535	11185.3
825.862	11242.25
826.189	11219.42
826.516	11270.27
826.843	11254.45
827.17	11278.86
827.497	11252.64
827.824	11311.85
828.151	11326.31
828.478	11156.6
828.805	11198.86
829.131	11244.73
829.458	11262.13
829.785	11077.28
830.111	11154.79
830.438	11207.45
830.764	11182.14
831.09	11174.45
831.417	11104.17
831.743	11171.74
832.069	11172.19
832.395	11134.9
832.722	11171.29
833.048	11118.86
833.374	11193.43
833.7	11057.84
834.026	11080.44
834.351	11063.49
834.677	11118.86
835.003	11132.42
835.329	11083.61
835.654	11110.95
835.98	10948.92
836.306	11105.08
836.631	10981.69
836.956	11046.55
837.282	11036.15
837.607	10935.36
837.932	10882.93
838.258	10880.45
838.583	10861.01
838.908	10847.68
839.233	10852.2
839.558	10810.62
839.883	10799.32
840.208	10842.26
840.533	10724.07
840.858	10784.86
841.182	10735.59
841.507	10768.36
841.832	10641.13
842.156	10637.52
842.481	10623.73
842.805	10562.26
843.13	10579.67
843.454	10593.9
843.778	10585.99
844.103	10586.9
844.427	10507.12
844.751	10515.26
845.075	10496.96
845.399	10461.48
845.723	10342.61
846.047	10365.89
846.371	10309.16
846.695	10347.13
847.019	10215.83
847.343	10228.49
847.666	10076.4
847.99	10068.49
848.313	10058.55
848.637	10015.16
848.96	10019.23
849.284	9946.91
849.607	9935.16
849.931	9843.64
850.254	9811.32
850.577	9856.97
850.9	9655.17
851.223	9750.31
851.546	9689.29
851.869	9573.82
852.192	9607.49
852.515	9493.14
852.838	9557.32
853.161	9573.14
853.483	9480.03
853.806	9408.17
854.129	9359.81
854.451	9316.2
854.774	9373.37
855.096	9221.06
855.419	9242.75
855.741	9283.2
856.063	9239.59
856.385	9196.65
856.708	9189.87
857.03	9097.44
857.352	9138.35
857.674	9108.07
857.996	9123.43
858.318	9037.56
858.64	8969.31
858.961	8986.03
859.283	8904.23
859.605	8863.55
859.926	8919.37
860.248	8853.16
860.57	8856.32
860.891	8868.07
861.212	8809.77
861.534	8775.64
861.855	8722.99
862.176	8790.33
862.498	8705.59
862.819	8686.16
863.14	8669.66
863.461	8696.78
863.782	8653.61
864.103	8706.95
864.424	8683.22
864.745	8618.59
865.065	8584.92
865.386	8572.94
865.707	8589.66
866.027	8558.02
866.348	8587.4
866.668	8512.83
866.989	8531.58
867.309	8445.48
867.63	8477.12
867.95	8518.48
868.27	8431.93
868.59	8516.67
868.91	8457.24
869.23	8410.68
869.55	8371.81
869.87	8404.13
870.19	8343.79
870.51	8371.14
870.83	8349.67
871.15	8364.81
871.469	8319.39
871.789	8329.55
872.109	8337.92
872.428	8276
872.748	8263.79
873.067	8276.22
873.386	8233.96
873.706	8289.1
874.025	8226.51
874.344	8193.29
874.663	8243
874.982	8169.79
875.301	8155.32
875.62	8181.76
875.939	8165.04
876.258	8130.01
876.577	8082.33
876.896	8057.02
877.214	8045.04
877.533	8118.49
877.852	8033.52
878.17	8064.7
878.489	7965.72
878.807	7965.72
879.125	7976.57
879.444	7988.1
879.762	8013.63
880.08	7969.79
880.398	7903.58
880.716	8051.37
881.034	7946.06
881.352	7900.87
881.67	7866.06
881.988	7933.63
882.306	7870.58
882.624	7830.59
882.941	7731.6
883.259	7753.52
883.577	7779.74
883.894	7760.3
884.212	7699.29
884.529	7688.89
884.846	7734.99
885.164	7651.15
885.481	7636.92
885.798	7672.62
886.115	7584.94
886.432	7635.79
886.75	7606.18
887.067	7571.83
887.383	7471.05
887.7	7589.69
888.017	7513.76
888.334	7472.4
888.651	7494.55
888.967	7522.34
889.284	7392.86
889.6	7401.67
889.917	7337.72
890.233	7369.35
890.55	7402.12
890.866	7351.5
891.182	7251.84
891.498	7316.93
891.815	7261.33
892.131	7190.15
892.447	7176.82
892.763	7220.21
893.079	7170.72
893.395	7130.94
893.71	7152.41
894.026	7150.15
894.342	7143.6
894.657	7070.38
894.973	7028.8
895.289	7005.07
895.604	7051.85
895.92	6959.87
896.235	6942.25
896.55	6947.9
896.865	6947.44
897.181	6912.87
897.496	6893.89
897.811	6842.59
898.126	6816.6
898.441	6836.71
898.756	6824.51
899.071	6733.66
899.386	6785.41
899.7	6692.31
900.015	6708.13
900.33	6650.05
900.644	6610.05
900.959	6667.23
901.273	6592.43
901.588	6566.89
901.902	6556.95
902.216	6522.14
902.531	6499.77
902.845	6471.52
903.159	6419.32
903.473	6478.08
903.787	6380.68
904.101	6407.57
904.415	6373.9
904.729	6389.94
905.042	6326.22
905.356	6302.94
905.67	6260.68
905.984	6233.79
906.297	6217.52
906.611	6162.83
906.924	6221.59
907.237	6194.92
907.551	6149.5
907.864	6141.59
908.177	6105.88
908.491	6104.08
908.804	6054.59
909.117	6045.77
909.43	6002.84
909.743	5969.62
910.056	6013.23
910.368	5934.82
910.681	5934.82
910.994	5917.64
911.307	5911.99
911.619	5841.03
911.932	5839
912.244	5759.91
912.557	5760.36
912.869	5748.83
913.181	5713.8
913.494	5683.3
913.806	5671.77
914.118	5703.41
914.43	5635.84
914.742	5583.19
915.054	5621.15
915.366	5590.64
915.678	5493.92
915.99	5492.34
916.302	5509.52
916.613	5481.95
916.925	5446.24
917.236	5427.48
917.548	5386.58
917.859	5468.61
918.171	5390.88
918.482	5339.35
918.794	5334.15
919.105	5302.74
919.416	5247.15
919.727	5239.47
920.038	5224.33
920.349	5192.01
920.66	5196.53
920.971	5183.65
921.282	5171.9
921.593	5159.69
921.903	5135.74
922.214	5059.81
922.525	5056.42
922.835	5033.6
923.146	5054.16
923.456	5041.96
923.767	4935.07
924.077	4952.47
924.387	4931.45
924.697	4915.41
925.008	4907.95
925.318	4902.3
925.628	4845.35
925.938	4877.22
926.248	4793.6
926.558	4793.38
926.867	4823.21
927.177	4732.59
927.487	4735.75
927.796	4715.86
928.106	4726.94
928.416	4651.01
928.725	4701.4
929.034	4625.02
929.344	4640.61
929.653	4612.82
929.962	4603.55
930.271	4516.1
930.581	4549.09
930.89	4512.48
931.199	4517.23
931.508	4536.21
931.817	4507.73
932.125	4462.99
932.434	4510.22
932.743	4448.75
933.051	4380.28
933.36	4378.7
933.669	4365.37
933.977	4340.73
934.286	4338.7
934.594	4350
934.902	4270.45
935.21	4268.19
935.519	4245.82
935.827	4273.16
936.135	4202.88
936.443	4213.28
936.751	4157.91
937.059	4174.64
937.367	4173.51
937.674	4091.02
937.982	4143.45
938.29	4069.33
938.597	4080.18
938.905	4084.02
939.213	3991.59
939.52	4029.56
939.827	4013.96
940.135	3970.12
940.442	3990.69
940.749	3959.5
941.056	3992.04
941.363	3923.57
941.67	3916.11
941.977	3887.86
942.284	3842.44
942.591	3887.86
942.898	3895.77
943.205	3844.02
943.511	3802.44
943.818	3809.45
944.125	3749.11
944.431	3760.41
944.738	3764.93
945.044	3738.94
945.35	3727.42
945.657	3690.58
945.963	3694.87
946.269	3708.43
946.575	3683.12
946.881	3672.05
947.187	3671.82
947.493	3642.22
947.799	3596.57
948.105	3553.18
948.41	3550.7
948.716	3584.37
949.022	3516.12
949.327	3538.27
949.633	3533.75
949.938	3467.31
950.244	3449.01
950.549	3471.6
950.854	3430.47
951.16	3439.51
951.465	3430.25
951.77	3404.49
952.075	3384.37
952.38	3348.44
952.685	3350.7
952.99	3342.34
953.294	3305.96
953.599	3360.19
953.904	3298.05
954.209	3306.86
954.513	3270.93
954.818	3263.93
955.122	3225.96
955.426	3224.83
955.731	3253.3
956.035	3200.2
956.339	3176.47
956.643	3197.71
956.948	3207.43
957.252	3177.15
957.556	3107.09
957.86	3126.75
958.163	3112.52
958.467	3127.43
958.771	3107.77
959.075	3123.59
959.378	3080.65
959.682	3081.11
959.985	3047.21
960.289	3007.89
960.592	3001.11
960.896	3023.25
961.199	2963.82
961.502	2968.34
961.805	2935.12
962.108	2922.92
962.411	2928.57
962.714	2919.75
963.017	2933.31
963.32	2965.4
963.623	2904.39
963.926	2905.97
964.228	2861.68
964.531	2848.57
964.833	2886.31
965.136	2838.85
965.438	2820.32
965.741	2803.82
966.043	2842.24
966.345	2778.29
966.648	2781.9
966.95	2803.15
967.252	2733.54
967.554	2693.32
967.856	2714.79
968.158	2673.66
968.46	2680.21
968.761	2692.64
969.063	2709.14
969.365	2640.89
969.666	2675.69
969.968	2616.26
970.269	2649.03
970.571	2623.94
970.872	2640.67
971.174	2589.14
971.475	2585.98
971.776	2566.09
972.077	2563.38
972.378	2570.16
972.679	2558.86
972.98	2531.97
973.281	2502.36
973.582	2524.51
973.883	2531.06
974.183	2492.65
974.484	2503.27
974.785	2510.95
975.085	2508.01
975.386	2435.7
975.686	2453.55
975.986	2427.56
976.287	2441.35
976.587	2402.93
976.887	2424.85
977.187	2372.65
977.487	2404.06
977.787	2385.3
978.087	2373.78
978.387	2335.36
978.687	2355.7
978.987	2342.14
979.286	2328.13
979.586	2295.82
979.885	2300.56
980.185	2317.74
980.484	2250.39
980.784	2270.05
981.083	2290.62
981.382	2303.5
981.682	2245.87
981.981	2248.81
982.28	2234.12
982.579	2225.08
982.878	2189.15
983.177	2203.84
983.475	2198.42
983.774	2161.81
984.073	2137.18
984.372	2145.76
984.67	2110.96
984.969	2152.32
985.267	2141.7
985.566	2134.24
985.864	2134.24
986.162	2093.33
986.461	2042.94
986.759	2105.76
987.057	2059.44
987.355	2096.95
987.653	2050.17
987.951	2040.91
988.249	2036.39
988.547	2055.82
988.844	2034.58
989.142	2027.12
989.44	2028.93
989.737	1957.52
990.035	1979.67
990.332	1950.51
990.63	1960.46
990.927	1954.58
991.224	1962.26
991.521	1964.07
991.819	1930.4
992.116	1937.86
992.413	1920.01
992.71	1888.37
993.006	1888.82
993.303	1876.17
993.6	1873.91
993.897	1872.78
994.193	1882.49
994.49	1863.06
994.787	1883.4
995.083	1795.49
995.379	1848.14
995.676	1821.7
995.972	1796.85
996.268	1790.07
996.565	1827.35
996.861	1798.65
997.157	1775.15
997.453	1778.77
997.749	1764.53
998.044	1722.5
998.34	1723.63
998.636	1719.79
998.932	1748.94
999.227	1702.61
999.523	1715.49
999.818	1729.28
1000.114	1665.1
1000.409	1700.12
1000.704	1695.83
1001	1672.78
1001.295	1676.17
1001.59	1668.04
1001.885	1641.14
1002.18	1613.35
1002.475	1630.3
1002.77	1632.78
1003.065	1618.32
1003.359	1616.74
1003.654	1608.15
1003.949	1583.97
1004.243	1575.38
1004.538	1554.14
1004.832	1553.91
1005.127	1565.21
1005.421	1561.37
1005.715	1526.57
1006.009	1539.68
1006.304	1514.82
1006.598	1524.54
1006.892	1517.76
1007.186	1498.77
1007.48	1490.19
1007.773	1483.41
1008.067	1470.53
1008.361	1427.36
1008.655	1463.07
1008.948	1405.9
1009.242	1426.69
1009.535	1418.78
1009.829	1430.53
1010.122	1420.81
1010.415	1420.58
1010.708	1414.93
1011.001	1406.8
1011.295	1386.91
1011.588	1385.1
1011.881	1371.77
1012.173	1356.18
1012.466	1363.41
1012.759	1367.25
1013.052	1377.42
1013.344	1340.81
1013.637	1329.97
1013.93	1321.15
1014.222	1306.24
1014.514	1326.8
1014.807	1306.69
1015.099	1302.62
1015.391	1313.92
1015.683	1276.18
1015.976	1267.37
1016.268	1259.91
1016.56	1256.07
1016.851	1256.52
1017.143	1250.87
1017.435	1269.18
1017.727	1237.31
1018.018	1246.58
1018.31	1237.76
1018.602	1239.8
1018.893	1197.77
1019.185	1161.61
1019.476	1181.04
1019.767	1197.77
1020.058	1194.83
1020.35	1190.31
1020.641	1165.9
1020.932	1143.53
1021.223	1170.65
1021.514	1149.4
1021.804	1129.74
1022.095	1125.22
1022.386	1115.51
1022.677	1127.03
1022.967	1105.34
1023.258	1083.87
1023.548	1111.44
1023.839	1077.99
1024.129	1068.73
1024.419	1068.73
1024.709	1076.86
1025	1067.37
1025.29	1054.49
1025.58	1049.75
1025.87	1018.33
1026.16	1046.36
1026.449	1018.56
1026.739	1004.55
1027.029	1005.91
1027.319	1013.14
1027.608	978.34
1027.898	1024.89
1028.187	1009.07
1028.477	985.12
1028.766	969.97
1029.055	974.04
1029.344	964.1
1029.634	956.87
1029.923	958.45
1030.212	975.17
1030.501	957.09
1030.79	934.04
1031.078	934.95
1031.367	900.82
1031.656	928.17
1031.945	915.74
1032.233	890.65
1032.522	909.86
1032.81	924.33
1033.099	904.67
1033.387	897.89
1033.675	904.44
1033.963	883.65
1034.251	885.91
1034.54	864.21
1034.828	871.45
1035.116	866.25
1035.403	847.27
1035.691	854.95
1035.979	852.01
1036.267	833.25
1036.554	827.38
1036.842	849.98
1037.129	846.59
1037.417	837.1
1037.704	821.05
1037.992	821.28
1038.279	800.71
1038.566	781.73
1038.853	781.73
1039.14	781.73
