Data from tablewood_brown_FLMS001491_080.txt Node
Date: Tue Feb 07 11:11:00 GMT 2017
User: dcchb
Spectrometer: FLMS00149
Trigger mode: 0
Integration Time (sec): 2.000000E-2
Scans to average: 10
Electric dark correction enabled: true
Nonlinearity correction enabled: false
Boxcar width: 0
XAxis mode: Wavelengths
Number of Pixels in Spectrum: 2048
>>>>>Begin Spectral Data<<<<<
341.393	5.83
341.776	5.83
342.16	5.83
342.543	-61.28
342.927	-85.01
343.31	-87.5
343.693	-77.55
344.077	-74.16
344.46	-64
344.843	-46.82
345.226	-30.32
345.61	-22.64
345.993	-5.01
346.376	-14.73
346.759	8.54
347.142	24.59
347.525	48.54
347.908	51.93
348.291	86.96
348.674	99.39
349.057	102.78
349.44	121.99
349.823	131.93
350.206	158.6
350.588	190.01
350.971	203.12
351.354	208.77
351.737	232.04
352.119	265.26
352.502	274.75
352.884	284.24
353.267	295.09
353.65	282.89
354.032	300.74
354.414	316.56
354.797	315.66
355.179	333.51
355.562	317.92
355.944	316.79
356.326	329.44
356.709	309.55
357.091	325.15
357.473	344.58
357.855	326.05
358.238	344.81
358.62	335.09
359.002	317.46
359.384	328.31
359.766	339.38
360.148	333.51
360.53	339.61
360.912	354.75
361.294	324.24
361.676	320.4
362.057	328.08
362.439	334.19
362.821	323.79
363.203	331.93
363.584	336.45
363.966	306.39
364.348	318.37
364.729	328.54
365.111	324.69
365.493	329.21
365.874	318.82
366.256	316.11
366.637	333.73
367.019	308.65
367.4	343.9
367.781	328.76
368.163	303.9
368.544	312.04
368.925	322.66
369.306	311.36
369.688	317.01
370.069	324.24
370.45	315.43
370.831	310.91
371.212	331.47
371.593	303.9
371.974	310.91
372.355	308.88
372.736	326.28
373.117	309.78
373.498	331.93
373.879	329.44
374.26	321.98
374.641	341.19
375.021	333.51
375.402	325.15
375.783	320.18
376.163	355.65
376.544	352.72
376.925	336.9
377.305	335.09
377.686	324.69
378.066	351.59
378.447	349.55
378.827	331.25
379.208	326.5
379.588	343.9
379.968	355.43
380.349	353.85
380.729	349.78
381.109	356.78
381.489	351.36
381.87	372.83
382.25	357.01
382.63	359.72
383.01	353.62
383.39	362.89
383.77	371.47
384.15	357.69
384.53	362.43
384.91	363.34
385.29	385.48
385.67	386.61
386.049	362.89
386.429	373.06
386.809	373.73
387.189	383.45
387.568	373.96
387.948	395.65
388.328	385.71
388.707	381.19
389.087	388.2
389.466	410.34
389.846	404.24
390.225	431.13
390.605	420.51
390.984	421.87
391.363	428.19
391.743	442.88
392.122	420.29
392.501	424.81
392.881	418.03
393.26	421.19
393.639	440.4
394.018	411.92
394.397	414.41
394.776	422.77
395.155	443.11
395.534	441.75
395.913	437.01
396.292	449.44
396.671	469.1
397.05	465.93
397.429	460.74
397.808	461.64
398.186	460.51
398.565	465.03
398.944	472.04
399.323	463.67
399.701	455.76
400.08	469.78
400.458	473.84
400.837	464.35
401.215	493.5
401.594	484.92
401.972	480.17
402.351	504.58
402.729	494.41
403.107	500.74
403.486	499.38
403.864	523.11
404.242	498.25
404.62	498.02
404.999	534.41
405.377	538.25
405.755	544.12
406.133	536.67
406.511	544.58
406.889	543.9
407.267	543.22
407.645	560.85
408.023	553.84
408.401	551.36
408.779	566.5
409.156	577.57
409.534	568.76
409.912	594.52
410.29	590.22
410.667	594.07
411.045	614.18
411.422	620.28
411.8	587.29
412.178	608.98
412.555	644.23
412.933	619.6
413.31	643.56
413.687	618.92
414.065	632.26
414.442	651.69
414.819	642.65
415.197	673.61
415.574	683.1
415.951	687.4
416.328	657.12
416.705	695.98
417.082	683.1
417.46	709.77
417.837	696.21
418.214	691.01
418.591	707.28
418.967	710
419.344	740.05
419.721	716.55
420.098	703.67
420.475	714.74
420.852	756.1
421.228	729.66
421.605	745.02
421.982	720.39
422.358	753.84
422.735	742.54
423.111	745.47
423.488	786.15
423.864	769.43
424.241	787.28
424.617	785.7
424.994	801.97
425.37	789.32
425.746	816.89
426.123	819.15
426.499	818.69
426.875	809.65
427.251	867.96
427.627	873.83
428.003	864.79
428.379	874.06
428.756	855.98
429.132	866.6
429.507	876.54
429.883	896.66
430.259	937.33
430.635	899.59
431.011	940.72
431.387	926.71
431.763	933.94
432.138	949.76
432.514	945.24
432.89	975.75
433.265	964.9
433.641	994.51
434.016	995.64
434.392	1010.55
434.767	1020.5
435.143	1029.54
435.518	1052.59
435.894	1049.87
436.269	1062.98
436.644	1075.86
437.02	1110.21
437.395	1122.19
437.77	1125.58
438.145	1138.01
438.52	1128.74
438.895	1171.45
439.271	1152.7
439.646	1172.13
440.021	1164.67
440.395	1217.55
440.77	1177.33
441.145	1193.82
441.52	1223.2
441.895	1215.74
442.27	1219.36
442.645	1223.88
443.019	1231.34
443.394	1242.86
443.769	1267.72
444.143	1249.19
444.518	1290.77
444.892	1269.75
445.267	1296.42
445.641	1307.49
446.016	1293.03
446.39	1319.02
446.764	1339.36
447.139	1309.08
447.513	1345.23
447.887	1317.89
448.262	1360.83
448.636	1330.77
449.01	1393.59
449.384	1375.06
449.758	1391.79
450.132	1405.12
450.506	1404.44
450.88	1435.63
451.254	1426.13
451.628	1435.4
452.002	1458.9
452.376	1468.17
452.75	1491.44
453.123	1482.18
453.497	1507.04
453.871	1523.53
454.244	1552.69
454.618	1550.2
454.992	1558.56
455.365	1584.77
455.739	1613.02
456.112	1635.39
456.486	1653.93
456.859	1636.98
457.232	1672
457.606	1683.76
457.979	1726.92
458.352	1717.2
458.725	1768.95
459.099	1781.15
459.472	1817.99
459.845	1827.48
460.218	1834.26
460.591	1855.28
460.964	1853.92
461.337	1888.95
461.71	1869.29
462.083	1954.26
462.456	1969.17
462.829	1970.75
463.201	2015.5
463.574	1989.51
463.947	2059.11
464.32	2121.03
464.692	2135.95
465.065	2125.1
465.438	2132.33
465.81	2182.05
466.183	2235.38
466.555	2248.94
466.928	2288.03
467.3	2275.15
467.672	2291.87
468.045	2386.11
468.417	2387.92
468.789	2386.56
469.161	2445.77
469.534	2528.7
469.906	2557.63
470.278	2590.62
470.65	2641.02
471.022	2654.13
471.394	2722.37
471.766	2728.47
472.138	2763.95
472.51	2828.13
472.882	2936.83
473.253	2960.33
473.625	2990.61
473.997	3013.66
474.369	3056.6
474.74	3102.25
475.112	3192.42
475.484	3230.16
475.855	3367.55
476.227	3354.9
476.598	3493.43
476.97	3507.89
477.341	3566.42
477.713	3632.18
478.084	3700.88
478.455	3766.41
478.827	3800.31
479.198	3986.97
479.569	3911.95
479.94	4057.48
480.311	4138.61
480.682	4227.64
481.053	4331.14
481.424	4429.9
481.795	4483.23
482.166	4551.25
482.537	4624.47
482.908	4716.22
483.279	4765.71
483.65	4858.13
484.021	4933.61
484.391	5035.98
484.762	5103.33
485.133	5150.78
485.503	5276.2
485.874	5333.15
486.244	5434.84
486.615	5529.98
486.985	5621.5
487.356	5659.47
487.726	5747.6
488.097	5863.31
488.467	5921.84
488.837	6056.52
489.207	6137.88
489.578	6172.22
489.948	6294.26
490.318	6363.18
490.688	6346.68
491.058	6446.12
491.428	6591.2
491.798	6650.63
492.168	6820.57
492.538	6783.06
492.908	6870.51
493.278	7007.01
493.648	6992.54
494.017	7162.48
494.387	7145.76
494.757	7214.91
495.126	7350.72
495.496	7397.73
495.866	7474.79
496.235	7498.07
496.605	7573.77
496.974	7617.61
497.344	7686.31
497.713	7777.38
498.082	7871.84
498.452	7987.32
498.821	7954.55
499.19	7987.09
499.559	8110.25
499.928	8180.76
500.298	8218.27
500.667	8257.59
501.036	8320.87
501.405	8320.87
501.774	8374.65
502.143	8510.92
502.512	8565.16
502.88	8641.54
503.249	8683.35
503.618	8695.55
503.987	8787.98
504.356	8830.01
504.724	8925.15
505.093	8928.54
505.462	9038.14
505.83	9124.92
506.199	9142.09
506.567	9251.24
506.936	9246.72
507.304	9436.09
507.672	9449.65
508.041	9493.27
508.409	9630.21
508.777	9639.48
509.145	9757.44
509.514	9709.98
509.882	9823.43
510.25	9894.61
510.618	9956.53
510.986	10052.35
511.354	10176.64
511.722	10258.9
512.09	10417.76
512.458	10325.34
512.826	10444.43
513.193	10495.95
513.561	10603.29
513.929	10661.37
514.297	10765.1
514.664	10950.4
515.032	10851.88
515.4	10967.13
515.767	11165.31
516.135	11130.74
516.502	11126.67
516.869	11386.32
517.237	11350.39
517.604	11431.3
517.972	11529.15
518.339	11677.16
518.706	11658.18
519.073	11780.66
519.44	11954.45
519.808	12060.66
520.175	12096.14
520.542	12338.16
520.909	12290.93
521.276	12357.15
521.643	12485.05
522.009	12559.18
522.376	12700.41
522.743	12723.69
523.11	12891.14
523.477	13078.03
523.843	13159.61
524.21	13338.36
524.577	13364.58
524.943	13491.58
525.31	13501.07
525.676	13620.39
526.043	13745.13
526.409	13798.92
526.776	14032.58
527.142	13992.13
527.508	14124.56
527.874	14238.45
528.241	14316.87
528.607	14406.81
528.973	14547.15
529.339	14571.55
529.705	14646.8
530.071	14847.25
530.437	14882.5
530.803	14930.19
531.169	15000.02
531.535	14982.39
531.901	15173.12
532.267	15259.9
532.632	15360.46
532.998	15409.5
533.364	15515.48
533.73	15539.89
534.095	15624.41
534.461	15681.81
534.826	15811.97
535.192	15823.5
535.557	16049.48
535.923	15992.98
536.288	16097.84
536.653	16221.23
537.019	16196.14
537.384	16372.63
537.749	16341.22
538.114	16378.74
538.479	16368.34
538.845	16603.81
539.21	16560.88
539.575	16527.88
539.94	16632.51
540.305	16803.58
540.67	16824.15
541.034	16834.77
541.399	16912.28
541.764	17005.16
542.129	16984.14
542.494	17056.23
542.858	17156.57
543.223	17160.41
543.587	17275.21
543.952	17318.15
544.316	17314.3
544.681	17349.56
545.045	17550.91
545.41	17638.36
545.774	17618.25
546.138	17674.97
546.503	17718.59
546.867	17830.45
547.231	17972.82
547.595	17961.97
547.959	17956.32
548.324	18042.42
548.688	18099.14
549.052	18198.58
549.416	18253.71
549.779	18360.38
550.143	18420.94
550.507	18532.58
550.871	18570.32
551.235	18587.49
551.599	18809.63
551.962	18810.08
552.326	18898.67
552.689	19080.81
553.053	18946.8
553.417	19092.79
553.78	19360.58
554.143	19371.43
554.507	19477.19
554.87	19569.84
555.234	19747.69
555.597	19713.56
555.96	19898.87
556.323	19957.4
556.686	20081.01
557.05	20332.98
557.413	20325.07
557.776	20488.01
558.139	20568
558.502	20744.27
558.865	20775.23
559.228	21022
559.59	21102.68
559.953	21095.22
560.316	21526.85
560.679	21540.63
561.041	21649.33
561.404	21868.99
561.767	21970.45
562.129	21978.81
562.492	22254.51
562.854	22366.38
563.217	22400.5
563.579	22656.09
563.941	22784.9
564.304	22908.73
564.666	23051.1
565.028	23259.23
565.39	23388.04
565.753	23622.16
566.115	23681.59
566.477	23848.6
566.839	24102.6
567.201	24132.88
567.563	24358.19
567.925	24603.6
568.287	24683.15
568.648	24907.78
569.01	24999.07
569.372	25303.7
569.734	25363.36
570.095	25551.38
570.457	25630.02
570.819	25764.7
571.18	25755.66
571.542	26129.21
571.903	26200.85
572.265	26511.12
572.626	26589.09
572.987	26695.98
573.349	26791.34
573.71	27091.45
574.071	27203.54
574.432	27328.05
574.794	27502.51
575.155	27617.99
575.516	27651.43
575.877	27964.65
576.238	28023.4
576.599	28283.06
576.96	28298.42
577.32	28436.72
577.681	28595.36
578.042	28723.72
578.403	28900.44
578.763	28820.44
579.124	29035.58
579.485	29168.23
579.845	29371.39
580.206	29467.43
580.566	29416.81
580.927	29709.23
581.287	29838.27
581.648	29758.95
582.008	29845.95
582.368	29930.24
582.728	30014.76
583.089	30062.44
583.449	30091.6
583.809	30215.43
584.169	30340.85
584.529	30301.31
584.889	30637.57
585.249	30434.64
585.609	30461.53
585.969	30691.13
586.329	30549.21
586.688	30734.97
587.048	30693.84
587.408	30794.85
587.768	30745.82
588.127	30845.93
588.487	30695.2
588.846	31039.82
589.206	30938.13
589.565	30871.01
589.925	31194.39
590.284	30984.68
590.643	31140.38
591.003	31304.45
591.362	31221.28
591.721	31279.14
592.08	31160.27
592.44	31288.17
592.799	31344.67
593.158	31325.46
593.517	31340.38
593.876	31426.25
594.235	31469.64
594.593	31459.92
594.952	31463.99
595.311	31418.57
595.67	31554.38
596.029	31771.55
596.387	31805.9
596.746	31788.73
597.104	31629.86
597.463	31605.45
597.822	31766.81
598.18	31678.22
598.538	31692.68
598.897	31929.74
599.255	31569.52
599.613	32130.64
599.972	31778.11
600.33	32056.52
600.688	31880.7
601.046	32078.44
601.404	32252.89
601.762	32046.35
602.12	32227.36
602.478	32153.91
602.836	32319.79
603.194	32015.84
603.552	32056.97
603.91	31841.61
604.268	32219.68
604.625	32130.41
604.983	32294.93
605.341	32223.07
605.698	32341.03
606.056	32401.37
606.413	32340.8
606.771	32408.82
607.128	32440.01
607.485	32274.36
607.843	32366.79
608.2	32587.8
608.557	32803.16
608.914	32551.19
609.272	32679.1
609.629	32665.09
609.986	32849.49
610.343	32597.07
610.7	32927.45
611.057	32818.98
611.414	32934.91
611.771	32838.42
612.127	33000.22
612.484	32916.83
612.841	33008.81
613.198	32872.54
613.554	32987.56
613.911	33156.83
614.267	33170.38
614.624	33144.4
614.98	33289.25
615.337	33369.93
615.693	33307.1
616.05	33302.13
616.406	33492.86
616.762	33338.74
617.118	33443.6
617.475	33401.34
617.831	33354.56
618.187	33553.2
618.543	33540.54
618.899	33712.74
619.255	33579.87
619.611	33562.01
619.967	33663.25
620.323	33695.34
620.678	33497.38
621.034	33521.56
621.39	33719.97
621.746	33593.42
622.101	34025.28
622.457	33797.94
622.812	33769.47
623.168	33798.16
623.523	33791.16
623.879	33839.75
624.234	33685.4
624.589	33777.6
624.945	33800.2
625.3	33893.98
625.655	33788
626.01	33825.28
626.365	33882.91
626.72	33832.51
627.075	33803.81
627.43	33761.56
627.785	33678.85
628.14	33914.77
628.495	33769.92
628.85	33723.14
629.205	33622.35
629.559	33760.2
629.914	33635.01
630.269	33630.03
630.623	33580.32
630.978	33574.89
631.332	33651.05
631.687	33698.73
632.041	33510.71
632.396	33520.88
632.75	33382.81
633.104	33383.71
633.459	33314.34
633.813	33366.54
634.167	33376.48
634.521	33193.44
634.875	33349.36
635.229	33202.02
635.583	33118.63
635.937	33242.25
636.291	33121.57
636.645	33251.96
636.999	33076.15
637.352	33054.23
637.706	32968.58
638.06	33078.41
638.413	32953.22
638.767	33012.87
639.121	32971.97
639.474	32798.64
639.828	32762.49
640.181	32763.39
640.534	32721.36
640.888	32705.54
641.241	32472.32
641.594	32600.68
641.947	32705.09
642.301	32567.46
642.654	32650.85
643.007	32632.32
643.36	32567.01
643.713	32487.69
644.066	32486.34
644.419	32293.8
644.771	32301.26
645.124	32047.48
645.477	32137.42
645.83	31777.2
646.182	31658.11
646.535	31434.61
646.888	31547.38
647.24	31383.99
647.593	31388.96
647.945	31332.69
648.298	31212.7
648.65	31142.64
649.002	31189.65
649.355	31220.38
649.707	31263.32
650.059	31416.76
650.411	31781.72
650.763	31810.19
651.115	32134.25
651.467	31943.52
651.819	32066.46
652.171	32024.65
652.523	31947.82
652.875	31891.1
653.227	31852.68
653.578	32073.01
653.93	31807.26
654.282	31835.05
654.633	31667.6
654.985	31851.1
655.337	31816.07
655.688	31787.14
656.039	31981.04
656.391	31653.36
656.742	31762.06
657.094	31827.82
657.445	31955.73
657.796	31851.55
658.147	31823.75
658.498	31840.48
658.849	31838.44
659.2	31661.95
659.551	31662.4
659.902	31717.32
660.253	31641.39
660.604	31821.49
660.955	31560.03
661.306	31742.4
661.656	31699.24
662.007	31736.98
662.358	31654.72
662.708	31700.82
663.059	31624.89
663.409	31538.79
663.76	31792.34
664.11	31830.53
664.461	31807.71
664.811	31627.6
665.161	31614.49
665.511	31602.29
665.862	31534.95
666.212	31573.36
666.562	31719.8
666.912	31572.01
667.262	31614.95
667.612	31493.37
667.962	31739.91
668.312	31491.11
668.662	31699.01
669.011	31729.07
669.361	31537.89
669.711	31536.08
670.06	31470.77
670.41	31387.83
670.76	31434.16
671.109	31451.56
671.459	31501.28
671.808	31295.41
672.157	31416.98
672.507	31162.75
672.856	31212.24
673.205	31240.04
673.554	31346.03
673.904	31149.87
674.253	31245.69
674.602	31145.81
674.951	30889.09
675.3	30567.74
675.649	31127.05
675.998	31043.21
676.346	30995.3
676.695	31108.74
677.044	30840.95
677.393	30914.17
677.741	31080.95
678.09	30843.89
678.438	30802.54
678.787	30897.45
679.135	30963.66
679.484	30673.95
679.832	30849.54
680.181	30602.54
680.529	30706.04
680.877	30657.91
681.225	30630.79
681.573	30805.93
681.922	30455.43
682.27	30409.1
682.618	30238.71
682.966	30281.2
683.314	30302.66
683.661	30221.99
684.009	30055.21
684.357	30074.87
684.705	29937.02
685.053	30004.37
685.4	29945.16
685.748	29805.5
686.095	29729.8
686.443	29730.25
686.79	29662.91
687.138	29680.31
687.485	29726.63
687.832	29566.64
688.18	29604.6
688.527	29434.66
688.874	29268.11
689.221	29331.16
689.568	29210.04
689.915	29214.33
690.262	29097.05
690.609	28930.5
690.956	28968.91
691.303	29014.79
691.65	28666.32
691.997	28622.03
692.344	28439.21
692.69	28481.24
693.037	28530.28
693.383	28237.86
693.73	28284.19
694.077	28188.82
694.423	28073.12
694.769	27989.96
695.116	27878.55
695.462	27879
695.808	27858.43
696.155	27880.35
696.501	27481.04
696.847	27622.28
697.193	27417.09
697.539	27431.1
697.885	27253.03
698.231	27225.23
698.577	27189.75
698.923	27073.14
699.269	27024.56
699.614	26797.67
699.96	26820.72
700.306	26841.96
700.651	26541.18
700.997	26523.33
701.342	26433.16
701.688	26368.76
702.033	26386.38
702.379	26334.18
702.724	26320.4
703.069	26257.57
703.415	25964.02
703.76	26012.83
704.105	25960.18
704.45	25795.21
704.795	25595.67
705.14	25518.61
705.485	25566.74
705.83	25427.76
706.175	25439.74
706.52	25333.98
706.865	25319.07
707.209	25217.6
707.554	25216.7
707.899	25038.85
708.243	24973.99
708.588	25006.31
708.932	24783.26
709.277	24778.29
709.621	24801.57
709.966	24682.25
710.31	24764.96
710.654	24521.35
710.998	24541.69
711.342	24592.98
711.687	24460.33
712.031	24293.33
712.375	24253.78
712.719	24270.96
713.063	24311.86
713.407	24355.25
713.75	24167.23
714.094	24014.24
714.438	23823.29
714.782	24039.33
715.125	23877.52
715.469	24009.27
715.812	23920.68
716.156	23725.66
716.499	23772.67
716.843	23782.38
717.186	23561.82
717.53	23727.02
717.873	23786.68
718.216	23665.32
718.559	23590.75
718.902	23426.91
719.246	23499.45
719.589	23403.41
719.932	23365.44
720.275	23347.14
720.617	23390.53
720.96	23277.31
721.303	23309.4
721.646	23368.16
721.989	23155.51
722.331	23195.73
722.674	23141.72
723.016	23197.77
723.359	23105.56
723.701	23216.07
724.044	23029.18
724.386	22930.88
724.729	23067.15
725.071	22977.88
725.413	22929.75
725.755	22911.9
726.097	22875.51
726.439	22803.43
726.782	22911.9
727.124	22939.69
727.465	22809.3
727.807	22839.13
728.149	22758
728.491	22756.87
728.833	22841.16
729.175	22685.69
729.516	22660.38
729.858	22707.38
730.199	22740.15
730.541	22607.95
730.882	22580.83
731.224	22635.97
731.565	22469.42
731.906	22645.01
732.248	22599.36
732.589	22503.09
732.93	22477.78
733.271	22553.26
733.612	22457.45
733.953	22420.84
734.294	22404.34
734.635	22535.86
734.976	22488.41
735.317	22379.48
735.658	22469.88
735.999	22487.95
736.339	22366.6
736.68	22436.43
737.021	22389.2
737.361	22306.26
737.702	22414.51
738.042	22438.69
738.383	22304.46
738.723	22423.1
739.063	22240.05
739.404	22369.99
739.744	22354.62
740.084	22314.63
740.424	22373.61
740.764	22345.13
741.104	22399.37
741.444	22177.91
741.784	22298.35
742.124	22334.51
742.464	22339.94
742.804	22268.75
743.143	22242.54
743.483	22239.82
743.823	22198.47
744.162	22242.54
744.502	22302.87
744.841	22254.51
745.181	22218.81
745.52	22069.66
745.86	22224.91
746.199	22200.96
746.538	22147.85
746.877	22175.65
747.216	22133.84
747.556	22172.93
747.895	22139.94
748.234	22065.37
748.573	22078.7
748.911	22156.21
749.25	22084.12
749.589	21981.07
749.928	22061.52
750.267	22040.28
750.605	21934.97
750.944	21952.6
751.283	21831.02
751.621	21933.39
751.96	21855.88
752.298	21834.86
752.636	21887.97
752.975	21760.74
753.313	21666.51
753.651	21833.73
753.989	21613.4
754.327	21670.35
754.666	21455.89
755.004	21727.97
755.342	21671.25
755.679	21640.74
756.017	21372.28
756.355	21586.73
756.693	21451.37
757.031	21522.1
757.368	21366.4
757.706	21327.31
758.044	21273.52
758.381	21294.76
758.719	21248.66
759.056	21284.14
759.394	21275.33
759.731	21135
760.068	21065.84
760.405	21020.2
760.743	20918.96
761.08	21082.34
761.417	20829.24
761.754	20899.07
762.091	20738.85
762.428	20695.68
762.765	20709.47
763.102	20790.82
763.438	20645.29
763.775	20493.88
764.112	20500.21
764.449	20419.53
764.785	20424.96
765.122	20251.85
765.458	20224.06
765.795	20118.07
766.131	20187.9
766.467	20179.54
766.804	19975.03
767.14	19877.18
767.476	19896.38
767.812	19733
768.148	19713.79
768.485	19655.26
768.821	19569.39
769.157	19563.29
769.492	19509.05
769.828	19467.69
770.164	19281.48
770.5	19303.4
770.836	19367.81
771.171	19127.14
771.507	19168.72
771.842	19031.1
772.178	18976.86
772.513	18934.83
772.849	18833.13
773.184	18803.53
773.519	18783.42
773.855	18804.21
774.19	18677.21
774.525	18591.33
774.86	18557.89
775.195	18543.88
775.53	18529.87
775.865	18317.44
776.2	18225.92
776.535	18100.27
776.87	18148.86
777.205	18073.61
777.539	17915.64
777.874	17919.94
778.209	17806.5
778.543	17708.64
778.878	17573.28
779.212	17658.7
779.547	17562.66
779.881	17514.75
780.215	17475.2
780.55	17456
780.884	17319.73
781.218	17295.32
781.552	17216.45
781.886	17273.63
782.22	17050.81
782.554	17095.55
782.888	16904.82
783.222	16886.29
783.556	16759.52
783.889	16783.02
784.223	16610.59
784.557	16630.48
784.89	16571.05
785.224	16512.29
785.557	16366.53
785.891	16422.12
786.224	16369.7
786.558	16376.93
786.891	16169.93
787.224	16127.22
787.557	16095.81
787.891	16074.11
788.224	16103.26
788.557	16019.88
788.89	15908.69
789.223	15953.89
789.556	15779.43
789.888	15814.46
790.221	15703.05
790.554	15600.9
790.887	15645.42
791.219	15520.68
791.552	15492.43
791.884	15327.24
792.217	15468.03
792.549	15279.33
792.882	15234.36
793.214	15201.14
793.546	15267.58
793.879	15064.87
794.211	14997.98
794.543	14988.26
794.875	14973.58
795.207	14981.71
795.539	14963.18
795.871	14922.5
796.203	14770.19
796.535	14708.5
796.867	14659.91
797.198	14656.52
797.53	14609.74
797.862	14560.03
798.193	14575.85
798.525	14459.46
798.856	14466.47
799.188	14358.9
799.519	14376.3
799.85	14273.71
800.182	14222.63
800.513	14181.51
800.844	14054.28
801.175	14224.22
801.506	14198.68
801.837	14021.74
802.168	13966.6
802.499	14014.05
802.83	13865.13
803.161	13837.33
803.491	13835.53
803.822	13804.11
804.153	13680.95
804.483	13667.62
804.814	13520.28
805.145	13587.4
805.475	13557.79
805.805	13456.55
806.136	13448.64
806.466	13417.46
806.796	13530
807.126	13355.76
807.457	13322.32
807.787	13279.61
808.117	13206.16
808.447	13232.38
808.777	13141.31
809.107	13168.88
809.436	13121.42
809.766	13126.62
810.096	13014.53
810.426	12930.69
810.755	13059.05
811.085	13028.77
811.414	12888.66
811.744	12923.69
812.073	12927.98
812.403	12841.65
812.732	12742.67
813.061	12732.28
813.39	12659.96
813.719	12593.75
814.049	12737.48
814.378	12660.64
814.707	12512.85
815.036	12643.24
815.365	12491.83
815.693	12434.43
816.022	12433.53
816.351	12422.91
816.68	12362.8
817.008	12325.28
817.337	12163.93
817.665	12175.46
817.994	12231.27
818.322	12273.76
818.651	12132.52
818.979	12140.88
819.307	12078.74
819.636	12094.55
819.964	12030.6
820.292	12045.29
820.62	12054.78
820.948	12034.22
821.276	12078.96
821.604	12017.04
821.932	12012.75
822.259	12091.17
822.587	12038.74
822.915	11866.54
823.243	12021.79
823.57	11910.83
823.898	11991.73
824.225	11920.32
824.553	11940.89
824.88	11947.89
825.207	11942.69
825.535	11991.51
825.862	11955.8
826.189	12020.88
826.516	12025.63
826.843	11945.41
827.17	12045.29
827.497	11971.17
827.824	12019.98
828.151	11947.67
828.478	11970.94
828.805	11996.25
829.131	11902.7
829.458	11966.2
829.785	11825.18
830.111	11841.68
830.438	11943.37
830.764	11922.36
831.09	11924.16
831.417	11914.9
831.743	11911.28
832.069	11867.67
832.395	11857.05
832.722	11887.55
833.048	11795.58
833.374	11829.25
833.7	11788.8
834.026	11827.9
834.351	11844.17
834.677	11837.61
835.003	11826.54
835.329	11837.39
835.654	11733.21
835.98	11744.06
836.306	11769.82
836.631	11673.1
836.956	11702.47
837.282	11685.98
837.607	11623.83
837.932	11564.85
838.258	11719.2
838.583	11573.44
838.908	11549.71
839.233	11575.7
839.558	11498.41
839.883	11545.19
840.208	11427.68
840.533	11505.87
840.858	11449.83
841.182	11420.9
841.507	11417.51
841.832	11332.99
842.156	11392.65
842.481	11360.11
842.805	11305.88
843.13	11248.7
843.454	11178.65
843.778	11258.42
844.103	11210.51
844.427	11144.75
844.751	11213.67
845.075	11075.6
845.399	11088.25
845.723	11024.53
846.047	11048.03
846.371	10945.43
846.695	10949.27
847.019	10864.3
847.343	10792.22
847.666	10770.52
847.99	10726.91
848.313	10644.65
848.637	10609.17
848.96	10642.16
849.284	10632.22
849.607	10529.85
849.931	10539.34
850.254	10471.32
850.577	10346.13
850.9	10340.93
851.223	10242.63
851.546	10200.37
851.869	10175.06
852.192	10259.8
852.515	10201.72
852.838	10106.13
853.161	10085.12
853.483	10028.17
853.806	10037.89
854.129	9978.68
854.451	9895.74
854.774	9899.58
855.096	9908.4
855.419	9787.5
855.741	9864.11
856.063	9740.94
856.385	9811.9
856.708	9716.54
857.03	9714.28
857.352	9650.33
857.674	9687.61
857.996	9586.6
858.318	9554.06
858.64	9549.31
858.961	9514.28
859.283	9524.23
859.605	9551.8
859.926	9478.35
860.248	9477.45
860.57	9390.9
860.891	9408.98
861.212	9358.13
861.534	9329.88
861.855	9371.46
862.176	9267.28
862.498	9237
862.819	9325.14
863.14	9247.85
863.461	9306.83
863.782	9194.97
864.103	9232.26
864.424	9111.81
864.745	9162.2
865.065	9109.55
865.386	9147.74
865.707	9170.79
866.027	9109.32
866.348	9135.08
866.668	9123.56
866.989	9108.64
867.309	9007.4
867.63	9078.59
867.95	9054.86
868.27	8942.1
868.59	8993.62
868.91	8931.7
869.23	8920.85
869.55	8885.83
869.87	8962.66
870.19	8919.05
870.51	8882.21
870.83	8887.86
871.15	8843.34
871.469	8803.57
871.789	8805.83
872.109	8904.81
872.428	8826.62
872.748	8785.26
873.067	8801.76
873.386	8804.25
873.706	8727.64
874.025	8794.53
874.344	8750.69
874.663	8751.14
874.982	8681.31
875.301	8779.61
875.62	8680.86
875.939	8620.97
876.258	8657.81
876.577	8550.92
876.896	8575.33
877.214	8558.83
877.533	8512.73
877.852	8493.97
878.17	8530.58
878.489	8557.47
878.807	8572.61
879.125	8513.63
879.444	8440.41
879.762	8456.01
880.08	8452.62
880.398	8420.75
880.716	8473.18
881.034	8337.82
881.352	8371.94
881.67	8360.87
881.988	8405.84
882.306	8397.02
882.624	8314.99
882.941	8315.9
883.259	8299.17
883.577	8291.04
883.894	8176.92
884.212	8246.07
884.529	8214.66
884.846	8171.49
885.164	8215.11
885.481	8209.46
885.798	8183.7
886.115	8114.32
886.432	8085.62
886.75	8072.51
887.067	8115.45
887.383	8013.08
887.7	7994.78
888.017	8004.27
888.334	8024.15
888.651	7933.53
888.967	7933.08
889.284	7854.89
889.6	7957.94
889.917	7794.1
890.233	7896.47
890.55	7890.82
890.866	7826.87
891.182	7797.94
891.498	7773.31
891.815	7768.34
892.131	7693.99
892.447	7651.51
892.763	7621.45
893.079	7687.44
893.395	7589.81
893.71	7643.15
894.026	7613.99
894.342	7522.25
894.657	7507.56
894.973	7490.83
895.289	7512.75
895.604	7535.8
895.92	7386.2
896.235	7349.14
896.55	7352.53
896.865	7374.9
897.181	7351.18
897.496	7331.52
897.811	7266.43
898.126	7231.86
898.441	7244.06
898.756	7211.75
899.071	7175.81
899.386	7176.94
899.7	7188.92
900.015	7098.75
900.33	6996.61
900.644	7028.93
900.959	7030.51
901.273	7045.42
901.588	6966.55
901.902	6975.37
902.216	6932.2
902.531	6915.71
902.845	6881.36
903.159	6832.77
903.473	6829.83
903.787	6840.46
904.101	6805.43
904.415	6768.37
904.729	6788.48
905.042	6726.11
905.356	6706.9
905.67	6640.69
905.984	6687.69
906.297	6640.91
906.611	6549.16
906.924	6629.61
907.237	6562.5
907.551	6505.55
907.864	6512.78
908.177	6460.8
908.491	6478.88
908.804	6435.95
909.117	6360.24
909.43	6361.15
909.743	6293.58
910.056	6325.67
910.368	6282.28
910.681	6307.81
910.994	6268.49
911.307	6186.91
911.619	6180.13
911.932	6191.66
912.244	6160.7
912.557	6100.59
912.869	6121.38
913.181	6086.13
913.494	6052
913.806	6040.7
914.118	6028.95
914.43	6014.94
914.742	5981.95
915.054	5935.17
915.366	5920.25
915.678	5858.33
915.99	5859.46
916.302	5827.83
916.613	5826.7
916.925	5798.9
917.236	5779.47
917.548	5750.54
917.859	5732.01
918.171	5682.52
918.482	5661.5
918.794	5698.34
919.105	5665.35
919.416	5553.26
919.727	5589.64
920.038	5562.75
920.349	5493.82
920.66	5528.63
920.971	5524.56
921.282	5455.63
921.593	5407.73
921.903	5439.14
922.214	5442.75
922.525	5360.04
922.835	5369.08
923.146	5300.38
923.456	5317.33
923.767	5265.36
924.077	5306.94
924.387	5228.52
924.697	5250.89
925.008	5229.42
925.318	5166.83
925.628	5153.95
925.938	5149.2
926.248	5084.34
926.558	5028.75
926.867	5059.71
927.177	5019.71
927.487	5034.85
927.796	5021.52
928.106	4969.54
928.416	4973.61
928.725	4995.08
929.034	4908.98
929.344	4946.04
929.653	4960.73
929.962	4861.3
930.271	4803.67
930.581	4876.44
930.89	4805.93
931.199	4814.52
931.508	4732.04
931.817	4760.28
932.125	4712.83
932.434	4747.63
932.743	4674.41
933.051	4623.34
933.36	4628.54
933.669	4630.8
933.977	4586.5
934.286	4560.97
934.594	4575.43
934.902	4575.2
935.21	4535.21
935.519	4516.22
935.827	4488.88
936.135	4504.25
936.443	4471.25
936.751	4387.86
937.059	4390.35
937.367	4404.14
937.674	4399.16
937.982	4410.24
938.29	4324.59
938.597	4346.51
938.905	4289.11
939.213	4282.1
939.52	4227.19
939.827	4265.61
940.135	4195.78
940.442	4199.4
940.749	4206.17
941.056	4154.65
941.363	4190.81
941.67	4116.91
941.977	4095.67
942.284	4088.89
942.591	4105.61
942.898	4094.99
943.205	4074.2
943.511	4034.43
943.818	4034.65
944.125	3999.17
944.431	4001.21
944.738	3957.82
945.044	3955.11
945.35	3907.43
945.657	3958.72
945.963	3901.78
946.269	3926.18
946.575	3890.48
946.881	3871.95
947.187	3869.91
947.493	3820.65
947.799	3802.8
948.105	3767.99
948.41	3771.84
948.716	3794.43
949.022	3751.5
949.327	3748.56
949.633	3695
949.938	3754.66
950.244	3701.33
950.549	3713.53
950.854	3637.38
951.16	3655.68
951.465	3648.22
951.77	3615.46
952.075	3570.26
952.38	3602.12
952.685	3614.33
952.99	3517.83
953.294	3526.19
953.599	3526.64
953.904	3474.89
954.209	3480.32
954.513	3506.31
954.818	3462.24
955.122	3397.83
955.426	3431.51
955.731	3416.59
956.035	3392.18
956.339	3375.69
956.643	3401.45
956.948	3368.68
957.252	3306.09
957.556	3366.87
957.86	3314.22
958.163	3285.07
958.467	3314.45
958.771	3289.36
959.075	3224.28
959.378	3243.04
959.682	3258.18
959.985	3216.14
960.289	3247.33
960.592	3162.81
960.896	3161.23
961.199	3136.15
961.502	3114.45
961.805	3128.24
962.108	3124.17
962.411	3120.78
962.714	3084.85
963.017	3088.01
963.32	3067.67
963.623	3037.17
963.926	3069.26
964.228	3025.64
964.531	3017.51
964.833	3009.37
965.136	3000.1
965.438	2979.77
965.741	2965.53
966.043	2961.69
966.345	2931.86
966.648	2939.99
966.95	2945.19
967.252	2923.27
967.554	2944.29
967.856	2857.28
968.158	2874.46
968.46	2836.49
968.761	2858.87
969.063	2839.66
969.365	2835.14
969.666	2831.52
969.968	2790.17
970.269	2783.84
970.571	2819.09
970.872	2757.85
971.174	2728.7
971.475	2747.68
971.776	2714.24
972.077	2722.37
972.378	2683.28
972.679	2704.07
972.98	2664.29
973.281	2643.73
973.582	2679.44
973.883	2644.86
974.183	2648.7
974.484	2657.29
974.785	2625.43
975.085	2590.4
975.386	2613.9
975.686	2583.84
975.986	2575.26
976.287	2584.52
976.587	2542.04
976.887	2519.44
977.187	2546.56
977.487	2565.99
977.787	2517.86
978.087	2501.13
978.387	2460.23
978.687	2490.29
978.987	2503.17
979.286	2443.51
979.586	2439.89
979.885	2409.61
980.185	2427.69
980.484	2422.04
980.784	2416.62
981.083	2382.72
981.382	2374.13
981.682	2377.75
981.981	2389.95
982.28	2378.2
982.579	2323.29
982.878	2343.4
983.177	2293.46
983.475	2321.03
983.774	2323.96
984.073	2286
984.372	2284.87
984.67	2267.69
984.969	2271.54
985.267	2250.29
985.566	2246.45
985.864	2220.46
986.162	2230.18
986.461	2217.3
986.759	2207.36
987.057	2199.45
987.355	2195.83
987.653	2180.01
987.951	2156.74
988.249	2188.83
988.547	2151.77
988.844	2154.03
989.142	2110.86
989.44	2148.6
989.737	2091.88
990.035	2074.48
990.332	2077.64
990.63	2059.34
990.927	2087.59
991.224	2070.19
991.521	2058.66
991.819	2052.56
992.116	2032.45
992.413	2031.09
992.71	2004.65
993.006	1973.92
993.303	2017.53
993.6	1995.84
993.897	1964.43
994.193	2006.01
994.49	1962.17
994.787	1940.47
995.083	1955.84
995.379	1947.93
995.676	1944.99
995.972	1923.07
996.268	1890.76
996.565	1893.92
996.861	1890.53
997.157	1890.53
997.453	1849.85
997.749	1867.71
998.044	1837.88
998.34	1837.88
998.636	1833.36
998.932	1829.06
999.227	1781.15
999.523	1816.63
999.818	1780.7
1000.114	1780.48
1000.409	1769.85
1000.704	1752.45
1001	1791.77
1001.295	1723.75
1001.59	1738.22
1001.885	1753.81
1002.18	1711.1
1002.475	1712.68
1002.77	1717.2
1003.065	1674.94
1003.359	1674.04
1003.654	1670.2
1003.949	1678.33
1004.243	1651.67
1004.538	1653.47
1004.832	1631.78
1005.127	1621.61
1005.421	1614.6
1005.715	1610.99
1006.009	1614.83
1006.304	1628.84
1006.598	1592.91
1006.892	1606.92
1007.186	1558.56
1007.48	1573.7
1007.773	1573.7
1008.067	1530.54
1008.361	1569.63
1008.655	1536.19
1008.948	1527.38
1009.242	1518.56
1009.535	1537.09
1009.829	1500.26
1010.122	1509.97
1010.415	1487.6
1010.708	1450.09
1011.001	1466.13
1011.295	1429.07
1011.588	1441.05
1011.881	1470.2
1012.173	1448.06
1012.466	1425.91
1012.759	1422.97
1013.052	1415.51
1013.344	1412.12
1013.637	1410.77
1013.93	1388.62
1014.222	1389.53
1014.514	1393.37
1014.807	1350.88
1015.099	1361.73
1015.391	1341.84
1015.683	1346.81
1015.976	1319.7
1016.268	1340.49
1016.56	1329.19
1016.851	1326.7
1017.143	1330.54
1017.435	1298.45
1017.727	1288.29
1018.018	1250.55
1018.31	1300.71
1018.602	1268.62
1018.893	1261.17
1019.185	1242.64
1019.476	1245.57
1019.767	1206.93
1020.058	1245.57
1020.35	1226.37
1020.641	1223.43
1020.932	1201.06
1021.223	1205.58
1021.514	1219.59
1021.804	1142.98
1022.095	1191.79
1022.386	1192.69
1022.677	1145.24
1022.967	1156.99
1023.258	1135.97
1023.548	1149.76
1023.839	1152.92
1024.129	1127.16
1024.419	1109.53
1024.709	1117.22
1025	1124.67
1025.29	1107.95
1025.58	1093.94
1025.87	1094.17
1026.16	1063.43
1026.449	1100.27
1026.739	1072.25
1027.029	1073.15
1027.319	1064.56
1027.608	1059.82
1027.898	1075.41
1028.187	1033.38
1028.477	1043.77
1028.766	1048.29
1029.055	1018.24
1029.344	1018.24
1029.634	1016.2
1029.923	988.86
1030.212	984.34
1030.501	971.01
1030.79	982.08
1031.078	975.3
1031.367	974.17
1031.656	971.46
1031.945	947.05
1032.233	978.24
1032.522	974.17
1032.81	946.37
1033.099	940.72
1033.387	939.37
1033.675	941.4
1033.963	891.91
1034.251	923.78
1034.54	912.48
1034.828	908.63
1035.116	891.69
1035.403	879.71
1035.691	880.16
1035.979	889.43
1036.267	898.01
1036.554	880.84
1036.842	872.25
1037.129	850.56
1037.417	858.69
1037.704	838.81
1037.992	835.87
1038.279	831.35
1038.566	863.21
1038.853	863.21
1039.14	863.21
