Data from tablewood_dark_bookshelf_FLMS001491_00002.txt Node
Date: Wed Feb 08 14:13:19 GMT 2017
User: dcchb
Spectrometer: FLMS00149
Trigger mode: 0
Integration Time (sec): 2.000000E-2
Scans to average: 10
Electric dark correction enabled: true
Nonlinearity correction enabled: false
Boxcar width: 0
XAxis mode: Wavelengths
Number of Pixels in Spectrum: 2048
>>>>>Begin Spectral Data<<<<<
341.393	-29.01
341.776	-29.01
342.16	-29.01
342.543	-69.46
342.927	-72.17
343.31	-58.61
343.693	-79.86
344.077	-52.29
344.46	-34.89
344.843	-65.62
345.226	-47.09
345.61	-24.72
345.993	-19.75
346.376	-10.25
346.759	9.41
347.142	26.13
347.525	43.53
347.908	40.82
348.291	63.87
348.674	95.73
349.057	113.58
349.44	112.91
349.823	133.02
350.206	177.31
350.588	148.16
350.971	211.44
351.354	229.29
351.737	236.75
352.119	213.02
352.502	238.78
352.884	268.38
353.267	289.17
353.65	286.91
354.032	281.04
354.414	290.53
354.797	295.95
355.179	301.83
355.562	310.87
355.944	307.48
356.326	323.52
356.709	342.96
357.091	318.1
357.473	328.27
357.855	329.4
358.238	312.68
358.62	321.94
359.002	347.7
359.384	305.9
359.766	332.79
360.148	324.65
360.53	345.67
360.912	342.28
361.294	323.75
361.676	310.42
362.057	332.11
362.439	316.97
362.821	340.92
363.203	305.22
363.584	318.32
363.966	314.26
364.348	318.55
364.729	319.23
365.111	313.81
365.493	316.74
365.874	351.54
366.256	341.83
366.637	322.84
367.019	314.26
367.4	318.55
367.781	305.22
368.163	321.94
368.544	319.68
368.925	308.38
369.306	316.52
369.688	313.81
370.069	307.03
370.45	321.71
370.831	337.76
371.212	332.11
371.593	309.06
371.974	339.57
372.355	316.07
372.736	342.05
373.117	336.86
373.498	308.83
373.879	321.94
374.26	329.85
374.641	334.6
375.021	338.44
375.402	339.34
375.783	340.7
376.163	344.54
376.544	338.21
376.925	335.27
377.305	339.57
377.686	350.41
378.066	346.35
378.447	340.47
378.827	356.52
379.208	369.4
379.588	338.44
379.968	357.65
380.349	352.67
380.729	346.57
381.109	344.54
381.489	379.34
381.87	363.52
382.25	375.5
382.63	370.53
383.01	368.49
383.39	371.88
383.77	372.56
384.15	366.46
384.53	372.33
384.91	379.57
385.29	375.72
385.67	381.6
386.049	388.38
386.429	397.64
386.809	386.12
387.189	395.39
387.568	382.05
387.948	399
388.328	414.37
388.707	387.48
389.087	395.61
389.466	415.95
389.846	396.06
390.225	425.67
390.605	411.66
390.984	419.79
391.363	415.5
391.743	418.21
392.122	432.9
392.501	424.76
392.881	431.77
393.26	448.27
393.639	463.63
394.018	448.72
394.397	461.82
394.776	454.14
395.155	446.23
395.534	449.62
395.913	445.1
396.292	450.07
396.671	439.9
397.05	446.23
397.429	455.95
397.808	465.89
398.186	471.09
398.565	470.41
398.944	459.56
399.323	463.18
399.701	474.03
400.08	468.6
400.458	501.82
400.837	498.89
401.215	498.66
401.594	492.78
401.972	481.03
402.351	504.76
402.729	502.27
403.107	515.38
403.486	502.05
403.864	491.43
404.242	504.53
404.62	504.31
404.999	508.83
405.377	511.09
405.755	540.24
406.133	530.97
406.511	529.84
406.889	548.38
407.267	524.42
407.645	559.45
408.023	551.54
408.401	562.39
408.779	577.08
409.156	593.12
409.534	577.53
409.912	577.75
410.29	582.05
410.667	593.8
411.045	611.2
411.422	614.81
411.8	619.33
412.178	619.33
412.555	607.58
412.933	608.49
413.31	634.47
413.687	641.71
414.065	676.06
414.442	643.29
414.819	659.78
415.197	674.93
415.574	699.11
415.951	685.55
416.328	677.19
416.705	693.91
417.082	688.94
417.46	682.61
417.837	690.97
418.214	710.41
418.591	697.75
418.967	722.83
419.344	730.52
419.721	701.82
420.098	726.68
420.475	741.82
420.852	736.85
421.228	738.2
421.605	758.77
421.982	761.48
422.358	765.54
422.735	787.24
423.111	783.4
423.488	794.02
423.864	801.25
424.241	786.56
424.617	813.23
424.994	820.23
425.37	825.66
425.746	814.13
426.123	842.38
426.499	844.19
426.875	849.16
427.251	860.46
427.627	875.82
428.003	868.82
428.379	903.85
428.756	908.59
429.132	920.12
429.507	916.05
429.883	922.38
430.259	923.28
430.635	950.85
431.011	953.79
431.387	944.98
431.763	961.02
432.138	973.67
432.514	975.93
432.89	996.95
433.265	1022.49
433.641	1035.82
434.016	1057.29
434.392	1056.38
434.767	1062.71
435.143	1058.87
435.518	1066.33
435.894	1087.57
436.269	1098.19
436.644	1121.02
437.02	1143.39
437.395	1126.67
437.77	1154.01
438.145	1151.07
438.52	1160.79
438.895	1174.35
439.271	1199.43
439.646	1199.21
440.021	1186.32
440.395	1229.04
440.77	1220.67
441.145	1216.61
441.52	1229.49
441.895	1243.27
442.27	1260
442.645	1252.54
443.019	1265.42
443.394	1281.24
443.769	1313.55
444.143	1280.11
444.518	1319.88
444.892	1288.69
445.267	1349.48
445.641	1350.61
446.016	1345.19
446.39	1353.78
446.764	1343.61
447.139	1352.42
447.513	1363.72
447.887	1346.09
448.262	1368.47
448.636	1394.68
449.01	1423.15
449.384	1422.48
449.758	1404.4
450.132	1420.67
450.506	1461.35
450.88	1429.26
451.254	1483.94
451.628	1450.95
452.002	1512.87
452.376	1513.55
452.75	1531.17
453.123	1549.03
453.497	1551.96
453.871	1564.85
454.244	1584.28
454.618	1589.93
454.992	1634.22
455.365	1615.92
455.739	1654.34
456.112	1688.01
456.486	1694.79
456.859	1693.43
457.232	1748.12
457.606	1734.56
457.979	1764.84
458.352	1777.95
458.725	1817.49
459.099	1811.62
459.472	1860.88
459.845	1857.72
460.218	1851.39
460.591	1920.32
460.964	1929.36
461.337	1956.7
461.71	1972.07
462.083	1993.08
462.456	2015
462.829	2015
463.201	2080.31
463.574	2050.26
463.947	2109.24
464.32	2140.65
464.692	2141.33
465.065	2152.63
465.438	2192.63
465.81	2225.62
466.183	2240.53
466.555	2283.92
466.928	2284.15
467.3	2330.25
467.672	2344.71
468.045	2401.43
468.417	2417.25
468.789	2408.89
469.161	2412.51
469.534	2508.55
469.906	2546.74
470.278	2561.43
470.65	2587.64
471.022	2620.19
471.394	2673.52
471.766	2692.05
472.138	2742.89
472.51	2800.29
472.882	2868.99
473.253	2839.84
473.625	2872.38
473.997	2919.16
474.369	2969.78
474.74	2956.9
475.112	3045.26
475.484	3079.16
475.855	3170.91
476.227	3189.44
476.598	3235.54
476.97	3255.65
477.341	3364.35
477.713	3387.62
478.084	3447.28
478.455	3511.24
478.827	3553.95
479.198	3586.71
479.569	3661.51
479.94	3747.84
480.311	3769.76
480.682	3865.12
481.053	3951.45
481.424	3977.66
481.795	3995.74
482.166	4099.47
482.537	4114.61
482.908	4199.35
483.279	4268.5
483.65	4374.26
484.021	4405.22
484.391	4481.83
484.762	4542.85
485.133	4550.3
485.503	4647.7
485.874	4718.89
486.244	4734.93
486.615	4817.64
486.985	4866.91
487.356	4964.3
487.726	5001.37
488.097	5097.86
488.467	5116.39
488.837	5274.35
489.207	5362.94
489.578	5395.25
489.948	5403.39
490.318	5527.45
490.688	5484.29
491.058	5635.93
491.428	5734.68
491.798	5697.84
492.168	5826.2
492.538	5843.6
492.908	5900.55
493.278	6010.83
493.648	6028.91
494.017	6038.63
494.387	6121.79
494.757	6218.73
495.126	6284.04
495.496	6309.35
495.866	6338.28
496.235	6411.27
496.605	6500.08
496.974	6499.86
497.344	6540.31
497.713	6575.79
498.082	6687.65
498.452	6731.26
498.821	6748.44
499.19	6820.07
499.559	6842.22
499.928	6921.77
500.298	6999.73
500.667	7050.35
501.036	7016.68
501.405	7162.66
501.774	7123.12
502.143	7281.98
502.512	7263
502.88	7292.6
503.249	7308.88
503.618	7405.14
503.987	7393.17
504.356	7467.29
504.724	7538.47
505.093	7546.84
505.462	7602.88
505.83	7688.3
506.199	7655.31
506.567	7835.64
506.936	7790.22
507.304	7868.41
507.672	7926.03
508.041	7986.6
508.409	8056.2
508.777	8062.98
509.145	8197.44
509.514	8203.99
509.882	8255.74
510.25	8333.48
510.618	8342.52
510.986	8417.1
511.354	8483.31
511.722	8551.55
512.09	8620.25
512.458	8596.3
512.826	8728.05
513.193	8767.37
513.561	8826.12
513.929	8900.92
514.297	8973.46
514.664	9052.56
515.032	9082.16
515.4	9219.11
515.767	9189.5
516.135	9318.54
516.502	9221.82
516.869	9451.64
517.237	9455.03
517.604	9398.76
517.972	9547.23
518.339	9569.16
518.706	9661.58
519.073	9758.98
519.44	9812.99
519.808	9916.94
520.175	9951.29
520.542	10114.23
520.909	10041.69
521.276	10079.2
521.643	10267.67
522.009	10279.42
522.376	10375.46
522.743	10443.26
523.11	10546.3
523.477	10704.72
523.843	10685.06
524.21	10775.9
524.577	10996.01
524.943	10972.96
525.31	11017.7
525.676	11174.31
526.043	11171.6
526.409	11256.12
526.776	11406.17
527.142	11408.88
527.508	11509.22
527.874	11603
528.241	11708.53
528.607	11751.92
528.973	11889.09
529.339	11823.56
529.705	11938.58
530.071	12088.86
530.437	12044.34
530.803	12268.52
531.169	12365.69
531.535	12270.78
531.901	12329.76
532.267	12327.05
532.632	12479.14
532.998	12550.77
533.364	12692.69
533.73	12664.44
534.095	12687.04
534.461	12899.01
534.826	12906.92
535.192	12893.81
535.557	13033.92
535.923	13014.71
536.288	13106.24
536.653	13181.26
537.019	13145.56
537.384	13298.1
537.749	13296.51
538.114	13403.63
538.479	13301.71
538.845	13484.08
539.21	13452.22
539.575	13555.04
539.94	13571.99
540.305	13724.75
540.67	13688.37
541.034	13671.19
541.399	13823.96
541.764	13856.5
542.129	13917.29
542.494	13938.08
542.858	13991.41
543.223	14059.21
543.587	14067.79
543.952	14096.27
544.316	14230.28
544.681	14202.25
545.045	14310.5
545.41	14370.16
545.774	14330.61
546.138	14384.85
546.503	14479.76
546.867	14450.38
547.231	14600.66
547.595	14580.32
547.959	14675.24
548.324	14721.11
548.688	14831.39
549.052	14807.66
549.416	14864.16
549.779	14929.47
550.143	14928.34
550.507	15086.07
550.871	15177.37
551.235	15103.47
551.599	15261.66
551.962	15288.33
552.326	15341.88
552.689	15484.25
553.053	15350.7
553.417	15499.62
553.78	15573.07
554.143	15606.74
554.507	15702.1
554.87	15755.66
555.234	15877.01
555.597	15872.04
555.96	15961.08
556.323	16049.66
556.686	16036.1
557.05	16187.29
557.413	16306.38
557.776	16232.48
558.139	16298.92
558.502	16411.46
558.865	16469.54
559.228	16569.88
559.59	16670.66
559.953	16746.59
560.316	16764.67
560.679	16864.56
561.041	17007.15
561.404	17093.03
561.767	17221.16
562.129	17167.37
562.492	17349.29
562.854	17297.77
563.217	17397.2
563.579	17410.76
563.941	17627.93
564.304	17729.84
564.666	17869.05
565.028	17790.18
565.39	17983.85
565.753	18016.62
566.115	18048.03
566.477	18207.8
566.839	18297.74
567.201	18376.38
567.563	18417.96
567.925	18551.07
568.287	18585.42
568.648	18597.17
569.01	18689.59
569.372	18875.8
569.734	18857.05
570.095	18984.27
570.457	19148.11
570.819	19176.36
571.18	19073.31
571.542	19289.13
571.903	19279.41
572.265	19386.75
572.626	19526.41
572.987	19491.61
573.349	19620.42
573.71	19643.69
574.071	19768.44
574.432	19841.65
574.794	19965.72
575.155	19955.55
575.516	19906.06
575.877	20094.3
576.238	20217.24
576.599	20231.7
576.96	20289.1
577.32	20352.83
577.681	20482.77
578.042	20435.76
578.403	20451.35
578.763	20473.05
579.124	20647.73
579.485	20701.52
579.845	20781.97
580.206	20749.65
580.566	20813.61
580.927	20769.54
581.287	20935.64
581.648	20946.71
582.008	21108.06
582.368	20902.42
582.728	21035.29
583.089	21034.62
583.449	21103.09
583.809	21172.24
584.169	21225.8
584.529	21144.67
584.889	21320.26
585.249	21270.54
585.609	21218.79
585.969	21410.88
586.329	21260.6
586.688	21380.14
587.048	21385.34
587.408	21415.85
587.768	21381.05
588.127	21481.38
588.487	21418.34
588.846	21574.04
589.206	21396.87
589.565	21459.24
589.925	21707.14
590.284	21612.91
590.643	21672.79
591.003	21791.88
591.362	21717.08
591.721	21745.56
592.08	21718.89
592.44	21885.22
592.799	21832.56
593.158	21903.75
593.517	21972.9
593.876	21937.42
594.235	21883.41
594.593	21924.54
594.952	22059.9
595.311	21997.98
595.67	22028.04
596.029	22175.15
596.387	22123.63
596.746	22307.35
597.104	22125.66
597.463	22131.31
597.822	22242.04
598.18	22198.88
598.538	22204.98
598.897	22420.57
599.255	22222.61
599.613	22517.06
599.972	22490.62
600.33	22575.82
600.688	22408.37
601.046	22603.84
601.404	22631.41
601.762	22496.27
602.12	22636.83
602.478	22646.33
602.836	22716.83
603.194	22547.12
603.552	22686.1
603.91	22634.12
604.268	22565.42
604.625	22763.84
604.983	22779.43
605.341	22724.52
605.698	22936.71
606.056	23021.91
606.413	22799.99
606.771	22990.72
607.128	23104.84
607.485	22924.51
607.843	23026.88
608.2	23193.88
608.557	23158.18
608.914	23069.14
609.272	23240.66
609.629	23384.61
609.986	23303.48
610.343	23281.34
610.7	23444.04
611.057	23342.58
611.414	23339.64
611.771	23444.04
612.127	23405.85
612.484	23462.12
612.841	23574.89
613.198	23609.01
613.554	23555
613.911	23686.98
614.267	23626.64
614.624	23642.23
614.98	23674.77
615.337	23827.09
615.693	23694.89
616.05	23866.63
616.406	23852.62
616.762	23769.69
617.118	23783.7
617.475	23873.41
617.831	23937.82
618.187	23956.57
618.543	24037.7
618.899	24209
619.255	24063.24
619.611	24059.17
619.967	24190.24
620.323	24129.22
620.678	24107.76
621.034	23958.16
621.39	24074.31
621.746	23927.2
622.101	24251.71
622.457	24034.76
622.812	24077.25
623.168	24202.22
623.523	24199.96
623.879	24237.02
624.234	24075.67
624.589	24271.37
624.945	24157.02
625.3	24240.41
625.655	24271.14
626.01	24253.29
626.365	24235.21
626.72	24199.73
627.075	24193.86
627.43	24239.28
627.785	24201.31
628.14	24150.92
628.495	24167.42
628.85	24199.5
629.205	24119.96
629.559	24301.2
629.914	24130.35
630.269	24137.59
630.623	24032.5
630.978	24124.03
631.332	24106.85
631.687	24190.92
632.041	24114.76
632.396	24139.62
632.75	23966.06
633.104	23974.88
633.459	23927.42
633.813	23910.47
634.167	23934.65
634.521	23920.87
634.875	23933.75
635.229	23949.79
635.583	23788.67
635.937	23787.09
636.291	23826.86
636.645	23759.52
636.999	23740.76
637.352	23842.23
637.706	23701.66
638.06	23787.09
638.413	23644.94
638.767	23665.96
639.121	23675
639.474	23441.11
639.828	23596.13
640.181	23530.14
640.534	23556.81
640.888	23439.75
641.241	23389.58
641.594	23510.94
641.947	23539.41
642.301	23416.25
642.654	23502.12
643.007	23458.73
643.36	23471.39
643.713	23369.24
644.066	23356.36
644.419	23349.36
644.771	23164.05
645.124	23005.64
645.477	22954.11
645.83	22750.5
646.182	22659.66
646.535	22601.58
646.888	22598.42
647.24	22409.04
647.593	22619.43
647.945	22435.03
648.298	22372.89
648.65	22432.55
649.002	22329.05
649.355	22458.53
649.707	22357.75
650.059	22496.27
650.411	22755.93
650.763	22798.41
651.115	23002.93
651.467	23020.1
651.819	22967.45
652.171	22947.33
652.523	22797.73
652.875	22769.26
653.227	22692.2
653.578	22921.12
653.93	22804.29
654.282	22654.01
654.633	22686.32
654.985	22669.6
655.337	22794.8
655.688	22689.94
656.039	22740.79
656.391	22529.94
656.742	22726.1
657.094	22591.41
657.445	22682.26
657.796	22709.15
658.147	22615.59
658.498	22714.12
658.849	22708.24
659.2	22678.19
659.551	22568.59
659.902	22737.62
660.253	22668.47
660.604	22740.56
660.955	22558.42
661.306	22616.5
661.656	22526.33
662.007	22491.53
662.358	22567.46
662.708	22596.16
663.059	22540.79
663.409	22540.57
663.76	22677.74
664.11	22579.43
664.461	22568.14
664.811	22690.84
665.161	22498.98
665.511	22548.93
665.862	22596.38
666.212	22568.81
666.562	22572.66
666.912	22502.83
667.262	22555.03
667.612	22506.67
667.962	22547.57
668.312	22519.55
668.662	22538.98
669.011	22488.59
669.361	22544.63
669.711	22592.54
670.06	22517.74
670.41	22464.41
670.76	22352.1
671.109	22459.44
671.459	22387.58
671.808	22383.96
672.157	22424.86
672.507	22239.1
672.856	22263.96
673.205	22255.6
673.554	22447.01
673.904	22260.57
674.253	22496.95
674.602	22279.33
674.951	21937.42
675.3	21892.45
675.649	22319.1
675.998	22252.89
676.346	22256.51
676.695	22348.25
677.044	22105.1
677.393	22252.44
677.741	22253.79
678.09	22100.58
678.438	22161.37
678.787	22127.02
679.135	22224.19
679.484	22016.96
679.832	22202.72
680.181	22063.52
680.529	22119.11
680.877	22155.26
681.225	21978.32
681.573	22116.85
681.922	22057.41
682.27	21945.78
682.618	21924.54
682.966	21863.75
683.314	21889.28
683.661	21843.63
684.009	21890.87
684.357	21648.16
684.705	21682.28
685.053	21764.99
685.4	21680.48
685.748	21491.55
686.095	21552.34
686.443	21453.81
686.79	21422.18
687.138	21458.33
687.485	21442.06
687.832	21303.31
688.18	21341.5
688.527	21256.08
688.874	21304.21
689.221	21330.65
689.568	21157.33
689.915	21058.57
690.262	21176.31
690.609	21114.84
690.956	21038.23
691.303	21051.79
691.65	20899.48
691.997	20931.34
692.344	20715.53
692.69	20695.87
693.037	20686.38
693.383	20589.88
693.73	20667.39
694.077	20570.22
694.423	20560.28
694.769	20471.47
695.116	20392.83
695.462	20485.93
695.808	20310.34
696.155	20336.56
696.501	20247.29
696.847	20221.53
697.193	20055.43
697.539	20126.39
697.885	20024.7
698.231	19864.48
698.577	20046.62
698.923	19956
699.269	19868.77
699.614	19815.89
699.96	19727.53
700.306	19745.38
700.651	19652.51
700.997	19584.26
701.342	19497.03
701.688	19474.43
702.033	19455.67
702.379	19386.98
702.724	19372.51
703.069	19372.06
703.415	19283.02
703.76	19176.36
704.105	19250.71
704.45	19180.43
704.795	19036.93
705.14	19029.92
705.485	18930.94
705.83	18910.6
706.175	18830.61
706.52	18844.84
706.865	18719.42
707.209	18718.07
707.554	18619.54
707.899	18697.95
708.243	18583.38
708.588	18697.5
708.932	18431.07
709.277	18447.11
709.621	18500.22
709.966	18331.64
710.31	18380
710.654	18207.12
710.998	18329.15
711.342	18266.33
711.687	18226.33
712.031	18209.38
712.375	18184.3
712.719	18153.56
713.063	18142.04
713.407	18153.11
713.75	18116.28
714.094	18140.46
714.438	17941.82
714.782	18091.87
715.125	17901.37
715.469	17815.04
715.812	17808.94
716.156	17739.11
716.499	17671.77
716.843	17836.28
717.186	17753.57
717.53	17923.74
717.873	17803.74
718.216	17671.32
718.559	17705.21
718.902	17562.39
719.246	17555.16
719.589	17571.2
719.932	17476.07
720.275	17452.79
720.617	17424.77
720.96	17358.33
721.303	17482.39
721.646	17392
721.989	17312
722.331	17424.32
722.674	17284.66
723.016	17321.04
723.359	17339.35
723.701	17318.56
724.044	17255.73
724.386	17129.86
724.729	17216.86
725.071	17179.12
725.413	17167.15
725.755	17089.86
726.097	17154.27
726.439	17041.05
726.782	16989.98
727.124	17053.93
727.465	16967.83
727.807	16930.09
728.149	17001.28
728.491	16972.12
728.833	16915.18
729.175	16918.34
729.516	16899.36
729.858	16875.86
730.199	16955.85
730.541	16786.59
730.882	16848.51
731.224	16907.72
731.565	16757.89
731.906	16774.62
732.248	16804.67
732.589	16754.73
732.93	16560.84
733.271	16680.38
733.612	16699.36
733.953	16601.29
734.294	16598.57
734.635	16610.78
734.976	16663.66
735.317	16596.99
735.658	16572.59
735.999	16631.79
736.339	16404.68
736.68	16542.76
737.021	16509.54
737.361	16344.57
737.702	16523.1
738.042	16462.31
738.383	16354.74
738.723	16463.21
739.063	16425.25
739.404	16374.63
739.744	16303.44
740.084	16455.3
740.424	16282.65
740.764	16318.81
741.104	16337.56
741.444	16197
741.784	16167.85
742.124	16213.5
742.464	16175.54
742.804	16146.38
743.143	16152.26
743.483	16223.22
743.823	16085.82
744.162	16103.67
744.502	16060.06
744.841	16082.43
745.181	16173.95
745.52	16044.24
745.86	16159.04
746.199	16093.96
746.538	16036.33
746.877	16025.03
747.216	16052.83
747.556	15963.79
747.895	15984.58
748.234	15874.53
748.573	15875.66
748.911	15901.42
749.25	15956.33
749.589	15826.84
749.928	15854.41
750.267	15856.22
750.605	15726.96
750.944	15811.93
751.283	15700.07
751.621	15777.13
751.96	15606.96
752.298	15652.84
752.636	15595.44
752.975	15685.6
753.313	15528.09
753.651	15646.74
753.989	15571.03
754.327	15547.08
754.666	15402.67
755.004	15507.3
755.342	15492.84
755.679	15489.68
756.017	15460.98
756.355	15410.36
756.693	15330.36
757.031	15339.85
757.368	15254.43
757.706	15245.62
758.044	15164.94
758.381	15170.36
758.719	15067.54
759.056	15124.26
759.394	15025.96
759.731	15030.03
760.068	15010.82
760.405	14943.03
760.743	14879.3
761.08	14875.46
761.417	14809.92
761.754	14780.77
762.091	14738.74
762.428	14642.47
762.765	14643.37
763.102	14640.89
763.438	14591.62
763.775	14568.57
764.112	14444.28
764.449	14559.76
764.785	14454.9
765.122	14359.76
765.458	14366.32
765.795	14225.3
766.131	14270.95
766.467	14131.75
766.804	14120.22
767.14	14155.25
767.476	14024.63
767.812	13994.58
768.148	13961.58
768.485	13871.19
768.821	13749.61
769.157	13748.03
769.492	13748.25
769.828	13738.31
770.164	13611.53
770.5	13604.08
770.836	13653.34
771.171	13497.41
771.507	13502.16
771.842	13354.14
772.178	13416.06
772.513	13369.73
772.849	13371.99
773.184	13291.54
773.519	13201.38
773.855	13085.9
774.19	13083.87
774.525	13109.4
774.86	13029.4
775.195	13023.08
775.53	12930.2
775.865	12886.36
776.2	12789.41
776.535	12713.71
776.87	12712.58
777.205	12673.25
777.539	12694.04
777.874	12671.45
778.209	12525.46
778.543	12552.35
778.878	12391
779.212	12455.41
779.547	12329.31
779.881	12354.17
780.215	12217
780.55	12301.51
780.884	12265.36
781.218	12100.61
781.552	12065.59
781.886	12105.36
782.22	11994.85
782.554	11933.16
782.888	11853.61
783.222	11854.07
783.556	11856.55
783.889	11773.84
784.223	11608.65
784.557	11657.24
784.89	11611.81
785.224	11589.89
785.557	11537.92
785.891	11551.25
786.224	11426.06
786.558	11493.17
786.891	11332.5
787.224	11389.9
787.557	11258.83
787.891	11294.53
788.224	11220.86
788.557	11256.12
788.89	11197.59
789.223	11128.89
789.556	11042.56
789.888	11006.41
790.221	10981.55
790.554	10904.04
790.887	10983.58
791.219	10848.9
791.552	10840.08
791.884	10737.94
792.217	10725.06
792.549	10665.4
792.882	10654.78
793.214	10582.91
793.546	10645.06
793.879	10571.16
794.211	10507.89
794.543	10530.94
794.875	10487.32
795.207	10492.52
795.539	10372.75
795.871	10425.18
796.203	10307.44
796.535	10235.13
796.867	10281.23
797.198	10201.91
797.53	10218.18
797.862	10197.16
798.193	10104.51
798.525	10094.11
798.856	10127.56
799.188	10036.26
799.519	9938.86
799.85	9947.68
800.182	9912.65
800.513	9960.33
800.844	9856.61
801.175	9815.93
801.506	9852.09
801.837	9842.37
802.168	9732.54
802.499	9700.68
802.83	9730.51
803.161	9674.69
803.491	9705.87
803.822	9627.68
804.153	9590.62
804.483	9508.37
804.814	9483.06
805.145	9448.48
805.475	9459.1
805.805	9447.8
806.136	9388.82
806.466	9395.15
806.796	9341.59
807.126	9268.6
807.457	9307.69
807.787	9304.53
808.117	9246.23
808.447	9227.47
808.777	9210.52
809.107	9142.27
809.436	9131.43
809.766	9147.92
810.096	9166.23
810.426	9059.34
810.755	8973.69
811.085	9051.88
811.414	8960.36
811.744	8924.65
812.073	8889.85
812.403	8883.75
812.732	8873.58
813.061	8807.14
813.39	8780.93
813.719	8740.93
814.049	8805.33
814.378	8782.28
814.707	8706.13
815.036	8694.15
815.365	8659.12
815.693	8627.49
816.022	8634.04
816.351	8621.38
816.68	8598.56
817.008	8604.43
817.337	8482.63
817.665	8467.49
817.994	8505.45
818.322	8482.63
818.651	8458.22
818.979	8397.89
819.307	8427.72
819.636	8430.88
819.964	8398.56
820.292	8385.46
820.62	8389.75
820.948	8331.45
821.276	8358.79
821.604	8345.23
821.932	8333.93
822.259	8295.52
822.587	8307.04
822.915	8311.79
823.243	8409.41
823.57	8351.79
823.898	8322.18
824.225	8301.17
824.553	8287.83
824.88	8304.56
825.207	8339.36
825.535	8295.97
825.862	8288.96
826.189	8373.25
826.516	8356.31
826.843	8376.19
827.17	8331.9
827.497	8352.69
827.824	8299.13
828.151	8353.14
828.478	8290.09
828.805	8326.93
829.131	8230.66
829.458	8224.11
829.785	8202.64
830.111	8246.25
830.438	8330.77
830.764	8292.8
831.09	8229.98
831.417	8207.61
831.743	8269.98
832.069	8180.27
832.395	8244.22
832.722	8273.37
833.048	8246.48
833.374	8259.36
833.7	8207.61
834.026	8169.42
834.351	8176.88
834.677	8190.21
835.003	8217.1
835.329	8236.76
835.654	8181.4
835.98	8062.08
836.306	8170.77
836.631	8088.06
836.956	8175.75
837.282	8094.17
837.607	8023.89
837.932	8041.29
838.258	8017.11
838.583	8116.76
838.908	8023.21
839.233	8022.98
839.558	7968.29
839.883	8018.69
840.208	7961.29
840.533	8054.39
840.858	7955.86
841.182	7901.63
841.507	7897.56
841.832	7842.42
842.156	7852.36
842.481	7875.41
842.805	7790.44
843.13	7839.48
843.454	7761.29
843.778	7763.33
844.103	7701.41
844.427	7710.9
844.751	7794.74
845.075	7729.88
845.399	7643.56
845.723	7665.7
846.047	7656.89
846.371	7563.78
846.695	7554.07
847.019	7527.63
847.343	7466.84
847.666	7484.01
847.99	7383.45
848.313	7460.28
848.637	7363.56
848.96	7325.15
849.284	7361.3
849.607	7295.77
849.931	7291.7
850.254	7231.82
850.577	7214.19
850.9	7212.15
851.223	7161.31
851.546	7124.25
851.869	7079.05
852.192	7142.55
852.515	7063.91
852.838	7010.35
853.161	7071.37
853.483	6931.26
853.806	6923.35
854.129	6947.3
854.451	6875.67
854.774	6896.68
855.096	6900.3
855.419	6812.39
855.741	6822.33
856.063	6807.65
856.385	6747.53
856.708	6742.56
857.03	6732.17
857.352	6701.21
857.674	6701.66
857.996	6631.83
858.318	6687.42
858.64	6682
858.961	6623.02
859.283	6637.48
859.605	6616.69
859.926	6594.32
860.248	6589.12
860.57	6560.19
860.891	6618.95
861.212	6532.62
861.534	6528.33
861.855	6523.36
862.176	6525.17
862.498	6484.04
862.819	6453.98
863.14	6410.82
863.461	6428.22
863.782	6422.35
864.103	6433.87
864.424	6376.7
864.745	6342.35
865.065	6395.45
865.386	6357.26
865.707	6373.08
866.027	6341.44
866.348	6304.38
866.668	6340.09
866.989	6342.35
867.309	6273.87
867.63	6289.24
867.95	6303.48
868.27	6229.58
868.59	6298.96
868.91	6209.92
869.23	6284.04
869.55	6207.44
869.87	6250.6
870.19	6228.23
870.51	6215.35
870.83	6155.46
871.15	6131.05
871.469	6287.43
871.789	6155.01
872.109	6259.86
872.428	6163.14
872.748	6195.23
873.067	6137.61
873.386	6135.12
873.706	6126.99
874.025	6111.17
874.344	6109.13
874.663	6087.89
874.982	6072.3
875.301	6070.49
875.62	6039.98
875.939	6039.3
876.258	6062.13
876.577	5990.72
876.896	5989.14
877.214	5989.81
877.533	6012.86
877.852	5975.35
878.17	6026.65
878.489	6002.02
878.807	5958.4
879.125	5940.78
879.444	6007.21
879.762	5962.92
880.08	5906.2
880.398	5887.9
880.716	5921.34
881.034	5868.69
881.352	5894.9
881.67	5825.75
881.988	5850.83
882.306	5883.6
882.624	5815.58
882.941	5788.92
883.259	5838.86
883.577	5789.37
883.894	5796.15
884.212	5800.67
884.529	5760.44
884.846	5687.9
885.164	5774.23
885.481	5689.94
885.798	5748.01
886.115	5681.8
886.432	5635.02
886.75	5703.49
887.067	5634.57
887.383	5628.02
887.7	5673.21
888.017	5585.98
888.334	5651.74
888.651	5633.67
888.967	5599.77
889.284	5537.62
889.6	5549.6
889.917	5517.74
890.233	5550.28
890.55	5536.72
890.866	5530.84
891.182	5523.39
891.498	5486.1
891.815	5471.41
892.131	5442.94
892.447	5447.23
892.763	5382.6
893.079	5376.95
893.395	5353.9
893.71	5381.92
894.026	5367.46
894.342	5373.79
894.657	5325.65
894.973	5291.08
895.289	5315.03
895.604	5308.7
895.92	5295.6
896.235	5236.39
896.55	5219.44
896.865	5258.08
897.181	5178.31
897.496	5189.38
897.811	5172.43
898.126	5154.13
898.441	5147.58
898.756	5099.89
899.071	5135.83
899.386	5089.27
899.7	5080.91
900.015	5102.83
900.33	5066.45
900.644	5036.17
900.959	5007.02
901.273	5039.1
901.588	5018.54
901.902	4975.83
902.216	4968.15
902.531	4924.08
902.845	4905.32
903.159	4875.04
903.473	4856.74
903.787	4894.48
904.101	4856.28
904.415	4842.73
904.729	4832.33
905.042	4797.08
905.356	4821.03
905.67	4740.13
905.984	4813.35
906.297	4789.17
906.611	4737.64
906.924	4715.95
907.237	4721.15
907.551	4698.77
907.864	4646.8
908.177	4620.81
908.491	4675.72
908.804	4668.04
909.117	4630.08
909.43	4644.09
909.743	4602.05
910.056	4564.99
910.368	4555.05
910.681	4554.6
910.994	4511.89
911.307	4514.37
911.619	4502.4
911.932	4475.5
912.244	4473.24
912.557	4465.11
912.869	4405.45
913.181	4421.95
913.494	4370.87
913.806	4387.14
914.118	4332.46
914.43	4329.07
914.742	4324.55
915.054	4287.03
915.366	4315.51
915.678	4281.16
915.99	4245.23
916.302	4209.3
916.613	4186.7
916.925	4198.9
917.236	4191.22
917.548	4150.09
917.859	4176.98
918.171	4141.5
918.482	4096.53
918.794	4105.57
919.105	4132.01
919.416	4096.53
919.727	4080.03
920.038	4039.13
920.349	3971.79
920.66	4014.27
920.971	4056.98
921.282	3985.8
921.593	3993.48
921.903	3930.21
922.214	3940.83
922.525	3942.18
922.835	3911.68
923.146	3848.18
923.456	3869.87
923.767	3898.12
924.077	3841.85
924.387	3854.96
924.697	3763.88
925.008	3821.06
925.318	3815.41
925.628	3816.54
925.938	3802.53
926.248	3753.71
926.558	3737.67
926.867	3731.79
927.177	3696.77
927.487	3676.2
927.796	3623.32
928.106	3642.53
928.416	3679.59
928.725	3643.21
929.034	3602.53
929.344	3648.18
929.653	3604.57
929.962	3579.26
930.271	3608.18
930.581	3574.74
930.89	3545.81
931.199	3529.54
931.508	3539.03
931.817	3493.38
932.125	3491.8
932.434	3519.82
932.743	3431.46
933.051	3453.84
933.36	3436.21
933.669	3444.8
933.977	3416.55
934.286	3403.89
934.594	3389.88
934.902	3370.9
935.21	3386.94
935.519	3344.23
935.827	3390.11
936.135	3318.25
936.443	3300.17
936.751	3260.39
937.059	3308.75
937.367	3227.18
937.674	3255.2
937.982	3227.63
938.29	3211.81
938.597	3227.18
938.905	3202.09
939.213	3199.38
939.52	3192.83
939.827	3212.71
940.135	3165.26
940.442	3137.91
940.749	3149.21
941.056	3163.67
941.363	3135.2
941.67	3135.88
941.977	3110.34
942.284	3087.07
942.591	3085.94
942.898	3025.6
943.205	3054.3
943.511	3034.19
943.818	3023.79
944.125	3033.06
944.431	2993.28
944.738	2992.83
945.044	2992.15
945.35	2936.56
945.657	2967.52
945.963	2971.14
946.269	2944.24
946.575	2901.53
946.881	2947.18
947.187	2897.01
947.493	2898.37
947.799	2897.01
948.105	2873.74
948.41	2805.27
948.716	2835.32
949.022	2800.29
949.327	2841.87
949.633	2783.57
949.938	2798.94
950.244	2793.51
950.549	2802.78
950.854	2775.66
951.16	2765.04
951.465	2711.71
951.77	2740.63
952.075	2704.02
952.38	2705.15
952.685	2704.02
952.99	2699.28
953.294	2650.92
953.599	2661.31
953.904	2627.19
954.209	2633.74
954.513	2636.91
954.818	2624.48
955.122	2617.93
955.426	2602.33
955.731	2581.99
956.035	2567.76
956.339	2588.77
956.643	2561.43
956.948	2540.64
957.252	2572.05
957.556	2562.56
957.86	2578.6
958.163	2561.2
958.467	2486.18
958.771	2516.23
959.075	2501.09
959.378	2494.09
959.682	2490.25
959.985	2454.77
960.289	2452.28
960.592	2450.47
960.896	2426.29
961.199	2450.7
961.502	2428.55
961.805	2410.47
962.108	2398.95
962.411	2430.36
962.714	2381.55
963.017	2401.43
963.32	2367.31
963.623	2346.29
963.926	2336.8
964.228	2333.41
964.531	2304.26
964.833	2329.12
965.136	2303.81
965.438	2304.71
965.741	2298.84
966.043	2287.31
966.345	2315.79
966.648	2290.02
966.95	2251.61
967.252	2253.19
967.554	2222
967.856	2229.46
968.158	2224.49
968.46	2239.63
968.761	2183.81
969.063	2204.38
969.365	2192.17
969.666	2180.65
969.968	2164.38
970.269	2173.64
970.571	2137.03
970.872	2165.96
971.174	2164.15
971.475	2126.19
971.776	2120.99
972.077	2139.75
972.378	2099.07
972.679	2101.1
972.98	2078.5
973.281	2072.63
973.582	2106.3
973.883	2097.94
974.183	2021.56
974.484	2030.82
974.785	2039.18
975.085	2059.75
975.386	2026.3
975.686	2050.48
975.986	2023.59
976.287	2004.16
976.587	1992.63
976.887	1988.34
977.187	1964.61
977.487	1942.46
977.787	1937.27
978.087	1950.37
978.387	1937.49
978.687	1980.65
978.987	1941.79
979.286	1930.03
979.586	1952.41
979.885	1923.48
980.185	1911.28
980.484	1912.86
980.784	1897.49
981.083	1874.44
981.382	1895.23
981.682	1872.41
981.981	1857.27
982.28	1851.39
982.579	1849.58
982.878	1842.35
983.177	1832.86
983.475	1850.94
983.774	1798.29
984.073	1855.01
984.372	1793.09
984.67	1782.47
984.969	1789.92
985.267	1817.49
985.566	1749.7
985.864	1749.47
986.162	1760.32
986.461	1774.78
986.759	1749.93
987.057	1707.89
987.355	1723.71
987.653	1722.81
987.951	1708.57
988.249	1721.45
988.547	1704.5
988.844	1687.78
989.142	1700.66
989.44	1671.96
989.737	1648.01
990.035	1661.11
990.332	1674.45
990.63	1654.79
990.927	1670.61
991.224	1640.32
991.521	1643.94
991.819	1638.06
992.116	1627.44
992.413	1605.75
992.71	1607.1
993.006	1575.47
993.303	1615.01
993.6	1592.42
993.897	1577.95
994.193	1566.65
994.49	1594.45
994.787	1582.92
995.083	1570.04
995.379	1542.7
995.676	1530.95
995.972	1544.06
996.268	1518.75
996.565	1526.65
996.861	1501.34
997.157	1526.88
997.453	1499.76
997.749	1525.3
998.044	1479.88
998.34	1485.75
998.636	1491.4
998.932	1462.93
999.227	1447.56
999.523	1464.06
999.818	1448.01
1000.114	1443.04
1000.409	1445.75
1000.704	1450.5
1001	1416.83
1001.295	1398.52
1001.59	1409.6
1001.885	1398.75
1002.18	1410.73
1002.475	1383.38
1002.77	1385.87
1003.065	1361.69
1003.359	1389.71
1003.654	1350.61
1003.949	1393.32
1004.243	1345.64
1004.538	1345.64
1004.832	1350.61
1005.127	1318.07
1005.421	1317.39
1005.715	1316.49
1006.009	1314.23
1006.304	1310.39
1006.598	1319.88
1006.892	1286.66
1007.186	1299.32
1007.48	1258.41
1007.773	1240.56
1008.067	1250.05
1008.361	1240.33
1008.655	1259.77
1008.948	1267.9
1009.242	1233.33
1009.535	1225.65
1009.829	1250.73
1010.122	1213.67
1010.415	1218.64
1010.708	1203.05
1011.001	1208.25
1011.295	1201.24
1011.588	1221.8
1011.881	1199.43
1012.173	1180.9
1012.466	1165.53
1012.759	1155.59
1013.052	1153.33
1013.344	1164.4
1013.637	1163.73
1013.93	1131.41
1014.222	1139.09
1014.514	1121.92
1014.807	1137.74
1015.099	1133.44
1015.391	1148.36
1015.683	1109.49
1015.976	1100
1016.268	1109.72
1016.56	1109.04
1016.851	1099.55
1017.143	1088.25
1017.435	1062.26
1017.727	1072.88
1018.018	1038.53
1018.31	1090.96
1018.602	1039.21
1018.893	1050.28
1019.185	1051.86
1019.476	1030.62
1019.767	1028.14
1020.058	1014.35
1020.35	1018.19
1020.641	981.81
1020.932	1006.44
1021.223	1008.48
1021.514	982.49
1021.804	990.17
1022.095	985.2
1022.386	979.55
1022.677	979.32
1022.967	948.82
1023.258	984.52
1023.548	935.03
1023.839	970.29
1024.129	951.08
1024.419	944.75
1024.709	907.01
1025	914.24
1025.29	919.44
1025.58	911.98
1025.87	904.07
1026.16	918.54
1026.449	896.84
1026.739	891.64
1027.029	899.33
1027.319	903.39
1027.608	902.04
1027.898	877.18
1028.187	864.75
1028.477	901.13
1028.766	860.01
1029.055	867.01
1029.344	862.72
1029.634	847.12
1029.923	825.43
1030.212	835.15
1030.501	829.95
1030.79	849.61
1031.078	807.35
1031.367	826.56
1031.656	824.98
1031.945	829.95
1032.233	803.51
1032.522	827.24
1032.81	802.61
1033.099	789.95
1033.387	809.84
1033.675	794.92
1033.963	769.84
1034.251	791.08
1034.54	767.8
1034.828	791.08
1035.116	737.3
1035.403	741.36
1035.691	757.18
1035.979	753.79
1036.267	760.35
1036.554	754.02
1036.842	757.18
1037.129	742.49
1037.417	730.29
1037.704	713.57
1037.992	733.91
1038.279	750.4
1038.566	727.35
1038.853	727.35
1039.14	727.35
