Data from tablewood_brown_FLMS001491_050.txt Node
Date: Tue Feb 07 11:10:32 GMT 2017
User: dcchb
Spectrometer: FLMS00149
Trigger mode: 0
Integration Time (sec): 2.000000E-2
Scans to average: 10
Electric dark correction enabled: true
Nonlinearity correction enabled: false
Boxcar width: 0
XAxis mode: Wavelengths
Number of Pixels in Spectrum: 2048
>>>>>Begin Spectral Data<<<<<
341.393	-27.39
341.776	-27.39
342.16	-27.39
342.543	-61.06
342.927	-58.12
343.31	-80.04
343.693	-61.28
344.077	-75.29
344.46	-30.55
344.843	-43.88
345.226	-32.13
345.61	-48.18
345.993	-16.99
346.376	-10.89
346.759	3.12
347.142	21.2
347.525	45.61
347.908	62.55
348.291	76.11
348.674	84.93
349.057	105.72
349.44	121.76
349.823	138.71
350.206	140.97
350.588	206.73
350.971	217.13
351.354	221.19
351.737	252.61
352.119	253.74
352.502	273.4
352.884	271.81
353.267	274.07
353.65	307.97
354.032	310.91
354.414	303.9
354.797	326.28
355.179	299.38
355.562	331.93
355.944	330.34
356.326	329.67
356.709	332.83
357.091	344.36
357.473	332.38
357.855	336.22
358.238	343.45
358.62	333.96
359.002	352.49
359.384	357.69
359.766	341.87
360.148	344.13
360.53	342.55
360.912	346.84
361.294	329.21
361.676	333.06
362.057	349.55
362.439	340.51
362.821	341.19
363.203	337.35
363.584	343.68
363.966	320.85
364.348	331.25
364.729	322.66
365.111	316.79
365.493	331.25
365.874	331.25
366.256	315.66
366.637	314.98
367.019	337.8
367.4	323.11
367.781	333.73
368.163	326.95
368.544	331.47
368.925	312.04
369.306	341.19
369.688	318.14
370.069	328.99
370.45	315.43
370.831	321.31
371.212	313.17
371.593	314.53
371.974	318.59
372.355	305.94
372.736	333.28
373.117	345.49
373.498	342.1
373.879	348.42
374.26	323.11
374.641	325.6
375.021	312.27
375.402	335.54
375.783	336.45
376.163	337.35
376.544	347.97
376.925	350
377.305	344.36
377.686	324.69
378.066	363.56
378.447	359.5
378.827	380.96
379.208	382.77
379.588	347.07
379.968	365.6
380.349	359.72
380.729	365.6
381.109	364.02
381.489	370.34
381.87	348.88
382.25	364.02
382.63	354.52
383.01	365.82
383.39	370.57
383.77	360.85
384.15	365.15
384.53	377.57
384.91	378.03
385.29	376.9
385.67	378.03
386.049	392.49
386.429	393.62
386.809	386.16
387.189	407.4
387.568	398.82
387.948	391.13
388.328	390
388.707	407.18
389.087	396.33
389.466	410.12
389.846	420.06
390.225	424.35
390.605	402.66
390.984	398.59
391.363	424.13
391.743	393.39
392.122	422.55
392.501	436.78
392.881	448.08
393.26	431.13
393.639	452.83
394.018	432.94
394.397	452.38
394.776	449.21
395.155	448.76
395.534	472.26
395.913	434.07
396.292	461.41
396.671	475.2
397.05	459.38
397.429	463.45
397.808	458.93
398.186	488.31
398.565	455.99
398.944	479.72
399.323	484.69
399.701	496.44
400.08	472.94
400.458	518.81
400.837	477.69
401.215	483.56
401.594	492.15
401.972	509.55
402.351	495.09
402.729	495.76
403.107	521.98
403.486	509.32
403.864	500.28
404.242	511.81
404.62	509.32
404.999	509.55
405.377	541.86
405.755	551.13
406.133	553.16
406.511	544.58
406.889	530.34
407.267	549.55
407.645	569.43
408.023	559.72
408.401	575.31
408.779	579.15
409.156	574.63
409.534	576.44
409.912	596.55
410.29	582.77
410.667	621.18
411.045	591.13
411.422	591.35
411.8	583.67
412.178	619.6
412.555	624.35
412.933	605.59
413.31	614.86
413.687	631.13
414.065	635.2
414.442	621.18
414.819	656.21
415.197	657.57
415.574	670.22
415.951	644.91
416.328	676.1
416.705	688.3
417.082	683.1
417.46	695.98
417.837	702.54
418.214	700.73
418.591	669.32
418.967	706.83
419.344	716.32
419.721	725.36
420.098	726.27
420.475	741.63
420.852	723.55
421.228	740.05
421.605	721.97
421.982	739.37
422.358	739.15
422.735	778.24
423.111	772.14
423.488	765.81
423.864	764.01
424.241	776.89
424.617	758.81
424.994	798.58
425.37	774.85
425.746	812.59
426.123	807.39
426.499	797.22
426.875	808.98
427.251	829.99
427.627	834.51
428.003	846.49
428.379	840.16
428.756	856.88
429.132	839.26
429.507	866.6
429.883	894.62
430.259	894.4
430.635	889.43
431.011	905.47
431.387	936.2
431.763	950.89
432.138	955.19
432.514	950.22
432.89	958.35
433.265	963.32
433.641	975.98
434.016	995.19
434.392	1014.39
434.767	1030.21
435.143	985.69
435.518	987.05
435.894	1044.68
436.269	1033.6
436.644	1067.73
437.02	1074.05
437.395	1080.16
437.77	1060.04
438.145	1079.93
438.52	1102.3
438.895	1102.53
439.271	1125.8
439.646	1137.33
440.021	1124.9
440.395	1133.49
440.77	1137.55
441.145	1138.68
441.52	1181.4
441.895	1171.9
442.27	1191.11
442.645	1157.44
443.019	1179.14
443.394	1207.16
443.769	1191.11
444.143	1205.8
444.518	1213.49
444.892	1203.77
445.267	1222.52
445.641	1255.52
446.016	1263.2
446.39	1256.87
446.764	1265.46
447.139	1278.57
447.513	1258.46
447.887	1284.22
448.262	1292.35
448.636	1309.75
449.01	1295.06
449.384	1342.52
449.758	1314.27
450.132	1308.85
450.506	1342.75
450.88	1357.21
451.254	1338.23
451.628	1406.25
452.002	1359.7
452.376	1422.29
452.75	1413.25
453.123	1415.97
453.497	1416.87
453.871	1435.85
454.244	1474.04
454.618	1471.56
454.992	1525.34
455.365	1487.83
455.739	1526.92
456.112	1521.95
456.486	1538.67
456.859	1555.4
457.232	1597.66
457.606	1587.26
457.979	1611.21
458.352	1640.82
458.725	1625.45
459.099	1647.37
459.472	1662.29
459.845	1701.38
460.218	1723.53
460.591	1740.93
460.964	1735.73
461.337	1780.93
461.71	1790.65
462.083	1829.51
462.456	1827.93
462.829	1849.4
463.201	1913.13
463.574	1889.4
463.947	1898.44
464.32	1942.73
464.692	1991.09
465.065	1991.32
465.438	2017.76
465.81	2020.92
466.183	2055.27
466.555	2135.72
466.928	2136.62
467.3	2133.69
467.672	2178.66
468.045	2219.11
468.417	2213.91
468.789	2253.91
469.161	2265.21
469.534	2329.39
469.906	2354.25
470.278	2396.5
470.65	2434.24
471.022	2490.74
471.394	2519.67
471.766	2549.5
472.138	2535.26
472.51	2622.94
472.882	2671.07
473.253	2744.97
473.625	2737.06
473.997	2803.5
474.369	2840.33
474.74	2908.81
475.112	2954.91
475.484	3043.27
475.855	3080.1
476.227	3104.28
476.598	3235.8
476.97	3227.22
477.341	3298.4
477.713	3354.22
478.084	3412.75
478.455	3509.24
478.827	3519.87
479.198	3571.39
479.569	3684.15
479.94	3739.52
480.311	3832.85
480.682	3918.27
481.053	4044.6
481.424	4093.86
481.795	4155.55
482.166	4216.34
482.537	4290.92
482.908	4371.37
483.279	4411.59
483.65	4491.14
484.021	4621.76
484.391	4690.68
484.762	4708.53
485.133	4746.73
485.503	4845.71
485.874	4941.75
486.244	5013.39
486.615	5055.42
486.985	5163.44
487.356	5272.14
487.726	5303.77
488.097	5400.04
488.467	5432.36
488.837	5581.73
489.207	5673.48
489.578	5745.57
489.948	5771.11
490.318	5890.88
490.688	5870.54
491.058	6001.83
491.428	6081.15
491.798	6197.76
492.168	6236.63
492.538	6306.01
492.908	6370.86
493.278	6458.77
493.648	6440.92
494.017	6575.15
494.387	6596.39
494.757	6661.93
495.126	6743.06
495.496	6792.77
495.866	6901.25
496.235	6956.38
496.605	7001.13
496.974	7016.72
497.344	7110.73
497.713	7171.29
498.082	7215.14
498.452	7260.33
498.821	7288.13
499.19	7331.06
499.559	7444.73
499.928	7538.74
500.298	7540.32
500.667	7697.16
501.036	7654.9
501.405	7782.58
501.774	7764.05
502.143	7850.15
502.512	7890.15
502.88	7936.92
503.249	8013.08
503.618	8008.56
503.987	8061.89
504.356	8158.39
504.724	8231.15
505.093	8230.93
505.462	8257.59
505.83	8358.38
506.199	8429.57
506.567	8522.67
506.936	8500.75
507.304	8632.72
507.672	8680.86
508.041	8783.68
508.409	8766.28
508.777	8906.16
509.145	8955.2
509.514	8975.09
509.882	9079.04
510.25	9056.44
510.618	9211.92
510.986	9274.52
511.354	9318.36
511.722	9451.46
512.09	9577.33
512.458	9484.68
512.826	9606.26
513.193	9643.09
513.561	9721.51
513.929	9854.84
514.297	9891
514.664	9975.97
515.032	10046.7
515.4	10153.59
515.767	10202.18
516.135	10302.06
516.502	10300.48
516.869	10416.63
517.237	10483.98
517.604	10502.73
517.972	10640.81
518.339	10760.35
518.706	10777.53
519.073	10859.56
519.44	10990.18
519.808	11070.4
520.175	11116.05
520.542	11278.31
520.909	11335.03
521.276	11350.85
521.643	11460
522.009	11513.33
522.376	11602.59
522.743	11746.09
523.11	11858.85
523.477	11983.82
523.843	12042.8
524.21	12245.96
524.577	12292.06
524.943	12328.9
525.31	12504.26
525.676	12624.03
526.043	12618.83
526.409	12753.29
526.776	12873.29
527.142	12943.8
527.508	12901.99
527.874	13078.03
528.241	13162.78
528.607	13261.76
528.973	13376.56
529.339	13447.97
529.705	13506.95
530.071	13662.2
530.437	13779.48
530.803	13846.83
531.169	13941.06
531.535	13963.21
531.901	13993.04
532.267	13998.01
532.632	14182.18
532.998	14230.09
533.364	14296.76
533.73	14347.83
534.095	14487.03
534.461	14574.04
534.826	14530.87
535.192	14634.6
535.557	14827.14
535.923	14866.01
536.288	14858.1
536.653	14993.01
537.019	14947.14
537.384	14981.26
537.749	15128.37
538.114	15120.92
538.479	15183.06
538.845	15283.62
539.21	15426.44
539.575	15346.22
539.94	15415.82
540.305	15504.18
540.67	15516.61
541.034	15640.9
541.399	15751.41
541.764	15720.9
542.129	15754.8
542.494	15900.33
542.858	15864.85
543.223	15964.51
543.587	16077.73
543.952	16017.39
544.316	16121.34
544.681	16082.7
545.045	16248.34
545.41	16281.34
545.774	16404.72
546.138	16322.01
546.503	16466.64
546.867	16516.81
547.231	16688.78
547.595	16585.28
547.959	16704.83
548.324	16714.55
548.688	16976.23
549.052	16946.86
549.416	16969
549.779	17048.55
550.143	17108.66
550.507	17214.19
550.871	17335.32
551.235	17318.82
551.599	17474.53
551.962	17550
552.326	17675.88
552.689	17786.61
553.053	17700.28
553.417	17852.14
553.78	18123.55
554.143	18008.52
554.507	18135.98
554.87	18323.54
555.234	18487.38
555.597	18446.25
555.96	18568.96
556.323	18773.25
556.686	18808.95
557.05	18964.2
557.413	18974.83
557.776	19076.52
558.139	19243.75
558.502	19385.44
558.865	19383.63
559.228	19587.69
559.59	19751.75
559.953	19838.98
560.316	20028.36
560.679	20146.55
561.041	20265.87
561.404	20390.38
561.767	20519.87
562.129	20601.45
562.492	20796.7
562.854	20953.76
563.217	20949.24
563.579	21194.2
563.941	21388.77
564.304	21521.43
564.666	21663.79
565.028	21788.54
565.39	22000.28
565.753	22218.13
566.115	22275.3
566.477	22424
566.839	22498.12
567.201	22808.4
567.563	22888.17
567.925	23118.22
568.287	23176.75
568.648	23413.35
569.01	23552.56
569.372	23632.33
569.734	23754.36
570.095	23981.02
570.457	24121.81
570.819	24324.29
571.18	24429.82
571.542	24705.97
571.903	24623.72
572.265	24844.05
572.626	24957.49
572.987	25189.58
573.349	25319.74
573.71	25418.27
574.071	25661.66
574.432	25682.22
574.794	26041.53
575.155	26083.11
575.516	26088.31
575.877	26281.75
576.238	26625.7
576.599	26651.46
576.96	26775.3
577.32	26919.93
577.681	27033.15
578.042	27163.99
578.403	27107.95
578.763	27201.95
579.124	27457.77
579.485	27607.59
579.845	27716.07
580.206	27747.7
580.566	27889.17
580.927	27897.98
581.287	28167.13
581.648	28112.89
582.008	28342.94
582.368	28336.39
582.728	28451.64
583.089	28463.62
583.449	28677.85
583.809	28722.59
584.169	28838.3
584.529	28805.08
584.889	29088.46
585.249	28914.9
585.609	28854.57
585.969	29046.43
586.329	28993.55
586.688	29279.41
587.048	29187.44
587.408	29202.13
587.768	29288.91
588.127	29180.89
588.487	29251.17
588.846	29441.67
589.206	29445.96
589.565	29484.38
589.925	29530.25
590.284	29528.45
590.643	29480.99
591.003	29685.96
591.362	29763.02
591.721	29763.47
592.08	29660.19
592.44	29832.17
592.799	29827.65
593.158	29727.76
593.517	29814.54
593.876	29783.58
594.235	29662
594.593	29894.31
594.952	29940.41
595.311	29883.24
595.67	29878.49
596.029	30051.82
596.387	30151.26
596.746	30233.74
597.104	30180.18
597.463	30141.54
597.822	30203.91
598.18	30261.53
598.538	30248.43
598.897	30230.35
599.255	30124.82
599.613	30537.46
599.972	30446.61
600.33	30395.09
600.688	30392.83
601.046	30424.24
601.404	30548.76
601.762	30550.79
602.12	30628.53
602.478	30575.2
602.836	30663.56
603.194	30503.79
603.552	30719.15
603.91	30492.49
604.268	30677.12
604.625	30518.48
604.983	30699.72
605.341	30557.12
605.698	30724.12
606.056	30830.33
606.413	30883.44
606.771	30933.61
607.128	30965.25
607.485	30649.77
607.843	30848.64
608.2	31079.37
608.557	31160.72
608.914	30941.74
609.272	31157.56
609.629	31145.58
609.986	31171.57
610.343	31120.72
610.7	31377.89
611.057	31283.65
611.414	31254.5
611.771	31410.88
612.127	31576.3
612.484	31482.07
612.841	31575.4
613.198	31518.9
613.554	31489.3
613.911	31661.05
614.267	31658.33
614.624	31614.27
614.98	31641.39
615.337	31808.39
615.693	31726.58
616.05	31689.75
616.406	31817.2
616.762	31852.23
617.118	31826.92
617.475	31891.32
617.831	31888.16
618.187	31927.48
618.543	31915.95
618.899	32078.66
619.255	32001.83
619.611	32035.73
619.967	32180.13
620.323	32069.4
620.678	32096.74
621.034	32070.98
621.39	32129.73
621.746	32016.97
622.101	32457.18
622.457	32012.45
622.812	32256.51
623.168	32061.04
623.523	32257.41
623.879	32406.79
624.234	32167.93
624.589	32293.35
624.945	32308.03
625.3	32334.47
625.655	32311.2
626.01	32346.45
626.365	32306.68
626.72	32291.76
627.075	32303.06
627.43	32294.7
627.785	32238.88
628.14	32411.53
628.495	32359.78
628.85	32303.97
629.205	32306.68
629.559	32390.74
629.914	32289.05
630.269	32154.82
630.623	32235.95
630.978	32091.09
631.332	32228.71
631.687	32172.45
632.041	31962.28
632.396	32108.72
632.75	31980.36
633.104	32011.09
633.459	31815.84
633.813	31874.37
634.167	31754.38
634.521	31826.92
634.875	31868.95
635.229	31899.46
635.583	31721.16
635.937	31769.97
636.291	31632.12
636.645	31697.66
636.999	31529.52
637.352	31766.13
637.706	31532.24
638.06	31651.1
638.413	31560.94
638.767	31463.09
639.121	31546.92
639.474	31310.55
639.828	31365.46
640.181	31486.36
640.534	31314.84
640.888	31319.81
641.241	31004.79
641.594	31219.25
641.947	31383.54
642.301	31071.91
642.654	31312.13
643.007	31267.38
643.36	31249.76
643.713	31081.63
644.066	31139.25
644.419	31088.41
644.771	30842.08
645.124	30552.6
645.477	30447.07
645.83	30289.33
646.182	30151.93
646.535	30131.59
646.888	30122.33
647.24	29981.99
647.593	30226.51
647.945	30284.36
648.298	30006.63
648.65	29923.24
649.002	29941.54
649.355	30150.35
649.707	29977.02
650.059	30174.31
650.411	30500.17
650.763	30350.35
651.115	30715.31
651.467	30645.03
651.819	30546.27
652.171	30575.88
652.523	30587.63
652.875	30592.6
653.227	30453.39
653.578	30648.19
653.93	30616.78
654.282	30536.56
654.633	30315.32
654.985	30388.76
655.337	30438.03
655.688	30563
656.039	30513.73
656.391	30309.67
656.742	30497.91
657.094	30460.17
657.445	30540.62
657.796	30325.49
658.147	30466.05
658.498	30456.11
658.849	30453.39
659.2	30364.58
659.551	30366.39
659.902	30490.68
660.253	30358.03
660.604	30450.91
660.955	30435.32
661.306	30458.82
661.656	30332.95
662.007	30437.58
662.358	30386.73
662.708	30432.83
663.059	30415.43
663.409	30247.3
663.76	30406.62
664.11	30301.08
664.461	30465.15
664.811	30382.66
665.161	30327.3
665.511	30251.59
665.862	30246.39
666.212	30444.35
666.562	30392.83
666.912	30263.79
667.262	30326.62
667.612	30365.03
667.962	30369.1
668.312	30281.2
668.662	30507.86
669.011	30386.96
669.361	30179.96
669.711	30280.29
670.06	30310.8
670.41	30109.9
670.76	30036.68
671.109	30149.45
671.459	30080.07
671.808	29994.65
672.157	30223.34
672.507	29878.04
672.856	30067.87
673.205	29905.84
673.554	30178.83
673.904	29859.96
674.253	30108.77
674.602	30045.95
674.951	29572.74
675.3	29497.71
675.649	29889.79
675.998	29855.22
676.346	29842.34
676.695	29961.43
677.044	29629.01
677.393	29857.48
677.741	29785.62
678.09	29772.28
678.438	29643.47
678.787	29648.9
679.135	29712.62
679.484	29546.75
679.832	29622.46
680.181	29494.32
680.529	29563.02
680.877	29419.07
681.225	29452.52
681.573	29513.31
681.922	29364.16
682.27	29271.5
682.618	29392.41
682.966	29206.42
683.314	29223.37
683.661	29182.92
684.009	28933.21
684.357	28891.63
684.705	28785.87
685.053	28877.16
685.4	28816.83
685.748	28667.23
686.095	28763.27
686.443	28589.71
686.79	28410.51
687.138	28395.14
687.485	28456.84
687.832	28334.58
688.18	28473.79
688.527	28354.92
688.874	28296.84
689.221	28179.56
689.568	28110.63
689.915	27962.39
690.262	27979.56
690.609	27921.03
690.956	27858.43
691.303	27688.95
691.65	27667.7
691.997	27612.34
692.344	27438.56
692.69	27321.27
693.037	27408.73
693.383	27180.49
693.73	27252.57
694.077	27032.69
694.423	27157.66
694.769	26972.58
695.116	26924
695.462	26803.32
695.808	26800.16
696.155	26729.42
696.501	26578.02
696.847	26530.33
697.193	26302.32
697.539	26439.94
697.885	26168.99
698.231	26187.07
698.577	26157.46
698.923	26173.73
699.269	25910.01
699.614	25830.46
699.96	25760.18
700.306	25804.25
700.651	25585.95
700.997	25473.19
701.342	25530.59
701.688	25437.48
702.033	25331.49
702.379	25320.65
702.724	25203.59
703.069	25137.38
703.415	24842.02
703.76	24914.78
704.105	24968.11
704.45	24850.83
704.795	24756.82
705.14	24638.18
705.485	24581.23
705.83	24434.12
706.175	24486.09
706.52	24385.98
706.865	24389.37
707.209	24348.92
707.554	24231.18
707.899	24260.11
708.243	24061.7
708.588	24103.28
708.932	23826.45
709.277	23887.01
709.621	23915.49
709.966	23816.51
710.31	23825.09
710.654	23657.87
710.998	23674.82
711.342	23615.61
711.687	23516.4
712.031	23379.91
712.375	23400.25
712.719	23417.2
713.063	23372.68
713.407	23388.72
713.75	23221.72
714.094	23253.58
714.438	23156.86
714.782	23148.5
715.125	22976.3
715.469	23076.86
715.812	23068.05
716.156	22967.94
716.499	22884.55
716.843	22962.74
717.186	22785.12
717.53	22842.29
717.873	22837.78
718.216	22693.15
718.559	22686.14
718.902	22661.28
719.246	22603.66
719.589	22549.2
719.932	22494.96
720.275	22416.77
720.617	22401.18
720.96	22520.72
721.303	22433.94
721.646	22427.16
721.989	22238.47
722.331	22242.99
722.674	22330.44
723.016	22346.04
723.359	22385.36
723.701	22381.52
724.044	22186.72
724.386	22126.38
724.729	22278.02
725.071	22198.92
725.413	22274.85
725.755	22261.75
726.097	22036.21
726.439	21989.66
726.782	22013.84
727.124	22150.34
727.465	22052.71
727.807	21996.44
728.149	21949.44
728.491	21927.52
728.833	21984.46
729.175	21864.47
729.516	21916.9
729.858	21832.38
730.199	21973.62
730.541	21824.92
730.882	21885.48
731.224	21912.15
731.565	21911.92
731.906	21740.85
732.248	21835.77
732.589	21745.83
732.93	21677.81
733.271	21778.82
733.612	21781.08
733.953	21753.06
734.294	21743.79
734.635	21695.88
734.976	21768.65
735.317	21745.15
735.658	21623.57
735.999	21685.72
736.339	21706.28
736.68	21817.24
737.021	21740.18
737.361	21550.35
737.702	21864.92
738.042	21614.53
738.383	21596.45
738.723	21757.13
739.063	21576.11
739.404	21733.62
739.744	21632.84
740.084	21582.89
740.424	21631.71
740.764	21532.95
741.104	21708.77
741.444	21582.89
741.784	21556.23
742.124	21661.99
742.464	21527.3
742.804	21533.85
743.143	21574.08
743.483	21543.57
743.823	21435.78
744.162	21499.28
744.502	21465.83
744.841	21442.56
745.181	21659.73
745.52	21442.56
745.86	21494.08
746.199	21447.76
746.538	21528.43
746.877	21534.53
747.216	21449.34
747.556	21503.12
747.895	21399.85
748.234	21363.46
748.573	21478.94
748.911	21381.99
749.25	21373.18
749.589	21331.6
749.928	21394.65
750.267	21508.77
750.605	21382.67
750.944	21339.06
751.283	21332.28
751.621	21395.33
751.96	21131.15
752.298	21234.65
752.636	21312.84
752.975	21237.59
753.313	21112.17
753.651	21158.27
753.989	21035.79
754.327	21088.89
754.666	21013.87
755.004	21077.37
755.342	21164.6
755.679	21094.54
756.017	20913.53
756.355	21028.33
756.693	20888.67
757.031	20981.1
757.368	20875.34
757.706	20868.11
758.044	20835.12
758.381	20688.23
758.719	20803.7
759.056	20713.09
759.394	20623.14
759.731	20606.87
760.068	20555.12
760.405	20386.09
760.743	20446.43
761.08	20395.81
761.417	20322.81
761.754	20303.38
762.091	20245.08
762.428	20193.32
762.765	20127.11
763.102	20095.47
763.438	20083.72
763.775	19930.51
764.112	20070.62
764.449	19945.87
764.785	19864.07
765.122	19684.19
765.458	19672.66
765.795	19733.68
766.131	19578.43
766.467	19562.83
766.804	19459.33
767.14	19445.1
767.476	19433.8
767.812	19243.52
768.148	19324.65
768.485	19224.99
768.821	19209.4
769.157	19050.98
769.492	19093.01
769.828	19065.9
770.164	18896.64
770.5	18921.95
770.836	18853.93
771.171	18722.63
771.507	18705.45
771.842	18503.88
772.178	18618.23
772.513	18526.02
772.849	18467.95
773.184	18441.73
773.519	18359.7
773.855	18239.03
774.19	18237.22
774.525	18155.86
774.86	18079.71
775.195	18078.35
775.53	17956.77
775.865	17839.94
776.2	17765.59
776.535	17630
776.87	17709.32
777.205	17637.69
777.539	17560.4
777.874	17643.56
778.209	17386.62
778.543	17449.89
778.878	17221.65
779.212	17218.71
779.547	17175.55
779.881	17219.84
780.215	17052.84
780.55	17102.56
780.884	16942.79
781.218	16961.09
781.552	16938.95
781.886	16778.73
782.22	16678.62
782.554	16665.51
782.888	16582.35
783.222	16515.91
783.556	16361.11
783.889	16387.32
784.223	16247.67
784.557	16296.48
784.89	16222.81
785.224	16197.27
785.557	16161.11
785.891	16136.71
786.224	15930.16
786.558	15986.2
786.891	15820.11
787.224	15820.11
787.557	15769.94
787.891	15775.59
788.224	15644.29
788.557	15693.1
788.89	15617.17
789.223	15614.46
789.556	15473
789.888	15435.94
790.221	15362.49
790.554	15176.06
790.887	15391.42
791.219	15269.39
791.552	15212.89
791.884	15136.28
792.217	15096.06
792.549	14998.21
792.882	14921.83
793.214	14770.42
793.546	14900.81
793.879	14786.91
794.211	14804.77
794.543	14796.18
794.875	14690.87
795.207	14722.96
795.539	14588.05
795.871	14602.96
796.203	14518.22
796.535	14428.96
796.867	14473.25
797.198	14374.72
797.53	14329.75
797.862	14232.35
798.193	14252.46
798.525	14207.95
798.856	14241.17
799.188	13997.56
799.519	14034.16
799.85	13865.36
800.182	13910.78
800.513	13919.82
800.844	13840.27
801.175	13922.98
801.506	13850.44
801.837	13676.21
802.168	13792.36
802.499	13629.88
802.83	13579.04
803.161	13612.48
803.491	13627.17
803.822	13470.79
804.153	13401.64
804.483	13420.85
804.814	13327.29
805.145	13320.74
805.475	13341.3
805.805	13316.44
806.136	13253.62
806.466	13206.84
806.796	13176.33
807.126	13051.59
807.457	13019.73
807.787	13114.64
808.117	12963.46
808.447	12880.52
808.777	13021.31
809.107	12898.6
809.436	12929.34
809.766	12863.35
810.096	12856.12
810.426	12682.56
810.755	12711.49
811.085	12716.23
811.414	12650.25
811.744	12613.19
812.073	12456.81
812.403	12499.06
812.732	12514.88
813.061	12539.74
813.39	12465.39
813.719	12334.32
814.049	12438.05
814.378	12401.89
814.707	12372.06
815.036	12340.2
815.365	12330.03
815.693	12121.67
816.022	12177.94
816.351	12154.89
816.68	12061.56
817.008	12099.3
817.337	11965.29
817.665	12017.72
817.994	12048.91
818.322	11979.53
818.651	12011.62
818.979	11902.7
819.307	11928.23
819.636	11843.94
819.964	11858.85
820.292	11896.37
820.62	11876.48
820.948	11777.5
821.276	11847.33
821.604	11761.23
821.932	11783.38
822.259	11894.11
822.587	11785.41
822.915	11803.04
823.243	11813.88
823.57	11778.86
823.898	11794.45
824.225	11713.55
824.553	11725.07
824.88	11756.94
825.207	11802.36
825.535	11757.61
825.862	11782.02
826.189	11746.32
826.516	11726.43
826.843	11873.09
827.17	11791.74
827.497	11823.6
827.824	11832.41
828.151	11784.51
828.478	11790.61
828.805	11812.08
829.131	11742.93
829.458	11692.53
829.785	11748.58
830.111	11677.16
830.438	11714.68
830.764	11693.44
831.09	11684.17
831.417	11736.15
831.743	11716.71
832.069	11663.83
832.395	11662.7
832.722	11673.77
833.048	11594.46
833.374	11655.7
833.7	11579.77
834.026	11606.66
834.351	11645.08
834.677	11590.61
835.003	11647.11
835.329	11599.65
835.654	11621.8
835.98	11484.4
836.306	11555.36
836.631	11500.67
836.956	11537.51
837.282	11482.82
837.607	11575.7
837.932	11515.59
838.258	11484.18
838.583	11534.8
838.908	11296.16
839.233	11453.22
839.558	11330.06
839.883	11260.68
840.208	11376.16
840.533	11349.94
840.858	11333.44
841.182	11305.42
841.507	11265.88
841.832	11225.88
842.156	11231.98
842.481	11147.01
842.805	11196.5
843.13	11104.3
843.454	11064.07
843.778	11127.35
844.103	11058.88
844.427	11071.08
844.751	11045.99
845.075	10958.09
845.399	11010.29
845.723	10899.33
846.047	10923.74
846.371	10817.53
846.695	10825.89
847.019	10769.17
847.343	10688.26
847.666	10696.63
847.99	10573.24
848.313	10577.98
848.637	10476.52
848.96	10531.21
849.284	10488.95
849.607	10355.84
849.931	10413.24
850.254	10317.2
850.577	10238.56
850.9	10239.24
851.223	10201.95
851.546	10130.54
851.869	10089.64
852.192	10113.14
852.515	10055.51
852.838	9970.09
853.161	10002.41
853.483	9952.01
853.806	9926.25
854.129	9912.92
854.451	9837.89
854.774	9754.73
855.096	9725.13
855.419	9714.5
855.741	9761.51
856.063	9667.05
856.385	9694.17
856.708	9620.5
857.03	9601.51
857.352	9567.62
857.674	9601.74
857.996	9540.95
858.318	9454.62
858.64	9471.35
858.961	9432.48
859.283	9359.03
859.605	9300.5
859.926	9380.28
860.248	9333.05
860.57	9290.56
860.891	9282.88
861.212	9202.43
861.534	9243.33
861.855	9223.44
862.176	9210.34
862.498	9233.16
862.819	9228.64
863.14	9160.17
863.461	9181.64
863.782	9121.07
864.103	9132.82
864.424	9111.13
864.745	9075.2
865.065	9063.67
865.386	9033.39
865.707	8995.2
866.027	9010.79
866.348	9030
866.668	9017.12
866.989	8920.63
867.309	8876.79
867.63	8905.94
867.95	8876.33
868.27	8851.25
868.59	8931.93
868.91	8874.98
869.23	8878.59
869.55	8796.79
869.87	8791.82
870.19	8826.39
870.51	8834.98
870.83	8816.45
871.15	8716.79
871.469	8788.88
871.789	8748.88
872.109	8734.64
872.428	8667.75
872.748	8710.24
873.067	8687.64
873.386	8671.14
873.706	8717.69
874.025	8574.42
874.344	8632.95
874.663	8646.51
874.982	8635.21
875.301	8641.76
875.62	8612.39
875.939	8558.38
876.258	8537.81
876.577	8531.71
876.896	8525.38
877.214	8536
877.533	8492.16
877.852	8446.97
878.17	8456.46
878.489	8492.39
878.807	8419.85
879.125	8427.53
879.444	8511.82
879.762	8416.23
880.08	8368.1
880.398	8363.35
880.716	8389.57
881.034	8335.33
881.352	8356.12
881.67	8318.16
881.988	8340.76
882.306	8346.63
882.624	8262.57
882.941	8189.57
883.259	8189.12
883.577	8246.75
883.894	8095.11
884.212	8169.23
884.529	8148.22
884.846	8087.2
885.164	8048.56
885.481	8043.36
885.798	8131.72
886.115	8055.79
886.432	8018.73
886.75	8023.25
887.067	7978.28
887.383	7938.51
887.7	7935.12
888.017	7934.89
888.334	8011.5
888.651	7862.8
888.967	7870.49
889.284	7869.58
889.6	7794.1
889.917	7797.04
890.233	7809.7
890.55	7755.69
890.866	7784.61
891.182	7719.08
891.498	7728.12
891.815	7672.3
892.131	7674.33
892.447	7609.25
892.763	7627.55
893.079	7544.62
893.395	7482.47
893.71	7583.94
894.026	7526.77
894.342	7524.96
894.657	7461.91
894.973	7426.66
895.289	7378.52
895.604	7464.62
895.92	7328.35
896.235	7318.64
896.55	7323.15
896.865	7261.46
897.181	7265.08
897.496	7265.76
897.811	7194.57
898.126	7214.91
898.441	7228.24
898.756	7184.63
899.071	7093.1
899.386	7075.93
899.7	7056.95
900.015	7083.16
900.33	6992.54
900.644	7000.68
900.959	7035.93
901.273	6972.88
901.588	6952.54
901.902	6891.75
902.216	6884.75
902.531	6866.22
902.845	6856.95
903.159	6788.25
903.473	6815.15
903.787	6783.96
904.101	6722.27
904.415	6728.82
904.729	6700.8
905.042	6715.71
905.356	6708.48
905.67	6609.5
905.984	6649.5
906.297	6561.59
906.611	6546
906.924	6569.28
907.237	6546
907.551	6502.61
907.864	6461.93
908.177	6430.75
908.491	6400.02
908.804	6362.28
909.117	6372.67
909.43	6314.82
909.743	6253.8
910.056	6299.23
910.368	6252
910.681	6192.56
910.994	6225.78
911.307	6212.68
911.619	6121.38
911.932	6160.93
912.244	6097.88
912.557	6158.44
912.869	6079.57
913.181	6031.89
913.494	6060.14
913.806	6022.62
914.118	6001.38
914.43	5889.07
914.742	5890.2
915.054	5882.74
915.366	5812.69
915.678	5846.81
915.99	5836.87
916.302	5803.87
916.613	5760.26
916.925	5708.06
917.236	5776.08
917.548	5714.84
917.859	5666.48
918.171	5680.26
918.482	5671.9
918.794	5610.43
919.105	5560.49
919.416	5547.38
919.727	5542.41
920.038	5554.16
920.349	5513.26
920.66	5468.74
920.971	5464.9
921.282	5481.62
921.593	5400.49
921.903	5372.7
922.214	5373.83
922.525	5352.13
922.835	5331.57
923.146	5321.63
923.456	5318.91
923.767	5284.34
924.077	5269.65
924.387	5209.09
924.697	5191.23
925.008	5179.93
925.318	5162.31
925.628	5175.41
925.938	5129.31
926.248	5035.53
926.558	5026.04
926.867	5065.59
927.177	4993.95
927.487	4963.44
927.796	4984.01
928.106	4970.22
928.416	4906.95
928.725	4917.79
929.034	4883.67
929.344	4897
929.653	4831.47
929.962	4842.54
930.271	4817.23
930.581	4745.82
930.89	4791.7
931.199	4760.06
931.508	4747.4
931.817	4652.26
932.125	4736.33
932.434	4706.27
932.743	4626.28
933.051	4633.73
933.36	4615.2
933.669	4575.2
933.977	4563
934.286	4564.58
934.594	4556.45
934.902	4498.6
935.21	4511.93
935.519	4467.41
935.827	4436.23
936.135	4473.06
936.443	4418.37
936.751	4415.21
937.059	4349.9
937.367	4353.06
937.674	4345.83
937.982	4330.92
938.29	4312.39
938.597	4339.05
938.905	4224.25
939.213	4272.39
939.52	4240.07
939.827	4245.72
940.135	4216.12
940.442	4182.45
940.749	4162.33
941.056	4168.89
941.363	4146.52
941.67	4117.59
941.977	4099.51
942.284	4103.35
942.591	4079.4
942.898	4057.7
943.205	4130.7
943.511	4034.88
943.818	3993.75
944.125	3963.92
944.431	3979.29
944.738	3974.99
945.044	3919.4
945.35	3935.67
945.657	3932.51
945.963	3896.58
946.269	3854.77
946.575	3855.45
946.881	3851.38
947.187	3831.95
947.493	3800.76
947.799	3816.58
948.105	3779.07
948.41	3777.49
948.716	3751.05
949.022	3731.61
949.327	3750.59
949.633	3680.99
949.938	3751.5
950.244	3728.45
950.549	3694.1
950.854	3609.35
951.16	3647.32
951.465	3582.46
951.77	3602.35
952.075	3549.47
952.38	3619.75
952.685	3561.22
952.99	3535.68
953.294	3532.29
953.599	3496.81
953.904	3448.23
954.209	3497.27
954.513	3476.02
954.818	3438.06
955.122	3474.89
955.426	3394.22
955.731	3411.85
956.035	3353.77
956.339	3343.6
956.643	3380.66
956.948	3362.13
957.252	3325.07
957.556	3325.75
957.86	3346.08
958.163	3305.63
958.467	3303.15
958.771	3273.77
959.075	3286.88
959.378	3255.92
959.682	3231.29
959.985	3217.27
960.289	3183.38
960.592	3192.42
960.896	3147.67
961.199	3144.28
961.502	3145.41
961.805	3147.22
962.108	3097.73
962.411	3074.23
962.714	3095.92
963.017	3065.19
963.32	3066.09
963.623	3025.19
963.926	3028.58
964.228	3020.67
964.531	2993.1
964.833	3002.36
965.136	2981.12
965.438	2963.95
965.741	2975.47
966.043	2957.85
966.345	2932.76
966.648	2902.93
966.95	2940.22
967.252	2879.43
967.554	2885.76
967.856	2887.79
968.158	2844.63
968.46	2887.11
968.761	2842.37
969.063	2801.47
969.365	2793.33
969.666	2805.76
969.968	2786.78
970.269	2767.12
970.571	2782.71
970.872	2756.27
971.174	2727.12
971.475	2729.38
971.776	2713.33
972.077	2717.4
972.378	2691.19
972.679	2692.99
972.98	2653
973.281	2658.64
973.582	2658.87
973.883	2681.47
974.183	2609.15
974.484	2603.28
974.785	2568.93
975.085	2593.34
975.386	2597.18
975.686	2585.43
975.986	2586.78
976.287	2549.5
976.587	2544.75
976.887	2532.77
977.187	2482.6
977.487	2539.33
977.787	2519.44
978.087	2487.58
978.387	2480.34
978.687	2482.38
978.987	2442.61
979.286	2445.09
979.586	2465.2
979.885	2422.49
980.185	2404.19
980.484	2380.01
980.784	2398.31
981.083	2399.89
981.382	2385.88
981.682	2376.84
981.981	2335.94
982.28	2346.34
982.579	2329.61
982.878	2300.69
983.177	2305.89
983.475	2324.19
983.774	2272.89
984.073	2262.95
984.372	2255.04
984.67	2256.62
984.969	2241.48
985.267	2237.64
985.566	2221.14
985.864	2228.15
986.162	2223.63
986.461	2207.58
986.759	2200.35
987.057	2156.51
987.355	2123.97
987.653	2157.42
987.951	2167.13
988.249	2134.82
988.547	2130.75
988.844	2134.36
989.142	2112.22
989.44	2128.72
989.737	2099.11
990.035	2114.7
990.332	2096.85
990.63	2081.71
990.927	2053.24
991.224	2065.89
991.521	2054.82
991.819	2015.05
992.116	2034.03
992.413	1992
992.71	2017.98
993.006	2022.96
993.303	1987.02
993.6	1998.32
993.897	1991.77
994.193	1982.28
994.49	1975.72
994.787	1945.22
995.083	1945.22
995.379	1927.36
995.676	1911.77
995.972	1880.81
996.268	1950.19
996.565	1889.4
996.861	1914.71
997.157	1827.03
997.453	1875.16
997.749	1843.3
998.044	1841.04
998.34	1888.04
998.636	1852.79
998.932	1825.45
999.227	1795.39
999.523	1823.86
999.818	1786.58
1000.114	1809.4
1000.409	1751.78
1000.704	1755.62
1001	1800.14
1001.295	1787.48
1001.59	1759.46
1001.885	1740.02
1002.18	1721.49
1002.475	1730.76
1002.77	1699.57
1003.065	1696.41
1003.359	1708.39
1003.654	1705.9
1003.949	1687.37
1004.243	1675.39
1004.538	1654.15
1004.832	1624.1
1005.127	1630.2
1005.421	1653.93
1005.715	1611.21
1006.009	1610.31
1006.304	1629.29
1006.598	1589.52
1006.892	1586.58
1007.186	1572.12
1007.48	1558.56
1007.773	1552.46
1008.067	1534.15
1008.361	1530.31
1008.655	1523.99
1008.948	1520.14
1009.242	1522.4
1009.535	1504.32
1009.829	1508.39
1010.122	1510.43
1010.415	1489.64
1010.708	1466.59
1011.001	1502.07
1011.295	1473.82
1011.588	1438.11
1011.881	1443.31
1012.173	1441.05
1012.466	1460.26
1012.759	1456.87
1013.052	1433.59
1013.344	1411.67
1013.637	1406.7
1013.93	1367.38
1014.222	1384.1
1014.514	1404.67
1014.807	1373.25
1015.099	1368.51
1015.391	1349.07
1015.683	1374.61
1015.976	1341.17
1016.268	1351.33
1016.56	1317.21
1016.851	1298.68
1017.143	1293.71
1017.435	1322.63
1017.727	1299.36
1018.018	1288.96
1018.31	1282.18
1018.602	1253.03
1018.893	1271.34
1019.185	1232.92
1019.476	1281.96
1019.767	1267.49
1020.058	1220.26
1020.35	1213.71
1020.641	1218.91
1020.932	1207.38
1021.223	1212.13
1021.514	1195.18
1021.804	1184.56
1022.095	1169.19
1022.386	1195.18
1022.677	1164.22
1022.967	1163.77
1023.258	1169.19
1023.548	1163.99
1023.839	1170.1
1024.129	1130.55
1024.419	1131.45
1024.709	1106.14
1025	1119.7
1025.29	1109.08
1025.58	1105.92
1025.87	1086.03
1026.16	1080.83
1026.449	1048.97
1026.739	1051.68
1027.029	1054.62
1027.319	1045.13
1027.608	1055.52
1027.898	1048.74
1028.187	1043.32
1028.477	1034.51
1028.766	1038.57
1029.055	1026.82
1029.344	1018.69
1029.634	1016.2
1029.923	980.04
1030.212	1013.72
1030.501	1024.34
1030.79	994.73
1031.078	996.32
1031.367	967.16
1031.656	963.32
1031.945	985.92
1032.233	956.09
1032.522	947.5
1032.81	946.37
1033.099	935.53
1033.387	917.9
1033.675	927.16
1033.963	905.92
1034.251	874.96
1034.54	919.71
1034.828	914.06
1035.116	900.95
1035.403	893.72
1035.691	878.58
1035.979	906.37
1036.267	890.56
1036.554	874.96
1036.842	861.4
1037.129	857.11
1037.417	852.14
1037.704	861.63
1037.992	849.43
1038.279	817.11
1038.566	828.64
1038.853	828.64
1039.14	828.64
