Data from tablewood_dark_bookshelf_FLMS001491_00088.txt Node
Date: Wed Feb 08 14:15:50 GMT 2017
User: dcchb
Spectrometer: FLMS00149
Trigger mode: 0
Integration Time (sec): 2.000000E-2
Scans to average: 10
Electric dark correction enabled: true
Nonlinearity correction enabled: false
Boxcar width: 0
XAxis mode: Wavelengths
Number of Pixels in Spectrum: 2048
>>>>>Begin Spectral Data<<<<<
341.393	4.27
341.776	4.27
342.16	4.27
342.543	-52
342.927	-55.62
343.31	-72.12
343.693	-70.99
344.077	-66.69
344.46	-50.2
344.843	-63.98
345.226	-42.74
345.61	-18.78
345.993	-30.76
346.376	3.36
346.759	18.28
347.142	25.73
347.525	47.2
347.908	29.35
348.291	74.55
348.674	103.7
349.057	114.09
349.44	134.66
349.823	128.56
350.206	160.65
350.588	197.03
350.971	195.9
351.354	237.48
351.737	235.22
352.119	256.69
352.502	243.36
352.884	266.86
353.267	266.86
353.65	270.7
354.032	304.37
354.414	281.77
354.797	291.49
355.179	319.96
355.562	338.04
355.944	326.74
356.326	332.39
356.709	334.88
357.091	352.05
357.473	338.27
357.855	333.97
358.238	348.89
358.62	334.43
359.002	357.02
359.384	360.19
359.766	317.25
360.148	316.57
360.53	347.76
360.912	328.1
361.294	345.73
361.676	342.79
362.057	349.12
362.439	325.84
362.821	339.4
363.203	315.44
363.584	324.26
363.966	325.16
364.348	319.51
364.729	318.83
365.111	317.25
365.493	324.48
365.874	309.12
366.256	350.25
366.637	320.87
367.019	318.38
367.4	342.56
367.781	342.56
368.163	329
368.544	302.11
368.925	317.48
369.306	335.78
369.688	336.91
370.069	342.56
370.45	311.15
370.831	319.96
371.212	327.87
371.593	323.81
371.974	340.53
372.355	339.62
372.736	337.14
373.117	331.26
373.498	326.97
373.879	327.65
374.26	345.5
374.641	349.79
375.021	350.25
375.402	336.91
375.783	335.78
376.163	356.12
376.544	337.36
376.925	345.05
377.305	354.09
377.686	362.45
378.066	358.38
378.447	340.98
378.827	361.77
379.208	352.73
379.588	340.53
379.968	340.75
380.349	352.28
380.729	363.8
381.109	359.06
381.489	360.87
381.87	366.06
382.25	373.75
382.63	366.74
383.01	356.35
383.39	375.1
383.77	376.01
384.15	375.1
384.53	379.62
384.91	346.18
385.29	389.79
385.67	378.49
386.049	387.98
386.429	369.45
386.809	411.26
387.189	403.8
387.568	413.75
387.948	387.76
388.328	399.74
388.707	412.16
389.087	416.01
389.466	401.09
389.846	394.99
390.225	410.81
390.605	419.17
390.984	423.01
391.363	425.05
391.743	424.37
392.122	429.11
392.501	402.45
392.881	427.98
393.26	427.08
393.639	430.92
394.018	431.82
394.397	443.58
394.776	444.25
395.155	444.93
395.534	440.64
395.913	438.38
396.292	460.07
396.671	448.77
397.05	454.42
397.429	479.28
397.808	454.65
398.186	460.07
398.565	455.78
398.944	463.24
399.323	479.06
399.701	474.76
400.08	472.95
400.458	485.61
400.837	478.15
401.215	494.42
401.594	477.93
401.972	499.85
402.351	503.69
402.729	484.7
403.107	503.69
403.486	494.87
403.864	489.68
404.242	515.66
404.62	504.59
404.999	522.9
405.377	529
405.755	524.48
406.133	517.02
406.511	534.42
406.889	521.09
407.267	551.82
407.645	545.49
408.023	533.74
408.401	564.25
408.779	552.95
409.156	566.51
409.534	569.22
409.912	568.54
410.29	574.87
410.667	609.45
411.045	594.31
411.422	599.96
411.8	617.58
412.178	607.87
412.555	614.87
412.933	599.5
413.31	609.9
413.687	612.16
414.065	625.04
414.442	638.15
414.819	658.03
415.197	640.63
415.574	659.84
415.951	660.07
416.328	654.42
416.705	672.27
417.082	674.53
417.46	708.43
417.837	690.12
418.214	694.42
418.591	720.18
418.967	700.52
419.344	715.43
419.721	698.48
420.098	704.59
420.475	699.16
420.852	723.57
421.228	735.77
421.605	750.46
421.982	745.26
422.358	775.77
422.735	773.96
423.111	771.7
423.488	783.45
423.864	774.64
424.241	779.84
424.617	792.95
424.994	806.96
425.37	793.17
425.746	806.96
426.123	836.33
426.499	818.48
426.875	813.96
427.251	854.19
427.627	855.32
428.003	872.72
428.379	867.75
428.756	889.44
429.132	911.81
429.507	891.7
429.883	896.45
430.259	917.91
430.635	919.5
431.011	922.89
431.387	943.9
431.763	950.46
432.138	941.64
432.514	961.3
432.89	983
433.265	971.02
433.641	996.78
434.016	1017.8
434.392	1048.98
434.767	1043.11
435.143	1051.92
435.518	1043.33
435.894	1046.05
436.269	1062.09
436.644	1101.41
437.02	1091.69
437.395	1092.15
437.77	1113.61
438.145	1116.1
438.52	1112.94
438.895	1146.83
439.271	1134.18
439.646	1172.6
440.021	1179.38
440.395	1172.14
440.77	1194.74
441.145	1182.31
441.52	1210.79
441.895	1203.78
442.27	1215.31
442.645	1222.76
443.019	1222.31
443.394	1246.72
443.769	1251.24
444.143	1234.06
444.518	1267.96
444.892	1267.06
445.267	1249.2
445.641	1272.93
446.016	1302.54
446.39	1310.22
446.764	1295.76
447.139	1295.08
447.513	1325.59
447.887	1321.97
448.262	1304.8
448.636	1349.09
449.01	1358.58
449.384	1383.66
449.758	1378.69
450.132	1425.02
450.506	1400.61
450.88	1393.16
451.254	1391.12
451.628	1419.82
452.002	1457.11
452.376	1469.76
452.75	1488.29
453.123	1459.82
453.497	1493.04
453.871	1524.45
454.244	1529.2
454.618	1556.99
454.992	1562.19
455.365	1603.32
455.739	1599.03
456.112	1611.68
456.486	1628.63
456.859	1635.18
457.232	1681.74
457.606	1677.89
457.979	1695.52
458.352	1710.21
458.725	1764.22
459.099	1762.64
459.472	1778.46
459.845	1778.23
460.218	1823.88
460.591	1840.38
460.964	1819.81
461.337	1884.22
461.71	1903.88
462.083	1918.57
462.456	1959.92
462.829	1957.21
463.201	1975.74
463.574	1974.16
463.947	2016.64
464.32	2041.27
464.692	2060.93
465.065	2121.5
465.438	2130.09
465.81	2136.41
466.183	2160.59
466.555	2170.76
466.928	2222.29
467.3	2202.17
467.672	2246.69
468.045	2299.12
468.417	2333.24
468.789	2344.32
469.161	2378.21
469.534	2406.01
469.906	2420.93
470.278	2434.94
470.65	2472.9
471.022	2513.8
471.394	2561.94
471.766	2598.55
472.138	2584.99
472.51	2665.21
472.882	2709.05
473.253	2739.33
473.625	2770.29
473.997	2817.52
474.369	2834.02
474.74	2888.94
475.112	2936.84
475.484	2972.55
475.855	3032.21
476.227	3085.09
476.598	3124.86
476.97	3120.34
477.341	3210.28
477.713	3275.82
478.084	3333.9
478.455	3348.81
478.827	3357.62
479.198	3492.54
479.569	3507.22
479.94	3552.42
480.311	3589.26
480.682	3678.75
481.053	3768.69
481.424	3823.37
481.795	3913.32
482.166	3918.06
482.537	3952.18
482.908	4041.67
483.279	4074.44
483.65	4161.9
484.021	4229.01
484.391	4266.98
484.762	4290.03
485.133	4342.46
485.503	4401.21
485.874	4494.77
486.244	4549.68
486.615	4614.31
486.985	4696.8
487.356	4743.8
487.726	4776.57
488.097	4860.41
488.467	4881.2
488.837	4977.69
489.207	5109.67
489.578	5143.79
489.948	5213.39
490.318	5231.25
490.688	5262.21
491.058	5289.32
491.428	5438.02
491.798	5442.99
492.168	5579.26
492.538	5548.3
492.908	5628.52
493.278	5679.82
493.648	5706.94
494.017	5768.86
494.387	5879.37
494.757	5896.99
495.126	5969.08
495.496	5989.19
495.866	6014.28
496.235	6094.27
496.605	6121.39
496.974	6153.48
497.344	6279.81
497.713	6258.34
498.082	6308.73
498.452	6467.15
498.821	6459.01
499.19	6487.48
499.559	6544.66
499.928	6580.14
500.298	6653.58
500.667	6711.21
501.036	6626.46
501.405	6763.41
501.774	6775.39
502.143	6886.8
502.512	6890.86
502.88	6927.47
503.249	6952.56
503.618	7057.87
503.987	7053.57
504.356	7105.32
504.724	7093.34
505.093	7115.26
505.462	7228.48
505.83	7338.99
506.199	7377.63
506.567	7401.59
506.936	7424.41
507.304	7503.28
507.672	7524.07
508.041	7567.68
508.409	7590.51
508.777	7714.35
509.145	7786.21
509.514	7774.23
509.882	7877.73
510.25	7886.77
510.618	7916.6
510.986	7981.46
511.354	8048.35
511.722	8113.88
512.09	8173.77
512.458	8207.67
512.826	8282.92
513.193	8325.85
513.561	8392.29
513.929	8444.27
514.297	8488.56
514.664	8607.2
515.032	8616.69
515.4	8686.3
515.767	8735.11
516.135	8790.25
516.502	8680.42
516.869	8919.96
517.237	8948.66
517.604	8973.07
517.972	9009.68
518.339	9105.04
518.706	9124.25
519.073	9177.81
519.44	9307.98
519.808	9407.41
520.175	9316.56
520.542	9503.22
520.909	9525.6
521.276	9552.94
521.643	9697.12
522.009	9749.77
522.376	9828.41
522.743	9896.43
523.11	9988.64
523.477	10065.92
523.843	10141.63
524.21	10273.15
524.577	10274.5
524.943	10306.14
525.31	10404.44
525.676	10536.87
526.043	10583.42
526.409	10644.21
526.776	10781.84
527.142	10812.34
527.508	10942.51
527.874	10954.03
528.241	10999.46
528.607	11051.88
528.973	11150.64
529.339	11216.4
529.705	11311.76
530.071	11384.08
530.437	11443.51
530.803	11473.57
531.169	11580.46
531.535	11608.03
531.901	11589.95
532.267	11726.9
532.632	11723.73
532.998	11789.94
533.364	11893.67
533.73	11960.56
534.095	12016.6
534.461	12086.66
534.826	12154.68
535.192	12171.18
535.557	12302.02
535.923	12275.81
536.288	12418.63
536.653	12479.19
537.019	12440.77
537.384	12498.63
537.749	12447.55
538.114	12615.46
538.479	12610.49
538.845	12735
539.21	12617.72
539.575	12799.64
539.94	12849.13
540.305	12887.77
540.67	12884.6
541.034	12861.33
541.399	12971.83
541.764	13065.39
542.129	13037.6
542.494	13040.53
542.858	13199.4
543.223	13164.82
543.587	13220.64
543.952	13308.55
544.316	13311.94
544.681	13313.97
545.045	13395.33
545.41	13521.42
545.774	13532.72
546.138	13579.05
546.503	13633.74
546.867	13672.38
547.231	13724.81
547.595	13768.88
547.959	13821.76
548.324	13837.57
548.688	13856.33
549.052	13896.56
549.416	13986.95
549.779	13969.32
550.143	14104.01
550.507	14154.18
550.871	14144.01
551.235	14138.13
551.599	14254.29
551.962	14302.19
552.326	14437.33
552.689	14496.54
553.053	14455.64
553.417	14487.95
553.78	14748.51
554.143	14606.37
554.507	14693.14
554.87	14829.41
555.234	14963.87
555.597	14858.79
555.96	14941.73
556.323	15033.47
556.686	14994.61
557.05	15180.82
557.413	15150.99
557.776	15252
558.139	15219.46
558.502	15407.48
558.865	15426.68
559.228	15602.05
559.59	15568.6
559.953	15628.94
560.316	15776.28
560.679	15783.96
561.041	15904.86
561.404	16053.79
561.767	16054.01
562.129	16047.69
562.492	16264.85
562.854	16146.44
563.217	16242.26
563.579	16327
563.941	16440.9
564.304	16593.89
564.666	16562.93
565.028	16775.58
565.39	16710.04
565.753	16849.47
566.115	16891.96
566.477	16948.9
566.839	17060.09
567.201	17226.41
567.563	17171.27
567.925	17409.46
568.287	17344.37
568.648	17412.17
569.01	17416.24
569.372	17708.43
569.734	17607.87
570.095	17660.07
570.457	17819.16
570.819	17818.03
571.18	17832.05
571.542	18007.41
571.903	18045.82
572.265	18128.76
572.626	18183
572.987	18217.57
573.349	18358.81
573.71	18328.08
574.071	18469.32
574.432	18487.85
574.794	18644.45
575.155	18669.76
575.516	18564.46
575.877	18681.51
576.238	18775.07
576.599	18910.21
576.96	18910.66
577.32	18891.45
577.681	19002.41
578.042	19056.87
578.403	19042.63
578.763	19144.78
579.124	19214.61
579.485	19281.95
579.845	19397.88
580.206	19298.67
580.566	19395.85
580.927	19392.46
581.287	19478.33
581.648	19448.5
582.008	19660.92
582.368	19566.24
582.728	19562.4
583.089	19543.64
583.449	19692.79
583.809	19750.41
584.169	19620.7
584.529	19690.3
584.889	19796.51
585.249	19746.12
585.609	19726.46
585.969	19896.17
586.329	19855.49
586.688	19914.02
587.048	19976.85
587.408	19954.93
587.768	20030.18
588.127	19863.4
588.487	19883.29
588.846	20173.9
589.206	20022.27
589.565	19983.85
589.925	20107.01
590.284	20105.88
590.643	20115.15
591.003	20155.15
591.362	20330.28
591.721	20165.77
592.08	20248.7
592.44	20296.16
592.799	20263.85
593.158	20221.13
593.517	20410.28
593.876	20398.76
594.235	20380
594.593	20476.72
594.952	20374.35
595.311	20419.77
595.67	20429.72
596.029	20622.25
596.387	20504.97
596.746	20662.48
597.104	20582.71
597.463	20607.57
597.822	20681.01
598.18	20500.22
598.538	20627.45
598.897	20816.37
599.255	20566.89
599.613	20928.24
599.972	20805.3
600.33	20791.06
600.688	20809.37
601.046	20921
601.404	20970.04
601.762	20980.44
602.12	21034.22
602.478	21057.5
602.836	20993.77
603.194	20980.66
603.552	20948.57
603.91	20985.86
604.268	21063.15
604.625	21009.59
604.983	21117.38
605.341	21099.53
605.698	21116.25
606.056	21276.02
606.413	21091.39
606.771	21322.12
607.128	21234.89
607.485	21229.02
607.843	21327.55
608.2	21425.4
608.557	21457.49
608.914	21471.5
609.272	21507.2
609.629	21549.91
609.986	21520.08
610.343	21477.6
610.7	21689.12
611.057	21618.61
611.414	21717.37
611.771	21652.06
612.127	21712.17
612.484	21698.38
612.841	21843.92
613.198	21843.69
613.554	21770.7
613.911	21847.53
614.267	21942.9
614.624	21924.59
614.98	21930.69
615.337	22100.41
615.693	21981.77
616.05	22015.44
616.406	22084.59
616.762	22034.87
617.118	22012.05
617.475	22179.5
617.831	22141.54
618.187	22150.58
618.543	22205.94
618.899	22284.58
619.255	22270.35
619.611	22304.47
619.967	22214.53
620.323	22264.25
620.678	22245.49
621.034	22140.86
621.39	22207.3
621.746	22141.76
622.101	22473.73
622.457	22289.33
622.812	22245.26
623.168	22415.88
623.523	22434.86
623.879	22508.53
624.234	22355.09
624.589	22439.38
624.945	22444.81
625.3	22526.84
625.655	22456.33
626.01	22454.3
626.365	22363.45
626.72	22370.23
627.075	22411.13
627.43	22355.99
627.785	22350.12
628.14	22404.58
628.495	22390.12
628.85	22361.87
629.205	22426.05
629.559	22352.6
629.914	22324.13
630.269	22255.43
630.623	22191.93
630.978	22221.31
631.332	22218.6
631.687	22287.52
632.041	22211.59
632.396	22323
632.75	22235.77
633.104	22283.23
633.459	22179.95
633.813	22207.3
634.167	21958.94
634.521	22067.41
634.875	22131.14
635.229	22052.95
635.583	21895.67
635.937	21934.08
636.291	21817.03
636.645	21914.88
636.999	21850.47
637.352	21941.99
637.706	21759.17
638.06	21901.09
638.413	21736.12
638.767	21759.17
639.121	21812.05
639.474	21667.42
639.828	21685.5
640.181	21683.92
640.534	21750.13
640.888	21640.31
641.241	21651.61
641.594	21596.69
641.947	21560.31
642.301	21605.73
642.654	21626.3
643.007	21651.83
643.36	21561.89
643.713	21488.22
644.066	21622.45
644.419	21337.49
644.771	21288.9
645.124	21187.44
645.477	21063.15
645.83	20867.22
646.182	20924.39
646.535	20784.51
646.888	20841.01
647.24	20613.22
647.593	20836.03
647.945	20677.17
648.298	20652.54
648.65	20604.18
649.002	20631.97
649.355	20707.45
649.707	20753.78
650.059	20698.86
650.411	20999.87
650.763	20966.88
651.115	21254.1
651.467	21067.67
651.819	21182.24
652.171	21079.87
652.523	21018.63
652.875	21146.76
653.227	20897.5
653.578	21064.28
653.93	21066.54
654.282	20850.72
654.633	20783.61
654.985	20922.13
655.337	20859.08
655.688	20885.07
656.039	20958.06
656.391	20736.15
656.742	20843.72
657.094	20836.26
657.445	20834.23
657.796	20945.86
658.147	20902.92
658.498	20726.88
658.849	20936.14
659.2	20877.61
659.551	20790.61
659.902	20763.49
660.253	20754.91
660.604	20840.78
660.955	20686.21
661.306	20820.22
661.656	20791.06
662.007	20781.12
662.358	20801.23
662.708	20790.61
663.059	20775.24
663.409	20662.25
663.76	20824.51
664.11	20740.67
664.461	20688.92
664.811	20793.78
665.161	20746.09
665.511	20587.9
665.862	20668.58
666.212	20777.96
666.562	20693.89
666.912	20681.01
667.262	20706.77
667.612	20692.76
667.962	20743.16
668.312	20727.56
668.662	20768.24
669.011	20688.02
669.361	20677.39
669.711	20640.78
670.06	20592.42
670.41	20578.41
670.76	20600.11
671.109	20589.03
671.459	20676.49
671.808	20547.45
672.157	20604.63
672.507	20413.45
672.856	20506.55
673.205	20482.82
673.554	20591.97
673.904	20504.07
674.253	20571.86
674.602	20549.26
674.951	20319.66
675.3	20122.61
675.649	20510.39
675.998	20512.43
676.346	20461.81
676.695	20406.21
677.044	20270.63
677.393	20377.29
677.741	20365.76
678.09	20394.92
678.438	20249.38
678.787	20427.68
679.135	20329.83
679.484	20196.28
679.832	20361.7
680.181	20198.31
680.529	20316.05
680.877	20200.34
681.225	20105.66
681.573	20180.46
681.922	20160.8
682.27	20024.53
682.618	20086.22
682.966	19968.26
683.314	20095.71
683.661	19968.03
684.009	19971.65
684.357	19844.2
684.705	19840.81
685.053	19978.66
685.4	19772.33
685.748	19727.36
686.095	19716.52
686.443	19660.92
686.79	19559.68
687.138	19690.98
687.485	19593.58
687.832	19551.1
688.18	19560.59
688.527	19417.77
688.874	19499.57
689.221	19525.79
689.568	19447.82
689.915	19347.03
690.262	19338.9
690.609	19286.7
690.956	19206.92
691.303	19255.28
691.65	19044.67
691.997	19135.06
692.344	19051
692.69	18982.75
693.037	19101.84
693.383	18781.85
693.73	18853.71
694.077	18784.79
694.423	18714.51
694.769	18686.71
695.116	18645.81
695.462	18672.48
695.808	18568.75
696.155	18604.68
696.501	18554.96
696.847	18413.5
697.193	18331.02
697.539	18397.91
697.885	18246.5
698.231	18209.89
698.577	18160.85
698.923	18120.63
699.269	18041.76
699.614	17993.17
699.96	17970.57
700.306	18022.1
700.651	17891.7
700.997	17810.35
701.342	17870.01
701.688	17757.92
702.033	17762.22
702.379	17773.74
702.724	17665.72
703.069	17707.98
703.415	17494.65
703.76	17454.88
704.105	17499.17
704.45	17468.21
704.795	17322.23
705.14	17327.65
705.485	17346.63
705.83	17260.08
706.175	17293.3
706.52	17157.71
706.865	17190.48
707.209	17209.01
707.554	17042.69
707.899	17071.39
708.243	17022.12
708.588	16962.46
708.932	16918.17
709.277	16846.99
709.621	16875.23
709.966	16759.76
710.31	16795.91
710.654	16661.68
710.998	16730.15
711.342	16685.41
711.687	16611.51
712.031	16465.75
712.375	16498.3
712.719	16566.54
713.063	16538.75
713.407	16592.76
713.75	16479.99
714.094	16407.22
714.438	16389.15
714.782	16398.86
715.125	16336.49
715.469	16326.1
715.812	16295.81
716.156	16217.17
716.499	16161.35
716.843	16236.16
717.186	16079.55
717.53	16205.87
717.873	16149.15
718.216	16088.81
718.559	16061.7
718.902	15984.41
719.246	16021.25
719.589	15912.77
719.932	15905.09
720.275	15911.19
720.617	15777.86
720.96	15912.32
721.303	15972.21
721.646	15887.92
721.989	15756.62
722.331	15864.19
722.674	15777.41
723.016	15809.05
723.359	15807.01
723.701	15770.4
724.044	15574.03
724.386	15639.79
724.729	15634.14
725.071	15611.54
725.413	15554.14
725.755	15548.72
726.097	15503.29
726.439	15393.24
726.782	15495.38
727.124	15518.43
727.465	15483.18
727.807	15441.15
728.149	15426.68
728.491	15379
728.833	15471.2
729.175	15343.07
729.516	15359.79
729.858	15333.81
730.199	15445.22
730.541	15285.9
730.882	15224.66
731.224	15296.97
731.565	15175.62
731.906	15238.89
732.248	15273.47
732.589	15145.79
732.93	15141.49
733.271	15082.51
733.612	15187.6
733.953	15143.08
734.294	15115.51
734.635	15153.25
734.976	15154.83
735.317	15022.85
735.658	15050.88
735.999	15012.68
736.339	14972.01
736.68	14999.8
737.021	14876.64
737.361	14936.53
737.702	15010.2
738.042	14862.63
738.383	14866.25
738.723	14980.37
739.063	14889.52
739.404	14957.54
739.744	14849.3
740.084	14909.86
740.424	14899.24
740.764	14836.42
741.104	14937.66
741.444	14780.83
741.784	14748.06
742.124	14833.03
742.464	14799.58
742.804	14729.53
743.143	14676.87
743.483	14739.7
743.823	14682.3
744.162	14658.12
744.502	14772.92
744.841	14620.83
745.181	14652.69
745.52	14586.25
745.86	14638.46
746.199	14560.49
746.538	14614.95
746.877	14549.19
747.216	14594.39
747.556	14501.29
747.895	14490.44
748.234	14406.15
748.573	14487.95
748.911	14481.85
749.25	14437.78
749.589	14345.13
749.928	14337.9
750.267	14386.49
750.605	14328.41
750.944	14379.93
751.283	14280.05
751.621	14368.18
751.96	14267.85
752.298	14244.57
752.636	14240.05
752.975	14231.91
753.313	14175.42
753.651	14202.99
753.989	14128.64
754.327	14195.53
754.666	14028.53
755.004	14052.71
755.342	14018.59
755.679	14050.9
756.017	13940.62
756.355	13995.54
756.693	13991.47
757.031	13941.3
757.368	13867.86
757.706	13897.69
758.044	13873.51
758.381	13767.29
758.719	13787.41
759.056	13803.45
759.394	13635.77
759.731	13647.75
760.068	13672.61
760.405	13469.67
760.743	13506.51
761.08	13623.57
761.417	13538.82
761.754	13489.11
762.091	13433.74
762.428	13451.82
762.765	13286.63
763.102	13377.02
763.438	13336.12
763.775	13172.51
764.112	13191.26
764.449	13164.6
764.785	13158.27
765.122	13033.98
765.458	12930.25
765.795	12967.09
766.131	12858.39
766.467	12900.42
766.804	12838.5
767.14	12788.79
767.476	12757.83
767.812	12814.32
768.148	12723.03
768.485	12634.89
768.821	12621.56
769.157	12651.16
769.492	12524.39
769.828	12466.31
770.164	12409.14
770.5	12485.29
770.836	12382.47
771.171	12376.37
771.507	12211.63
771.842	12195.58
772.178	12177.5
772.513	12152.42
772.849	12142.25
773.184	12086.43
773.519	12039.66
773.855	11984.29
774.19	12014.35
774.525	11866.78
774.86	11908.13
775.195	11848.02
775.53	11842.15
775.865	11691.87
776.2	11688.93
776.535	11619.1
776.87	11589.95
777.205	11560.57
777.539	11513.12
777.874	11530.74
778.209	11456.62
778.543	11379.33
778.878	11354.48
779.212	11324.19
779.547	11270.18
779.881	11281.03
780.215	11155.84
780.55	11153.8
780.884	11121.26
781.218	11092.79
781.552	11025.9
781.886	10987.93
782.22	10962.17
782.554	10905.45
782.888	10895.28
783.222	10767.37
783.556	10794.26
783.889	10730.31
784.223	10682.4
784.557	10671.78
784.89	10682.85
785.224	10600.37
785.557	10574.61
785.891	10545.23
786.224	10550.2
786.558	10453.93
786.891	10329.87
787.224	10346.59
787.557	10276.99
787.891	10293.26
788.224	10260.72
788.557	10187.05
788.89	10293.94
789.223	10181.4
789.556	10137.56
789.888	10094.85
790.221	10038.58
790.554	9960.84
790.887	10003.32
791.219	9943.67
791.552	9981.63
791.884	9805.36
792.217	9869.09
792.549	9799.71
792.882	9810.34
793.214	9678.14
793.546	9754.74
793.879	9592.94
794.211	9595.43
794.543	9584.13
794.875	9591.36
795.207	9585.71
795.539	9561.75
795.871	9521.98
796.203	9412.83
796.535	9458.48
796.867	9413.74
797.198	9364.47
797.53	9332.61
797.862	9267.52
798.193	9328.31
798.525	9210.13
798.856	9173.06
799.188	9114.31
799.519	9117.47
799.85	9041.32
800.182	9039.28
800.513	9025.95
800.844	8956.35
801.175	9036.12
801.506	9011.26
801.837	8960.87
802.168	8853.3
802.499	8884.94
802.83	8840.64
803.161	8865.95
803.491	8855.56
803.822	8849.23
804.153	8865.5
804.483	8698.95
804.814	8649.91
805.145	8638.16
805.475	8652.4
805.805	8631.16
806.136	8660.08
806.466	8644.04
806.796	8552.97
807.126	8510.26
807.457	8506.87
807.787	8523.82
808.117	8472.52
808.447	8397.94
808.777	8483.59
809.107	8431.39
809.436	8326.76
809.766	8327.66
810.096	8317.95
810.426	8314.78
810.755	8268.68
811.085	8221.68
811.414	8225.74
811.744	8175.8
812.073	8133.54
812.403	8166.54
812.732	8128.57
813.061	8117.05
813.39	8108.91
813.719	8101.68
814.049	8110.94
814.378	8031.62
814.707	8032.53
815.036	8021.68
815.365	7939.88
815.693	7926.09
816.022	7888.13
816.351	7889.93
816.68	7818.3
817.008	7853.32
817.337	7847
817.665	7789.37
817.994	7854
818.322	7821.24
818.651	7757.96
818.979	7717.96
819.307	7724.06
819.636	7692.42
819.964	7680
820.292	7790.73
820.62	7684.06
820.948	7699.88
821.276	7648.36
821.604	7591.64
821.932	7703.27
822.259	7706.66
822.587	7675.25
822.915	7581.92
823.243	7661.47
823.57	7596.83
823.898	7711.18
824.225	7642.26
824.553	7645.87
824.88	7643.16
825.207	7645.19
825.535	7634.57
825.862	7593.22
826.189	7567.23
826.516	7605.2
826.843	7647.23
827.17	7613.78
827.497	7580.56
827.824	7620.34
828.151	7605.65
828.478	7676.15
828.805	7678.19
829.131	7600.9
829.458	7602.03
829.785	7579.89
830.111	7624.86
830.438	7640.45
830.764	7614.91
831.09	7650.39
831.417	7594.12
831.743	7579.66
832.069	7603.61
832.395	7584.18
832.722	7584.86
833.048	7521.36
833.374	7534.91
833.7	7548.25
834.026	7517.29
834.351	7578.53
834.677	7571.07
835.003	7562.03
835.329	7578.53
835.654	7493.33
835.98	7469.15
836.306	7460.34
836.631	7369.72
836.956	7401.59
837.282	7454.69
837.607	7400.91
837.932	7394.35
838.258	7365.43
838.583	7412.88
838.908	7402.71
839.233	7377.63
839.558	7345.32
839.883	7358.2
840.208	7302.38
840.533	7316.84
840.858	7211.08
841.182	7298.76
841.507	7302.6
841.832	7267.8
842.156	7212.44
842.481	7244.98
842.805	7145.55
843.13	7187.35
843.454	7221.25
843.778	7140.8
844.103	7115.94
844.427	7118.2
844.751	7117.98
845.075	7169.5
845.399	7129.95
845.723	7044.53
846.047	7034.59
846.371	6942.61
846.695	6955.04
847.019	6879.11
847.343	6894.48
847.666	6807.48
847.99	6863.75
848.313	6811.09
848.637	6810.87
848.96	6791.43
849.284	6754.6
849.607	6754.37
849.931	6752.56
850.254	6643.19
850.577	6621.94
850.9	6590.31
851.223	6579.69
851.546	6552.12
851.869	6494.04
852.192	6561.38
852.515	6477.09
852.838	6437.54
853.161	6495.39
853.483	6462.85
853.806	6349.18
854.129	6407.03
854.451	6396.87
854.774	6318.22
855.096	6330.2
855.419	6296.08
855.741	6311.9
856.063	6248.4
856.385	6231.67
856.708	6237.1
857.03	6220.83
857.352	6216.98
857.674	6170.66
857.996	6157.1
858.318	6155.97
858.64	6160.94
858.961	6124.1
859.283	6108.06
859.605	6028.29
859.926	6083.88
860.248	6063.99
860.57	6033.03
860.891	5977.89
861.212	5991
861.534	6002.07
861.855	5976.99
862.176	5988.51
862.498	5995.75
862.819	6003.43
863.14	5927.95
863.461	5932.7
863.782	5924.11
864.103	5970.44
864.424	5956.2
864.745	5899.03
865.065	5887.27
865.386	5922.53
865.707	5826.49
866.027	5862.87
866.348	5844.34
866.668	5863.09
866.989	5835.3
867.309	5741.97
867.63	5763.66
867.95	5812.47
868.27	5740.16
868.59	5764.11
868.91	5736.32
869.23	5766.83
869.55	5665.81
869.87	5763.21
870.19	5713.72
870.51	5679.6
870.83	5730.22
871.15	5666.72
871.469	5712.36
871.789	5692.7
872.109	5711.91
872.428	5638.02
872.748	5631.69
873.067	5642.31
873.386	5669.43
873.706	5594.4
874.025	5638.69
874.344	5649.77
874.663	5598.92
874.982	5599.6
875.301	5606.15
875.62	5593.5
875.939	5539.49
876.258	5548.75
876.577	5575.19
876.896	5496.1
877.214	5506.04
877.533	5536.32
877.852	5517.57
878.17	5525.25
878.489	5532.71
878.807	5449.77
879.125	5447.96
879.444	5462.2
879.762	5494.97
880.08	5505.36
880.398	5406.16
880.716	5471.69
881.034	5424.91
881.352	5429.66
881.67	5419.94
881.988	5419.72
882.306	5414.29
882.624	5395.08
882.941	5412.71
883.259	5364.35
883.577	5352.37
883.894	5361.19
884.212	5358.25
884.529	5327.74
884.846	5294.97
885.164	5327.06
885.481	5241.87
885.798	5309.21
886.115	5250.91
886.432	5260.85
886.75	5268.99
887.067	5263.56
887.383	5217.46
887.7	5200.06
888.017	5192.15
888.334	5178.14
888.651	5171.59
888.967	5193.28
889.284	5121.64
889.6	5106.28
889.917	5106.5
890.233	5130.46
890.55	5116
890.866	5087.3
891.182	5088.43
891.498	5062.21
891.815	5026.51
892.131	5039.39
892.447	4946.28
892.763	5020.18
893.079	5025.6
893.395	5012.27
893.71	4970.69
894.026	4982.89
894.342	4915.55
894.657	4911.26
894.973	4894.31
895.289	4862.67
895.604	4906.06
895.92	4832.61
896.235	4869
896.55	4845.27
896.865	4817.47
897.181	4842.56
897.496	4816.34
897.811	4745.38
898.126	4754.65
898.441	4742.45
898.756	4738.6
899.071	4711.49
899.386	4732.73
899.7	4669.23
900.015	4654.99
900.33	4685.95
900.644	4628.78
900.959	4625.16
901.273	4630.36
901.588	4587.65
901.902	4592.39
902.216	4572.51
902.531	4529.8
902.845	4556.01
903.159	4495.22
903.473	4502.23
903.787	4536.12
904.101	4431.27
904.415	4417.03
904.729	4465.62
905.042	4415
905.356	4438.95
905.67	4422.45
905.984	4403.25
906.297	4363.47
906.611	4367.54
906.924	4382.68
907.237	4330.03
907.551	4323.7
907.864	4305.4
908.177	4285.51
908.491	4319.41
908.804	4290.25
909.117	4215.91
909.43	4225.4
909.743	4229.69
910.056	4239.41
910.368	4199.64
910.681	4156.25
910.994	4144.27
911.307	4160.99
911.619	4105.17
911.932	4120.09
912.244	4098.62
912.557	4072.86
912.869	4067.66
913.181	4049.58
913.494	4059.75
913.806	3989.25
914.118	3970.94
914.43	3960.55
914.742	3957.83
915.054	3943.6
915.366	3916.03
915.678	3882.58
915.99	3924.84
916.302	3934.33
916.613	3861.11
916.925	3879.19
917.236	3865.63
917.548	3886.65
917.859	3838.29
918.171	3841.45
918.482	3762.58
918.794	3790.38
919.105	3782.92
919.416	3740.66
919.727	3754.9
920.038	3731.63
920.349	3722.81
920.66	3705.86
920.971	3724.17
921.282	3692.3
921.593	3662.02
921.903	3623.61
922.214	3609.59
922.525	3614.11
922.835	3611.85
923.146	3594.68
923.456	3627.67
923.767	3575.02
924.077	3585.87
924.387	3542.25
924.697	3539.54
925.008	3530.05
925.318	3548.58
925.628	3492.31
925.938	3515.13
926.248	3451.86
926.558	3427.9
926.867	3427.45
927.177	3447.34
927.487	3372.76
927.796	3394.91
928.106	3367.34
928.416	3385.65
928.725	3355.14
929.034	3409.15
929.344	3397.4
929.653	3315.14
929.962	3310.17
930.271	3309.26
930.581	3286.44
930.89	3313.1
931.199	3270.85
931.508	3225.88
931.817	3224.97
932.125	3225.65
932.434	3208.25
932.743	3200.34
933.051	3162.83
933.36	3186.1
933.669	3145.2
933.977	3156.05
934.286	3149.72
934.594	3129.83
934.902	3097.29
935.21	3116.5
935.519	3120.79
935.827	3094.81
936.135	3076.5
936.443	3027.46
936.751	3030.4
937.059	3011.87
937.367	3003.06
937.674	2997.18
937.982	2983.85
938.29	2978.42
938.597	2980.23
938.905	2961.7
939.213	2972.55
939.52	2953.34
939.827	2905.66
940.135	2908.82
940.442	2909.73
940.749	2856.39
941.056	2881.93
941.363	2851.87
941.67	2867.24
941.977	2828.6
942.284	2835.15
942.591	2808.71
942.898	2811.42
943.205	2790.63
943.511	2792.89
943.818	2751.09
944.125	2712.67
944.431	2744.98
944.738	2788.6
945.044	2735.04
945.35	2720.13
945.657	2728.49
945.963	2728.04
946.269	2706.57
946.575	2685.55
946.881	2717.19
947.187	2691.65
947.493	2621.82
947.799	2631.09
948.105	2664.76
948.41	2659.34
948.716	2658.43
949.022	2628.6
949.327	2600.81
949.633	2571.2
949.938	2552
950.244	2565.78
950.549	2559.23
950.854	2507.25
951.16	2520.13
951.465	2500.24
951.77	2528.49
952.075	2494.37
952.38	2487.59
952.685	2468.83
952.99	2479.45
953.294	2438.78
953.599	2449.62
953.904	2436.07
954.209	2422.96
954.513	2418.67
954.818	2419.12
955.122	2430.19
955.426	2419.57
955.731	2375.95
956.035	2428.61
956.339	2397.2
956.643	2349.97
956.948	2355.39
957.252	2363.53
957.556	2337.99
957.86	2304.09
958.163	2355.84
958.467	2313.58
958.771	2327.59
959.075	2303.19
959.378	2296.41
959.682	2254.83
959.985	2263.87
960.289	2252.79
960.592	2249.86
960.896	2276.97
961.199	2235.17
961.502	2258.67
961.805	2196.07
962.108	2214.15
962.411	2211.67
962.714	2186.35
963.017	2181.84
963.32	2193.13
963.623	2187.94
963.926	2175.51
964.228	2176.86
964.531	2150.2
964.833	2144.55
965.136	2126.47
965.438	2114.72
965.741	2116.3
966.043	2091.22
966.345	2124.66
966.648	2107.03
966.95	2095.06
967.252	2059.58
967.554	2092.12
967.856	2074.04
968.158	2063.87
968.46	2076.75
968.761	2046.7
969.063	2021.61
969.365	2024.55
969.666	2020.03
969.968	2006.7
970.269	2006.92
970.571	2000.37
970.872	1978.68
971.174	1993.37
971.475	1966.7
971.776	1939.58
972.077	1943.2
972.378	1927.38
972.679	1917.66
972.98	1923.54
973.281	1920.15
973.582	1932.35
973.883	1904.55
974.183	1914.95
974.484	1879.92
974.785	1900.71
975.085	1904.1
975.386	1867.27
975.686	1867.72
975.986	1845.12
976.287	1860.71
976.587	1835.86
976.887	1844.44
977.187	1830.66
977.487	1833.14
977.787	1829.98
978.087	1804.44
978.387	1797.66
978.687	1807.83
978.987	1816.87
979.286	1796.31
979.586	1768.29
979.885	1738.23
980.185	1747.04
980.484	1727.38
980.784	1690.55
981.083	1753.15
981.382	1735.75
981.682	1746.82
981.981	1721.51
982.28	1729.19
982.579	1714.5
982.878	1681.06
983.177	1685.58
983.475	1702.75
983.774	1663.88
984.073	1684.9
984.372	1663.2
984.67	1659.14
984.969	1691.45
985.267	1641.06
985.566	1649.87
985.864	1651
986.162	1634.96
986.461	1627.5
986.759	1604.45
987.057	1594.73
987.355	1621.85
987.653	1601.51
987.951	1597.9
988.249	1579.82
988.547	1590.44
988.844	1563.55
989.142	1578.46
989.44	1561.29
989.737	1538.24
990.035	1562.42
990.332	1539.82
990.63	1573.94
990.927	1535.52
991.224	1524.68
991.521	1518.35
991.819	1492.36
992.116	1537.78
992.413	1522.42
992.71	1491.68
993.006	1499.37
993.303	1476.54
993.6	1467.5
993.897	1465.02
994.193	1472.7
994.49	1448.52
994.787	1509.54
995.083	1445.58
995.379	1413.72
995.676	1409.2
995.972	1432.02
996.268	1432.7
996.565	1434.28
996.861	1441.97
997.157	1401.97
997.453	1405.81
997.749	1375.53
998.044	1408.75
998.34	1393.61
998.636	1365.36
998.932	1366.72
999.227	1344.34
999.523	1356.77
999.818	1351.12
1000.114	1325.36
1000.409	1327.39
1000.704	1311.8
1001	1311.58
1001.295	1325.36
1001.59	1296.66
1001.885	1307.51
1002.18	1286.27
1002.475	1288.07
1002.77	1323.33
1003.065	1279.26
1003.359	1249.66
1003.654	1283.55
1003.949	1257.79
1004.243	1261.86
1004.538	1261.86
1004.832	1269.99
1005.127	1264.8
1005.421	1236.1
1005.715	1220.28
1006.009	1208.08
1006.304	1220.96
1006.598	1211.69
1006.892	1209.43
1007.186	1201.75
1007.48	1186.16
1007.773	1185.25
1008.067	1174.86
1008.361	1184.12
1008.655	1179.38
1008.948	1173.27
1009.242	1142.09
1009.535	1150.45
1009.829	1164.23
1010.122	1128.53
1010.415	1133.73
1010.708	1122.2
1011.001	1155.2
1011.295	1133.95
1011.588	1110.23
1011.881	1119.04
1012.173	1100.06
1012.466	1083.11
1012.759	1091.24
1013.052	1090.11
1013.344	1081.07
1013.637	1089.43
1013.93	1068.64
1014.222	1069.1
1014.514	1064.12
1014.807	1071.36
1015.099	1064.8
1015.391	1063.67
1015.683	1053.05
1015.976	1041.75
1016.268	1006.95
1016.56	1017.35
1016.851	997.91
1017.143	1005.14
1017.435	1039.49
1017.727	991.36
1018.018	1017.57
1018.31	1012.37
1018.602	1008.31
1018.893	973.96
1019.185	969.21
1019.476	964.47
1019.767	1006.72
1020.058	950
1020.35	986.39
1020.641	955.2
1020.932	953.17
1021.223	916.11
1021.514	933.05
1021.804	946.84
1022.095	932.15
1022.386	914.75
1022.677	913.17
1022.967	886.73
1023.258	887.18
1023.548	906.61
1023.839	891.25
1024.129	865.71
1024.419	884.24
1024.709	876.78
1025	888.76
1025.29	855.32
1025.58	873.85
1025.87	851.02
1026.16	861.19
1026.449	866.16
1026.739	851.25
1027.029	836.11
1027.319	846.05
1027.608	844.92
1027.898	839.72
1028.187	839.72
1028.477	815.54
1028.766	813.28
1029.055	821.87
1029.344	815.09
1029.634	804.47
1029.923	793.85
1030.212	810.35
1030.501	803.79
1030.79	799.72
1031.078	782.78
1031.367	779.61
1031.656	776.9
1031.945	773.06
1032.233	766.73
1032.522	766.51
1032.81	730.8
1033.099	747.3
1033.387	728.31
1033.675	734.19
1033.963	739.39
1034.251	725.83
1034.54	725.83
1034.828	730.35
1035.116	720.63
1035.403	707.52
1035.691	737.58
1035.979	733.74
1036.267	716.79
1036.554	705.72
1036.842	701.65
1037.129	733.51
1037.417	725.83
1037.704	710.69
1037.992	705.26
1038.279	684.47
1038.566	673.17
1038.853	673.17
1039.14	673.17
