Data from tablewood_dark_bookshelf_FLMS001491_00031.txt Node
Date: Wed Feb 08 14:14:25 GMT 2017
User: dcchb
Spectrometer: FLMS00149
Trigger mode: 0
Integration Time (sec): 2.000000E-2
Scans to average: 10
Electric dark correction enabled: true
Nonlinearity correction enabled: false
Boxcar width: 0
XAxis mode: Wavelengths
Number of Pixels in Spectrum: 2048
>>>>>Begin Spectral Data<<<<<
341.393	-10.08
341.776	-10.08
342.16	-10.08
342.543	-66.81
342.927	-66.58
343.31	-67.03
343.693	-83.53
344.077	-70.87
344.46	-63.19
344.843	-53.7
345.226	-21.38
345.61	-24.1
345.993	-23.19
346.376	2.12
346.759	15.23
347.142	35.79
347.525	56.58
347.908	53.42
348.291	54.32
348.674	103.81
349.057	85.73
349.44	124.38
349.823	144.49
350.206	152.4
350.588	170.7
350.971	185.84
351.354	221.1
351.737	238.95
352.119	239.85
352.502	262.22
352.884	265.84
353.267	261.55
353.65	288.89
354.032	289.79
354.414	301.09
354.797	301.77
355.179	310.36
355.562	321.43
355.944	310.59
356.326	316.01
356.709	329.34
357.091	337.7
357.473	327.31
357.855	321.66
358.238	342.9
358.62	320.98
359.002	330.47
359.384	339.06
359.766	327.08
360.148	313.52
360.53	349.45
360.912	338.83
361.294	326.4
361.676	310.36
362.057	325.73
362.439	345.16
362.821	327.31
363.203	316.91
363.584	339.96
363.966	319.4
364.348	323.69
364.729	320.98
365.111	323.69
365.493	308.1
365.874	325.27
366.256	300.87
366.637	310.13
367.019	308.1
367.4	304.71
367.781	316.01
368.163	329.57
368.544	316.01
368.925	297.25
369.306	328.89
369.688	328.21
370.069	325.5
370.45	301.32
370.831	317.36
371.212	339.96
371.593	323.69
371.974	306.52
372.355	314.2
372.736	320.3
373.117	316.23
373.498	325.5
373.879	311.94
374.26	309.68
374.641	315.56
375.021	301.55
375.402	327.08
375.783	312.39
376.163	324.82
376.544	340.87
376.925	336.57
377.305	330.92
377.686	349
378.066	323.47
378.447	340.41
378.827	331.6
379.208	333.86
379.588	347.42
379.968	338.15
380.349	344.71
380.729	353.3
381.109	341.77
381.489	325.05
381.87	342
382.25	333.18
382.63	347.19
383.01	354.65
383.39	320.75
383.77	348.1
384.15	366.4
384.53	364.82
384.91	377.93
385.29	357.14
385.67	359.4
386.049	365.5
386.429	370.92
386.809	363.69
387.189	372.96
387.568	382.67
387.948	367.98
388.328	384.71
388.707	372.28
389.087	379.51
389.466	389
389.846	383.35
390.225	388.55
390.605	373.18
390.984	397.14
391.363	384.93
391.743	368.89
392.122	403.92
392.501	389
392.881	398.27
393.26	376.35
393.639	407.31
394.018	393.07
394.397	401.43
394.776	427.19
395.155	432.62
395.534	411.37
395.913	399.4
396.292	457.47
396.671	415.67
397.05	434.2
397.429	405.05
397.808	429.45
398.186	422.22
398.565	441.88
398.944	432.84
399.323	439.4
399.701	431.94
400.08	406.4
400.458	438.72
400.837	429.23
401.215	462.67
401.594	436.46
401.972	441.2
402.351	442.56
402.729	462.9
403.107	447.3
403.486	460.64
403.864	436.91
404.242	463.8
404.62	463.58
404.999	466.97
405.377	475.78
405.755	492.5
406.133	488.21
406.511	475.55
406.889	498.6
407.267	513.52
407.645	511.03
408.023	492.05
408.401	477.81
408.779	536.57
409.156	510.13
409.534	518.49
409.912	523.69
410.29	527.98
410.667	527.08
411.045	536.57
411.422	533.86
411.8	546.74
412.178	561.43
412.555	542.9
412.933	549.67
413.31	571.82
413.687	568.66
414.065	544.93
414.442	555.78
414.819	564.59
415.197	574.53
415.574	561.2
415.951	592.61
416.328	572.27
416.705	588.77
417.082	591.71
417.46	585.61
417.837	603.68
418.214	611.59
418.591	593.52
418.967	605.49
419.344	616.11
419.721	611.37
420.098	612.95
420.475	600.07
420.852	634.42
421.228	616.57
421.605	639.39
421.982	624.02
422.358	632.38
422.735	656.34
423.111	656.56
423.488	668.09
423.864	654.3
424.241	662.89
424.617	671.93
424.994	668.77
425.37	677.81
425.746	682.1
426.123	686.85
426.499	697.24
426.875	677.13
427.251	699.95
427.627	728.88
428.003	709.22
428.379	711.93
428.756	719.16
429.132	739.27
429.507	733.4
429.883	765.04
430.259	766.84
430.635	779.05
431.011	773.4
431.387	782.66
431.763	784.92
432.138	789.67
432.514	801.65
432.89	791.02
433.265	821.08
433.641	841.87
434.016	841.64
434.392	824.7
434.767	843.68
435.143	856.79
435.518	857.69
435.894	859.5
436.269	887.07
436.644	876.45
437.02	873.73
437.395	882.77
437.77	872.38
438.145	898.14
438.52	913.73
438.895	929.1
439.271	915.31
439.646	930
440.021	944.47
440.395	949.44
440.77	937.24
441.145	952.83
441.52	977.23
441.895	965.26
442.27	970.68
442.645	983.79
443.019	982.88
443.394	968.19
443.769	981.53
444.143	996.89
444.518	1019.49
444.892	998.02
445.267	1020.62
445.641	1022.88
446.016	1009.1
446.39	1039.83
446.764	1032.37
447.139	1043.67
447.513	1035.31
447.887	1044.35
448.262	1051.13
448.636	1045.03
449.01	1071.92
449.384	1085.71
449.758	1077.57
450.132	1090.45
450.506	1083.45
450.88	1131.35
451.254	1122.09
451.628	1098.81
452.002	1150.11
452.376	1132.94
452.75	1125.48
453.123	1129.55
453.497	1178.36
453.871	1158.92
454.244	1182.88
454.618	1189.66
454.992	1188.98
455.365	1192.37
455.739	1250.45
456.112	1228.53
456.486	1257
456.859	1251.13
457.232	1279.83
457.606	1304.01
457.979	1309.2
458.352	1311.46
458.725	1348.98
459.099	1341.74
459.472	1362.53
459.845	1379.26
460.218	1379.94
460.591	1390.56
460.964	1397.79
461.337	1409.77
461.71	1441.4
462.083	1469.2
462.456	1414.51
462.829	1460.61
463.201	1492.02
463.574	1478.69
463.947	1488.86
464.32	1527.28
464.692	1574.05
465.065	1537.67
465.438	1562.53
465.81	1566.37
466.183	1600.49
466.555	1629.19
466.928	1664.22
467.3	1677.1
467.672	1688.4
468.045	1706.48
468.417	1703.54
468.789	1734.5
469.161	1757.1
469.534	1736.76
469.906	1800.26
470.278	1814.95
470.65	1831
471.022	1894.27
471.394	1895.63
471.766	1904.44
472.138	1953.93
472.51	1929.75
472.882	1984.44
473.253	1986.7
473.625	2033.25
473.997	2039.13
474.369	2059.01
474.74	2112.12
475.112	2138.79
475.484	2179.46
475.855	2210.87
476.227	2214.26
476.598	2249.97
476.97	2270.08
477.341	2303.53
477.713	2315.96
478.084	2365.67
478.455	2416.07
478.827	2442.96
479.198	2482.96
479.569	2491.32
479.94	2597.98
480.311	2613.12
480.682	2627.36
481.053	2721.6
481.424	2746.68
481.795	2718.43
482.166	2770.86
482.537	2814.7
482.908	2871.42
483.279	2908.93
483.65	2956.84
484.021	3026.45
484.391	3037.07
484.762	3046.11
485.133	3078.2
485.503	3125.88
485.874	3136.95
486.244	3250.62
486.615	3272.09
486.985	3301.92
487.356	3385.31
487.726	3414.23
488.097	3419.43
488.467	3447.45
488.837	3521.57
489.207	3546.21
489.578	3628.01
489.948	3653.32
490.318	3715.92
490.688	3684.96
491.058	3785.75
491.428	3788.46
491.798	3855.8
492.168	3884.5
492.538	3899.19
492.908	3898.29
493.278	3993.65
493.648	3981
494.017	4063.93
494.387	4083.59
494.757	4108
495.126	4158.85
495.496	4179.64
495.866	4223.25
496.235	4258.73
496.605	4329.91
496.974	4311.38
497.344	4313.64
497.713	4404.49
498.082	4415.34
498.452	4472.28
498.821	4486.97
499.19	4490.14
499.559	4497.14
499.928	4573.75
500.298	4579.4
500.667	4627.53
501.036	4625.27
501.405	4682.9
501.774	4695.78
502.143	4733.07
502.512	4755.44
502.88	4756.8
503.249	4809.68
503.618	4844.25
503.987	4891.03
504.356	4936.23
504.724	4924.25
505.093	5005.38
505.462	4979.39
505.83	5001.31
506.199	5026.62
506.567	5122.89
506.936	5139.84
507.304	5171.47
507.672	5212.83
508.041	5206.05
508.409	5250.57
508.777	5300.74
509.145	5345.71
509.514	5371.47
509.882	5417.12
510.25	5419.6
510.618	5453.95
510.986	5508.41
511.354	5533.95
511.722	5606.72
512.09	5612.37
512.458	5629.09
512.826	5702.76
513.193	5694.17
513.561	5735.53
513.929	5789.76
514.297	5861.85
514.664	5881.06
515.032	5863.89
515.4	5938.01
515.767	5958.57
516.135	6008.97
516.502	6012.81
516.869	6077.67
517.237	6090.09
517.604	6107.95
517.972	6181.62
518.339	6240.37
518.706	6240.82
519.073	6293.93
519.44	6382.52
519.808	6369.41
520.175	6391.56
520.542	6491.21
520.909	6554.94
521.276	6586.35
521.643	6612.79
522.009	6704.54
522.376	6716.07
522.743	6733.69
523.11	6852.11
523.477	6929.62
523.843	6935.04
524.21	7009.39
524.577	7054.36
524.943	7106.34
525.31	7140.69
525.676	7213
526.043	7248.48
526.409	7306.56
526.776	7338.42
527.142	7410.51
527.508	7409.61
527.874	7542.94
528.241	7552.2
528.607	7621.58
528.973	7645.99
529.339	7665.65
529.705	7762.37
530.071	7761.46
530.437	7871.74
530.803	7887.79
531.169	7967.33
531.535	7935.7
531.901	8011.63
532.267	8038.97
532.632	8048.91
532.998	8117.61
533.364	8112.41
533.73	8224.28
534.095	8260.66
534.461	8251.85
534.826	8332.07
535.192	8337.04
535.557	8423.59
535.923	8416.13
536.288	8441.9
536.653	8471.05
537.019	8546.98
537.384	8593.98
537.749	8627.65
538.114	8617.26
538.479	8629.69
538.845	8600.99
539.21	8696.35
539.575	8654.32
539.94	8762.11
540.305	8851.83
540.67	8870.36
541.034	8891.6
541.399	8953.52
541.764	8963.69
542.129	9042.11
542.494	9029.45
542.858	9063.8
543.223	9039.62
543.587	9107.87
543.952	9107.87
544.316	9188.77
544.681	9168.43
545.045	9221.09
545.41	9276.68
545.774	9308.31
546.138	9276.68
546.503	9364.13
546.867	9496.56
547.231	9483.9
547.595	9536.11
547.959	9588.53
548.324	9504.69
548.688	9613.17
549.052	9625.14
549.416	9609.55
549.779	9678.02
550.143	9678.25
550.507	9748.75
550.871	9824.01
551.235	9815.87
551.599	9840.28
551.962	9938.81
552.326	9981.97
552.689	9953.95
553.053	10016.09
553.417	10025.13
553.78	10134.96
554.143	10147.84
554.507	10205.01
554.87	10215.41
555.234	10330.21
555.597	10294.5
555.96	10312.13
556.323	10430.77
556.686	10466.25
557.05	10549.64
557.413	10553.71
557.776	10598.22
558.139	10583.76
558.502	10689.75
558.865	10780.59
559.228	10851.32
559.59	10872.57
559.953	10945.11
560.316	11035.27
560.679	11055.61
561.041	11146.68
561.404	11146.46
561.767	11235.04
562.129	11218.77
562.492	11244.31
562.854	11351.88
563.217	11301.03
563.579	11434.59
563.941	11557.07
564.304	11544.19
564.666	11634.81
565.028	11718.19
565.39	11722.04
565.753	11755.03
566.115	11839.77
566.477	11873.9
566.839	11955.93
567.201	12043.84
567.563	12129.48
567.925	12170.84
568.287	12143.72
568.648	12222.36
569.01	12328.57
569.372	12473.66
569.734	12338.52
570.095	12510.49
570.457	12546.2
570.819	12630.71
571.18	12660.77
571.542	12733.08
571.903	12738.96
572.265	12794.55
572.626	12876.81
572.987	12952.96
573.349	12926.75
573.71	13092.85
574.071	13162
574.432	13192.73
574.794	13258.04
575.155	13280.19
575.516	13267.08
575.877	13417.13
576.238	13368.55
576.599	13521.54
576.96	13489.22
577.32	13576.9
577.681	13644.7
578.042	13664.81
578.403	13623.68
578.763	13676.56
579.124	13809.44
579.485	13835.65
579.845	13930.11
580.206	13874.3
580.566	13886.5
580.927	13970.34
581.287	14008.3
581.648	13970.11
582.008	14095.08
582.368	14110
582.728	14107.74
583.089	14179.6
583.449	14218.47
583.809	14160.39
584.169	14282.2
584.529	14380.95
584.889	14338.69
585.249	14308.64
585.609	14317.9
585.969	14487.84
586.329	14450.33
586.688	14458.46
587.048	14476.31
587.408	14522.41
587.768	14454.62
588.127	14535.75
588.487	14534.84
588.846	14665.24
589.206	14644.22
589.565	14679.25
589.925	14774.16
590.284	14756.98
590.643	14711.11
591.003	14799.47
591.362	14906.13
591.721	14826.36
592.08	14898
592.44	14885.12
592.799	14947.94
593.158	14964.21
593.517	14951.1
593.876	14983.87
594.235	15034.72
594.593	15001.5
594.952	14997.2
595.311	15080.37
595.67	15088.05
596.029	15197.43
596.387	15253.47
596.746	15291.21
597.104	15271.32
597.463	15203.3
597.822	15303.86
598.18	15328.04
598.538	15343.41
598.897	15368.95
599.255	15323.3
599.613	15619.34
599.972	15458.89
600.33	15461.83
600.688	15481.49
601.046	15500.24
601.404	15516.29
601.762	15502.05
602.12	15650.97
602.478	15624.98
602.836	15740.24
603.194	15608.49
603.552	15662.95
603.91	15650.97
604.268	15727.35
604.625	15692.78
604.983	15769.61
605.341	15703.4
605.698	15893.23
606.056	15877.18
606.413	15900.01
606.771	15892.32
607.128	15875.37
607.485	15874.47
607.843	15923.51
608.2	16063.39
608.557	16084.86
608.914	16032.21
609.272	16048.93
609.629	16055.26
609.986	16252.31
610.343	16059.78
610.7	16215.03
611.057	16248.47
611.414	16216.83
611.771	16187.23
612.127	16238.98
612.484	16240.34
612.841	16419.99
613.198	16257.96
613.554	16359.43
613.911	16427.45
614.267	16485.75
614.624	16394
614.98	16427
615.337	16502.25
615.693	16600.1
616.05	16484.85
616.406	16598.52
616.762	16630.16
617.118	16493.89
617.475	16599.42
617.831	16616.37
618.187	16706.31
618.543	16687.56
618.899	16805.97
619.255	16721.9
619.611	16767.1
619.967	16783.15
620.323	16833.31
620.678	16751.51
621.034	16696.82
621.39	16759.87
621.746	16752.64
622.101	16847.78
622.457	16799.19
622.812	16833.31
623.168	16760.77
623.523	16796.25
623.879	16962.12
624.234	16770.04
624.589	16759.87
624.945	16806.65
625.3	16902.01
625.655	16846.2
626.01	16943.59
626.365	16929.13
626.72	16865.63
627.075	16888.68
627.43	16883.48
627.785	16828.12
628.14	16846.2
628.495	16881.45
628.85	16883.03
629.205	16808.23
629.559	16897.27
629.914	16906.08
630.269	16830.15
630.623	16803.71
630.978	16851.62
631.332	16916.25
631.687	16924.16
632.041	16808.68
632.396	16778.4
632.75	16750.15
633.104	16807.55
633.459	16680.1
633.813	16673.77
634.167	16761.45
634.521	16798.97
634.875	16734.56
635.229	16716.26
635.583	16628.57
635.937	16648.91
636.291	16658.63
636.645	16596.71
636.999	16570.27
637.352	16652.53
637.706	16565.75
638.06	16570.5
638.413	16593.32
638.767	16541.12
639.121	16563.72
639.474	16423.61
639.828	16452.76
640.181	16429.26
640.534	16409.37
640.888	16406.43
641.241	16358.98
641.594	16354.23
641.947	16466.77
642.301	16254.8
642.654	16321.46
643.007	16328.92
643.36	16348.36
643.713	16336.83
644.066	16452.99
644.419	16240.56
644.771	16145.87
645.124	15991.98
645.477	15982.49
645.83	15824.75
646.182	15877.86
646.535	15852.32
646.888	15890.06
647.24	15735.26
647.593	15919.21
647.945	15911.98
648.298	15879.89
648.65	15801.25
649.002	15769.61
649.355	15775.72
649.707	15639.45
650.059	15871.76
650.411	16019.55
650.763	16057.74
651.115	16134.12
651.467	16032.88
651.819	16101.81
652.171	16010.51
652.523	16006.44
652.875	16035.6
653.227	15983.17
653.578	16032.66
653.93	16105.42
654.282	15908.14
654.633	16001.92
654.985	15981.59
655.337	15994.01
655.688	16071.53
656.039	15980.46
656.391	15934.36
656.742	15856.17
657.094	16021.36
657.445	16064.07
657.796	16011.64
658.147	15997.4
658.498	15989.72
658.849	16006.44
659.2	15877.18
659.551	15946.33
659.902	15948.59
660.253	15858.2
660.604	16038.08
660.955	15893.45
661.306	15908.59
661.656	16039.44
662.007	16026.1
662.358	15984.52
662.708	15899.1
663.059	16014.8
663.409	15897.75
663.76	15963.51
664.11	15889.61
664.461	15960.8
664.811	15912.89
665.161	15875.15
665.511	15961.47
665.862	15921.7
666.212	15990.17
666.562	16015.48
666.912	15891.42
667.262	15909.95
667.612	15928.48
667.962	15965.09
668.312	15919.89
668.662	15972.77
669.011	15895.26
669.361	15855.26
669.711	15899.78
670.06	15917.18
670.41	15849.61
670.76	15809.16
671.109	15889.61
671.459	15835.15
671.808	15930.74
672.157	15933.23
672.507	15796.96
672.856	15814.13
673.205	15826.56
673.554	15891.64
673.904	15856.84
674.253	15907.92
674.602	15891.87
674.951	15627.24
675.3	15577.08
675.649	15956.5
675.998	15814.13
676.346	15822.27
676.695	15863.17
677.044	15775.26
677.393	15888.03
677.741	15821.14
678.09	15800.8
678.438	15720.35
678.787	15808.71
679.135	15801.48
679.484	15643.74
679.832	15777.3
680.181	15738.43
680.529	15667.7
680.877	15676.28
681.225	15671.54
681.573	15633.57
681.922	15614.82
682.27	15620.01
682.618	15593.12
682.966	15533.46
683.314	15556.51
683.661	15476.29
684.009	15369.62
684.357	15500.24
684.705	15435.39
685.053	15437.87
685.4	15404.65
685.748	15358.78
686.095	15320.13
686.443	15217.31
686.79	15248.5
687.138	15342.96
687.485	15237.65
687.832	15208.72
688.18	15246.92
688.527	15142.74
688.874	15143.42
689.221	15128.27
689.568	15060.25
689.915	15040.82
690.262	15104.77
690.609	14963.08
690.956	14880.6
691.303	14963.76
691.65	14793.82
691.997	14876.08
692.344	14794.72
692.69	14797.66
693.037	14784.33
693.383	14693.03
693.73	14744.56
694.077	14697.55
694.423	14642.64
694.769	14574.16
695.116	14616.88
695.462	14527.84
695.808	14526.71
696.155	14546.37
696.501	14454.39
696.847	14340.05
697.193	14364
697.539	14373.27
697.885	14242.2
698.231	14299.14
698.577	14281.74
698.923	14245.36
699.269	14188.64
699.614	14107.96
699.96	14131.92
700.306	14079.71
700.651	14024.8
700.997	13977.8
701.342	13967.18
701.688	13950.23
702.033	13950.45
702.379	13892.37
702.724	13874.52
703.069	13838.59
703.415	13765.82
703.76	13741.42
704.105	13702.78
704.45	13674.98
704.795	13601.99
705.14	13547.3
705.485	13573.06
705.83	13548.66
706.175	13596.56
706.52	13487.87
706.865	13457.81
707.209	13444.25
707.554	13459.39
707.899	13519.96
708.243	13320.19
708.588	13345.04
708.932	13251.49
709.277	13150.7
709.621	13211.94
709.966	13162.68
710.31	13227.31
710.654	13144.6
710.998	13161.09
711.342	13181.66
711.687	13122.9
712.031	13087.42
712.375	12980.08
712.719	13107.76
713.063	13090.81
713.407	13095.11
713.75	13009.69
714.094	13012.62
714.438	12938.28
714.782	12945.96
715.125	12849.24
715.469	12874.77
715.812	12825.96
716.156	12745.29
716.499	12811.73
716.843	12817.15
717.186	12750.94
717.53	12725.63
717.873	12826.87
718.216	12766.08
718.559	12736.02
718.902	12653.54
719.246	12683.37
719.589	12609.7
719.932	12612.86
720.275	12661.9
720.617	12601.34
720.96	12594.1
721.303	12629.13
721.646	12577.61
721.989	12538.74
722.331	12573.99
722.674	12522.69
723.016	12559.3
723.359	12530.83
723.701	12569.47
724.044	12443.6
724.386	12413.77
724.729	12492.41
725.071	12364.51
725.413	12399.76
725.755	12409.25
726.097	12376.93
726.439	12225.3
726.782	12393.66
727.124	12393.43
727.465	12272.98
727.807	12317.5
728.149	12346.88
728.491	12333.77
728.833	12318.4
729.175	12299.87
729.516	12258.29
729.858	12307.33
730.199	12282.25
730.541	12210.84
730.882	12239.76
731.224	12249.25
731.565	12221.46
731.906	12146.43
732.248	12165.64
732.589	12164.51
732.93	12107.56
733.271	12138.75
733.612	12091.52
733.953	12158.18
734.294	12115.47
734.635	12018.3
734.976	12112.76
735.317	12056.72
735.658	12062.37
735.999	12100.11
736.339	12061.91
736.68	11994.12
737.021	12044.74
737.361	12039.09
737.702	12121.57
738.042	12066.89
738.383	11984.85
738.723	12050.62
739.063	12047.23
739.404	12096.49
739.744	12024.85
740.084	11916.38
740.424	12024.4
740.764	11953.22
741.104	11997.06
741.444	11934.91
741.784	11888.13
742.124	11965.65
742.464	11846.1
742.804	11931.75
743.143	11926.1
743.483	11869.83
743.823	11814.92
744.162	11782.6
744.502	11825.76
744.841	11763.39
745.181	11846.33
745.52	11777.18
745.86	11910.51
746.199	11811.07
746.538	11863.28
746.877	11759.55
747.216	11920.45
747.556	11846.55
747.895	11818.53
748.234	11734.01
748.573	11779.66
748.911	11838.64
749.25	11713.9
749.589	11670.29
749.928	11728.14
750.267	11703.28
750.605	11696.5
750.944	11698.76
751.283	11629.61
751.621	11703.28
751.96	11622.83
752.298	11572.44
752.636	11687.69
752.975	11572.21
753.313	11622.83
753.651	11606.79
753.989	11590.29
754.327	11510.97
754.666	11426
755.004	11528.14
755.342	11511.65
755.679	11503.96
756.017	11449.95
756.355	11424.87
756.693	11412.21
757.031	11430.97
757.368	11350.75
757.706	11311.43
758.044	11308.04
758.381	11355.49
758.719	11269.62
759.056	11279.56
759.394	11216.74
759.731	11174.48
760.068	11170.86
760.405	11129.51
760.743	11051.09
761.08	11035.05
761.417	11069.4
761.754	10967.03
762.091	11017.87
762.428	11037.99
762.765	10954.37
763.102	10974.26
763.438	10947.37
763.775	10828.95
764.112	10841.61
764.449	10797.31
764.785	10831.21
765.122	10702.85
765.458	10713.25
765.795	10729.75
766.131	10711.22
766.467	10609.3
766.804	10566.81
767.14	10519.58
767.476	10517.32
767.812	10493.59
768.148	10500.83
768.485	10444.56
768.821	10334.5
769.157	10349.87
769.492	10340.38
769.828	10302.64
770.164	10249.08
770.5	10191.46
770.836	10215.41
771.171	10130.89
771.507	10147.16
771.842	10102.19
772.178	10046.15
772.513	10016.77
772.849	10028.97
773.184	9974.06
773.519	9946.94
773.855	9967.51
774.19	9816.32
774.525	9803.89
774.86	9800.96
775.195	9850.45
775.53	9687.97
775.865	9662.88
776.2	9598.25
776.535	9535.43
776.87	9536.11
777.205	9486.84
777.539	9465.37
777.874	9504.47
778.209	9419.72
778.543	9447.07
778.878	9274.19
779.212	9423.11
779.547	9334.53
779.881	9309.67
780.215	9305.83
780.55	9293.4
780.884	9192.16
781.218	9177.92
781.552	9099.28
781.886	9071.48
782.22	9082.33
782.554	9064.25
782.888	8966.63
783.222	8870.36
783.556	8819.06
783.889	8818.38
784.223	8776.8
784.557	8759.63
784.89	8738.16
785.224	8744.94
785.557	8724.83
785.891	8627.2
786.224	8640.76
786.558	8652.51
786.891	8526.19
787.224	8534.1
787.557	8446.87
787.891	8488.22
788.224	8502.23
788.557	8492.29
788.89	8464.04
789.223	8427.66
789.556	8332.52
789.888	8344.27
790.221	8310.15
790.554	8284.84
790.887	8265.63
791.219	8177.27
791.552	8174.11
791.884	8136.82
792.217	8126.42
792.549	8137.72
792.882	8109.48
793.214	7953.77
793.546	8012.08
793.879	8000.1
794.211	7928.01
794.543	7976.6
794.875	7912.42
795.207	7886.21
795.539	7833.55
795.871	7867.45
796.203	7815.47
796.535	7778.19
796.867	7757.17
797.198	7701.35
797.53	7796.26
797.862	7649.6
798.193	7689.15
798.525	7628.13
798.856	7646.66
799.188	7589.72
799.519	7497.29
799.85	7513.56
800.182	7467.01
800.513	7496.16
800.844	7420.23
801.175	7446.89
801.506	7421.58
801.837	7375.71
802.168	7370.06
802.499	7365.77
802.83	7322.38
803.161	7250.52
803.491	7267.69
803.822	7227.01
804.153	7265.2
804.483	7201.25
804.814	7164.42
805.145	7154.92
805.475	7148.15
805.805	7137.3
806.136	7098.2
806.466	7122.38
806.796	7056.62
807.126	7017.75
807.457	7000.13
807.787	7002.84
808.117	6986.57
808.447	6961.26
808.777	6944.31
809.107	6955.83
809.436	6911.77
809.766	6865.44
810.096	6896.85
810.426	6843.29
810.755	6861.6
811.085	6806.91
811.414	6830.19
811.744	6733.69
812.073	6722.62
812.403	6726.46
812.732	6710.87
813.061	6772.11
813.39	6676.97
813.719	6620.7
814.049	6664.32
814.378	6647.82
814.707	6606.01
815.036	6622.51
815.365	6589.97
815.693	6484.66
816.022	6547.26
816.351	6501.83
816.68	6506.58
817.008	6482.63
817.337	6445.56
817.665	6464.1
817.994	6450.54
818.322	6462.06
818.651	6433.59
818.979	6417.32
819.307	6400.82
819.636	6347.49
819.964	6341.61
820.292	6326.7
820.62	6350.65
820.948	6330.77
821.276	6364.66
821.604	6310.88
821.932	6340.26
822.259	6306.36
822.587	6304.78
822.915	6315.85
823.243	6339.35
823.57	6323.31
823.898	6337.09
824.225	6278.11
824.553	6293.25
824.88	6312.91
825.207	6247.38
825.535	6331.67
825.862	6294.16
826.189	6289.18
826.516	6291.44
826.843	6285.12
827.17	6300.48
827.497	6269.07
827.824	6282.18
828.151	6262.74
828.478	6270.88
828.805	6278.56
829.131	6246.93
829.458	6250.99
829.785	6221.84
830.111	6254.61
830.438	6239.69
830.764	6259.13
831.09	6249.64
831.417	6244.44
831.743	6275.17
832.069	6262.97
832.395	6228.85
832.722	6232.01
833.048	6192.46
833.374	6223.2
833.7	6195.4
834.026	6186.81
834.351	6271.78
834.677	6171.67
835.003	6149.53
835.329	6156.76
835.654	6193.14
835.98	6158.79
836.306	6116.76
836.631	6204.44
836.956	6124.22
837.282	6161.5
837.607	6075.63
837.932	6129.64
838.258	6147.04
838.583	6075.41
838.908	6057.33
839.233	6031.11
839.558	6077.67
839.883	6039.25
840.208	6045.35
840.533	6010.77
840.858	6076.08
841.182	5998.57
841.507	6053.71
841.832	5937.1
842.156	5982.75
842.481	5984.56
842.805	5978.68
843.13	5905.47
843.454	5914.96
843.778	5927.39
844.103	5882.42
844.427	5912.47
844.751	5898.46
845.075	5831.57
845.399	5847.39
845.723	5849.87
846.047	5829.76
846.371	5731.46
846.695	5794.96
847.019	5731.69
847.343	5697.56
847.666	5636.77
847.99	5682.65
848.313	5675.42
848.637	5646.26
848.96	5591.35
849.284	5589.32
849.607	5554.97
849.931	5521.07
850.254	5514.29
850.577	5474.97
850.9	5480.17
851.223	5513.39
851.546	5445.82
851.869	5403.11
852.192	5388.42
852.515	5361.07
852.838	5359.04
853.161	5377.8
853.483	5278.59
853.806	5354.07
854.129	5261.19
854.451	5266.16
854.774	5234.52
855.096	5239.27
855.419	5222.32
855.741	5234.52
856.063	5232.26
856.385	5209.89
856.708	5182.1
857.03	5213.06
857.352	5159.05
857.674	5135.09
857.996	5098.71
858.318	5109.78
858.64	5137.12
858.961	5070.23
859.283	5094.64
859.605	5041.31
859.926	5028.65
860.248	4977.58
860.57	4960.41
860.891	4992.27
861.212	4964.25
861.534	5025.94
861.855	4964.93
862.176	4961.31
862.498	4990.91
862.819	4951.14
863.14	4930.58
863.461	4933.29
863.782	4890.13
864.103	4890.8
864.424	4893.52
864.745	4878.37
865.065	4911.82
865.386	4848.54
865.707	4856
866.027	4877.92
866.348	4866.85
866.668	4816
866.989	4794.31
867.309	4839.05
867.63	4831.37
867.95	4817.59
868.27	4757.02
868.59	4842.67
868.91	4783.69
869.23	4820.75
869.55	4788.21
869.87	4779.62
870.19	4733.75
870.51	4719.96
870.83	4784.37
871.15	4727.87
871.469	4726.06
871.789	4732.84
872.109	4716.34
872.428	4691.03
872.748	4735.33
873.067	4682.67
873.386	4713.63
873.706	4713.63
874.025	4711.6
874.344	4685.16
874.663	4738.72
874.982	4673.86
875.301	4690.13
875.62	4668.21
875.939	4651.49
876.258	4674.09
876.577	4604.71
876.896	4660.08
877.214	4611.49
877.533	4595.44
877.852	4636.35
878.17	4590.47
878.489	4629.12
878.807	4576.91
879.125	4592.96
879.444	4596.57
879.762	4571.26
880.08	4587.08
880.398	4528.55
880.716	4548.89
881.034	4549.34
881.352	4578.72
881.67	4526.52
881.988	4528.78
882.306	4502.34
882.624	4523.58
882.941	4479.06
883.259	4465.96
883.577	4478.61
883.894	4467.09
884.212	4460.08
884.529	4465.96
884.846	4463.24
885.164	4442.45
885.481	4395
885.798	4427.54
886.115	4405.84
886.432	4397.48
886.75	4384.15
887.067	4400.65
887.383	4361.55
887.7	4329.91
888.017	4347.99
888.334	4378.95
888.651	4339.86
888.967	4361.1
889.284	4311.16
889.6	4329.46
889.917	4284.04
890.233	4272.51
890.55	4259.86
890.866	4245.4
891.182	4268.67
891.498	4246.53
891.815	4253.08
892.131	4213.08
892.447	4216.25
892.763	4172.4
893.079	4191.39
893.395	4189.81
893.71	4180.54
894.026	4204.27
894.342	4101.22
894.657	4090.6
894.973	4096.7
895.289	4110.26
895.604	4148
895.92	4104.61
896.235	4027.32
896.55	4080.66
896.865	4074.1
897.181	4021.22
897.496	4082.92
897.811	4029.81
898.126	4037.49
898.441	4024.84
898.756	3994.78
899.071	3989.81
899.386	3991.17
899.7	3960.66
900.015	3962.69
900.33	3926.76
900.644	3924.28
900.959	3911.39
901.273	3899.42
901.588	3868.68
901.902	3840.66
902.216	3837.5
902.531	3851.51
902.845	3848.12
903.159	3817.39
903.473	3812.19
903.787	3801.11
904.101	3766.31
904.415	3798.18
904.729	3763.83
905.042	3743.94
905.356	3741.46
905.67	3746.43
905.984	3743.72
906.297	3741
906.611	3725.18
906.924	3632.76
907.237	3682.25
907.551	3653.77
907.864	3654.68
908.177	3664.62
908.491	3669.37
908.804	3594.11
909.117	3657.16
909.43	3612.87
909.743	3605.41
910.056	3557.05
910.368	3606.09
910.681	3570.39
910.994	3509.37
911.307	3534.23
911.619	3518.18
911.932	3520.44
912.244	3479.32
912.557	3473.89
912.869	3476.6
913.181	3477.28
913.494	3427.11
913.806	3432.31
914.118	3394.57
914.43	3432.54
914.742	3349.15
915.054	3365.65
915.366	3357.28
915.678	3348.47
915.99	3388.92
916.302	3333.1
916.613	3340.79
916.925	3352.76
917.236	3314.57
917.548	3289.04
917.859	3284.97
918.171	3278.87
918.482	3236.16
918.794	3209.94
919.105	3198.19
919.416	3232.32
919.727	3232.32
920.038	3206.78
920.349	3157.97
920.66	3185.31
920.971	3166.33
921.282	3174.46
921.593	3143.73
921.903	3089.5
922.214	3133.56
922.525	3112.77
922.835	3094.69
923.146	3051.76
923.456	3061.93
923.767	3080.46
924.077	3061.02
924.387	3048.14
924.697	3053.34
925.008	3018.99
925.318	3010.4
925.628	3014.92
925.938	2978.09
926.248	2957.3
926.558	2919.78
926.867	2956.17
927.177	2963.17
927.487	2940.8
927.796	2918.43
928.106	2917.52
928.416	2907.35
928.725	2921.82
929.034	2870.97
929.344	2886.34
929.653	2895.38
929.962	2845.89
930.271	2810.86
930.581	2833
930.89	2813.12
931.199	2812.67
931.508	2748.71
931.817	2760.01
932.125	2802.27
932.434	2755.04
932.743	2743.52
933.051	2711.88
933.36	2758.88
933.669	2741.26
933.977	2700.8
934.286	2712.33
934.594	2678.88
934.902	2690.41
935.21	2670.07
935.519	2669.85
935.827	2668.72
936.135	2644.08
936.443	2649.05
936.751	2609.28
937.059	2653.35
937.367	2623.52
937.674	2602.05
937.982	2564.76
938.29	2602.5
938.597	2603.86
938.905	2548.49
939.213	2534.93
939.52	2537.87
939.827	2543.97
940.135	2541.49
940.442	2542.16
940.749	2530.64
941.056	2502.39
941.363	2464.88
941.67	2510.98
941.977	2488.61
942.284	2471.21
942.591	2459.91
942.898	2468.27
943.205	2454.03
943.511	2463.3
943.818	2444.31
944.125	2395.95
944.431	2410.19
944.738	2344.66
945.044	2387.82
945.35	2397.54
945.657	2388.95
945.963	2367.93
946.269	2332
946.575	2356.41
946.881	2355.28
947.187	2323.19
947.493	2298.78
947.799	2311.44
948.105	2317.54
948.41	2240.93
948.716	2252.68
949.022	2266.01
949.327	2260.59
949.633	2241.16
949.938	2262.4
950.244	2267.6
950.549	2227.6
950.854	2201.61
951.16	2227.82
951.465	2226.47
951.77	2219.91
952.075	2215.85
952.38	2196.86
952.685	2180.59
952.99	2165.68
953.294	2150.76
953.599	2165.23
953.904	2151.89
954.209	2142.85
954.513	2130.88
954.818	2139.24
955.122	2106.47
955.426	2110.99
955.731	2109.63
956.035	2123.42
956.339	2104.44
956.643	2090.2
956.948	2045.23
957.252	2077.09
957.556	2057.88
957.86	2061.27
958.163	2047.04
958.467	2041.61
958.771	2027.6
959.075	2026.7
959.378	2027.38
959.682	2026.02
959.985	2019.69
960.289	1982.63
960.592	2005.91
960.896	1984.67
961.199	1970.88
961.502	1988.96
961.805	1956.19
962.108	1978.56
962.411	1957.1
962.714	1930.88
963.017	1925.01
963.32	1941.5
963.623	1942.41
963.926	1912.8
964.228	1882.07
964.531	1895.63
964.833	1886.14
965.136	1870.54
965.438	1878.45
965.741	1869.64
966.043	1864.89
966.345	1870.77
966.648	1858.11
966.95	1841.17
967.252	1832.35
967.554	1830.55
967.856	1806.36
968.158	1805.69
968.46	1828.06
968.761	1822.18
969.063	1790.32
969.365	1789.19
969.666	1804.33
969.968	1790.32
970.269	1774.05
970.571	1768.85
970.872	1732.47
971.174	1744.67
971.475	1764.33
971.776	1740.6
972.077	1759.36
972.378	1731.11
972.679	1710.32
972.98	1698.8
973.281	1717.55
973.582	1732.02
973.883	1702.86
974.183	1692.02
974.484	1671.23
974.785	1686.14
975.085	1685.92
975.386	1682.07
975.686	1674.84
975.986	1609.76
976.287	1650.21
976.587	1667.16
976.887	1628.52
977.187	1607.73
977.487	1602.08
977.787	1605.24
978.087	1600.72
978.387	1613.38
978.687	1599.59
978.987	1579.25
979.286	1617.44
979.586	1574.51
979.885	1578.12
980.185	1590.78
980.484	1583.55
980.784	1532.25
981.083	1565.69
981.382	1581.74
981.682	1555.3
981.981	1533.38
982.28	1535.19
982.579	1544.9
982.878	1538.12
983.177	1496.32
983.475	1509.2
983.774	1514.4
984.073	1515.3
984.372	1500.16
984.67	1501.97
984.969	1476.88
985.267	1485.24
985.566	1450.44
985.864	1482.31
986.162	1473.49
986.461	1465.81
986.759	1457.45
987.057	1452.93
987.355	1452.7
987.653	1436.43
987.951	1401.86
988.249	1410.9
988.547	1434.17
988.844	1396.88
989.142	1431.69
989.44	1411.57
989.737	1406.83
990.035	1351.24
990.332	1384.91
990.63	1382.42
990.927	1382.87
991.224	1347.85
991.521	1371.57
991.819	1334.06
992.116	1365.7
992.413	1358.92
992.71	1362.53
993.006	1328.19
993.303	1325.47
993.6	1339.26
993.897	1328.64
994.193	1330.67
994.49	1315.98
994.787	1305.36
995.083	1315.53
995.379	1308.3
995.676	1285.25
995.972	1296.55
996.268	1269.88
996.565	1289.77
996.861	1248.19
997.157	1269.43
997.453	1273.95
997.749	1265.36
998.044	1243.22
998.34	1201.18
998.636	1249.32
998.932	1228.3
999.227	1232.37
999.523	1233.27
999.818	1240.96
1000.114	1236.66
1000.409	1227.4
1000.704	1187.85
1001	1184.69
1001.295	1197.79
1001.59	1179.71
1001.885	1172.26
1002.18	1167.06
1002.475	1146.04
1002.77	1170
1003.065	1165.93
1003.359	1156.44
1003.654	1158.7
1003.949	1168.19
1004.243	1137.91
1004.538	1146.95
1004.832	1157.79
1005.127	1130
1005.421	1145.59
1005.715	1107.63
1006.009	1102.43
1006.304	1116.67
1006.598	1082.99
1006.892	1082.77
1007.186	1092.49
1007.48	1076.44
1007.773	1063.56
1008.067	1087.29
1008.361	1086.16
1008.655	1079.15
1008.948	1039.15
1009.242	1059.27
1009.535	1062.66
1009.829	1046.61
1010.122	1052.94
1010.415	1009.1
1010.708	1039.38
1011.001	1023.56
1011.295	1061.53
1011.588	1019.72
1011.881	1009.1
1012.173	1024.46
1012.466	1012.71
1012.759	1010.45
1013.052	994.41
1013.344	995.31
1013.637	980.4
1013.93	978.59
1014.222	975.43
1014.514	951.92
1014.807	959.61
1015.099	954.18
1015.391	924.35
1015.683	947.86
1015.976	952.38
1016.268	944.69
1016.56	926.84
1016.851	918.03
1017.143	915.54
1017.435	931.36
1017.727	939.04
1018.018	904.47
1018.31	914.64
1018.602	901.08
1018.893	896.78
1019.185	897.46
1019.476	879.61
1019.767	866.95
1020.058	866.05
1020.35	880.74
1020.641	859.05
1020.932	871.7
1021.223	856.33
1021.514	864.92
1021.804	835.54
1022.095	819.27
1022.386	826.05
1022.677	841.87
1022.967	829.89
1023.258	813.4
1023.548	832.61
1023.839	832.38
1024.129	810.46
1024.419	848.42
1024.709	804.81
1025	798.48
1025.29	800.74
1025.58	805.26
1025.87	803.23
1026.16	806.17
1026.449	791.93
1026.739	776.56
1027.029	780.18
1027.319	765.71
1027.608	780.4
1027.898	787.18
1028.187	764.58
1028.477	743.79
1028.766	749.22
1029.055	769.56
1029.344	754.42
1029.634	750.12
1029.923	761.19
1030.212	734.98
1030.501	732.72
1030.79	714.42
1031.078	711.7
1031.367	734.08
1031.656	689.33
1031.945	694.53
1032.233	718.71
1032.522	717.13
1032.81	724.13
1033.099	705.83
1033.387	687.52
1033.675	700.41
1033.963	679.84
1034.251	687.07
1034.54	680.74
1034.828	670.12
1035.116	679.16
1035.403	676.9
1035.691	691.14
1035.979	663.34
1036.267	662.21
1036.554	678.26
1036.842	645.94
1037.129	645.04
1037.417	664.47
1037.704	656.11
1037.992	670.8
1038.279	624.48
1038.566	646.17
1038.853	646.17
1039.14	646.17
