Data from tablewood_dark_bookshelf_FLMS001491_00087.txt Node
Date: Wed Feb 08 14:15:50 GMT 2017
User: dcchb
Spectrometer: FLMS00149
Trigger mode: 0
Integration Time (sec): 2.000000E-2
Scans to average: 10
Electric dark correction enabled: true
Nonlinearity correction enabled: false
Boxcar width: 0
XAxis mode: Wavelengths
Number of Pixels in Spectrum: 2048
>>>>>Begin Spectral Data<<<<<
341.393	-14.96
341.776	-14.96
342.16	-14.96
342.543	-59.7
342.927	-60.83
343.31	-66.26
343.693	-72.58
344.077	-80.72
344.46	-43.21
344.843	-46.37
345.226	-41.17
345.61	-19.7
345.993	-27.84
346.376	-4.56
346.759	5.16
347.142	30.01
347.525	41.09
347.908	54.19
348.291	68.2
348.674	103.68
349.057	100.07
349.44	103.23
349.823	168.54
350.206	150.69
350.588	189.11
350.971	207.18
351.354	220.74
351.737	206.28
352.119	250.35
352.502	254.64
352.884	265.04
353.267	267.3
353.65	298.25
354.032	272.72
354.414	292.61
354.797	301.64
355.179	321.53
355.562	329.21
355.944	328.31
356.326	343.45
356.709	333.96
357.091	324.02
357.473	331.25
357.855	344.36
358.238	328.54
358.62	347.75
359.002	333.28
359.384	343.9
359.766	321.53
360.148	338.25
360.53	335.32
360.912	324.24
361.294	333.73
361.676	333.06
362.057	345.26
362.439	338.71
362.821	323.79
363.203	322.21
363.584	328.31
363.966	326.5
364.348	334.19
364.729	317.24
365.111	307.75
365.493	322.66
365.874	303
366.256	335.99
366.637	325.15
367.019	308.2
367.4	323.56
367.781	311.59
368.163	313.4
368.544	306.62
368.925	319.27
369.306	326.5
369.688	329.67
370.069	347.29
370.45	319.5
370.831	317.01
371.212	333.51
371.593	298.93
371.974	348.65
372.355	310.23
372.736	333.06
373.117	303.23
373.498	324.47
373.879	327.18
374.26	328.08
374.641	313.62
375.021	322.21
375.402	332.6
375.783	315.88
376.163	319.27
376.544	353.85
376.925	317.24
377.305	338.71
377.686	330.12
378.066	341.42
378.447	335.99
378.827	355.2
379.208	341.87
379.588	319.95
379.968	343.45
380.349	359.5
380.729	366.95
381.109	350.68
381.489	373.28
381.87	349.33
382.25	350.46
382.63	364.92
383.01	376.22
383.39	360.85
383.77	380.29
384.15	378.93
384.53	377.35
384.91	381.19
385.29	397.46
385.67	398.37
386.049	389.1
386.429	394.98
386.809	383
387.189	391.36
387.568	385.26
387.948	377.35
388.328	401.08
388.707	396.56
389.087	409.21
389.466	406.05
389.846	405.82
390.225	412.38
390.605	413.96
390.984	410.79
391.363	421.64
391.743	424.58
392.122	423.68
392.501	432.26
392.881	431.58
393.26	417.35
393.639	433.62
394.018	449.21
394.397	452.83
394.776	451.47
395.155	443.56
395.534	435.43
395.913	447.86
396.292	460.96
396.671	467.74
397.05	460.28
397.429	453.28
397.808	458.48
398.186	449.21
398.565	455.31
398.944	471.36
399.323	480.62
399.701	461.41
400.08	470.91
400.458	483.11
400.837	475.88
401.215	480.4
401.594	488.31
401.972	510.9
402.351	498.25
402.729	498.02
403.107	499.83
403.486	490.79
403.864	509.77
404.242	518.14
404.62	519.27
404.999	524.24
405.377	514.29
405.755	521.75
406.133	539.15
406.511	528.76
406.889	544.12
407.267	539.6
407.645	534.18
408.023	548.64
408.401	568.3
408.779	537.8
409.156	569.66
409.534	568.3
409.912	598.81
410.29	569.43
410.667	582.09
411.045	592.94
411.422	591.58
411.8	578.47
412.178	594.07
412.555	619.15
412.933	604.01
413.31	626.61
413.687	643.1
414.065	620.51
414.442	613.95
414.819	644.23
415.197	662.09
415.574	643.78
415.951	666.83
416.328	642.88
416.705	664.8
417.082	688.98
417.46	688.3
417.837	674.97
418.214	714.29
418.591	687.4
418.967	703.67
419.344	707.51
419.721	712.48
420.098	714.74
420.475	737.11
420.852	717
421.228	738.47
421.605	742.76
421.982	754.97
422.358	728.98
422.735	769.43
423.111	746.15
423.488	767.62
423.864	752.71
424.241	787.51
424.617	771.01
424.994	793.61
425.37	796.09
425.746	800.39
426.123	798.58
426.499	806.94
426.875	825.92
427.251	853.72
427.627	855.75
428.003	863.21
428.379	871.35
428.756	878.58
429.132	883.32
429.507	896.66
429.883	895.3
430.259	925.81
430.635	914.96
431.011	942.98
431.387	941.85
431.763	975.75
432.138	980.04
432.514	961.74
432.89	967.62
433.265	980.72
433.641	986.82
434.016	1003.55
434.392	1028.86
434.767	1031.57
435.143	1035.41
435.518	1070.44
435.894	1074.05
436.269	1091.91
436.644	1093.94
437.02	1096.88
437.395	1100.04
437.77	1086.71
438.145	1122.41
438.52	1116.09
438.895	1156.54
439.271	1148.85
439.646	1165.12
440.021	1168.29
440.395	1200.6
440.77	1154.96
441.145	1183.88
441.52	1212.58
441.895	1224.33
442.27	1208.51
442.645	1207.61
443.019	1224.11
443.394	1227.5
443.769	1240.38
444.143	1227.72
444.518	1281.05
444.892	1258.91
445.267	1261.39
445.641	1288.29
446.016	1277.44
446.39	1283.54
446.764	1323.76
447.139	1303.88
447.513	1293.93
447.887	1322.41
448.262	1333.03
448.636	1349.07
449.01	1370.77
449.384	1359.92
449.758	1380.71
450.132	1392.01
450.506	1373.93
450.88	1393.59
451.254	1425.91
451.628	1415.29
452.002	1452.12
452.376	1455.96
452.75	1481.95
453.123	1485.34
453.497	1497.32
453.871	1500.26
454.244	1515.17
454.618	1563.53
454.992	1575.06
455.365	1597.2
455.739	1587.49
456.112	1611.44
456.486	1639.24
456.859	1628.16
457.232	1672.46
457.606	1679.46
457.979	1678.33
458.352	1709.97
458.725	1725.79
459.099	1752.23
459.472	1774.6
459.845	1794.71
460.218	1801.49
460.591	1830.42
460.964	1838.55
461.337	1873.81
461.71	1893.69
462.083	1913.58
462.456	1940.02
462.829	1944.77
463.201	1950.19
463.574	2001.71
463.947	1981.15
464.32	2021.15
464.692	2065.21
465.065	2072.45
465.438	2119.45
465.81	2139.79
466.183	2138.88
466.555	2207.58
466.928	2212.33
467.3	2225.44
467.672	2269.5
468.045	2318.54
468.417	2316.96
468.789	2325.77
469.161	2357.18
469.534	2373.91
469.906	2445.32
470.278	2425.43
470.65	2497.52
471.022	2501.81
471.394	2554.24
471.766	2591.53
472.138	2592.43
472.51	2690.28
472.882	2675.59
473.253	2716.5
473.625	2807.57
473.997	2854.8
474.369	2836.27
474.74	2896.38
475.112	2907.9
475.484	2965.76
475.855	3002.14
476.227	3040.1
476.598	3115.36
476.97	3177.28
477.341	3204.39
477.713	3248.91
478.084	3281.23
478.455	3387.21
478.827	3415.01
479.198	3455.91
479.569	3453.65
479.94	3555.34
480.311	3620.65
480.682	3667.43
481.053	3735.23
481.424	3806.86
481.795	3851.16
482.166	3926.18
482.537	3968.89
482.908	4039.63
483.279	4100.19
483.65	4155.33
484.021	4237.81
484.391	4291.82
484.762	4263.57
485.133	4303.12
485.503	4409.79
485.874	4504.25
486.244	4537.01
486.615	4639.38
486.985	4709.44
487.356	4753.73
487.726	4763
488.097	4881.64
488.467	4894.74
488.837	4988.98
489.207	5056.77
489.578	5118.24
489.948	5193.95
490.318	5207.05
490.688	5284.34
491.058	5330.21
491.428	5416.54
491.798	5518.46
492.168	5608.85
492.538	5625.35
492.908	5632.35
493.278	5713.25
493.648	5723.42
494.017	5782.4
494.387	5851.56
494.757	5910.08
495.126	5970.2
495.496	6024.21
495.866	6008.39
496.235	6075.96
496.605	6115.28
496.974	6195.73
497.344	6226.69
497.713	6275.5
498.082	6336.97
498.452	6400.24
498.821	6403.41
499.19	6437.75
499.559	6522.27
499.928	6599.78
500.298	6619.9
500.667	6691.99
501.036	6688.37
501.405	6791.42
501.774	6760.68
502.143	6856.5
502.512	6860.12
502.88	6953.22
503.249	6926.33
503.618	6980.79
503.987	7050.62
504.356	7082.94
504.724	7159.09
505.093	7164.52
505.462	7222.37
505.83	7249.03
506.199	7197.96
506.567	7406.99
506.936	7455.81
507.304	7510.49
507.672	7521.79
508.041	7620.55
508.409	7637.04
508.777	7730.83
509.145	7818.74
509.514	7721.34
509.882	7817.83
510.25	7858.96
510.618	7933.08
510.986	7924.95
511.354	8070.25
511.722	8091.27
512.09	8214.88
512.458	8189.12
512.826	8344.6
513.193	8372.39
513.561	8341.43
513.929	8451.03
514.297	8542.33
514.664	8534.42
515.032	8579.62
515.4	8653.74
515.767	8750.24
516.135	8774.42
516.502	8770.12
516.869	8927.63
517.237	8940.74
517.604	8924.02
517.972	9020.74
518.339	9127.63
518.706	9172.6
519.073	9188.19
519.44	9253.5
519.808	9345.93
520.175	9425.25
520.542	9585.92
520.909	9634.05
521.276	9577.56
521.643	9700.72
522.009	9704.11
522.376	9823.65
522.743	9860.26
523.11	9906.59
523.477	10050.77
523.843	10146.13
524.21	10204.21
524.577	10321.49
524.943	10385.67
525.31	10365.11
525.676	10613.92
526.043	10582.96
526.409	10656.85
526.776	10781.37
527.142	10736.4
527.508	10821.82
527.874	11024.3
528.241	11080.8
528.607	11060.01
528.973	11193.34
529.339	11227.01
529.705	11352.65
530.071	11376.16
530.437	11379.09
530.803	11508.13
531.169	11646.88
531.535	11582.48
531.901	11639.88
532.267	11751.06
532.632	11777.5
532.998	11814.11
533.364	11920.77
533.73	11945.18
534.095	11994.22
534.461	12085.52
534.826	12124.38
535.192	12175.46
535.557	12330.71
535.923	12281.67
536.288	12364.6
536.653	12315.79
537.019	12383.13
537.384	12526.18
537.749	12529.8
538.114	12574.09
538.479	12603.02
538.845	12692.28
539.21	12692.28
539.575	12744.26
539.94	12806.85
540.305	12915.32
540.67	12893.63
541.034	12973.63
541.399	13022.89
541.764	13028.54
542.129	13083
542.494	13073.51
542.858	13184.7
543.223	13220.17
543.587	13215.88
543.952	13234.19
544.316	13379.49
544.681	13274.41
545.045	13403
545.41	13454.97
545.774	13463.56
546.138	13580.62
546.503	13573.61
546.867	13534.52
547.231	13671.46
547.595	13760.05
547.959	13777.22
548.324	13799.82
548.688	13913.26
549.052	13993.49
549.416	13963.66
549.779	14042.98
550.143	14065.35
550.507	14096.99
550.871	14127.5
551.235	14193.03
551.599	14294.5
551.962	14285.23
552.326	14373.37
552.689	14499.46
553.053	14408.17
553.417	14467.6
553.78	14658.56
554.143	14577.88
554.507	14743.52
554.87	14805.67
555.234	14874.37
555.597	14948.72
555.96	14925.89
556.323	15023.97
556.686	14980.13
557.05	15138.54
557.413	15160.24
557.776	15215.15
558.139	15349.38
558.502	15350.74
558.865	15390.06
559.228	15516.39
559.59	15608.81
559.953	15599.32
560.316	15802.25
560.679	15822.82
561.041	15863.27
561.404	15998.63
561.767	16038.18
562.129	16115.69
562.492	16211.51
562.854	16230.94
563.217	16189.59
563.579	16334.67
563.941	16467.1
564.304	16528.56
564.666	16569.92
565.028	16693.3
565.39	16718.16
565.753	16924.03
566.115	16927.42
566.477	17010.58
566.839	16984.14
567.201	17185.95
567.563	17200.18
567.925	17337.58
568.287	17313.4
568.648	17445.37
569.01	17499.84
569.372	17666.39
569.734	17547.52
570.095	17760.39
570.457	17793.61
570.819	17886.94
571.18	17896.44
571.542	17976.89
571.903	18030.67
572.265	18025.02
572.626	18209.2
572.987	18244
573.349	18261.62
573.71	18366.03
574.071	18419.13
574.432	18480.15
574.794	18619.81
575.155	18662.29
575.516	18674.27
575.877	18800.59
576.238	18796.07
576.599	18875.85
576.96	18865.68
577.32	19015.28
577.681	19054.15
578.042	19161.04
578.403	19107.7
578.763	19112.9
579.124	19160.36
579.485	19281.71
579.845	19461.37
580.206	19279.9
580.566	19358.32
580.927	19347.02
581.287	19508.6
581.648	19434.7
582.008	19577.3
582.368	19555.15
582.728	19557.41
583.089	19615.49
583.449	19699.33
583.809	19746.11
584.169	19704.52
584.529	19666.11
584.889	19840.57
585.249	19732.55
585.609	19655.94
585.969	19901.81
586.329	19680.8
586.688	19897.51
587.048	19858.42
587.408	19874.92
587.768	19979.32
588.127	20003.95
588.487	19939.32
588.846	20119.88
589.206	19986.55
589.565	20077.85
589.925	20165.76
590.284	20014.57
590.643	20087.57
591.003	20097.96
591.362	20229.26
591.721	20260.22
592.08	20243.27
592.44	20275.13
592.799	20255.47
593.158	20278.52
593.517	20424.73
593.876	20361.46
594.235	20305.86
594.593	20314
594.952	20516.25
595.311	20456.82
595.67	20354.45
596.029	20495.46
596.387	20606.87
596.746	20655.46
597.104	20507.44
597.463	20548.57
597.822	20588.79
598.18	20673.54
598.538	20591.96
598.897	20731.39
599.255	20573.2
599.613	20940.2
599.972	20746.08
600.33	20855.91
600.688	20765.97
601.046	20895.91
601.404	20876.47
601.762	20903.36
602.12	20892.06
602.478	21008.9
602.836	21043.47
603.194	20908.11
603.552	21005.06
603.91	20928.45
604.268	21032.4
604.625	20999.86
604.983	21105.39
605.341	21191.49
605.698	21109.01
606.056	21245.5
606.413	21108.78
606.771	21254.09
607.128	21285.05
607.485	21159.63
607.843	21223.81
608.2	21310.13
608.557	21494.08
608.914	21491.37
609.272	21603.01
609.629	21519.17
609.986	21619.73
610.343	21458.6
610.7	21680.52
611.057	21657.24
611.414	21658.15
611.771	21725.49
612.127	21794.41
612.484	21648.65
612.841	21804.58
613.198	21708.54
613.554	21828.08
613.911	21906.05
614.267	22022.66
614.624	21910.57
614.98	21955.54
615.337	22094.29
615.693	22012.71
616.05	21943.34
616.406	22160.96
616.762	22089.55
617.118	22052.03
617.475	22067.63
617.831	22185.81
618.187	22241.18
618.543	22213.84
618.899	22218.81
619.255	22184.69
619.611	22221.29
619.967	22323.44
620.323	22316.43
620.678	22208.41
621.034	22188.07
621.39	22299.71
621.746	22133.61
622.101	22463.32
622.457	22240.73
622.812	22321.63
623.168	22408.86
623.523	22390.1
623.879	22411.8
624.234	22401.63
624.589	22303.78
624.945	22398.46
625.3	22392.14
625.655	22407.73
626.01	22379.93
626.365	22395.75
626.72	22409.99
627.075	22252.25
627.43	22458.12
627.785	22343.78
628.14	22357.34
628.495	22357.79
628.85	22305.36
629.205	22329.54
629.559	22411.57
629.914	22347.62
630.269	22280.95
630.623	22140.62
630.978	22161.18
631.332	22308.52
631.687	22339.26
632.041	22266.72
632.396	22275.3
632.75	22247.51
633.104	22202.99
633.459	22177.68
633.813	21970.23
634.167	22047.97
634.521	22073.28
634.875	22013.39
635.229	22076.44
635.583	22011.13
635.937	21945.14
636.291	21951.24
636.645	22083.67
636.999	21818.59
637.352	21964.35
637.706	21810.01
638.06	21855.65
638.413	21797.35
638.767	21721.42
639.121	21868.08
639.474	21666.28
639.828	21687.07
640.181	21736.79
640.534	21680.52
640.888	21628.54
641.241	21544.93
641.594	21598.94
641.947	21622.21
642.301	21566.17
642.654	21618.82
643.007	21674.19
643.36	21547.87
643.713	21534.98
644.066	21562.1
644.419	21452.95
644.771	21262
645.124	21087.09
645.477	21056.58
645.83	20967.77
646.182	20797.6
646.535	20860.2
646.888	20803.03
647.24	20596.25
647.593	20745.85
647.945	20611.39
648.298	20613.65
648.65	20642.13
649.002	20576.14
649.355	20565.29
649.707	20658.17
650.059	20778.39
650.411	21000.76
650.763	21072.17
651.115	21277.14
651.467	21127.09
651.819	21120.98
652.171	21001.67
652.523	20975.45
652.875	21030.14
653.227	20838.51
653.578	21078.05
653.93	21112.62
654.282	21010.48
654.633	20871.73
654.985	20873.99
655.337	20887.32
655.688	20881.44
656.039	20946.75
656.391	20886.64
656.742	20815.91
657.094	20770.26
657.445	20922.8
657.796	20869.01
658.147	20900.2
658.498	20942.46
658.849	20894.32
659.2	20870.37
659.551	20876.92
659.902	20869.47
660.253	20770.03
660.604	20843.48
660.955	20740.88
661.306	20753.08
661.656	20808
662.007	20756.02
662.358	20803.48
662.708	20809.58
663.059	20735.23
663.409	20642.13
663.76	20770.26
664.11	20755.12
664.461	20738.62
664.811	20779.52
665.161	20826.3
665.511	20736.59
665.862	20724.38
666.212	20727.1
666.562	20798.73
666.912	20746.76
667.262	20706.53
667.612	20727.32
667.962	20706.08
668.312	20620.21
668.662	20787.21
669.011	20745.17
669.361	20649.36
669.711	20548.57
670.06	20714.44
670.41	20720.32
670.76	20619.3
671.109	20612.97
671.459	20663.14
671.808	20607.55
672.157	20556.25
672.507	20563.94
672.856	20558.06
673.205	20516.93
673.554	20676.25
673.904	20518.29
674.253	20570.72
674.602	20559.42
674.951	20281.01
675.3	20111.75
675.649	20372.08
675.998	20459.31
676.346	20414.79
676.695	20485.29
677.044	20323.04
677.393	20358.07
677.741	20358.97
678.09	20378.86
678.438	20345.19
678.787	20373.66
679.135	20407.56
679.484	20302.47
679.832	20280.55
680.181	20250.72
680.529	20201.01
680.877	20222.48
681.225	20141.35
681.573	20239.2
681.922	20039.43
682.27	20043.72
682.618	20109.03
682.966	20042.82
683.314	20011.18
683.661	19880.11
684.009	19885.08
684.357	19837.18
684.705	19870.17
685.053	19941.13
685.4	19896.38
685.748	19676.73
686.095	19736.84
686.443	19692.1
686.79	19594.47
687.138	19588.6
687.485	19604.64
687.832	19520.12
688.18	19587.69
688.527	19478.32
688.874	19502.04
689.221	19547.47
689.568	19452.33
689.915	19339.34
690.262	19409.84
690.609	19383.85
690.956	19231.77
691.303	19274.48
691.65	19117.42
691.997	19085.33
692.344	19088.5
692.69	18966.46
693.037	18967.37
693.383	18886.47
693.73	18871.1
694.077	18788.39
694.423	18762.18
694.769	18738.67
695.116	18717.66
695.462	18633.59
695.808	18416.42
696.155	18672.91
696.501	18400.6
696.847	18541.17
697.193	18248.07
697.539	18406.03
697.885	18247.16
698.231	18161.29
698.577	18109.09
698.923	18090.78
699.269	18050.56
699.614	18056.66
699.96	18098.92
700.306	18074.74
700.651	17940.95
700.997	17880.39
701.342	17851.92
701.688	17765.59
702.033	17699.15
702.379	17737.57
702.724	17665.48
703.069	17704.35
703.415	17404.47
703.76	17505.26
704.105	17530.8
704.45	17459.61
704.795	17316.79
705.14	17409.9
705.485	17282.22
705.83	17318.6
706.175	17340.74
706.52	17164.93
706.865	17275.21
707.209	17158.6
707.554	17051.49
707.899	17154.76
708.243	17076.8
708.588	16968.1
708.932	16866.63
709.277	16844.49
709.621	16859.4
709.966	16715.22
710.31	16856.92
710.654	16588
710.998	16747.77
711.342	16611.5
711.687	16614.44
712.031	16557.94
712.375	16608.11
712.719	16540.54
713.063	16465.06
713.407	16576.92
713.75	16460.32
714.094	16503.48
714.438	16351.84
714.782	16396.59
715.125	16409.7
715.469	16369.24
715.812	16261.9
716.156	16065.07
716.499	16220.1
716.843	16214.9
717.186	16156.82
717.53	16185.07
717.873	16259.87
718.216	16103.94
718.559	16054.9
718.902	15972.19
719.246	15964.74
719.589	15920.67
719.932	15850.84
720.275	15989.14
720.617	15930.84
720.96	15883.16
721.303	15803.38
721.646	15811.75
721.989	15806.32
722.331	15886.77
722.674	15708.92
723.016	15799.32
723.359	15747.11
723.701	15833.21
724.044	15552.77
724.386	15553.22
724.729	15639.55
725.071	15613.56
725.413	15510.51
725.755	15606.1
726.097	15546.89
726.439	15502.83
726.782	15496.73
727.124	15548.25
727.465	15377.18
727.807	15437.97
728.149	15416.95
728.491	15345.09
728.833	15409.5
729.175	15355.94
729.516	15306
729.858	15319.78
730.199	15312.1
730.541	15301.25
730.882	15287.47
731.224	15360.23
731.565	15188.26
731.906	15245.43
732.248	15198.2
732.589	15162.04
732.93	15122.27
733.271	15216.96
733.612	15170.18
733.953	15171.31
734.294	15099
734.635	15165.43
734.976	15235.49
735.317	15094.02
735.658	15077.53
735.999	15058.77
736.339	14957.08
736.68	15034.82
737.021	14988.94
737.361	14880.92
737.702	14943.07
738.042	14999.34
738.383	14814.94
738.723	14966.34
739.063	14958.89
739.404	14963.86
739.744	14945.1
740.084	14873.92
740.424	14837.08
740.764	14866.01
741.104	14922.73
741.444	14767.93
741.784	14752.34
742.124	14759.34
742.464	14751.43
742.804	14717.08
743.143	14731.32
743.483	14731.1
743.823	14690.87
744.162	14700.59
744.502	14713.24
744.841	14579.91
745.181	14762.28
745.52	14562.06
745.86	14688.16
746.199	14631.89
746.538	14595.73
746.877	14542.4
747.216	14606.35
747.556	14530.42
747.895	14536.52
748.234	14454.49
748.573	14576.07
748.911	14425.57
749.25	14442.52
749.589	14419.01
749.928	14369.3
750.267	14346.02
750.605	14361.39
750.944	14440.48
751.283	14366.36
751.621	14329.75
751.96	14202.97
752.298	14180.83
752.636	14254.05
752.975	14213.82
753.313	14190.77
753.651	14265.8
753.989	14119.36
754.327	14062.41
754.666	14046.59
755.004	14019.93
755.342	14120.94
755.679	14063.09
756.017	14031
756.355	14148.29
756.693	13981.06
757.031	13945.81
757.368	13928.63
757.706	13915.52
758.044	13847.28
758.381	13907.39
758.719	13734.06
759.056	13720.5
759.394	13755.08
759.731	13699.48
760.068	13656.55
760.405	13608.41
760.743	13514.4
761.08	13560.05
761.417	13489.09
761.754	13485.93
762.091	13424.46
762.428	13364.35
762.765	13313.51
763.102	13366.39
763.438	13271.02
763.775	13160.74
764.112	13160.74
764.449	13113.74
764.785	13156.45
765.122	13077.35
765.458	12990.58
765.795	12951.26
766.131	12940.63
766.467	12884.14
766.804	12840.07
767.14	12789.23
767.476	12875.1
767.812	12762.11
768.148	12758.94
768.485	12626.07
768.821	12529.57
769.157	12563.02
769.492	12474.88
769.828	12519.18
770.164	12390.59
770.5	12458.84
770.836	12408.22
771.171	12325.74
771.507	12303.59
771.842	12219.52
772.178	12189.92
772.513	12174.55
772.849	12166.42
773.184	12029.25
773.519	12064.73
773.855	12028.12
774.19	11952.41
774.525	11922.13
774.86	11873.32
775.195	11842.81
775.53	11793.77
775.865	11710.61
776.2	11616.83
776.535	11584.74
776.87	11664.74
777.205	11560.56
777.539	11499.32
777.874	11494.34
778.209	11358.3
778.543	11341.13
778.878	11325.31
779.212	11241.7
779.547	11250.28
779.881	11309.49
780.215	11151.3
780.55	11142.26
780.884	11077.86
781.218	11159.21
781.552	11094.13
781.886	11055.49
782.22	11015.71
782.554	10865.21
782.888	10809.39
783.222	10803.06
783.556	10796.74
783.889	10713.8
784.223	10568.27
784.557	10617.53
784.89	10676.06
785.224	10564.88
785.557	10584.09
785.891	10590.64
786.224	10482.62
786.558	10464.09
786.891	10369.63
787.224	10297.77
787.557	10299.12
787.891	10325.79
788.224	10262.74
788.557	10320.14
788.89	10202.18
789.223	10202.63
789.556	10069.75
789.888	10155.17
790.221	10049.86
790.554	9973.48
790.887	10017.77
791.219	9945.91
791.552	9894.84
791.884	9922.41
792.217	9790.89
792.549	9797.67
792.882	9793.82
793.214	9727.84
793.546	9687.61
793.879	9679.7
794.211	9602.19
794.543	9692.13
794.875	9612.13
795.207	9589.54
795.539	9526.94
795.871	9548.63
796.203	9434.29
796.535	9439.94
796.867	9346.38
797.198	9354.06
797.53	9317.9
797.862	9260.96
798.193	9309.77
798.525	9210.34
798.856	9253.73
799.188	9186.83
799.519	9174.63
799.85	8997.01
800.182	9122.43
800.513	9090.79
800.844	8970.12
801.175	9052.37
801.506	9003.34
801.837	8952.26
802.168	8943.9
802.499	8869.1
802.83	8837.24
803.161	8773.96
803.491	8878.82
803.822	8811.03
804.153	8778.48
804.483	8682.22
804.814	8657.58
805.145	8693.74
805.475	8701.88
805.805	8611.03
806.136	8620.97
806.466	8613.74
806.796	8580.3
807.126	8538.26
807.457	8554.76
807.787	8541.65
808.117	8465.72
808.447	8391.38
808.777	8514.08
809.107	8393.86
809.436	8411.26
809.766	8379.62
810.096	8316.58
810.426	8339.4
810.755	8281.32
811.085	8196.58
811.414	8241.32
811.744	8150.48
812.073	8160.2
812.403	8158.39
812.732	8109.12
813.061	8113.42
813.39	8106.19
813.719	8066.86
814.049	8064.15
814.378	8023.48
814.707	8011.05
815.036	8041.78
815.365	7875.91
815.693	7903.03
816.022	7847.21
816.351	7849.47
816.68	7889.24
817.008	7851.5
817.337	7762.24
817.665	7750.49
817.994	7799.53
818.322	7778.74
818.651	7769.92
818.979	7715.46
819.307	7780.54
819.636	7762.47
819.964	7627.78
820.292	7681.56
820.62	7706.42
820.948	7621.45
821.276	7675.91
821.604	7602.7
821.932	7650.38
822.259	7658.51
822.587	7688.8
822.915	7654.67
823.243	7609.25
823.57	7633.2
823.898	7675.24
824.225	7635.46
824.553	7604.5
824.88	7637.04
825.207	7609.02
825.535	7634.11
825.862	7653.77
826.189	7576.93
826.516	7635.24
826.843	7648.12
827.17	7615.35
827.497	7651.51
827.824	7638.85
828.151	7589.14
828.478	7621.45
828.805	7695.57
829.131	7617.16
829.458	7517.05
829.785	7596.14
830.111	7569.93
830.438	7637.95
830.764	7546.65
831.09	7597.95
831.417	7557.05
831.743	7590.27
832.069	7591.62
832.395	7550.95
832.722	7612.41
833.048	7553.88
833.374	7536.26
833.7	7491.74
834.026	7501.23
834.351	7530.38
834.677	7501.46
835.003	7546.43
835.329	7489.7
835.654	7472.76
835.98	7501.23
836.306	7499.65
836.631	7399.31
836.956	7510.49
837.282	7414.45
837.607	7409.93
837.932	7387.33
838.258	7439.08
838.583	7373.55
838.908	7323.15
839.233	7354.57
839.558	7294.68
839.883	7338.3
840.208	7254
840.533	7217.85
840.858	7262.37
841.182	7288.35
841.507	7264.17
841.832	7248.58
842.156	7189.6
842.481	7209.49
842.805	7126.1
843.13	7172.42
843.454	7214.46
843.778	7149.6
844.103	7192.54
844.427	7151.41
844.751	7062.82
845.075	7093.56
845.399	7075.93
845.723	6985.08
846.047	6981.69
846.371	6977.18
846.695	6962.94
847.019	6895.14
847.343	6880.23
847.666	6844.3
847.99	6838.42
848.313	6842.04
848.637	6781.7
848.96	6785.32
849.284	6785.32
849.607	6740.35
849.931	6673.91
850.254	6653.57
850.577	6621.48
850.9	6580.8
851.223	6545.32
851.546	6579.67
851.869	6519.33
852.192	6544.19
852.515	6470.52
852.838	6481.82
853.161	6435.95
853.483	6405.21
853.806	6426.23
854.129	6400.69
854.451	6369.51
854.774	6324.76
855.096	6272.34
855.419	6272.79
855.741	6274.14
856.063	6297.65
856.385	6308.04
856.708	6219
857.03	6225.33
857.352	6214.03
857.674	6185.33
857.996	6175.84
858.318	6100.59
858.64	6146.69
858.961	6137.88
859.283	6050.87
859.605	6082.51
859.926	6050.65
860.248	6063.08
860.57	6004.32
860.891	6026.24
861.212	6020.82
861.534	6061.95
861.855	5954.6
862.176	5976.07
862.498	5979.69
862.819	5975.17
863.14	5976.52
863.461	5935.39
863.782	5939.46
864.103	5859.46
864.424	5834.15
864.745	5931.55
865.065	5870.54
865.386	5910.08
865.707	5840.26
866.027	5852.23
866.348	5846.81
866.668	5857.2
866.989	5803.87
867.309	5806.13
867.63	5772.24
867.95	5775.4
868.27	5699.24
868.59	5773.82
868.91	5786.47
869.23	5720.26
869.55	5730.2
869.87	5741.28
870.19	5715.29
870.51	5707.15
870.83	5735.63
871.15	5722.52
871.469	5645.23
871.789	5668.51
872.109	5707.83
872.428	5660.15
872.748	5694.95
873.067	5625.12
873.386	5622.18
873.706	5591.68
874.025	5586.48
874.344	5585.57
874.663	5614.5
874.982	5585.57
875.301	5585.8
875.62	5557.78
875.939	5543.31
876.258	5584.9
876.577	5522.07
876.896	5529.53
877.214	5495.63
877.533	5533.15
877.852	5488.63
878.17	5544.44
878.489	5550.32
878.807	5551
879.125	5477.78
879.444	5461.28
879.762	5458.35
880.08	5466.25
880.398	5410.66
880.716	5476.42
881.034	5437.55
881.352	5420.61
881.67	5408.18
881.988	5398.91
882.306	5389.65
882.624	5426.71
882.941	5344.45
883.259	5371.34
883.577	5331.57
883.894	5358.91
884.212	5374.73
884.529	5324.56
884.846	5292.47
885.164	5288.63
885.481	5306.71
885.798	5308.52
886.115	5287.05
886.432	5276.43
886.75	5198.69
887.067	5259.93
887.383	5208.63
887.7	5190.1
888.017	5226.49
888.334	5171.12
888.651	5145.81
888.967	5208.86
889.284	5139.71
889.6	5116.43
889.917	5087.28
890.233	5053.84
890.55	5084.12
890.866	5069.88
891.182	5049.32
891.498	5057
891.815	5049.99
892.131	5028.53
892.447	5011.8
892.763	4999.15
893.079	4934.07
893.395	4998.47
893.71	4967.74
894.026	4960.51
894.342	4951.92
894.657	4928.87
894.973	4883.22
895.289	4914.86
895.604	4872.82
895.92	4886.38
896.235	4839.15
896.55	4856.1
896.865	4844.8
897.181	4838.02
897.496	4832.82
897.811	4792.6
898.126	4784.24
898.441	4693.85
898.756	4755.31
899.071	4665.37
899.386	4714.64
899.7	4638.48
900.015	4668.54
900.33	4632.15
900.644	4604.13
900.959	4607.29
901.273	4664.47
901.588	4583.11
901.902	4590.8
902.216	4588.99
902.531	4538.82
902.845	4529.78
903.159	4451.82
903.473	4521.19
903.787	4491.82
904.101	4438.71
904.415	4452.72
904.729	4429.67
905.042	4397.81
905.356	4442.33
905.67	4412.05
905.984	4420.86
906.297	4452.5
906.611	4366.4
906.924	4321.43
907.237	4355.55
907.551	4316
907.864	4302.22
908.177	4291.37
908.491	4293.18
908.804	4263.8
909.117	4269
909.43	4186.74
909.743	4192.16
910.056	4163.01
910.368	4240.98
910.681	4174.99
910.994	4157.81
911.307	4151.71
911.619	4100.64
911.932	4092.05
912.244	4102.22
912.557	4087.76
912.869	4081.88
913.181	4027.87
913.494	4010.02
913.806	3993.75
914.118	3979.51
914.43	3962.79
914.742	3970.93
915.054	3989.23
915.366	3938.84
915.678	3939.97
915.99	3910.82
916.302	3917.14
916.613	3865.17
916.925	3872.85
917.236	3903.81
917.548	3826.52
917.859	3823.13
918.171	3830.37
918.482	3772.06
918.794	3766.64
919.105	3779.75
919.416	3740.88
919.727	3741.33
920.038	3746.3
920.349	3697.26
920.66	3676.02
920.971	3700.43
921.282	3677.6
921.593	3646.87
921.903	3655
922.214	3663.36
922.525	3645.96
922.835	3642.8
923.146	3593.31
923.456	3603.03
923.767	3582.91
924.077	3583.59
924.387	3552.41
924.697	3537.72
925.008	3521.67
925.318	3526.19
925.628	3502.01
925.938	3481.67
926.248	3461.79
926.558	3440.55
926.867	3415.24
927.177	3433.99
927.487	3424.05
927.796	3415.01
928.106	3380.21
928.416	3395.12
928.725	3379.76
929.034	3405.52
929.344	3323.49
929.653	3324.39
929.962	3299.53
930.271	3315.8
930.581	3291.62
930.89	3263.6
931.199	3247.56
931.508	3229.93
931.817	3226.31
932.125	3217.73
932.434	3224.96
932.743	3215.24
933.051	3154.68
933.36	3153.1
933.669	3144.06
933.977	3125.3
934.286	3150.61
934.594	3130.72
934.902	3139.54
935.21	3111.97
935.519	3101.12
935.827	3076.26
936.135	3070.61
936.443	3066.09
936.751	3025.41
937.059	3008.47
937.367	2998.3
937.674	2986.55
937.982	2992.2
938.29	2960.33
938.597	2988.35
938.905	2951.97
939.213	2936.6
939.52	2933.21
939.827	2920.11
940.135	2927.56
940.442	2913.78
940.749	2921.69
941.056	2878.07
941.363	2847.79
941.67	2871.75
941.977	2819.32
942.284	2829.26
942.591	2824.97
942.898	2783.16
943.205	2804.4
943.511	2766.89
943.818	2794.91
944.125	2754.46
944.431	2727.8
944.738	2727.34
945.044	2724.18
945.35	2744.52
945.657	2672.66
945.963	2719.89
946.269	2696.16
946.575	2689.15
946.881	2646.44
947.187	2648.25
947.493	2687.8
947.799	2664.29
948.105	2632.43
948.41	2653
948.716	2650.96
949.022	2648.7
949.327	2615.48
949.633	2581.36
949.938	2604.86
950.244	2573.9
950.549	2528.48
950.854	2565.31
951.16	2560.79
951.465	2538.65
951.77	2544.75
952.075	2503.17
952.38	2524.86
952.685	2513.34
952.99	2471.08
953.294	2493
953.599	2467.69
953.904	2452.1
954.209	2483.73
954.513	2439.67
954.818	2417.75
955.122	2414.58
955.426	2417.52
955.731	2403.28
956.035	2367.13
956.339	2400.12
956.643	2382.49
956.948	2370.74
957.252	2361.25
957.556	2356.96
957.86	2326.45
958.163	2312.67
958.467	2338.88
958.771	2281.93
959.075	2286.9
959.378	2297.3
959.682	2278.09
959.985	2284.64
960.289	2315.15
960.592	2265.89
960.896	2264.76
961.199	2219.33
961.502	2226.57
961.805	2195.83
962.108	2226.11
962.411	2179.11
962.714	2199
963.017	2211.88
963.32	2213.91
963.623	2161.03
963.926	2137.53
964.228	2163.52
964.531	2133.46
964.833	2146.79
965.136	2119.45
965.438	2129.17
965.741	2140.69
966.043	2092.33
966.345	2098.43
966.648	2103.18
966.95	2100.24
967.252	2074.71
967.554	2068.38
967.856	2044.88
968.158	2067.47
968.46	2037.87
968.761	2045.78
969.063	2061.6
969.365	1987.02
969.666	2009.4
969.968	1990.64
970.269	1980.24
970.571	1997.65
970.872	1981.83
971.174	1956.29
971.475	1982.28
971.776	1940.25
972.077	1932.11
972.378	1949.74
972.679	1924.65
972.98	1928.27
973.281	1926.46
973.582	1924.43
973.883	1933.47
974.183	1927.82
974.484	1904.99
974.785	1879
975.085	1855.73
975.386	1876.74
975.686	1856.86
975.986	1915.39
976.287	1852.56
976.587	1848.27
976.887	1819.34
977.187	1830.19
977.487	1840.81
977.787	1814.37
978.087	1824.32
978.387	1830.19
978.687	1808.27
978.987	1772.79
979.286	1767.14
979.586	1757.2
979.885	1793.81
980.185	1803.75
980.484	1755.39
980.784	1737.54
981.083	1755.17
981.382	1731.44
981.682	1735.96
981.981	1710.65
982.28	1681.95
982.579	1726.69
982.878	1715.17
983.177	1699.12
983.475	1671.33
983.774	1686.24
984.073	1675.39
984.372	1677.43
984.67	1681.04
984.969	1657.77
985.267	1657.77
985.566	1643.98
985.864	1642.85
986.162	1655.28
986.461	1629.29
986.759	1598.33
987.057	1613.25
987.355	1607.6
987.653	1580.48
987.951	1603.76
988.249	1591.33
988.547	1601.27
988.844	1578.22
989.142	1561.95
989.44	1577.09
989.737	1572.12
990.035	1545.68
990.332	1546.36
990.63	1537.54
990.927	1542.06
991.224	1539.8
991.521	1556.3
991.819	1533.48
992.116	1502.52
992.413	1509.3
992.71	1490.99
993.006	1476.98
993.303	1480.6
993.6	1486.7
993.897	1478.56
994.193	1502.29
994.49	1460.03
994.787	1440.15
995.083	1449.64
995.379	1443.99
995.676	1435.17
995.972	1425
996.268	1419.58
996.565	1451.44
996.861	1403.08
997.157	1402.86
997.453	1398.11
997.749	1393.82
998.044	1364.89
998.34	1357.89
998.636	1370.32
998.932	1382.29
999.227	1375.06
999.523	1355.4
999.818	1369.41
1000.114	1365.35
1000.409	1361.28
1000.704	1329.87
1001	1299.13
1001.295	1322.63
1001.59	1325.57
1001.885	1298.45
1002.18	1283.31
1002.475	1292.13
1002.77	1284.22
1003.065	1257.55
1003.359	1294.84
1003.654	1273.37
1003.949	1286.03
1004.243	1257.78
1004.538	1250.77
1004.832	1239.02
1005.127	1235.86
1005.421	1239.25
1005.715	1220.49
1006.009	1219.13
1006.304	1225.69
1006.598	1232.47
1006.892	1190.66
1007.186	1175.97
1007.48	1194.95
1007.773	1185.01
1008.067	1178.23
1008.361	1147.95
1008.655	1146.82
1008.948	1139.14
1009.242	1151.11
1009.535	1150.44
1009.829	1115.18
1010.122	1125.58
1010.415	1136.42
1010.708	1119.25
1011.001	1140.49
1011.295	1098.91
1011.588	1105.47
1011.881	1095.07
1012.173	1102.53
1012.466	1093.94
1012.759	1103.43
1013.052	1112.24
1013.344	1073.6
1013.637	1058.69
1013.93	1057.33
1014.222	1059.82
1014.514	1063.66
1014.807	1048.29
1015.099	1045.35
1015.391	1060.27
1015.683	1018.01
1015.976	1050.1
1016.268	1005.81
1016.56	1016.43
1016.851	1013.04
1017.143	1013.49
1017.435	1003.55
1017.727	1000.38
1018.018	1010.1
1018.31	982.98
1018.602	994.96
1018.893	961.29
1019.185	970.33
1019.476	980.72
1019.767	978.24
1020.058	962.42
1020.35	985.24
1020.641	950.44
1020.932	955.19
1021.223	939.37
1021.514	955.64
1021.804	933.27
1022.095	928.52
1022.386	884
1022.677	917
1022.967	918.35
1023.258	891.01
1023.548	904.57
1023.839	917
1024.129	870.22
1024.419	876.77
1024.709	887.17
1025	871.57
1025.29	858.01
1025.58	863.44
1025.87	858.69
1026.16	865.92
1026.449	854.17
1026.739	843.55
1027.029	846.94
1027.319	818.69
1027.608	820.73
1027.898	831.12
1028.187	832.93
1028.477	822.76
1028.766	795.42
1029.055	820.5
1029.344	804.91
1029.634	823.44
1029.923	783.67
1030.212	814.17
1030.501	794.74
1030.79	766.04
1031.078	793.38
1031.367	777.11
1031.656	779.6
1031.945	789.54
1032.233	774.63
1032.522	742.99
1032.81	765.59
1033.099	760.62
1033.387	768.52
1033.675	762.88
1033.963	743.89
1034.251	737.79
1034.54	752.48
1034.828	723.55
1035.116	724.68
1035.403	723.55
1035.691	714.97
1035.979	713.39
1036.267	712.71
1036.554	706.38
1036.842	701.41
1037.129	710.22
1037.417	711.58
1037.704	683.56
1037.992	708.41
1038.279	681.52
1038.566	686.04
1038.853	686.04
1039.14	686.04
