Data from white_wall_FLMS001491_066.txt Node
Date: Tue Feb 07 11:05:24 GMT 2017
User: dcchb
Spectrometer: FLMS00149
Trigger mode: 0
Integration Time (sec): 2.000000E-2
Scans to average: 10
Electric dark correction enabled: true
Nonlinearity correction enabled: false
Boxcar width: 0
XAxis mode: Wavelengths
Number of Pixels in Spectrum: 2048
>>>>>Begin Spectral Data<<<<<
341.393	-3.84
341.776	-3.84
342.16	-3.84
342.543	-87.46
342.927	-41.35
343.31	-69.15
343.693	-69.6
344.077	-72.09
344.46	-48.59
344.843	-58.08
345.226	-36.16
345.61	-28.7
345.993	-30.06
346.376	-0.23
346.759	21.47
347.142	29.83
347.525	36.38
347.908	59.89
348.291	72.31
348.674	89.04
349.057	103.73
349.44	113.9
349.823	134.23
350.206	138.53
350.588	232.76
350.971	252.42
351.354	251.07
351.737	267.79
352.119	276.15
352.502	277.73
352.884	291.97
353.267	301.46
353.65	316.38
354.032	320.67
354.414	318.86
354.797	329.93
355.179	351.4
355.562	358.86
355.944	346.88
356.326	363.61
356.709	368.13
357.091	366.09
357.473	367.67
357.855	349.14
358.238	349.14
358.62	353.66
359.002	361.35
359.384	378.75
359.766	374
360.148	336.71
360.53	385.98
360.912	357.28
361.294	348.47
361.676	355.47
362.057	343.95
362.439	343.04
362.821	353.44
363.203	347.34
363.584	349.6
363.966	350.73
364.348	353.44
364.729	344.62
365.111	358.86
365.493	344.85
365.874	351.4
366.256	344.62
366.637	332.19
367.019	343.27
367.4	347.79
367.781	342.14
368.163	359.99
368.544	344.85
368.925	326.09
369.306	342.82
369.688	343.27
370.069	327.22
370.45	327.67
370.831	365.41
371.212	337.17
371.593	335.36
371.974	343.04
372.355	327
372.736	368.8
373.117	368.13
373.498	320.67
373.879	355.92
374.26	337.84
374.641	338.52
375.021	349.6
375.402	354.57
375.783	362.25
376.163	369.03
376.544	372.65
376.925	345.3
377.305	369.26
377.686	368.58
378.066	356.6
378.447	358.41
378.827	374.23
379.208	343.72
379.588	386.2
379.968	381.68
380.349	366.09
380.729	358.41
381.109	406.99
381.489	379.65
381.87	392.08
382.25	382.81
382.63	391.18
383.01	376.04
383.39	393.89
383.77	405.64
384.15	405.41
384.53	393.89
384.91	397.96
385.29	390.95
385.67	403.61
386.049	439.08
386.429	416.03
386.809	428.69
387.189	430.27
387.568	419.42
387.948	416.71
388.328	442.93
388.707	436.15
389.087	413.55
389.466	426.43
389.846	441.34
390.225	448.8
390.605	447.9
390.984	459.2
391.363	464.62
391.743	475.47
392.122	481.57
392.501	491.96
392.881	481.57
393.26	494.22
393.639	492.87
394.018	530.61
394.397	527.67
394.776	541.45
395.155	530.61
395.534	532.87
395.913	541
396.292	541.91
396.671	580.55
397.05	585.97
397.429	572.41
397.808	596.59
398.186	586.65
398.565	615.8
398.944	605.18
399.323	615.58
399.701	651.06
400.08	667.78
400.458	643.6
400.837	674.33
401.215	682.92
401.594	691.73
401.972	703.03
402.351	738.51
402.729	752.3
403.107	729.92
403.486	755.01
403.864	771.96
404.242	773.99
404.62	786.19
404.999	803.14
405.377	843.82
405.755	809.47
406.133	851.5
406.511	873.65
406.889	880.2
407.267	910.03
407.645	915
408.023	938.05
408.401	960.43
408.779	954.33
409.156	1006.53
409.534	1005.62
409.912	1016.02
410.29	1065.73
410.667	1069.12
411.045	1072.29
411.422	1078.84
411.8	1100.54
412.178	1134.89
412.555	1157.94
412.933	1150.48
413.31	1182.57
413.687	1192.29
414.065	1232.51
414.442	1229.12
414.819	1260.31
415.197	1276.35
415.574	1306.18
415.951	1286.29
416.328	1314.09
416.705	1315.67
417.082	1321.77
417.46	1398.83
417.837	1369.68
418.214	1379.85
418.591	1411.26
418.967	1400.19
419.344	1416.01
419.721	1492.16
420.098	1459.85
420.475	1461.66
420.852	1493.52
421.228	1519.06
421.605	1529
421.982	1515.67
422.358	1572.84
422.735	1572.61
423.111	1575.1
423.488	1611.48
423.864	1632.5
424.241	1649.67
424.617	1643.8
424.994	1691.48
425.37	1696.68
425.746	1719.73
426.123	1718.37
426.499	1753.63
426.875	1759.95
427.251	1820.07
427.627	1849.67
428.003	1839.73
428.379	1897.58
428.756	1914.3
429.132	1913.85
429.507	1970.34
429.883	1992.04
430.259	2019.61
430.635	2051.7
431.011	2058.25
431.387	2076.33
431.763	2114.29
432.138	2148.64
432.514	2171.92
432.89	2190.22
433.265	2272.03
433.641	2264.12
434.016	2302.09
434.392	2334.4
434.767	2357.68
435.143	2380.28
435.518	2401.07
435.894	2429.31
436.269	2497.56
436.644	2520.16
437.02	2524.45
437.395	2547.05
437.77	2587.28
438.145	2590.89
438.52	2634.28
438.895	2634.28
439.271	2675.18
439.646	2761.06
440.021	2773.71
440.395	2770.32
440.77	2757.44
441.145	2796.99
441.52	2888.29
441.895	2838.57
442.27	2863.65
442.645	2899.58
443.019	2952.92
443.394	2931.67
443.769	2995.63
444.143	2977.1
444.518	3045.8
444.892	3048.06
445.267	3061.16
445.641	3097.77
446.016	3101.84
446.39	3152.23
446.764	3161.72
447.139	3178
447.513	3193.14
447.887	3232.01
448.262	3269.52
448.636	3253.25
449.01	3328.5
449.384	3396.52
449.758	3406.24
450.132	3384.77
450.506	3406.92
450.88	3448.72
451.254	3493.02
451.628	3521.26
452.002	3561.94
452.376	3602.17
452.75	3631.54
453.123	3670.19
453.497	3728.94
453.871	3733.91
454.244	3838.77
454.618	3852.55
454.992	3901.37
455.365	3935.26
455.739	4013.91
456.112	4093.45
456.486	4054.58
456.859	4167.8
457.232	4264.75
457.606	4231.98
457.979	4340.68
458.352	4412.09
458.725	4407.79
459.099	4506.32
459.472	4554.91
459.845	4641.01
460.218	4667.9
460.591	4727.11
460.964	4715.13
461.337	4843.26
461.71	4926.88
462.083	4952.64
462.456	5016.14
462.829	5042.13
463.201	5145.18
463.574	5101.33
463.947	5180.2
464.32	5392.17
464.692	5387.65
465.065	5430.82
465.438	5518.27
465.81	5608.89
466.183	5684.37
466.555	5774.99
466.928	5784.48
467.3	5841.65
467.672	5956.23
468.045	6039.84
468.417	6109.22
468.789	6166.39
469.161	6258.14
469.534	6364.35
469.906	6509.89
470.278	6521.41
470.65	6608.19
471.022	6756.66
471.394	6896.77
471.766	6929.54
472.138	7034.39
472.51	7232.35
472.882	7272.13
473.253	7398.22
473.625	7539.01
473.997	7662.62
474.369	7711.66
474.74	7847.7
475.112	8016.96
475.484	8116.62
475.855	8258.09
476.227	8413.11
476.598	8597.51
476.97	8671.18
477.341	8854.68
477.713	8969.71
478.084	9049.48
478.455	9298.29
478.827	9388.68
479.198	9684.94
479.569	9683.81
479.94	10014.43
480.311	10032.28
480.682	10291.71
481.053	10555.43
481.424	10719.94
481.795	10807.85
482.166	10948.19
482.537	11156.32
482.908	11447.16
483.279	11486.03
483.65	11753.14
484.021	11982.28
484.391	12130.3
484.762	12235.84
485.133	12374.14
485.503	12523.29
485.874	12862.03
486.244	13018.19
486.615	13211.86
486.985	13379.76
487.356	13651.84
487.726	13782.91
488.097	14045.28
488.467	14134.32
488.837	14383.58
489.207	14580.18
489.578	14739.95
489.948	14934.52
490.318	15097.23
490.688	15230.79
491.058	15486.15
491.428	15682.07
491.798	15813.37
492.168	16124.1
492.538	16242.28
492.908	16430.08
493.278	16632.11
493.648	16765.21
494.017	16926.56
494.387	17169.49
494.757	17216.72
495.126	17517.28
495.496	17540.56
495.866	17653.77
496.235	17908.23
496.605	18039.75
496.974	18271.38
497.344	18503.47
497.713	18480.19
498.082	18625.27
498.452	18769.9
498.821	18976.9
499.19	18972.16
499.559	19240.4
499.928	19349.77
500.298	19575.53
500.667	19776.2
501.036	19600.39
501.405	19898.91
501.774	20057.1
502.143	20247.6
502.512	20352.23
502.88	20664.09
503.249	20632.9
503.618	20888.26
503.987	21024.31
504.356	21024.31
504.724	21220.23
505.093	21344.98
505.462	21419.78
505.83	21594.46
506.199	21866.32
506.567	22089.36
506.936	22169.59
507.304	22368.23
507.672	22476.92
508.041	22663.58
508.409	22845.73
508.777	22999.17
509.145	23260.41
509.514	23300.63
509.882	23457.01
510.25	23527.74
510.618	23682.32
510.986	23836.44
511.354	24109.2
511.722	24298.34
512.09	24607.49
512.458	24607.49
512.826	24875.73
513.193	24910.08
513.561	25129.51
513.929	25312.1
514.297	25431.2
514.664	25636.84
515.032	25906.66
515.4	26043.61
515.767	26153.44
516.135	26300.1
516.502	26293.55
516.869	26718.39
517.237	26994.09
517.604	26921.78
517.972	27201.32
518.339	27516.11
518.706	27567.64
519.073	27687.41
519.44	27877.69
519.808	28083.1
520.175	28260.27
520.542	28597.21
520.909	28759.92
521.276	28804.67
521.643	29190.87
522.009	29256.63
522.376	29456.17
522.743	29830.18
523.11	30179.09
523.477	30270.16
523.843	30381.8
524.21	30743.15
524.577	30915.12
524.943	31089.58
525.31	31268.78
525.676	31724.14
526.043	31799.39
526.409	31885.04
526.776	32260.62
527.142	32281.64
527.508	32722.98
527.874	32840.27
528.241	33060.83
528.607	33210.65
528.973	33469.85
529.339	33488.39
529.705	33953.91
530.071	34038.2
530.437	34270.29
530.803	34605.19
531.169	34643.83
531.535	34699.88
531.901	34891.29
532.267	35055.58
532.632	35329.92
532.998	35456.92
533.364	35625.05
533.73	35794.99
534.095	35963.8
534.461	36002.22
534.826	36293.96
535.192	36474.75
535.557	36682.65
535.923	36757.9
536.288	36848.97
536.653	37106.14
537.019	36952.93
537.384	37296.42
537.749	37473.36
538.114	37514.04
538.479	37652.12
538.845	37952.22
539.21	37805.79
539.575	37893.24
539.94	37995.61
540.305	38404.64
540.67	38468.82
541.034	38573.45
541.399	38777.96
541.764	38841.69
542.129	38989.26
542.494	39192.19
542.858	39215.92
543.223	39336.82
543.587	39651.39
543.952	39612.07
544.316	39908.33
544.681	39812.51
545.045	40225.38
545.41	40255.89
545.774	40384.47
546.138	40440.52
546.503	40764.8
546.867	40719.83
547.231	41089.09
547.595	41039.82
547.959	41391.23
548.324	41322.08
548.688	41411.34
549.052	41589.87
549.416	41848.17
549.779	41908.73
550.143	42108.95
550.507	42264.2
550.871	42550.97
551.235	42446.12
551.599	42840.23
551.962	42948.02
552.326	42964.75
552.689	43357.05
553.053	43228.92
553.417	43487.44
553.78	44003.36
554.143	43980.54
554.507	44011.27
554.87	44320.42
555.234	44706.4
555.597	44540.75
555.96	44820.06
556.323	45039.27
556.686	44991.13
557.05	45483.55
557.413	45429.54
557.776	45627.27
558.139	45929.19
558.502	46005.57
558.865	46160.37
559.228	46423.86
559.59	46631.09
559.953	46549.28
560.316	47100.68
560.679	47155.37
561.041	47457.28
561.404	47418.41
561.767	47770.27
562.129	47565.98
562.492	48178.39
562.854	48136.59
563.217	48132.75
563.579	48256.36
563.941	48575.9
564.304	48759.4
564.666	49092.95
565.028	49044.36
565.39	49304.47
565.753	49514.18
566.115	49457.91
566.477	49625.36
566.839	49676.89
567.201	49991.91
567.563	49940.16
567.925	50235.06
568.287	50171.34
568.648	50393.03
569.01	50520.03
569.372	50713.47
569.734	50735.39
570.095	50933.8
570.457	51001.6
570.819	51156.62
571.18	51226.9
571.542	51280.01
571.903	51360.68
572.265	51550.28
572.626	51605.2
572.987	51670.96
573.349	51877.73
573.71	51971.29
574.071	52016.03
574.432	52223.03
574.794	52374.44
575.155	52356.59
575.516	52267.55
575.877	52407.44
576.238	52395.23
576.599	52606.3
576.96	52582.57
577.32	52677.94
577.681	52781.89
578.042	52775.11
578.403	52912.51
578.763	52821.44
579.124	52893.52
579.485	53110.69
579.845	53051.26
580.206	53017.82
580.566	53000.64
580.927	52978.95
581.287	53096.91
581.648	53120.19
582.008	53260.07
582.368	53227.75
582.728	53303.68
583.089	53281.76
583.449	53251.48
583.809	53289.22
584.169	53336
584.529	53289.45
584.889	53548.87
585.249	53336.45
585.609	53203.57
585.969	53454.64
586.329	53392.72
586.688	53437.24
587.048	53430.69
587.408	53305.27
587.768	53390.69
588.127	53372.38
588.487	53251.48
588.846	53574.41
589.206	53330.8
589.565	53375.77
589.925	53459.16
590.284	53359.95
590.643	53462.32
591.003	53483.57
591.362	53586.39
591.721	53542.77
592.08	53548.2
592.44	53561.76
592.799	53617.57
593.158	53601.08
593.517	53568.08
593.876	53609.89
594.235	53540.29
594.593	53520.17
594.952	53648.08
595.311	53626.61
595.67	53631.36
596.029	53764.69
596.387	53801.75
596.746	53831.35
597.104	53676.55
597.463	53707.29
597.822	53858.7
598.18	53775.76
598.538	53642.43
598.897	53814.86
599.255	53654.41
599.613	54051.23
599.972	53844.23
600.33	53844.46
600.688	53763.56
601.046	53900.73
601.404	54002.87
601.762	53903.89
602.12	54070.89
602.478	54044.91
602.836	54121.97
603.194	53997.45
603.552	54143.44
603.91	53882.65
604.268	54150.89
604.625	54038.35
604.983	54176.43
605.341	53997
605.698	54085.36
606.056	54313.6
606.413	54255.75
606.771	54265.01
607.128	54432.92
607.485	54207.84
607.843	54344.11
608.2	54432.47
608.557	54520.15
608.914	54461.62
609.272	54638.56
609.629	54647.6
609.986	54737.54
610.343	54594.95
610.7	54825.68
611.057	54673.36
611.414	54690.77
611.771	54774.6
612.127	54770.54
612.484	54787.71
612.841	54779.8
613.198	54799.46
613.554	54826.81
613.911	54944.09
614.267	54899.8
614.624	54916.07
614.98	55027.93
615.337	55094.82
615.693	55141.37
616.05	55027.93
616.406	55163.07
616.762	55117.87
617.118	55153.13
617.475	55178.89
617.831	55220.24
618.187	55305.21
618.543	55284.2
618.899	55434.25
619.255	55441.93
619.611	55319
619.967	55504.76
620.323	55485.55
620.678	55326.91
621.034	55341.14
621.39	55407.81
621.746	55418.66
622.101	55653
622.457	55406
622.812	55539.33
623.168	55501.37
623.523	55504.98
623.879	55588.82
624.234	55363.74
624.589	55456.39
624.945	55448.26
625.3	55474.93
625.655	55526.68
626.01	55486.9
626.365	55499.78
626.72	55505.89
627.075	55517.64
627.43	55444.19
627.785	55363.74
628.14	55483.29
628.495	55507.69
628.85	55439.22
629.205	55355.15
629.559	55474.47
629.914	55334.36
630.269	55407.13
630.623	55336.17
630.978	55306.57
631.332	55375.95
631.687	55396.06
632.041	55278.09
632.396	55361.26
632.75	55248.49
633.104	55271.09
633.459	55146.57
633.813	55038.55
634.167	55051.89
634.521	55043.3
634.875	55077.2
635.229	55012.56
635.583	54943.64
635.937	54872.46
636.291	54977.54
636.645	54923.08
636.999	54914.26
637.352	55020.93
637.706	54742.74
638.06	54905.45
638.413	54797.43
638.767	54794.04
639.121	54813.7
639.474	54643.08
639.828	54657.32
640.181	54695.96
640.534	54640.82
640.888	54596.98
641.241	54521.28
641.594	54582.52
641.947	54506.82
642.301	54487.61
642.654	54531
643.007	54390.66
643.36	54390.89
643.713	54419.59
644.066	54559.47
644.419	54274.28
644.771	54105.7
645.124	53781.86
645.477	53714.52
645.83	53500.06
646.182	53387.97
646.535	53374.42
646.888	53455.09
647.24	53205.83
647.593	53453.06
647.945	53306.62
648.298	53088.1
648.65	53175.1
649.002	53110.02
649.355	53194.31
649.707	53134.42
650.059	53174.65
650.411	53547.29
650.763	53531.02
651.115	53934.63
651.467	53851.24
651.819	53794.74
652.171	53647.18
652.523	53665.93
652.875	53693.96
653.227	53513.62
653.578	53659.38
653.93	53675.42
654.282	53516.78
654.633	53472.94
654.985	53472.27
655.337	53472.27
655.688	53417.35
656.039	53439.05
656.391	53261.65
656.742	53330.8
657.094	53312.72
657.445	53421.65
657.796	53284.25
658.147	53310.01
658.498	53198.15
658.849	53297.58
659.2	53232.95
659.551	53184.59
659.902	53331.71
660.253	53228.2
660.604	53274.76
660.955	53059.85
661.306	53223.91
661.656	53099.39
662.007	53050.13
662.358	52948.66
662.708	52959.51
663.059	52988.44
663.409	52772.17
663.76	53010.13
664.11	52960.64
664.461	53016.01
664.811	52907.08
665.161	52846.75
665.511	52830.48
665.862	52835.45
666.212	52954.54
666.562	52967.19
666.912	52773.75
667.262	52811.04
667.612	52773.3
667.962	52860.08
668.312	52702.8
668.662	52890.36
669.011	52780.08
669.361	52724.26
669.711	52669.35
670.06	52639.75
670.41	52597.49
670.76	52587.54
671.109	52710.93
671.459	52653.76
671.808	52505.74
672.157	52596.58
672.507	52443.59
672.856	52505.06
673.205	52475.46
673.554	52545.06
673.904	52398.17
674.253	52533.76
674.602	52342.13
674.951	51910.95
675.3	51772.88
675.649	52216.25
675.998	52202.47
676.346	52204.05
676.695	52425.51
677.044	52019.88
677.393	52176.48
677.741	52211.96
678.09	52128.8
678.438	51957.73
678.787	52113.88
679.135	52019.42
679.484	51798.64
679.832	51971.29
680.181	51734.46
680.529	51875.25
680.877	51756.61
681.225	51762.71
681.573	51982.36
681.922	51696.49
682.27	51622.37
682.618	51685.19
682.966	51551.19
683.314	51621.24
683.661	51353
684.009	51183.51
684.357	51136.96
684.705	51174.02
685.053	51128.37
685.4	51020.58
685.748	50906.46
686.095	50906.91
686.443	50702.62
686.79	50670.98
687.138	50737.42
687.485	50755.28
687.832	50645.45
688.18	50607.93
688.527	50448.17
688.874	50169.53
689.221	50318
689.568	50210.88
689.915	50104.45
690.262	50045.69
690.609	49953.04
690.956	49717.11
691.303	49733.16
691.65	49563.89
691.997	49600.96
692.344	49417.23
692.69	49317.8
693.037	49281.87
693.383	48995.1
693.73	49178.59
694.077	48899.96
694.423	48901.99
694.769	48806.17
695.116	48712.84
695.462	48694.76
695.808	48472.4
696.155	48671.71
696.501	48250.26
696.847	48348.56
697.193	48114.67
697.539	48178.39
697.885	47816.6
698.231	47694.11
698.577	47742.25
698.923	47704.96
699.269	47521.24
699.614	47350.85
699.96	47341.35
700.306	47350.17
700.651	47101.81
700.997	46960.8
701.342	46849.16
701.688	46861.82
702.033	46737.08
702.379	46727.13
702.724	46597.42
703.069	46540.7
703.415	46208.95
703.76	46102.06
704.105	46129.41
704.45	46007.15
704.795	45796.31
705.14	45807.84
705.485	45848.96
705.83	45694.62
706.175	45707.05
706.52	45360.39
706.865	45330.33
707.209	45380.73
707.554	45151.81
707.899	45303.22
708.243	44938.25
708.588	44995.65
708.932	44678.6
709.277	44722.67
709.621	44613.29
709.966	44425.27
710.31	44664.81
710.654	44269.57
710.998	44350.47
711.342	44273.86
711.687	44145.51
712.031	44115
712.375	43973.53
712.719	44007.88
713.063	43888.34
713.407	44038.84
713.75	43642.47
714.094	43603.15
714.438	43602.7
714.782	43442.7
715.125	43243.61
715.469	43392.53
715.812	43054.91
716.156	42904.18
716.499	42972.2
716.843	42921.13
717.186	42747.58
717.53	42828.25
717.873	42833.45
718.216	42776.28
718.559	42508.26
718.902	42277.08
719.246	42411.99
719.589	42035.28
719.932	42070.31
720.275	42210.42
720.617	42234.37
720.96	41929.74
721.303	41993.02
721.646	41973.36
721.989	41671.45
722.331	41788.96
722.674	41595.29
723.016	41635.29
723.359	41577.89
723.701	41502.41
724.044	41250.67
724.386	41324.34
724.729	41406.82
725.071	41173.61
725.413	41162.53
725.755	41162.31
726.097	41024.23
726.439	40810.45
726.782	40847.06
727.124	41022.2
727.465	40733.84
727.807	40623.79
728.149	40595.54
728.491	40557.8
728.833	40466.51
729.175	40392.61
729.516	40407.53
729.858	40365.49
730.199	40327.53
730.541	40234.65
730.882	40087.76
731.224	40236.68
731.565	39965.73
731.906	39930.48
732.248	39948.78
732.589	39753.08
732.93	39713.98
733.271	39704.94
733.612	39575.46
733.953	39696.81
734.294	39521.22
734.635	39328.23
734.976	39428.57
735.317	39334.33
735.658	39175.24
735.999	39280.78
736.339	39164.39
736.68	39271.06
737.021	39124.4
737.361	39032.65
737.702	39091.63
738.042	38951.74
738.383	38791.75
738.723	38752.2
739.063	38738.19
739.404	38831.75
739.744	38614.35
740.084	38502.04
740.424	38625.2
740.764	38516.95
741.104	38593.11
741.444	38305.21
741.784	38316.28
742.124	38414.13
742.464	38109.73
742.804	38195.15
743.143	38100.69
743.483	38194.48
743.823	37926.91
744.162	37946.35
744.502	37986.57
744.841	37714.26
745.181	37853.69
745.52	37656.64
745.86	37703.64
746.199	37557.66
746.538	37524.89
746.877	37500.48
747.216	37575.28
747.556	37348.17
747.895	37362.86
748.234	37283.09
748.573	37033.15
748.911	37145.46
749.25	37067.73
749.589	36961.06
749.928	36966.26
750.267	37010.33
750.605	36865.02
750.944	36747.51
751.283	36691.92
751.621	36763.78
751.96	36502.77
752.298	36559.49
752.636	36547.06
752.975	36335.09
753.313	36214.64
753.651	36265.49
753.989	36044.7
754.327	36107.07
754.666	35945.95
755.004	35953.18
755.342	35870.7
755.679	35791.15
756.017	35645.39
756.355	35699.17
756.693	35529.91
757.031	35479.29
757.368	35312.07
757.706	35146.42
758.044	35118.62
758.381	35029.81
758.719	35008.35
759.056	35001.79
759.394	34711.86
759.731	34713.44
760.068	34575.81
760.405	34566.55
760.743	34280.91
761.08	34416.5
761.417	34337.63
761.754	34184.19
762.091	34048.6
762.428	34025.77
762.765	33825.78
763.102	33860.8
763.438	33735.38
763.775	33364.09
764.112	33489.06
764.449	33537.65
764.785	33269.18
765.122	32998.91
765.458	33028.06
765.795	32850.21
766.131	32924.78
766.467	32839.81
766.804	32677.56
767.14	32454.29
767.476	32515.3
767.812	32342.65
768.148	32191.02
768.485	32086.84
768.821	32016.33
769.157	31856.56
769.492	31836.68
769.828	31791.48
770.164	31531.6
770.5	31451.83
770.836	31522.79
771.171	31169.35
771.507	31195.11
771.842	30867.44
772.178	30919.64
772.513	30810.49
772.849	30835.35
773.184	30628.57
773.519	30634.45
773.855	30489.14
774.19	30287.34
774.525	30220.45
774.86	30113.78
775.195	30079.44
775.53	30040.34
775.865	29816.84
776.2	29733.23
776.535	29450.3
776.87	29346.12
777.205	29197.42
777.539	29221.6
777.874	29323.07
778.209	28902.74
778.543	28961.95
778.878	28711.34
779.212	28725.35
779.547	28548.85
779.881	28623.2
780.215	28355.64
780.55	28450.55
780.884	28284
781.218	28053.27
781.552	28161.75
781.886	28003.11
782.22	27801.3
782.554	27790.23
782.888	27530.58
783.222	27539.84
783.556	27360.41
783.889	27321.32
784.223	27059.18
784.557	27044.71
784.89	27035.45
785.224	26949.57
785.557	26763.82
785.891	26765.85
786.224	26687.21
786.558	26496.48
786.891	26285.64
787.224	26250.38
787.557	26278.41
787.891	26110.05
788.224	26083.38
788.557	26085.87
788.89	25929.94
789.223	25952.76
789.556	25759.77
789.888	25601.36
790.221	25565.88
790.554	25356.62
790.887	25407.02
791.219	25205.89
791.552	25097.65
791.884	24941.72
792.217	24976.52
792.549	24903.75
792.882	24678.67
793.214	24658.33
793.546	24771.78
793.879	24532.24
794.211	24372.69
794.543	24527.26
794.875	24458.11
795.207	24444.1
795.539	24277.78
795.871	24322.3
796.203	24004.34
796.535	23843.67
796.867	23937.9
797.198	23805.25
797.53	23858.13
797.862	23684.57
798.193	23709.89
798.525	23465.15
798.856	23594.63
799.188	23382.44
799.519	23216.11
799.85	23130.01
800.182	23074.87
800.513	23051.37
800.844	22895.9
801.175	22975.44
801.506	22876.01
801.837	22781.55
802.168	22678.95
802.499	22598.05
802.83	22558.73
803.161	22511.5
803.491	22345.4
803.822	22363.71
804.153	22203.71
804.483	22228.12
804.814	22092.75
805.145	22006.2
805.475	22084.17
805.805	21890.95
806.136	21886.2
806.466	21933.89
806.796	21794.91
807.126	21744.29
807.457	21598.53
807.787	21613.44
808.117	21496.16
808.447	21487.12
808.777	21447.35
809.107	21352.43
809.436	21273.79
809.766	21190.18
810.096	21115.15
810.426	21101.37
810.755	21140.01
811.085	21090.52
811.414	21038.32
811.744	20798.1
812.073	20783.18
812.403	20739.12
812.732	20717.65
813.061	20695.5
813.39	20497.54
813.719	20560.82
814.049	20559.91
814.378	20523.53
814.707	20400.59
815.036	20388.62
815.365	20172.8
815.693	20152.24
816.022	19994.05
816.351	20063.43
816.68	19963.09
817.008	20000.15
817.337	19901.17
817.665	19692.14
817.994	19832.02
818.322	19794.28
818.651	19674.06
818.979	19556.1
819.307	19721.29
819.636	19623.21
819.964	19524.23
820.292	19674.74
820.62	19530.33
820.948	19487.17
821.276	19466.38
821.604	19413.73
821.932	19475.19
822.259	19504.8
822.587	19495.31
822.915	19423.22
823.243	19486.27
823.57	19369.21
823.898	19445.36
824.225	19374.86
824.553	19382.77
824.88	19370.79
825.207	19448.75
825.535	19302.54
825.862	19369.21
826.189	19312.94
826.516	19344.12
826.843	19291.7
827.17	19260.96
827.497	19298.25
827.824	19331.02
828.151	19449.66
828.478	19266.16
828.805	19390
829.131	19218.93
829.458	19217.35
829.785	19270.91
830.111	19189.33
830.438	19378.25
830.764	19208.76
831.09	19186.16
831.417	19179.61
831.743	19192.49
832.069	19281.07
832.395	19209.89
832.722	19238.82
833.048	19117.69
833.374	19228.42
833.7	19027.07
834.026	19059.39
834.351	19147.29
834.677	19085.15
835.003	19189.33
835.329	19112.27
835.654	19086.73
835.98	19076.56
836.306	19027.3
836.631	18947.52
836.956	18799.51
837.282	18979.84
837.607	18794.31
837.932	18716.8
838.258	18839.5
838.583	18783.69
838.908	18752.28
839.233	18740.07
839.558	18663.69
839.883	18490.36
840.208	18546.4
840.533	18540.76
840.858	18435.67
841.182	18444.49
841.507	18442
841.832	18382.34
842.156	18262.57
842.481	18315.9
842.805	18244.04
843.13	18183.48
843.454	18218.96
843.778	18099.64
844.103	18026.87
844.427	18080.65
844.751	18133.99
845.075	17993.43
845.399	17909.59
845.723	17808.8
846.047	17828.68
846.371	17760.66
846.695	17683.15
847.019	17568.35
847.343	17542.59
847.666	17411.29
847.99	17375.59
848.313	17347.34
848.637	17228.02
848.96	17163.62
849.284	17122.26
849.607	17010.85
849.931	17036.61
850.254	16849.5
850.577	16741.71
850.9	16664.87
851.223	16644.53
851.546	16552.11
851.869	16392.11
852.192	16534.03
852.515	16319.12
852.838	16355.28
853.161	16308.72
853.483	16247.71
853.806	16215.84
854.129	16219.91
854.451	16125.68
854.774	15920.03
855.096	15898.34
855.419	15876.87
855.741	15811.11
856.063	15815.4
856.385	15780.6
856.708	15697.21
857.03	15607.5
857.352	15621.28
857.674	15538.12
857.996	15501.06
858.318	15431.91
858.64	15443.66
858.961	15379.03
859.283	15356.43
859.605	15372.7
859.926	15233.95
860.248	15221.75
860.57	15206.15
860.891	15144.46
861.212	15134.07
861.534	15089.09
861.855	15059.49
862.176	15020.17
862.498	14952.38
862.819	14942.21
863.14	14906.27
863.461	14884.81
863.782	14877.57
864.103	14915.99
864.424	14744.02
864.745	14826.05
865.065	14660.41
865.386	14641.2
865.707	14666.51
866.027	14663.8
866.348	14609.11
866.668	14635.32
866.989	14583.8
867.309	14426.97
867.63	14509.9
867.95	14476.23
868.27	14375.44
868.59	14462.22
868.91	14330.7
869.23	14309.45
869.55	14315.1
869.87	14396.01
870.19	14306.74
870.51	14295.67
870.83	14283.69
871.15	14210.25
871.469	14215.67
871.789	14158.5
872.109	14120.31
872.428	14046.64
872.748	14153.07
873.067	14143.81
873.386	14114.21
873.706	14070.82
874.025	14029.69
874.344	13923.93
874.663	13958.5
874.982	13987.65
875.301	14007.09
875.62	13874.89
875.939	13886.87
876.258	13871.5
876.577	13795.8
876.896	13852.74
877.214	13830.37
877.533	13740.88
877.852	13833.31
878.17	13779.52
878.489	13756.25
878.807	13671.28
879.125	13648.23
879.444	13615.24
879.762	13603.48
880.08	13532.98
880.398	13479.42
880.716	13536.14
881.034	13403.49
881.352	13408.24
881.67	13389.93
881.988	13451.17
882.306	13316.03
882.624	13349.93
882.941	13264.06
883.259	13236.04
883.577	13184.06
883.894	13188.81
884.212	13161.46
884.529	13080.33
884.846	13072.42
885.164	13000.34
885.481	12955.82
885.798	13070.84
886.115	12900.45
886.432	12902.94
886.75	12888.47
887.067	12894.8
887.383	12797.4
887.7	12828.82
888.017	12793.34
888.334	12862.03
888.651	12748.59
888.967	12700.68
889.284	12595.6
889.6	12674.02
889.917	12535.94
890.233	12560.8
890.55	12478.09
890.866	12462.05
891.182	12416.17
891.498	12391.09
891.815	12365.32
892.131	12310.18
892.447	12335.49
892.763	12297.98
893.079	12224.54
893.395	12218.21
893.71	12113.58
894.026	12127.59
894.342	12045.33
894.657	11920.36
894.973	11974.37
895.289	11987.71
895.604	11830.65
895.92	11857.54
896.235	11854.6
896.55	11765.34
896.865	11795.4
897.181	11707.49
897.496	11719.01
897.811	11625.46
898.126	11649.19
898.441	11620.94
898.756	11556.08
899.071	11430.66
899.386	11505.91
899.7	11344.56
900.015	11338.01
900.33	11282.42
900.644	11316.99
900.959	11223.21
901.273	11236.31
901.588	11075.42
901.902	11091.91
902.216	11058.24
902.531	11082.19
902.845	10995.42
903.159	11003.55
903.473	10923.1
903.787	10827.29
904.101	10837.68
904.415	10796.55
904.729	10728.53
905.042	10651.25
905.356	10630
905.67	10642.43
905.984	10662.32
906.297	10528.54
906.611	10475.88
906.924	10469.1
907.237	10438.14
907.551	10331.25
907.864	10357.02
908.177	10258.49
908.491	10248.77
908.804	10176
909.117	10173.52
909.43	10151.37
909.743	10069.79
910.056	10062.79
910.368	9998.61
910.681	10007.19
910.994	9932.62
911.307	9968.33
911.619	9828.44
911.932	9897.59
912.244	9825.73
912.557	9687.88
912.869	9690.14
913.181	9620.99
913.494	9582.12
913.806	9590.26
914.118	9519.98
914.43	9477.04
914.742	9480.65
915.054	9405.85
915.366	9387.32
915.678	9329.02
915.99	9293.09
916.302	9203.83
916.613	9214.9
916.925	9133.09
917.236	9176.48
917.548	9058.29
917.859	9094.22
918.171	9006.99
918.482	8960.67
918.794	8919.99
919.105	8893.78
919.416	8815.36
919.727	8847.9
920.038	8749.83
920.349	8682.48
920.66	8708.25
920.971	8676.38
921.282	8653.33
921.593	8550.74
921.903	8475.71
922.214	8498.76
922.525	8472.55
922.835	8470.29
923.146	8353.9
923.456	8354.58
923.767	8354.36
924.077	8385.32
924.387	8247.01
924.697	8248.14
925.008	8287.47
925.318	8173.12
925.628	8147.58
925.938	8169.28
926.248	8048.6
926.558	8029.62
926.867	7954.59
927.177	7998.21
927.487	7908.27
927.796	7831.21
928.106	7801.83
928.416	7791.89
928.725	7764.54
929.034	7713.92
929.344	7781.72
929.653	7663.3
929.962	7642.28
930.271	7613.59
930.581	7597.09
930.89	7541.95
931.199	7468.05
931.508	7499.24
931.817	7462.85
932.125	7435.74
932.434	7392.8
932.743	7317.77
933.051	7269.87
933.36	7245.69
933.669	7245.69
933.977	7180.83
934.286	7182.64
934.594	7165.69
934.902	7084.56
935.21	7048.85
935.519	7103.09
935.827	7040.27
936.135	6971.57
936.443	6931.12
936.751	6912.36
937.059	6932.93
937.367	6828.75
937.674	6847.5
937.982	6818.13
938.29	6765.47
938.597	6758.47
938.905	6649.77
939.213	6633.5
939.52	6639.6
939.827	6604.8
940.135	6548.08
940.442	6549.43
940.749	6531.58
941.056	6535.87
941.363	6442.54
941.67	6414.07
941.977	6394.18
942.284	6374.07
942.591	6391.92
942.898	6340.4
943.205	6327.97
943.511	6290.23
943.818	6278.7
944.125	6230.8
944.431	6226.28
944.738	6219.27
945.044	6137.47
945.35	6119.84
945.657	6106.96
945.963	6072.38
946.269	6043
946.575	5997.13
946.881	5989.22
947.187	5970.46
947.493	5915.1
947.799	5879.85
948.105	5860.64
948.41	5825.61
948.716	5775.67
949.022	5800.07
949.327	5769.11
949.633	5647.08
949.938	5686.86
950.244	5703.13
950.549	5628.78
950.854	5616.35
951.16	5612.06
951.465	5567.76
951.77	5555.11
952.075	5526.18
952.38	5474.21
952.685	5514.21
952.99	5448.67
953.294	5440.08
953.599	5429.69
953.904	5400.54
954.209	5377.49
954.513	5407.99
954.818	5353.31
955.122	5269.69
955.426	5301.56
955.731	5284.15
956.035	5207.32
956.339	5243.25
956.643	5208
956.948	5182.91
957.252	5136.14
957.556	5127.77
957.86	5140.66
958.163	5121.9
958.467	5068.34
958.771	5011.62
959.075	5014.33
959.378	4993.32
959.682	4994.22
959.985	4954.45
960.289	4946.99
960.592	4889.81
960.896	4898.4
961.199	4855.69
961.502	4852.75
961.805	4754.68
962.108	4747.9
962.411	4782.47
962.714	4730.95
963.017	4721.01
963.32	4750.16
963.623	4693.89
963.926	4644.62
964.228	4661.12
964.531	4606.88
964.833	4615.02
965.136	4547.23
965.438	4557.62
965.741	4562.82
966.043	4520.33
966.345	4469.49
966.648	4501.58
966.95	4490.28
967.252	4413.67
967.554	4425.42
967.856	4436.27
968.158	4306.55
968.46	4319.66
968.761	4311.3
969.063	4296.38
969.365	4254.8
969.666	4245.76
969.968	4230.85
970.269	4257.74
970.571	4206.67
970.872	4180
971.174	4182.94
971.475	4233.56
971.776	4159.21
972.077	4157.4
972.378	4084.41
972.679	4095.26
972.98	4113.11
973.281	4048.71
973.582	4046.9
973.883	4029.72
974.183	3970.52
974.484	3943.85
974.785	3926
975.085	3970.29
975.386	3935.72
975.686	3895.49
975.986	3870.18
976.287	3864.98
976.587	3863.18
976.887	3870.63
977.187	3821.82
977.487	3775.72
977.787	3766.23
978.087	3792.44
978.387	3797.19
978.687	3794.7
978.987	3767.81
979.286	3669.51
979.586	3699.56
979.885	3654.37
980.185	3620.92
980.484	3624.76
980.784	3633.12
981.083	3619.57
981.382	3585.89
981.682	3597.19
981.981	3575.73
982.28	3567.36
982.579	3557.42
982.878	3508.61
983.177	3511.77
983.475	3488.95
983.774	3485.11
984.073	3460.25
984.372	3410.76
984.67	3421.6
984.969	3381.15
985.267	3366.92
985.566	3392
985.864	3367.14
986.162	3323.3
986.461	3310.42
986.759	3317.43
987.057	3264.09
987.355	3257.09
987.653	3265.22
987.951	3235.4
988.249	3226.13
988.547	3214.6
988.844	3207.83
989.142	3218.67
989.44	3166.02
989.737	3155.85
990.035	3129.41
990.332	3132.8
990.63	3081.27
990.927	3093.03
991.224	3121.27
991.521	3054.61
991.819	3065.91
992.116	3075.63
992.413	2992.69
992.71	3001.95
993.006	2989.75
993.303	2971.45
993.6	2995.85
993.897	2962.86
994.193	2941.39
994.49	2907.49
994.787	2897.55
995.083	2882.86
995.379	2868.4
995.676	2840.15
995.972	2834.73
996.268	2840.83
996.565	2795.86
996.861	2800.83
997.157	2801.51
997.453	2772.81
997.749	2761.96
998.044	2760.83
998.34	2741.85
998.636	2726.48
998.932	2706.14
999.227	2660.27
999.523	2701.17
999.818	2676.31
1000.114	2607.84
1000.409	2629.99
1000.704	2595.19
1001	2634.96
1001.295	2577.11
1001.59	2565.36
1001.885	2594.28
1002.18	2553.83
1002.475	2516.54
1002.77	2533.94
1003.065	2467.96
1003.359	2514.51
1003.654	2462.53
1003.949	2441.74
1004.243	2448.07
1004.538	2444.91
1004.832	2420.28
1005.127	2411.24
1005.421	2400.61
1005.715	2413.04
1006.009	2361.29
1006.304	2350.45
1006.598	2340.96
1006.892	2331.24
1007.186	2322.65
1007.48	2284.91
1007.773	2270.9
1008.067	2282.2
1008.361	2241.52
1008.655	2220.05
1008.948	2216.21
1009.242	2234.97
1009.535	2199.04
1009.829	2191.58
1010.122	2175.99
1010.415	2148.42
1010.708	2151.58
1011.001	2142.54
1011.295	2125.14
1011.588	2122.88
1011.881	2095.09
1012.173	2076.56
1012.466	2073.17
1012.759	2070.23
1013.052	2035.2
1013.344	2044.69
1013.637	2039.27
1013.93	1985.71
1014.222	1978.71
1014.514	1990
1014.807	1968.99
1015.099	1953.39
1015.391	1938.71
1015.683	1927.63
1015.976	1952.94
1016.268	1901.87
1016.56	1882.44
1016.851	1901.64
1017.143	1874.75
1017.435	1868.65
1017.727	1850.8
1018.018	1843.12
1018.31	1836.56
1018.602	1823.68
1018.893	1820.74
1019.185	1768.32
1019.476	1774.42
1019.767	1751.14
1020.058	1758.6
1020.35	1766.73
1020.641	1746.62
1020.932	1707.75
1021.223	1710.01
1021.514	1716.34
1021.804	1677.7
1022.095	1670.46
1022.386	1634.08
1022.677	1679.5
1022.967	1626.85
1023.258	1616.68
1023.548	1613.29
1023.839	1618.94
1024.129	1592.73
1024.419	1588.88
1024.709	1578.49
1025	1561.77
1025.29	1564.7
1025.58	1543.24
1025.87	1533.74
1026.16	1499.4
1026.449	1501.88
1026.739	1478.15
1027.029	1528.77
1027.319	1479.28
1027.608	1491.49
1027.898	1473.63
1028.187	1463.46
1028.477	1440.41
1028.766	1416.69
1029.055	1418.04
1029.344	1387.99
1029.634	1398.83
1029.923	1406.06
1030.212	1393.86
1030.501	1380.08
1030.79	1367.87
1031.078	1351.83
1031.367	1342.79
1031.656	1336.01
1031.945	1310.02
1032.233	1330.36
1032.522	1302.11
1032.81	1270.93
1033.099	1282.9
1033.387	1283.36
1033.675	1257.14
1033.963	1262.79
1034.251	1256.69
1034.54	1219.18
1034.828	1254.88
1035.116	1211.95
1035.403	1220.76
1035.691	1194.32
1035.979	1209.91
1036.267	1191.83
1036.554	1171.27
1036.842	1142.57
1037.129	1161.55
1037.417	1155.9
1037.704	1164.26
1037.992	1151.16
1038.279	1106.86
1038.566	1113.64
1038.853	1113.64
1039.14	1113.64
