Data from White_paper_FLMS001491_096.txt Node
Date: Tue Feb 07 10:35:50 GMT 2017
User: dcchb
Spectrometer: FLMS00149
Trigger mode: 0
Integration Time (sec): 2.000000E-2
Scans to average: 10
Electric dark correction enabled: true
Nonlinearity correction enabled: false
Boxcar width: 0
XAxis mode: Wavelengths
Number of Pixels in Spectrum: 2048
>>>>>Begin Spectral Data<<<<<
341.393	-4.1
341.776	-4.1
342.16	-4.1
342.543	-64.89
342.927	-66.47
343.31	-71.21
343.693	-68.73
344.077	-72.79
344.46	-55.62
344.843	-50.42
345.226	-30.76
345.61	-15.85
345.993	-19.46
346.376	-1.16
346.759	-4.1
347.142	31.84
347.525	49.91
347.908	69.8
348.291	46.98
348.674	91.95
349.057	99.63
349.44	132.85
349.823	143.7
350.206	166.52
350.588	202.9
350.971	218.95
351.354	251.72
351.737	265.28
352.119	255.11
352.502	298.72
352.884	299.4
353.267	323.81
353.65	317.7
354.032	312.28
354.414	346.86
354.797	366.74
355.179	357.02
355.562	339.62
355.944	366.06
356.326	366.74
356.709	391.15
357.091	353.86
357.473	376.01
357.855	381.43
358.238	378.49
358.62	374.2
359.002	372.39
359.384	373.07
359.766	354.99
360.148	357.48
360.53	358.38
360.912	361.09
361.294	358.61
361.676	372.39
362.057	370.58
362.439	368.55
362.821	351.15
363.203	384.82
363.584	375.56
363.966	366.97
364.348	358.15
364.729	387.53
365.111	386.85
365.493	346.18
365.874	357.25
366.256	362.67
366.637	354.09
367.019	372.84
367.4	353.41
367.781	355.67
368.163	353.18
368.544	367.42
368.925	349.12
369.306	364.48
369.688	380.75
370.069	372.39
370.45	346.18
370.831	355.67
371.212	341.21
371.593	378.49
371.974	369.91
372.355	351.15
372.736	388.21
373.117	377.14
373.498	365.61
373.879	364.03
374.26	361.54
374.641	378.04
375.021	361.32
375.402	369
375.783	375.78
376.163	379.85
376.544	364.03
376.925	399.96
377.305	381.2
377.686	378.72
378.066	387.08
378.447	367.19
378.827	405.16
379.208	424.59
379.588	397.25
379.968	373.07
380.349	406.51
380.729	381.43
381.109	407.87
381.489	424.37
381.87	411.26
382.25	402
382.63	418.72
383.01	403.8
383.39	406.29
383.77	435.89
384.15	427.53
384.53	426.63
384.91	426.63
385.29	429.11
385.67	434.31
386.049	434.99
386.429	434.99
386.809	446.51
387.189	448.55
387.568	459.62
387.948	449.45
388.328	457.36
388.707	472.73
389.087	478.6
389.466	461.43
389.846	493.29
390.225	489
390.605	475.89
390.984	477.02
391.363	472.5
391.743	513.18
392.122	507.98
392.501	508.21
392.881	513.4
393.26	525.38
393.639	513.18
394.018	546.85
394.397	538.94
394.776	534.65
395.155	546.85
395.534	564.02
395.913	571.03
396.292	564.25
396.671	589.11
397.05	553.18
397.429	570.58
397.808	593.85
398.186	571.93
398.565	609.67
398.944	607.41
399.323	599.28
399.701	594.08
400.08	611.26
400.458	607.64
400.837	640.86
401.215	645.15
401.594	645.6
401.972	657.13
402.351	644.47
402.729	659.84
403.107	675.89
403.486	683.34
403.864	688.54
404.242	733.74
404.62	709.33
404.999	714.3
405.377	761.76
405.755	762.89
406.133	793.4
406.511	792.49
406.889	794.3
407.267	812.15
407.645	806.05
408.023	856.22
408.401	846.28
408.779	884.24
409.156	907.29
409.534	903
409.912	946.39
410.29	961.75
410.667	996.33
411.045	1041.53
411.422	1032.94
411.8	1078.81
412.178	1103.45
412.555	1103.22
412.933	1150
413.31	1161.98
413.687	1231.13
414.065	1231.35
414.442	1262.31
414.819	1307.06
415.197	1316.32
415.574	1357
415.951	1385.25
416.328	1381.63
416.705	1412.14
417.082	1410.1
417.46	1453.94
417.837	1473.61
418.214	1488.97
418.591	1534.62
418.967	1535.52
419.344	1572.59
419.721	1623.66
420.098	1618.23
420.475	1660.49
420.852	1667.05
421.228	1716.76
421.605	1717.21
421.982	1770.32
422.358	1818.68
422.735	1808.29
423.111	1800.15
423.488	1853.03
423.864	1857.32
424.241	1904.1
424.617	1917.89
424.994	1927.15
425.37	1958.79
425.746	1991.78
426.123	2011.67
426.499	2052.57
426.875	2062.97
427.251	2109.29
427.627	2159.91
428.003	2145.45
428.379	2196.07
428.756	2211.21
429.132	2279.69
429.507	2308.16
429.883	2370.3
430.259	2398.78
430.635	2399.68
431.011	2420.93
431.387	2502.96
431.763	2526.91
432.138	2558.77
432.514	2556.74
432.89	2601.71
433.265	2672.22
433.641	2726.68
434.016	2768.94
434.392	2787.24
434.767	2862.04
435.143	2834.47
435.518	2879.44
435.894	2901.82
436.269	2917.18
436.644	3018.65
437.02	3022.94
437.395	3043.51
437.77	3080.57
438.145	3128.93
438.52	3157.18
438.895	3200.11
439.271	3198.98
439.646	3285.08
440.021	3327.12
440.395	3325.53
440.77	3308.36
441.145	3347
441.52	3418.64
441.895	3444.85
442.27	3432.65
442.645	3480.78
443.019	3530.5
443.394	3482.82
443.769	3539.31
444.143	3532.08
444.518	3625.64
444.892	3562.36
445.267	3608.92
445.641	3675.13
446.016	3679.42
446.39	3729.37
446.764	3717.61
447.139	3689.14
447.513	3758.07
447.887	3775.24
448.262	3839.42
448.636	3833.54
449.01	3891.62
449.384	3917.61
449.758	3971.84
450.132	4013.88
450.506	4018.17
450.88	4024.5
451.254	4072.86
451.628	4073.54
452.002	4176.81
452.376	4177.72
452.75	4206.87
453.123	4229.01
453.497	4326.19
453.871	4304.27
454.244	4446.41
454.618	4443.92
454.992	4515.11
455.365	4516.24
455.739	4643.24
456.112	4672.62
456.486	4709.23
456.859	4784.48
457.232	4822.67
457.606	4817.47
457.979	4920.07
458.352	5031.48
458.725	5079.39
459.099	5092.95
459.472	5167.97
459.845	5266.95
460.218	5301.53
460.591	5345.82
460.964	5384.24
461.337	5449.09
461.71	5532.26
462.083	5660.16
462.456	5646.38
462.829	5657.45
463.201	5777.67
463.574	5809.31
463.947	5870.1
464.32	6015.86
464.692	6068.06
465.065	6137.44
465.438	6231.67
465.81	6301.95
466.183	6375.4
466.555	6526.81
466.928	6519.8
467.3	6533.36
467.672	6678.67
468.045	6816.97
468.417	6842.5
468.789	6886.34
469.161	6962.73
469.534	7129.5
469.906	7208.6
470.278	7307.12
470.65	7371.3
471.022	7540.56
471.394	7691.07
471.766	7745.08
472.138	7869.82
472.51	8050.83
472.882	8110.72
473.253	8258.51
473.625	8303.26
473.997	8496.7
474.369	8522.46
474.74	8614.43
475.112	8772.62
475.484	8973.52
475.855	9092.16
476.227	9249.67
476.598	9479.5
476.97	9570.12
477.341	9690.34
477.713	9852.82
478.084	9937.34
478.455	10291.68
478.827	10313.82
479.198	10602.4
479.569	10545.46
479.94	10850.76
480.311	11004.65
480.682	11227.25
481.053	11485.32
481.424	11630.85
481.795	11769.38
482.166	11927.34
482.537	12096.38
482.908	12350.61
483.279	12424.28
483.65	12682.12
484.021	12898.62
484.391	13042.57
484.762	13183.13
485.133	13326.85
485.503	13500.63
485.874	13809.78
486.244	13904.92
486.615	14108.75
486.985	14344
487.356	14572.92
487.726	14696.76
488.097	14989.41
488.467	15056.3
488.837	15356.63
489.207	15516.4
489.578	15692.89
489.948	15838.43
490.318	16130.62
490.688	16166.78
491.058	16425.3
491.428	16584.17
491.798	16735.35
492.168	17145.51
492.538	17194.1
492.908	17350.25
493.278	17567.65
493.648	17523.35
494.017	17873.63
494.387	17970.12
494.757	18084.24
495.126	18283.33
495.496	18371.47
495.866	18418.47
496.235	18757.44
496.605	18889.64
496.974	18908.4
497.344	19164.21
497.713	19200.6
498.082	19369.86
498.452	19593.58
498.821	19684.65
499.19	19756.51
499.559	19984.31
499.928	20119.67
500.298	20150.63
500.667	20347.23
501.036	20359.44
501.405	20549.94
501.774	20677.17
502.143	20795.81
502.512	20956.48
502.88	21123.94
503.249	21132.75
503.618	21327.32
503.987	21435.11
504.356	21587.2
504.724	21660.65
505.093	21705.16
505.462	21914.42
505.83	22003.01
506.199	22247.07
506.567	22593.73
506.936	22543.11
507.304	22777.45
507.672	22795.53
508.041	22970.89
508.409	23126.6
508.777	23400.03
509.145	23458.11
509.514	23501.5
509.882	23614.27
510.25	23814.26
510.618	23919.12
510.986	24088.15
511.354	24216.06
511.722	24522.04
512.09	24642.26
512.458	24663.96
512.826	24917.96
513.193	25133.1
513.561	25049.26
513.929	25359.08
514.297	25613.76
514.664	25760.2
515.032	25829.8
515.4	26006.29
515.767	26201.09
516.135	26302.33
516.502	26173.07
516.869	26648.99
517.237	26725.6
517.604	26683.34
517.972	27112.03
518.339	27226.83
518.706	27286.94
519.073	27483.32
519.44	27647.61
519.808	27937.32
520.175	28008.73
520.542	28167.37
520.909	28297.98
521.276	28475.61
521.643	28818.88
522.009	29018.42
522.376	29198.07
522.743	29371.4
523.11	29552.87
523.477	29737.27
523.843	29894.1
524.21	30327.99
524.577	30485.05
524.943	30547.42
525.31	30806.62
525.676	31069.89
526.043	31251.81
526.409	31341.52
526.776	31645.47
527.142	31718.23
527.508	32042.52
527.874	32287.03
528.241	32544.43
528.607	32537.87
528.973	32789.62
529.339	32847.02
529.705	33206.1
530.071	33410.62
530.437	33621.91
530.803	33861.45
531.169	33892.19
531.535	34048.79
531.901	34213.99
532.267	34367.88
532.632	34586.41
532.998	34651.04
533.364	34903.91
533.73	34892.61
534.095	35260.29
534.461	35552.71
534.826	35572.14
535.192	35658.7
535.557	35878.35
535.923	35994.28
536.288	36181.17
536.653	36333.93
537.019	36204.67
537.384	36435.85
537.749	36550.2
538.114	36795.84
538.479	36718.33
538.845	36875.84
539.21	36940.7
539.575	37111.99
539.94	37276.73
540.305	37488.93
540.67	37314.02
541.034	37689.83
541.399	37742.71
541.764	37998.29
542.129	38040.1
542.494	38115.81
542.858	38342.24
543.223	38403.26
543.587	38655
543.952	38608.67
544.316	38669.24
544.681	38836.46
545.045	38923.92
545.41	39257.47
545.774	39161.2
546.138	39385.15
546.503	39442.55
546.867	39597.8
547.231	39942.65
547.595	39884.57
547.959	39988.07
548.324	40107.84
548.688	40209.54
549.052	40432.81
549.416	40404.56
549.779	40539.92
550.143	40643.42
550.507	40863.3
550.871	41113.02
551.235	41005.22
551.599	41350.3
551.962	41307.13
552.326	41539.9
552.689	41844.07
553.053	41749.61
553.417	41858.08
553.78	42253.1
554.143	42080
554.507	42366.54
554.87	42506.42
555.234	42880.88
555.597	42572.41
555.96	42832.07
556.323	43057.6
556.686	43245.39
557.05	43483.12
557.413	43452.61
557.776	43606.51
558.139	43710.01
558.502	43926.5
558.865	43876.33
559.228	44245.81
559.59	44412.59
559.953	44550.44
560.316	44903.65
560.679	45006.47
561.041	45190.65
561.404	45279.23
561.767	45537.31
562.129	45288.72
562.492	45796.73
562.854	45742.27
563.217	45899.33
563.579	46006.22
563.941	46347.91
564.304	46510.39
564.666	46717.39
565.028	46723.04
565.39	46937.04
565.753	47142.69
566.115	47224.94
566.477	47297.03
566.839	47407.99
567.201	47827.64
567.563	47668.1
567.925	48059.95
568.287	48047.3
568.648	48207.52
569.01	48473.05
569.372	48622.42
569.734	48499.71
570.095	48889.08
570.457	48938.35
570.819	48920.04
571.18	49059.47
571.542	49320.48
571.903	49374.49
572.265	49432.34
572.626	49701.49
572.987	49689.51
573.349	49859
573.71	49998.66
574.071	50092.44
574.432	50157.52
574.794	50407.23
575.155	50335.15
575.516	50251.31
575.877	50470.28
576.238	50628.7
576.599	50751.86
576.96	50759.77
577.32	50813.78
577.681	51030.72
578.042	51066.88
578.403	51054.9
578.763	51156.14
579.124	51073.43
579.485	51401.33
579.845	51452.86
580.206	51432.74
580.566	51450.37
580.927	51491.95
581.287	51563.81
581.648	51425.74
582.008	51678.39
582.368	51697.37
582.728	51670.93
583.089	51676.81
583.449	51724.94
583.809	51700.53
584.169	51824.37
584.529	51775.11
584.889	52039.06
585.249	51936.91
585.609	51788.89
585.969	52093.74
586.329	51950.47
586.688	52023.24
587.048	52073.86
587.408	52012.84
587.768	52001.09
588.127	52066.4
588.487	51967.19
588.846	52341.42
589.206	52038.83
589.565	52076.57
589.925	52321.08
590.284	52166.06
590.643	52234.3
591.003	52260.07
591.362	52408.09
591.721	52347.75
592.08	52355.43
592.44	52347.97
592.799	52446.5
593.158	52357.01
593.517	52406.96
593.876	52499.38
594.235	52332.61
594.593	52452.6
594.952	52551.81
595.311	52509.33
595.67	52555.88
596.029	52738.25
596.387	52753.39
596.746	52732.6
597.104	52498.93
597.463	52679.26
597.822	52818.47
598.18	52668.64
598.538	52622.77
598.897	52846.04
599.255	52580.96
599.613	53078.8
599.972	52794.06
600.33	52971.23
600.688	52753.61
601.046	52961.07
601.404	53135.98
601.762	52997.45
602.12	53147.05
602.478	53194.51
602.836	53075.64
603.194	52916.09
603.552	53041.06
603.91	52924
604.268	53174.17
604.625	53077.9
604.983	53216.43
605.341	52997
605.698	53305.24
606.056	53305.46
606.413	53232.92
606.771	53347.72
607.128	53311.11
607.485	53313.37
607.843	53288.97
608.2	53434.27
608.557	53474.95
608.914	53396.76
609.272	53554.5
609.629	53626.81
609.986	53729.41
610.343	53557.21
610.7	53749.97
611.057	53727.37
611.414	53676.07
611.771	53745.23
612.127	53819.57
612.484	53785
612.841	53900.02
613.198	53773.93
613.554	53925.79
613.911	54014.37
614.267	53961.04
614.624	53946.12
614.98	53994.26
615.337	54156.74
615.693	53998.1
616.05	54061.15
616.406	54173.24
616.762	53966.24
617.118	54061.38
617.475	54082.62
617.831	54193.8
618.187	54205.55
618.543	54187.7
618.899	54377.07
619.255	54368.71
619.611	54299.33
619.967	54383.17
620.323	54413
620.678	54318.77
621.034	54236.74
621.39	54279.9
621.746	54263.4
622.101	54526.45
622.457	54337.07
622.812	54379.78
623.168	54420.69
623.523	54353.34
623.879	54443.74
624.234	54300.69
624.589	54366.68
624.945	54420.46
625.3	54461.59
625.655	54367.13
626.01	54398.54
626.365	54464.3
626.72	54352.21
627.075	54478.09
627.43	54373.23
627.785	54385.66
628.14	54429.28
628.495	54496.62
628.85	54409.39
629.205	54395.6
629.559	54498.65
629.914	54371.42
630.269	54414.59
630.623	54345.44
630.978	54258.43
631.332	54423.4
631.687	54509.95
632.041	54375.27
632.396	54444.87
632.75	54242.39
633.104	54319
633.459	54232.22
633.813	54197.64
634.167	54263.86
634.521	54175.27
634.875	54310.41
635.229	54139.79
635.583	54077.19
635.937	54143.18
636.291	54105.67
636.645	54144.31
636.999	54035.84
637.352	54181.37
637.706	53914.03
638.06	54069.51
638.413	53982.28
638.767	53906.35
639.121	54027.7
639.474	53901.83
639.828	53771.89
640.181	53876.75
640.534	53909.06
640.888	53807.6
641.241	53728.95
641.594	53846.69
641.947	53829.97
642.301	53765.79
642.654	53702.29
643.007	53812.57
643.36	53698.45
643.713	53711.1
644.066	53746.13
644.419	53582.97
644.771	53426.59
645.124	53140.95
645.477	53071.34
645.83	52953.83
646.182	52815.08
646.535	52760.62
646.888	52889.65
647.24	52632.71
647.593	52837.68
647.945	52704.57
648.298	52636.33
648.65	52580.74
649.002	52462.77
649.355	52612.37
649.707	52564.24
650.059	52726.95
650.411	53129.65
650.763	53203.32
651.115	53497.77
651.467	53320.83
651.819	53376.65
652.171	53288.74
652.523	53281.06
652.875	53250.55
653.227	53083.77
653.578	53312.92
653.93	53307.95
654.282	53137.33
654.633	53030.44
654.985	53060.5
655.337	53129.65
655.688	53126.48
656.039	53249.19
656.391	53056.88
656.742	52952.25
657.094	52976.66
657.445	53081.74
657.796	53019.37
658.147	53022.08
658.498	53000.61
658.849	53030.22
659.2	52944.57
659.551	52862.08
659.902	53007.17
660.253	52940.5
660.604	52960.39
660.955	52885.59
661.306	52887.39
661.656	52863.67
662.007	52880.62
662.358	52744.35
662.708	52788.87
663.059	52851.46
663.409	52578.7
663.76	52864.8
664.11	52778.7
664.461	52886.94
664.811	52703.67
665.161	52820.28
665.511	52619.83
665.862	52718.36
666.212	52868.41
666.562	52776.44
666.912	52671.36
667.262	52658.7
667.612	52656.21
667.962	52698.25
668.312	52576.44
668.662	52667.06
669.011	52627.51
669.361	52550.91
669.711	52495.31
670.06	52505.94
670.41	52453.06
670.76	52384.36
671.109	52504.13
671.459	52489.44
671.808	52301.87
672.157	52464.58
672.507	52269.56
672.856	52285.6
673.205	52320.86
673.554	52388.42
673.904	52336.45
674.253	52342.78
674.602	52248.09
674.951	51810.13
675.3	51604.94
675.649	52113.63
675.998	52032.05
676.346	52188.43
676.695	52217.58
677.044	52020.52
677.393	51985.95
677.741	52009.45
678.09	51839.29
678.438	51904.37
678.787	51976.46
679.135	51862.34
679.484	51693.3
679.832	51760.19
680.181	51607.43
680.529	51566.53
680.877	51555.23
681.225	51477.94
681.573	51674.32
681.922	51412.18
682.27	51333.99
682.618	51303.26
682.966	51162.24
683.314	51350.26
683.661	51076.14
684.009	50893.1
684.357	51015.58
684.705	50873.44
685.053	50870.95
685.4	50824.62
685.748	50630.05
686.095	50631.63
686.443	50537.85
686.79	50410.4
687.138	50598.87
687.485	50462.15
687.832	50300.12
688.18	50318.42
688.527	50135.83
688.874	50129.05
689.221	50044.98
689.568	49946.91
689.915	49783.3
690.262	49727.48
690.609	49636.63
690.956	49564.77
691.303	49516.64
691.65	49348.96
691.997	49430.31
692.344	49127.49
692.69	49079.81
693.037	49155.52
693.383	48813.38
693.73	48896.54
694.077	48694.51
694.423	48739.93
694.769	48465.36
695.116	48448.19
695.462	48431.24
695.808	48228.99
696.155	48367.06
696.501	47907.19
696.847	48076.45
697.193	47772.27
697.539	47890.69
697.885	47638.27
698.231	47452.06
698.577	47442.57
698.923	47409.12
699.269	47287.99
699.614	47023.14
699.96	46889.13
700.306	47079.19
700.651	46790.15
700.997	46673.09
701.342	46668.35
701.688	46591.29
702.033	46456.83
702.379	46400.11
702.724	46277.62
703.069	46382.48
703.415	45897.97
703.76	45972.32
704.105	45958.31
704.45	45816.39
704.795	45536.85
705.14	45423.18
705.485	45522.62
705.83	45306.58
706.175	45430.42
706.52	45278.78
706.865	45078.56
707.209	45037.43
707.554	44963.08
707.899	45074.04
708.243	44789.08
708.588	44717.44
708.932	44526.71
709.277	44420.5
709.621	44554.96
709.966	44190.22
710.31	44192.71
710.654	43928.08
710.998	44048.08
711.342	44110.22
711.687	43764.47
712.031	43735.09
712.375	43611.71
712.719	43693.74
713.063	43610.58
713.407	43760.4
713.75	43539.62
714.094	43410.13
714.438	43226.63
714.782	43122.23
715.125	43057.14
715.469	43162.23
715.812	42912.06
716.156	42616.03
716.499	42760.88
716.843	42749.36
717.186	42512.07
717.53	42791.39
717.873	42637.49
718.216	42461.68
718.559	42369.25
718.902	42175.36
719.246	42223.49
719.589	42056.95
719.932	41863.28
720.275	41847.23
720.617	41873.9
720.96	41847.01
721.303	41828.93
721.646	41846.33
721.989	41522.95
722.331	41761.36
722.674	41616.05
723.016	41580.57
723.359	41446.11
723.701	41502.16
724.044	41224.65
724.386	41067.82
724.729	41298.32
725.071	41149.4
725.413	40938.78
725.755	40984.88
726.097	40830.08
726.439	40624.21
726.782	40703.08
727.124	40989.18
727.465	40569.53
727.807	40631.9
728.149	40534.95
728.491	40384.9
728.833	40546.93
729.175	40240.72
729.516	40238.46
729.858	40336.31
730.199	40171.34
730.541	40092.7
730.882	40122.08
731.224	40190.55
731.565	39986.04
731.906	40050.44
732.248	40007.51
732.589	39774.52
732.93	39720.28
733.271	39691.36
733.612	39732.49
733.953	39741.75
734.294	39590.57
734.635	39446.17
734.976	39587.18
735.317	39128.21
735.658	39294.31
735.999	39209.11
736.339	39144.25
736.68	39252.27
737.021	39074.65
737.361	38846.86
737.702	39035.1
738.042	38982.22
738.383	38946.74
738.723	38912.17
739.063	38786.3
739.404	38758.5
739.744	38694.1
740.084	38664.27
740.424	38603.93
740.764	38410.49
741.104	38572.52
741.444	38401.45
741.784	38338.4
742.124	38411.84
742.464	38463.59
742.804	38235.8
743.143	38174.79
743.483	38135.24
743.823	37987.9
744.162	38012.98
744.502	38038.97
744.841	37937.51
745.181	38006.43
745.52	37776.83
745.86	37993.55
746.199	37856.15
746.538	37749.26
746.877	37766.89
747.216	37814.34
747.556	37513.11
747.895	37562.37
748.234	37477.63
748.573	37494.58
748.911	37358.99
749.25	37375.03
749.589	37079.9
749.928	37231.76
750.267	37197.64
750.605	37008.94
750.944	36878.32
751.283	36875.61
751.621	36771.43
751.96	36755.62
752.298	36705.67
752.636	36680.36
752.975	36449.63
753.313	36312.24
753.651	36488.28
753.989	36168.06
754.327	36259.13
754.666	36209.42
755.004	36020.95
755.342	36081.06
755.679	36033.83
756.017	35915.41
756.355	35883.32
756.693	35856.2
757.031	35861.4
757.368	35581.64
757.706	35519.72
758.044	35452.6
758.381	35540.28
758.719	35253.96
759.056	35250.34
759.394	35167.63
759.731	34932.39
760.068	34872.05
760.405	34877.25
760.743	34789.34
761.08	34649
761.417	34463.25
761.754	34538.5
762.091	34412.63
762.428	34211.73
762.765	34105.29
763.102	34139.87
763.438	33977.61
763.775	33898.06
764.112	33734.68
764.449	33762.02
764.785	33636.38
765.122	33486.32
765.458	33380.11
765.795	33300.11
766.131	33211.3
766.467	33070.51
766.804	32887.47
767.14	32761.37
767.476	32733.57
767.812	32645.67
768.148	32687.25
768.485	32490.19
768.821	32198
769.157	32336.3
769.492	32203.42
769.828	32084.33
770.164	31848.4
770.5	31899.02
770.836	31741.96
771.171	31518.01
771.507	31500.84
771.842	31262.43
772.178	31339.71
772.513	31247.74
772.849	31084.8
773.184	30988.99
773.519	30945.37
773.855	30826.73
774.19	30683.01
774.525	30644.82
774.86	30511.49
775.195	30548.77
775.53	30323.24
775.865	30136.81
776.2	30014.32
776.535	29819.53
776.87	29840.32
777.205	29685.29
777.539	29563.71
777.874	29628.35
778.209	29393.32
778.543	29279.65
778.878	29204.18
779.212	29104.29
779.547	29022.26
779.881	29079.43
780.215	28728.71
780.55	28934.35
780.884	28638.77
781.218	28538.43
781.552	28575.04
781.886	28374.82
782.22	28233.58
782.554	28140.25
782.888	28025.22
783.222	27822.07
783.556	27825.45
783.889	27730.09
784.223	27587.04
784.557	27463.66
784.89	27436.54
785.224	27394.96
785.557	27237.67
785.891	27164.68
786.224	27060.73
786.558	27005.59
786.891	26723.11
787.224	26602.21
787.557	26743.68
787.891	26599.72
788.224	26508.2
788.557	26477.92
788.89	26342.33
789.223	26259.17
789.556	26152.73
789.888	26047.2
790.221	25933.98
790.554	25894.21
790.887	25837.71
791.219	25777.37
791.552	25606.53
791.884	25513.65
792.217	25364.95
792.549	25315.46
792.882	25194.79
793.214	25080.22
793.546	25121.8
793.879	24965.42
794.211	24842.26
794.543	24882.71
794.875	24735.82
795.207	24824.63
795.539	24654.69
795.871	24595.48
796.203	24363.85
796.535	24238.43
796.867	24217.41
797.198	24256.51
797.53	24154.14
797.862	23989.85
798.193	24023.52
798.525	23939.91
798.856	23889.74
799.188	23562.74
799.519	23569.3
799.85	23441.62
800.182	23411.11
800.513	23432.12
800.844	23239.81
801.175	23341.5
801.506	23335.18
801.837	23208.4
802.168	23147.84
802.499	23012.25
802.83	22866.49
803.161	22827.62
803.491	22856.09
803.822	22842.76
804.153	22669.88
804.483	22582.2
804.814	22427.63
805.145	22470.57
805.475	22344.92
805.805	22327.52
806.136	22251.36
806.466	22281.19
806.796	22196.45
807.126	22069.22
807.457	22012.27
807.787	22072.84
808.117	21828.32
808.447	21791.04
808.777	21874.88
809.107	21774.09
809.436	21705.39
809.766	21665.16
810.096	21654.77
810.426	21504.27
810.755	21536.81
811.085	21533.19
811.414	21348.11
811.744	21196.7
812.073	21244.84
812.403	21118.06
812.732	21103.6
813.061	21022.92
813.39	20955.35
813.719	20888.91
814.049	21034.45
814.378	20803.94
814.707	20850.04
815.036	20700.22
815.365	20649.82
815.693	20498.64
816.022	20435.14
816.351	20458.64
816.68	20384.29
817.008	20371.87
817.337	20072.21
817.665	20088.48
817.994	20261.13
818.322	20139.1
818.651	20090.52
818.979	19932.78
819.307	20135.49
819.636	19952.89
819.964	19978.2
820.292	19933.91
820.62	19883.74
820.948	19824.99
821.276	19943.63
821.604	19906.34
821.932	19854.36
822.259	19834.25
822.587	19695.27
822.915	19765.55
823.243	19868.6
823.57	19655.05
823.898	19704.31
824.225	19708.83
824.553	19792.45
824.88	19737.08
825.207	19766.23
825.535	19750.41
825.862	19752.9
826.189	19647.59
826.516	19737.31
826.843	19751.09
827.17	19794.93
827.497	19775.27
827.824	19783.41
828.151	19794.25
828.478	19638.1
828.805	19819.11
829.131	19655.95
829.458	19679
829.785	19531.66
830.111	19626.35
830.438	19775.72
830.764	19570.08
831.09	19680.58
831.417	19590.64
831.743	19678.55
832.069	19573.02
832.395	19509.06
832.722	19666.8
833.048	19527.59
833.374	19497.09
833.7	19420.48
834.026	19488.72
834.351	19529.85
834.677	19482.85
835.003	19449.18
835.329	19512
835.654	19383.64
835.98	19320.14
836.306	19337.32
836.631	19233.59
836.956	19420.03
837.282	19270.2
837.607	19178.68
837.932	19093.26
838.258	19176.87
838.583	19093.48
838.908	19037.21
839.233	19051.22
839.558	18965.12
839.883	18942.75
840.208	18904.56
840.533	18826.37
840.858	18906.14
841.182	18845.13
841.507	18782.08
841.832	18810.78
842.156	18723.77
842.481	18804.68
842.805	18792.92
843.13	18573.27
843.454	18594.96
843.778	18497.11
844.103	18496.21
844.427	18450.79
844.751	18451.24
845.075	18350.22
845.399	18266.84
845.723	18149.33
846.047	18272.03
846.371	18088.99
846.695	18089.89
847.019	17970.12
847.343	17834.76
847.666	17768.54
847.99	17696.68
848.313	17651.26
848.637	17588.66
848.96	17549.34
849.284	17551.83
849.607	17322.45
849.931	17297.82
850.254	17193.64
850.577	17020.09
850.9	16968.34
851.223	16982.8
851.546	16856.93
851.869	16756.82
852.192	16819.42
852.515	16748.01
852.838	16593.43
853.161	16615.58
853.483	16550.27
853.806	16490.61
854.129	16414
854.451	16468.01
854.774	16205.2
855.096	16317.28
855.419	16205.65
855.741	16241.8
856.063	16134.24
856.385	16234.57
856.708	16053.79
857.03	16049.95
857.352	15922.04
857.674	15906.9
857.996	15874.36
858.318	15735.83
858.64	15746.9
858.961	15722.04
859.283	15638.66
859.605	15577.42
859.926	15568.6
860.248	15456.74
860.57	15480.92
860.891	15480.47
861.212	15417.42
861.534	15352.79
861.855	15345.33
862.176	15426.46
862.498	15317.31
862.819	15254.26
863.14	15251.1
863.461	15128.61
863.782	15210.87
864.103	15140.59
864.424	15016.3
864.745	15093.36
865.065	14978.79
865.386	14963.19
865.707	14922.07
866.027	14949.64
866.348	14881.84
866.668	14918
866.989	14804.78
867.309	14807.49
867.63	14876.19
867.95	14817.21
868.27	14680.72
868.59	14748.28
868.91	14669.42
869.23	14649.98
869.55	14595.07
869.87	14707.61
870.19	14699.7
870.51	14569.31
870.83	14654.5
871.15	14508.74
871.469	14509.65
871.789	14453.38
872.109	14493.15
872.428	14353.72
872.748	14501.74
873.067	14446.82
873.386	14320.05
873.706	14411.34
874.025	14314.4
874.344	14220.39
874.663	14289.09
874.982	14158.02
875.301	14206.83
875.62	14164.12
875.939	14082.77
876.258	14044.8
876.577	14019.49
876.896	14071.24
877.214	13991.02
877.533	14025.82
877.852	14035.08
878.17	13980.85
878.489	13990.11
878.807	13932.26
879.125	13981.3
879.444	13984.69
879.762	13924.13
880.08	13814.98
880.398	13756.22
880.716	13771.81
881.034	13747.41
881.352	13667.63
881.67	13630.12
881.988	13740.18
882.306	13611.37
882.624	13625.6
882.941	13562.33
883.259	13506.28
883.577	13493.85
883.894	13411.82
884.212	13516
884.529	13417.02
884.846	13367.76
885.164	13326.85
885.481	13248.89
885.798	13313.75
886.115	13237.59
886.432	13149.91
886.75	13095.22
887.067	13137.25
887.383	13135.22
887.7	13117.37
888.017	13028.56
888.334	13048.22
888.651	12922.8
888.967	12982.23
889.284	12910.14
889.6	12821.33
889.917	12775
890.233	12815.68
890.55	12750.14
890.866	12737.26
891.182	12631.73
891.498	12575.01
891.815	12560.77
892.131	12607.78
892.447	12553.77
892.763	12500.66
893.079	12502.92
893.395	12391.96
893.71	12335.24
894.026	12374.34
894.342	12296.82
894.657	12164.17
894.973	12221.35
895.289	12156.71
895.604	12226.32
895.92	12066.32
896.235	12126.88
896.55	11994.01
896.865	12017.06
897.181	11878.98
897.496	11936.61
897.811	11824.07
898.126	11854.12
898.441	11876.04
898.756	11727.35
899.071	11679.21
899.386	11706.33
899.7	11568.93
900.015	11539.56
900.33	11493.91
900.644	11462.27
900.959	11561.48
901.273	11430.86
901.588	11379.79
901.902	11330.07
902.216	11278.77
902.531	11189.96
902.845	11141.37
903.159	11091.21
903.473	11091.21
903.787	11031.55
904.101	10979.8
904.415	11053.24
904.729	10909.52
905.042	10921.27
905.356	10795.17
905.67	10770.31
905.984	10842.62
906.297	10747.03
906.611	10692.8
906.924	10637.88
907.237	10708.39
907.551	10605.79
907.864	10522.41
908.177	10530.54
908.491	10468.17
908.804	10396.53
909.117	10330.32
909.43	10265.46
909.743	10237.67
910.056	10231.57
910.368	10194.73
910.681	10125.81
910.994	10068.63
911.307	10027.28
911.619	9897.56
911.932	10004
912.244	9906.15
912.557	9917.9
912.869	9824.8
913.181	9775.76
913.494	9783.44
913.806	9761.97
914.118	9712.94
914.43	9586.84
914.742	9600.85
915.054	9530.34
915.366	9529.89
915.678	9491.47
915.99	9494.41
916.302	9321.53
916.613	9482.43
916.925	9312.04
917.236	9323.79
917.548	9240.63
917.859	9231.59
918.171	9112.27
918.482	9125.61
918.794	9079.51
919.105	9109.79
919.416	8951.15
919.727	9020.98
920.038	8964.48
920.349	8870.02
920.66	8878.83
920.971	8830.47
921.282	8834.09
921.593	8712.29
921.903	8678.61
922.214	8673.64
922.525	8598.62
922.835	8595.68
923.146	8543.02
923.456	8584.15
923.767	8471.84
924.077	8502.35
924.387	8463.48
924.697	8351.39
925.008	8386.19
925.318	8333.99
925.628	8349.36
925.938	8290.6
926.248	8114.11
926.558	8159.53
926.867	8099.87
927.177	8118.4
927.487	8040.21
927.796	7952.98
928.106	7951.63
928.416	7928.58
928.725	7935.13
929.034	7888.58
929.344	7887.9
929.653	7857.62
929.962	7770.16
930.271	7749.82
930.581	7746.21
930.89	7686.55
931.199	7601.58
931.508	7554.35
931.817	7565.87
932.125	7528.14
932.434	7544.86
932.743	7482.94
933.051	7415.6
933.36	7396.84
933.669	7352.55
933.977	7324.3
934.286	7278.42
934.594	7276.62
934.902	7172.21
935.21	7212.89
935.519	7199.56
935.827	7163.4
936.135	7093.57
936.443	7051.31
936.751	7013.12
937.059	7071.65
937.367	6998.43
937.674	6946.68
937.982	6982.39
938.29	6841.15
938.597	6843.18
938.905	6786.46
939.213	6821.94
939.52	6796.4
939.827	6731.55
940.135	6708.72
940.442	6663.53
940.749	6661.49
941.056	6683.19
941.363	6565.22
941.67	6574.94
941.977	6568.84
942.284	6508.5
942.591	6437.54
942.898	6474.38
943.205	6424.66
943.511	6371.1
943.818	6334.04
944.125	6289.98
944.431	6311.22
944.738	6274.84
945.044	6234.84
945.35	6233.48
945.657	6151.9
945.963	6130.66
946.269	6104.9
946.575	6146.93
946.881	6069.19
947.187	6032.36
947.493	5991.68
947.799	5968.4
948.105	5954.84
948.41	5906.94
948.716	5936.99
949.022	5881.63
949.327	5832.59
949.633	5806.82
949.938	5845.47
950.244	5837.11
950.549	5742.87
950.854	5745.81
951.16	5750.1
951.465	5659.03
951.77	5657.22
952.075	5588.98
952.38	5603.44
952.685	5598.24
952.99	5513.27
953.294	5484.12
953.599	5522.54
953.904	5450.9
954.209	5468.08
954.513	5492.71
954.818	5405.71
955.122	5367.29
955.426	5384.46
955.731	5369.77
956.035	5314.86
956.339	5315.99
956.643	5291.58
956.948	5260.85
957.252	5211.36
957.556	5208.65
957.86	5166.16
958.163	5134.53
958.467	5120.29
958.771	5148.99
959.075	5085.94
959.378	5060.4
959.682	4998.03
959.985	5004.13
960.289	4980.41
960.592	4913.74
960.896	4941.99
961.199	4897.92
961.502	4864.02
961.805	4863.57
962.108	4861.99
962.411	4823.12
962.714	4796.23
963.017	4764.82
963.32	4777.7
963.623	4725.05
963.926	4764.82
964.228	4727.31
964.531	4691.6
964.833	4721.2
965.136	4662.22
965.438	4614.54
965.741	4592.17
966.043	4557.37
966.345	4556.69
966.648	4540.42
966.95	4531.83
967.252	4477.82
967.554	4465.62
967.856	4441.66
968.158	4443.7
968.46	4425.84
968.761	4394.21
969.063	4391.95
969.365	4342
969.666	4330.71
969.968	4298.84
970.269	4299.29
970.571	4287.77
970.872	4208.9
971.174	4248.9
971.475	4199.86
971.776	4167.55
972.077	4178.17
972.378	4123.48
972.679	4152.63
972.98	4153.08
973.281	4113.08
973.582	4092.75
973.883	4005.97
974.183	4073.76
974.484	4043.48
974.785	3998.74
975.085	3968.23
975.386	3997.61
975.686	3930.04
975.986	3921.9
976.287	3952.18
976.587	3895.46
976.887	3860.44
977.187	3896.37
977.487	3853.43
977.787	3836.48
978.087	3834.67
978.387	3779.08
978.687	3777.73
978.987	3782.47
979.286	3746.77
979.586	3708.57
979.885	3719.2
980.185	3691.4
980.484	3698.63
980.784	3683.04
981.083	3646.88
981.382	3649.14
981.682	3609.59
981.981	3598.75
982.28	3577.73
982.579	3565.3
982.878	3542.25
983.177	3534.57
983.475	3527.11
983.774	3487.11
984.073	3478.75
984.372	3456.6
984.67	3454.57
984.969	3442.37
985.267	3403.72
985.566	3381.8
985.864	3350.17
986.162	3365.31
986.461	3344.97
986.759	3330.28
987.057	3307
987.355	3302.48
987.653	3329.38
987.951	3323.5
988.249	3279.21
988.547	3229.49
988.844	3255.03
989.142	3212.54
989.44	3197.18
989.737	3155.82
990.035	3147.23
990.332	3169.15
990.63	3114.24
990.927	3109.49
991.224	3147.01
991.521	3100.68
991.819	3088.7
992.116	3069.72
992.413	3012.77
992.71	2987.01
993.006	3021.59
993.303	3013.23
993.6	2967.13
993.897	2982.49
994.193	2958.09
994.49	2938.88
994.787	2932.55
995.083	2886.22
995.379	2852.55
995.676	2871.99
995.972	2863.4
996.268	2838.99
996.565	2851.2
996.861	2844.19
997.157	2814.36
997.453	2783.85
997.749	2762.38
998.044	2724.87
998.34	2740.69
998.636	2715.83
998.932	2718.32
999.227	2659.79
999.523	2665.44
999.818	2690.52
1000.114	2648.49
1000.409	2666.79
1000.704	2634.93
1001	2641.03
1001.295	2615.72
1001.59	2611.88
1001.885	2600.13
1002.18	2521.04
1002.475	2544.76
1002.77	2502.5
1003.065	2527.36
1003.359	2512.67
1003.654	2499.57
1003.949	2464.99
1004.243	2481.71
1004.538	2455.05
1004.832	2440.81
1005.127	2422.96
1005.421	2401.94
1005.715	2393.13
1006.009	2381.15
1006.304	2356.29
1006.598	2345.22
1006.892	2331.66
1007.186	2311.78
1007.48	2298.44
1007.773	2289.18
1008.067	2305.45
1008.361	2271.32
1008.655	2243.75
1008.948	2239.23
1009.242	2183.42
1009.535	2255.28
1009.829	2221.38
1010.122	2204.89
1010.415	2180.71
1010.708	2188.16
1011.001	2160.59
1011.295	2127.15
1011.588	2151.78
1011.881	2106.81
1012.173	2078.79
1012.466	2083.31
1012.759	2094.38
1013.052	2077.21
1013.344	2036.75
1013.637	2000.6
1013.93	1993.82
1014.222	2007.15
1014.514	2016.64
1014.807	2021.16
1015.099	1975.74
1015.391	1957.21
1015.683	1949.07
1015.976	1954.95
1016.268	1938.68
1016.56	1897.1
1016.851	1901.84
1017.143	1884.89
1017.435	1843.54
1017.727	1857.78
1018.018	1859.13
1018.31	1819.13
1018.602	1837.21
1018.893	1822.52
1019.185	1793.14
1019.476	1784.56
1019.767	1748.17
1020.058	1762.86
1020.35	1752.92
1020.641	1725.8
1020.932	1715.41
1021.223	1684.22
1021.514	1695.52
1021.804	1685.58
1022.095	1678.35
1022.386	1658.69
1022.677	1647.84
1022.967	1645.58
1023.258	1637.67
1023.548	1640.15
1023.839	1601.96
1024.129	1592.47
1024.419	1601.29
1024.709	1558.35
1025	1581.63
1025.29	1536.65
1025.58	1579.37
1025.87	1540.04
1026.16	1537.33
1026.449	1491.91
1026.739	1479.71
1027.029	1511.12
1027.319	1503.66
1027.608	1464.34
1027.898	1448.07
1028.187	1439.93
1028.477	1448.52
1028.766	1433.83
1029.055	1399.48
1029.344	1404.91
1029.634	1412.59
1029.923	1385.7
1030.212	1385.92
1030.501	1352.25
1030.79	1341.86
1031.078	1348.86
1031.367	1340.5
1031.656	1356.32
1031.945	1301.86
1032.233	1328.75
1032.522	1292.82
1032.81	1293.72
1033.099	1326.26
1033.387	1290.33
1033.675	1301.18
1033.963	1259.15
1034.251	1273.84
1034.54	1269.99
1034.828	1269.09
1035.116	1219.15
1035.403	1203.33
1035.691	1218.24
1035.979	1212.6
1036.267	1188.42
1036.554	1207.62
1036.842	1187.06
1037.129	1167.85
1037.417	1159.26
1037.704	1165.14
1037.992	1154.29
1038.279	1146.61
1038.566	1130.79
1038.853	1130.79
1039.14	1130.79
