Data from white_poster_card_FLMS001491_00092.txt Node
Date: Wed Feb 08 11:52:17 GMT 2017
User: dcchb
Spectrometer: FLMS00149
Trigger mode: 0
Integration Time (sec): 2.000000E-2
Scans to average: 10
Electric dark correction enabled: true
Nonlinearity correction enabled: false
Boxcar width: 0
XAxis mode: Wavelengths
Number of Pixels in Spectrum: 2048
>>>>>Begin Spectral Data<<<<<
341.393	12.03
341.776	12.03
342.16	12.03
342.543	-75.65
342.927	-47.17
343.31	-80.62
343.693	-66.61
344.077	-45.82
344.46	-56.89
344.843	-59.38
345.226	-58.02
345.61	-18.02
345.993	-28.87
346.376	9.55
346.759	-4.92
347.142	39.6
347.525	42.99
347.908	68.98
348.291	69.66
348.674	86.83
349.057	101.52
349.44	134.06
349.823	155.31
350.206	165.7
350.588	190.33
350.971	217.23
351.354	218.81
351.737	244.34
352.119	255.19
352.502	252.03
352.884	284.79
353.267	271.46
353.65	280.05
354.032	289.54
354.414	317.34
354.797	303.33
355.179	317.11
355.562	312.82
355.944	337
356.326	324.57
356.709	349.43
357.091	335.19
357.473	347.39
357.855	335.41
358.238	354.4
358.62	359.14
359.002	339.93
359.384	362.31
359.766	339.48
360.148	343.1
360.53	328.86
360.912	340.39
361.294	330.9
361.676	333.38
362.057	333.38
362.439	342.19
362.821	310.1
363.203	318.69
363.584	323.44
363.966	320.73
364.348	345.81
364.729	332.7
365.111	317.11
365.493	319.82
365.874	350.78
366.256	319.82
366.637	306.49
367.019	318.47
367.4	328.41
367.781	306.49
368.163	316.43
368.544	320.27
368.925	315.3
369.306	300.84
369.688	312.14
370.069	335.64
370.45	291.12
370.831	320.73
371.212	287.96
371.593	311.01
371.974	319.14
372.355	301.52
372.736	324.34
373.117	348.07
373.498	335.64
373.879	332.25
374.26	308.07
374.641	329.77
375.021	338.13
375.402	332.25
375.783	325.25
376.163	327.96
376.544	335.87
376.925	315.75
377.305	325.47
377.686	326.38
378.066	338.35
378.447	329.77
378.827	343.55
379.208	338.8
379.588	337.22
379.968	326.15
380.349	338.13
380.729	353.72
381.109	338.13
381.489	341.06
381.87	340.84
382.25	348.52
382.63	349.88
383.01	349.65
383.39	359.6
383.77	355.3
384.15	352.36
384.53	371.12
384.91	367.28
385.29	364.11
385.67	350.78
386.049	364.11
386.429	363.21
386.809	373.38
387.189	364.57
387.568	370.44
387.948	358.47
388.328	382.87
388.707	391.46
389.087	355.3
389.466	358.01
389.846	381.97
390.225	388.75
390.605	365.47
390.984	388.75
391.363	401.4
391.743	363.89
392.122	369.99
392.501	389.88
392.881	384.68
393.26	414.51
393.639	391.23
394.018	393.49
394.397	384
394.776	398.92
395.155	406.15
395.534	405.7
395.913	398.01
396.292	419.71
396.671	413.6
397.05	424.9
397.429	433.27
397.808	414.28
398.186	426.03
398.565	420.16
398.944	406.83
399.323	430.55
399.701	442.3
400.08	430.33
400.458	419.93
400.837	440.72
401.215	450.89
401.594	439.82
401.972	449.99
402.351	454.28
402.729	441.63
403.107	454.06
403.486	442.76
403.864	476.65
404.242	466.26
404.62	476.2
404.999	484.11
405.377	495.41
405.755	473.04
406.133	486.37
406.511	517.11
406.889	495.64
407.267	531.57
407.645	527.73
408.023	527.73
408.401	518.69
408.779	540.16
409.156	546.03
409.534	574.5
409.912	574.28
410.29	583.09
410.667	593.04
411.045	606.37
411.422	609.53
411.8	615.18
412.178	629.19
412.555	635.29
412.933	656.08
413.31	659.02
413.687	656.76
414.065	649.3
414.442	676.87
414.819	700.83
415.197	732.01
415.574	746.93
415.951	763.88
416.328	745.57
416.705	760.26
417.082	786.93
417.46	795.52
417.837	823.54
418.214	802.3
418.591	823.76
418.967	840.94
419.344	850.88
419.721	857.89
420.098	865.8
420.475	878.23
420.852	882.97
421.228	918.45
421.605	939.47
421.982	946.92
422.358	961.16
422.735	974.95
423.111	960.03
423.488	980.14
423.864	1007.26
424.241	1009.3
424.617	1041.61
424.994	1073.02
425.37	1062.85
425.746	1044.1
426.123	1103.08
426.499	1113.02
426.875	1130.87
427.251	1138.11
427.627	1146.69
428.003	1176.07
428.379	1190.76
428.756	1199.57
429.132	1216.3
429.507	1234.83
429.883	1251.1
430.259	1281.38
430.635	1285.9
431.011	1315.73
431.387	1318.21
431.763	1334.48
432.138	1355.5
432.514	1390.98
432.89	1424.88
433.265	1423.75
433.641	1443.63
434.016	1479.34
434.392	1488.38
434.767	1485.44
435.143	1483.63
435.518	1565.67
435.894	1556.63
436.269	1567.7
436.644	1576.96
437.02	1595.72
437.395	1613.35
437.77	1612.67
438.145	1639.11
438.52	1659
438.895	1696.51
439.271	1671.2
439.646	1738.77
440.021	1725.21
440.395	1734.47
440.77	1702.38
441.145	1736.28
441.52	1773.34
441.895	1809.27
442.27	1770.86
442.645	1790.97
443.019	1834.58
443.394	1834.13
443.769	1872.78
444.143	1851.76
444.518	1867.35
444.892	1870.52
445.267	1872.55
445.641	1914.36
446.016	1895.37
446.39	1907.12
446.764	1952.32
447.139	1949.84
447.513	1970.85
447.887	1974.24
448.262	1980.57
448.636	2000.23
449.01	2034.35
449.384	2027.57
449.758	2056.27
450.132	2061.47
450.506	2071.87
450.88	2068.93
451.254	2110.96
451.628	2145.31
452.002	2138.98
452.376	2153.45
452.75	2165.42
453.123	2216.27
453.497	2214.46
453.871	2251.97
454.244	2313.89
454.618	2289.71
454.992	2365.87
455.365	2353.89
455.739	2437.28
456.112	2398.19
456.486	2416.04
456.859	2458.52
457.232	2487.45
457.606	2489.71
457.979	2514.11
458.352	2574.68
458.725	2598.18
459.099	2589.59
459.472	2659.42
459.845	2678.86
460.218	2706.65
460.591	2710.27
460.964	2739.42
461.337	2769.02
461.71	2826.42
462.083	2887.21
462.456	2895.57
462.829	2898.06
463.201	2928.57
463.574	2955.01
463.947	3025.06
464.32	3065.29
464.692	3072.07
465.065	3054.21
465.438	3146.19
465.81	3186.64
466.183	3225.96
466.555	3261.67
466.928	3315.9
467.3	3307.31
467.672	3339.63
468.045	3430.93
468.417	3467.31
468.789	3421.89
469.161	3512.05
469.534	3587.98
469.906	3637.25
470.278	3648.1
470.65	3702.33
471.022	3735.55
471.394	3793.86
471.766	3868.43
472.138	3911.14
472.51	3994.08
472.882	4033.17
473.253	4035.2
473.625	4081.08
473.997	4222.32
474.369	4235.65
474.74	4285.59
475.112	4360.85
475.484	4417.79
475.855	4479.94
476.227	4512.93
476.598	4631.12
476.97	4679.03
477.341	4815.75
477.713	4853.49
478.084	4893.49
478.455	4953.37
478.827	5034.73
479.198	5176.87
479.569	5207.15
479.94	5331.44
480.311	5410.54
480.682	5406.69
481.053	5596.29
481.424	5631.55
481.795	5749.96
482.166	5810.98
482.537	5865.66
482.908	5996.73
483.279	6075.83
483.65	6146.56
484.021	6323.73
484.391	6350.62
484.762	6408.25
485.133	6487.57
485.503	6547
485.874	6697.96
486.244	6761.01
486.615	6875.81
486.985	6971.4
487.356	7109.25
487.726	7088.68
488.097	7283.93
488.467	7342.01
488.837	7419.07
489.207	7588.33
489.578	7711.72
489.948	7763.02
490.318	7890.7
490.688	7884.37
491.058	8047.08
491.428	8106.28
491.798	8181.99
492.168	8371.81
492.538	8377.92
492.908	8488.65
493.278	8586.5
493.648	8604.58
494.017	8742.2
494.387	8895.42
494.757	8881.18
495.126	9020.61
495.496	9037.11
495.866	9097.44
496.235	9247.27
496.605	9318.46
496.974	9333.82
497.344	9422.63
497.713	9510.09
498.082	9591.89
498.452	9726.13
498.821	9746.92
499.19	9776.97
499.559	9912.34
499.928	9950.08
500.298	9993.01
500.667	10068.72
501.036	10132.22
501.405	10187.13
501.774	10192.33
502.143	10296.96
502.512	10437.3
502.88	10524.3
503.249	10459.22
503.618	10541.7
503.987	10626.67
504.356	10711.19
504.724	10854.01
505.093	10900.79
505.462	10954.12
505.83	10990.28
506.199	11107.34
506.567	11247.67
506.936	11190.95
507.304	11343.94
507.672	11410.15
508.041	11513.43
508.409	11652.86
508.777	11728.79
509.145	11797.94
509.514	11771.95
509.882	11918.84
510.25	11931.49
510.618	12056.69
510.986	12167.87
511.354	12239.96
511.722	12359.28
512.09	12464.36
512.458	12482.44
512.826	12624.58
513.193	12704.36
513.561	12678.59
513.929	12795.65
514.297	12946.83
514.664	12985.03
515.032	13021.86
515.4	13188.86
515.767	13235.87
516.135	13300.5
516.502	13311.34
516.869	13415.52
517.237	13612.81
517.604	13573.94
517.972	13802.18
518.339	13903.42
518.706	13951.1
519.073	14035.62
519.44	14183.64
519.808	14304.77
520.175	14360.58
520.542	14444.42
520.909	14464.08
521.276	14566.68
521.643	14693.68
522.009	14900.46
522.376	14987.69
522.743	15045.76
523.11	15197.4
523.477	15276.49
523.843	15452.98
524.21	15578.86
524.577	15657.72
524.943	15742.47
525.31	15866.98
525.676	15977.26
526.043	16215.68
526.409	16290.02
526.776	16407.31
527.142	16539.73
527.508	16635.33
527.874	16725.04
528.241	16919.61
528.607	16919.16
528.973	17092.04
529.339	17086.39
529.705	17292.26
530.071	17448.19
530.437	17439.6
530.803	17622.87
531.169	17782.87
531.535	17735.86
531.901	17771.11
532.267	17961.39
532.632	17995.52
532.998	18024.44
533.364	18235.06
533.73	18316.64
534.095	18428.27
534.461	18482.06
534.826	18555.05
535.192	18687.25
535.557	18816.51
535.923	18782.61
536.288	18866
536.653	18947.13
537.019	18869.84
537.384	19076.84
537.749	19224.86
538.114	19220.57
538.479	19274.58
538.845	19444.07
539.21	19369.94
539.575	19473.89
539.94	19621.91
540.305	19669.37
540.67	19765.86
541.034	19781.23
541.399	19787.56
541.764	19908.69
542.129	19989.59
542.494	20072.75
542.858	20088.57
543.223	20110.94
543.587	20326.08
543.952	20259.86
544.316	20393.19
544.681	20441.78
545.045	20589.12
545.41	20665.28
545.774	20671.15
546.138	20834.99
546.503	20824.37
546.867	20832.28
547.231	21111.82
547.595	21158.6
547.959	21147.98
548.324	21261.87
548.688	21177.58
549.052	21268.2
549.416	21417.8
549.779	21432.49
550.143	21509.77
550.507	21686.94
550.871	21725.81
551.235	21699.82
551.599	21844.45
551.962	22009.65
552.326	21971.46
552.689	22219.36
553.053	22092.13
553.417	22208.51
553.78	22530.09
554.143	22328.28
554.507	22510.43
554.87	22641.27
555.234	22816.18
555.597	22770.98
555.96	22843.3
556.323	22893.69
556.686	22936.18
557.05	23201.48
557.413	23220.01
557.776	23361.02
558.139	23371.19
558.502	23498.2
558.865	23668.81
559.228	23851.18
559.59	23778.41
559.953	23856.38
560.316	24206.2
560.679	24153.55
561.041	24290.04
561.404	24333.43
561.767	24497.49
562.129	24546.76
562.492	24760.31
562.854	24736.81
563.217	24777.26
563.579	24889.35
563.941	25072.17
564.304	25175.89
564.666	25325.94
565.028	25382.44
565.39	25541.31
565.753	25696.78
566.115	25739.94
566.477	25945.59
566.839	25954.4
567.201	26100.84
567.563	26085.02
567.925	26340.38
568.287	26283.21
568.648	26396.88
569.01	26596.42
569.372	26742.4
569.734	26597.1
570.095	26862.85
570.457	26972
570.819	26991.89
571.18	26941.49
571.542	27186.69
571.903	27252.9
572.265	27395.27
572.626	27277.76
572.987	27488.15
573.349	27566.79
573.71	27674.81
574.071	27725.66
574.432	27813.56
574.794	27989.15
575.155	27989.38
575.516	27859.66
575.877	28013.11
576.238	28069.37
576.599	28176.72
576.96	28179.65
577.32	28264.85
577.681	28304.17
578.042	28446.77
578.403	28472.75
578.763	28505.97
579.124	28539.65
579.485	28719.53
579.845	28679.08
580.206	28622.81
580.566	28682.69
580.927	28746.42
581.287	28928.11
581.648	28787.55
582.008	28976.47
582.368	28843.37
582.728	28834.55
583.089	28834.1
583.449	28848.79
583.809	28897.6
584.169	28902.57
584.529	28944.83
584.889	29075.45
585.249	28869.35
585.609	28950.93
585.969	28997.94
586.329	29046.75
586.688	29135.11
587.048	28971.5
587.408	28943.25
587.768	29020.54
588.127	28903.48
588.487	28839.52
588.846	29142.12
589.206	29012.63
589.565	29010.14
589.925	28998.84
590.284	29011.72
590.643	29133.53
591.003	29208.1
591.362	29298.04
591.721	29230.47
592.08	29155
592.44	29185.28
592.799	29211.49
593.158	29104.38
593.517	29163.13
593.876	29319.51
594.235	29181.21
594.593	29155
594.952	29270.25
595.311	29097.37
595.67	29203.81
596.029	29333.52
596.387	29396.35
596.746	29431.37
597.104	29220.53
597.463	29258.95
597.822	29527.64
598.18	29307.53
598.538	29322
598.897	29599.05
599.255	29171.27
599.613	29689.67
599.972	29527.42
600.33	29509.34
600.688	29421.88
601.046	29607.19
601.404	29781.65
601.762	29722.89
602.12	29760.4
602.478	29857.12
602.836	29675.89
603.194	29644.02
603.552	29695.77
603.91	29641.09
604.268	29803.57
604.625	29684.7
604.983	29911.36
605.341	29714.3
605.698	29928.08
606.056	29965.82
606.413	29952.26
606.771	30095.76
607.128	30020.51
607.485	29899.38
607.843	30065.71
608.2	30071.36
608.557	30111.36
608.914	30098.25
609.272	30255.53
609.629	30324.91
609.986	30482.19
610.343	30261.18
610.7	30466.83
611.057	30360.84
611.414	30432.48
611.771	30465.02
612.127	30619.59
612.484	30485.13
612.841	30664.33
613.198	30592.25
613.554	30566.48
613.911	30713.83
614.267	30680.38
614.624	30586.6
614.98	30644
615.337	30766.48
615.693	30599.03
616.05	30654.62
616.406	30841.05
616.762	30767.84
617.118	30822.75
617.475	30807.38
617.831	30949.75
618.187	30887.83
618.543	30915.63
618.899	31180.25
619.255	31031.33
619.611	31014.61
619.967	31115.62
620.323	31176.19
620.678	31022.29
621.034	31040.14
621.39	30968.06
621.746	30929.41
622.101	31344.09
622.457	30970.09
622.812	31163.53
623.168	31237.65
623.523	31254.38
623.879	31166.69
624.234	30991.11
624.589	31129.63
624.945	31227.48
625.3	31190.65
625.655	31257.09
626.01	31156.98
626.365	31177.09
626.72	31230.2
627.075	31135.51
627.43	31029.07
627.785	30953.14
628.14	31099.35
628.495	31112.68
628.85	31061.61
629.205	31044.21
629.559	31011.22
629.914	30939.81
630.269	31081.27
630.623	31090.99
630.978	30900.94
631.332	30909.3
631.687	31098.67
632.041	30830.43
632.396	30924.67
632.75	30739.59
633.104	30804.22
633.459	30609.2
633.813	30607.84
634.167	30611
634.521	30604.45
634.875	30540.27
635.229	30590.44
635.583	30314.06
635.937	30455.98
636.291	30346.15
636.645	30442.87
636.999	30401.29
637.352	30427.73
637.706	30124.01
638.06	30375.98
638.413	30245.14
638.767	30118.36
639.121	30104.58
639.474	30089.89
639.828	30096.21
640.181	29999.49
640.534	30046.27
640.888	29990
641.241	29769.9
641.594	29861.42
641.947	29860.06
642.301	29785.04
642.654	29865.49
643.007	29944.13
643.36	29752.95
643.713	29641.76
644.066	29795.88
644.419	29579.17
644.771	29426.85
645.124	28967.88
645.477	29037.49
645.83	28818.96
646.182	28766.53
646.535	28784.38
646.888	28812.41
647.24	28575.12
647.593	28776.02
647.945	28543.03
648.298	28359.99
648.65	28449.7
649.002	28319.99
649.355	28409.93
649.707	28451.74
650.059	28497.39
650.411	28834.33
650.763	29013.76
651.115	29063.93
651.467	29115.45
651.819	28956.36
652.171	28825.06
652.523	28862.57
652.875	28893.08
653.227	28768.11
653.578	28889.01
653.93	28894.21
654.282	28693.77
654.633	28592.3
654.985	28673.65
655.337	28555.24
655.688	28731.28
656.039	28645.4
656.391	28557.27
656.742	28547.1
657.094	28490.61
657.445	28631.17
657.796	28531.74
658.147	28507.56
658.498	28357.73
658.849	28432.3
659.2	28355.7
659.551	28271.18
659.902	28377.62
660.253	28413.32
660.604	28318.63
660.955	28249.94
661.306	28327
661.656	28124.06
662.007	28340.1
662.358	28240.67
662.708	28200.67
663.059	28271.86
663.409	28025.08
663.76	28188.69
664.11	28314.34
664.461	28212.65
664.811	28264.62
665.161	28085.19
665.511	28122.03
665.862	28094.69
666.212	28164.51
666.562	28039.32
666.912	28150.95
667.262	28019.66
667.612	28091.3
667.962	28147.56
668.312	27971.98
668.662	28141.69
669.011	28150.5
669.361	28126.77
669.711	27961.81
670.06	28045.19
670.41	27887.68
670.76	27787.12
671.109	27947.12
671.459	27827.57
671.808	27844.97
672.157	27806.11
672.507	27643.4
672.856	27765.88
673.205	27767.01
673.554	27749.61
673.904	27629.61
674.253	27789.83
674.602	27721.81
674.951	27297.42
675.3	27146.24
675.649	27487.7
675.998	27624.19
676.346	27604.3
676.695	27584.42
677.044	27424.42
677.393	27557.52
677.741	27571.08
678.09	27421.03
678.438	27267.59
678.787	27405.66
679.135	27488.83
679.484	27360.92
679.832	27266.46
680.181	27208.38
680.529	27300.81
680.877	27122.06
681.225	27134.48
681.573	27310.07
681.922	27042.06
682.27	26951.66
682.618	26950.08
682.966	26977.65
683.314	26993.92
683.661	26914.83
684.009	26813.81
684.357	26659.92
684.705	26624.67
685.053	26618.57
685.4	26728.39
685.748	26490.21
686.095	26487.5
686.443	26381.96
686.79	26296.09
687.138	26363.66
687.485	26314.62
687.832	26221.74
688.18	26248.63
688.527	26137.67
688.874	26213.15
689.221	25893.61
689.568	25983.78
689.915	25907.17
690.262	25938.81
690.609	25925.7
690.956	25732.71
691.303	25751.02
691.65	25580.4
691.997	25679.16
692.344	25395.77
692.69	25286.4
693.037	25349.9
693.383	25229.22
693.73	25256.57
694.077	25113.97
694.423	25138.38
694.769	25016.57
695.116	24919.4
695.462	24878.05
695.808	24809.8
696.155	24798.95
696.501	24613.87
696.847	24633.08
697.193	24403.48
697.539	24629.24
697.885	24433.99
698.231	24266.99
698.577	24422.24
698.923	24198.74
699.269	24189.93
699.614	24060.89
699.96	23813.89
700.306	23902.25
700.651	23799.66
700.997	23835.81
701.342	23739.77
701.688	23700.45
702.033	23734.35
702.379	23560.79
702.724	23567.8
703.069	23706.33
703.415	23303.4
703.76	23379.78
704.105	23388.37
704.45	23167.58
704.795	23207.81
705.14	23105.21
705.485	23049.39
705.83	23006.68
706.175	22878.78
706.52	22971.66
706.865	22870.42
707.209	22822.96
707.554	22664.32
707.899	22820.25
708.243	22496.41
708.588	22709.06
708.932	22366.93
709.277	22372.8
709.621	22462.29
709.966	22270.88
710.31	22349.3
710.654	22090.55
710.998	22168.97
711.342	22146.14
711.687	22094.39
712.031	21953.83
712.375	22028.4
712.719	21906.83
713.063	21888.29
713.407	22022.3
713.75	21850.56
714.094	21843.78
714.438	21793.38
714.782	21737.79
715.125	21603.78
715.469	21728.98
715.812	21509.1
716.156	21437.91
716.499	21460.96
716.843	21448.08
717.186	21351.59
717.53	21430.45
717.873	21368.31
718.216	21306.61
718.559	21144.81
718.902	21120.41
719.246	21107.75
719.589	21112.95
719.932	21013.29
720.275	20958.38
720.617	20900.07
720.96	20897.59
721.303	20826.63
721.646	20762.45
721.989	20704.14
722.331	20777.36
722.674	20664.6
723.016	20678.83
723.359	20655.11
723.701	20613.98
724.044	20534.88
724.386	20331.95
724.729	20519.97
725.071	20482.68
725.413	20425.28
725.755	20288.79
726.097	20352.74
726.439	20157.72
726.782	20249.69
727.124	20291.95
727.465	20128.57
727.807	20167.21
728.149	20157.49
728.491	20040.43
728.833	20164.95
729.175	20009.47
729.516	19961.34
729.858	20014.67
730.199	19938.97
730.541	19881.34
730.882	19932.19
731.224	19942.36
731.565	19775.36
731.906	19778.29
732.248	19785.07
732.589	19635.7
732.93	19609.03
733.271	19565.64
733.612	19605.87
733.953	19666.66
734.294	19483.84
734.635	19410.62
734.976	19506.89
735.317	19356.84
735.658	19355.03
735.999	19324.52
736.339	19287.01
736.68	19360.45
737.021	19356.16
737.361	19121.81
737.702	19265.76
738.042	19141.02
738.383	19261.47
738.723	19163.85
739.063	19120.91
739.404	19085.66
739.744	19073.23
740.084	19012.21
740.424	19021.03
740.764	18896.28
741.104	18998.65
741.444	18861.03
741.784	18912.78
742.124	18853.12
742.464	18904.87
742.804	18736.51
743.143	18683.18
743.483	18761.6
743.823	18616.06
744.162	18678.66
744.502	18661.03
744.841	18574.48
745.181	18622.39
745.52	18477.08
745.86	18562.96
746.199	18516.63
746.538	18430.31
746.877	18553.92
747.216	18435.73
747.556	18446.13
747.895	18375.84
748.234	18234.61
748.573	18131.78
748.911	18190.99
749.25	18188.05
749.589	18167.94
749.928	18118.68
750.267	18186.47
750.605	18013.82
750.944	18095.17
751.283	18000.49
751.621	17979.92
751.96	17770.44
752.298	17877.78
752.636	17874.39
752.975	17815.86
753.313	17733.83
753.651	17837.55
753.989	17736.54
754.327	17638.24
754.666	17566.37
755.004	17542.42
755.342	17637.78
755.679	17531.57
756.017	17440.5
756.355	17456.55
756.693	17370.67
757.031	17341.3
757.368	17333.61
757.706	17231.24
758.044	17217
758.381	17279.38
758.719	17287.29
759.056	17148.76
759.394	17080.74
759.731	16916.67
760.068	16978.59
760.405	16780.63
760.743	16843
761.08	16849.78
761.417	16741.31
761.754	16733.18
762.091	16671.48
762.428	16593.52
762.765	16548.1
763.102	16625.83
763.438	16478.72
763.775	16358.72
764.112	16391.26
764.449	16333.64
764.785	16268.33
765.122	16200.31
765.458	16111.05
765.795	16099.75
766.131	16080.76
766.467	16023.82
766.804	15971.16
767.14	15894.1
767.476	15837.38
767.812	15801
768.148	15770.26
768.485	15752.64
768.821	15589.48
769.157	15626.54
769.492	15605.97
769.828	15563.26
770.164	15446.88
770.5	15430.84
770.836	15327.79
771.171	15335.92
771.507	15233.33
771.842	15123.05
772.178	15080.11
772.513	15043.73
772.849	15043.73
773.184	14952.66
773.519	14989.04
773.855	14789.5
774.19	14859.78
774.525	14698.65
774.86	14718.77
775.195	14680.35
775.53	14607.81
775.865	14535.27
776.2	14470.41
776.535	14352
776.87	14384.76
777.205	14337.08
777.539	14185.45
777.874	14284.88
778.209	14121.04
778.543	14103.19
778.878	14017.99
779.212	13986.36
779.547	13920.37
779.881	13990.2
780.215	13801.28
780.55	13876.98
780.884	13781.62
781.218	13699.13
781.552	13639.47
781.886	13682.41
782.22	13565.8
782.554	13528.97
782.888	13426.37
783.222	13456.65
783.556	13311.34
783.889	13331.91
784.223	13216.21
784.557	13166.49
784.89	13250.33
785.224	13118.58
785.557	13049.43
785.891	13033.16
786.224	13013.5
786.558	12925.59
786.891	12857.12
787.224	12843.56
787.557	12763.56
787.891	12715.88
788.224	12684.92
788.557	12700.97
788.89	12573.29
789.223	12676.79
789.556	12451.93
789.888	12477.47
790.221	12488.32
790.554	12289.9
790.887	12376.68
791.219	12336.23
791.552	12275.21
791.884	12260.98
792.217	12181.88
792.549	12087.65
792.882	12065.95
793.214	12003.36
793.546	12027.76
793.879	11946.64
794.211	11881.33
794.543	11915.9
794.875	11871.38
795.207	11852.85
795.539	11785.74
795.871	11719.52
796.203	11654.44
796.535	11623.93
796.867	11668.68
797.198	11581.9
797.53	11557.49
797.862	11465.07
798.193	11459.42
798.525	11426.2
798.856	11414.45
799.188	11272.75
799.519	11277.95
799.85	11223.49
800.182	11220.1
800.513	11212.19
800.844	11101.23
801.175	11166.99
801.506	11139.88
801.837	11111.18
802.168	11057.39
802.499	11052.2
802.83	10967.68
803.161	10871.86
803.491	10913.44
803.822	10834.35
804.153	10798.42
804.483	10812.43
804.814	10747.12
805.145	10772.65
805.475	10715.48
805.805	10727.46
806.136	10733.11
806.466	10674.35
806.796	10625.99
807.126	10568.82
807.457	10535.37
807.787	10536.28
808.117	10440.91
808.447	10475.26
808.777	10493.57
809.107	10353.91
809.436	10332.89
809.766	10383.29
810.096	10266.91
810.426	10237.53
810.755	10306
811.085	10257.64
811.414	10239.34
811.744	10144.87
812.073	10100.81
812.403	10105.33
812.732	10116.85
813.061	10081.15
813.39	10012
813.719	9992.79
814.049	10013.8
814.378	10045.89
814.707	9890.87
815.036	9961.83
815.365	9909.17
815.693	9823.3
816.022	9826.69
816.351	9794.15
816.68	9694.94
817.008	9755.96
817.337	9644.1
817.665	9678.22
817.994	9689.52
818.322	9670.31
818.651	9618.56
818.979	9540.14
819.307	9625.34
819.636	9572.23
819.964	9517.77
820.292	9577.66
820.62	9552.35
820.948	9533.82
821.276	9526.81
821.604	9529.98
821.932	9480.03
822.259	9501.95
822.587	9436.64
822.915	9473.25
823.243	9501.5
823.57	9413.14
823.898	9498.34
824.225	9425.8
824.553	9417.44
824.88	9482.52
825.207	9510.99
825.535	9443.2
825.862	9443.2
826.189	9451.56
826.516	9486.36
826.843	9451.56
827.17	9455.63
827.497	9415.85
827.824	9494.27
828.151	9417.21
828.478	9437.1
828.805	9474.16
829.131	9396.19
829.458	9385.8
829.785	9390.09
830.111	9339.7
830.438	9474.38
830.764	9388.96
831.09	9410.43
831.417	9335.4
831.743	9418.57
832.069	9388.51
832.395	9317.78
832.722	9327.04
833.048	9384.44
833.374	9384.22
833.7	9342.18
834.026	9368.85
834.351	9435.06
834.677	9298.12
835.003	9321.39
835.329	9272.81
835.654	9291.34
835.98	9240.49
836.306	9273.03
836.631	9156.43
836.956	9225.8
837.282	9253.37
837.607	9239.36
837.932	9228.74
838.258	9174.05
838.583	9208.85
838.908	9096.31
839.233	9124.34
839.558	9117.33
839.883	9070.55
840.208	9078.01
840.533	9076.65
840.858	9074.62
841.182	9024.9
841.507	9047.95
841.832	8949.43
842.156	8984.45
842.481	8937.9
842.805	8928.41
843.13	8875.08
843.454	8867.62
843.778	8869.88
844.103	8770
844.427	8837.79
844.751	8859.94
845.075	8793.5
845.399	8781.75
845.723	8727.06
846.047	8720.51
846.371	8707.4
846.695	8666.04
847.019	8611.58
847.343	8574.75
847.666	8544.69
847.99	8475.09
848.313	8453.17
848.637	8384.92
848.96	8404.13
849.284	8370.01
849.607	8264.7
849.931	8283.23
850.254	8213.85
850.577	8168.43
850.9	8169.33
851.223	8141.76
851.546	8076
851.869	8044.82
852.192	8103.12
852.515	8020.41
852.838	7977.93
853.161	7973.18
853.483	7915.78
853.806	7944.48
854.129	7909.68
854.451	7852.51
854.774	7914.42
855.096	7768.21
855.419	7779.06
855.741	7807.31
856.063	7682.79
856.385	7722.11
856.708	7660.65
857.03	7619.74
857.352	7713.3
857.674	7630.36
857.996	7532.74
858.318	7586.3
858.64	7534.77
858.961	7557.82
859.283	7549.69
859.605	7415.23
859.926	7483.48
860.248	7415.45
860.57	7422.69
860.891	7418.84
861.212	7297.94
861.534	7362.35
861.855	7371.61
862.176	7374.1
862.498	7348.56
862.819	7314.44
863.14	7320.32
863.461	7272.86
863.782	7271.28
864.103	7262.24
864.424	7249.58
864.745	7229.02
865.065	7239.64
865.386	7180.66
865.707	7209.81
866.027	7197.16
866.348	7168.91
866.668	7157.38
866.989	7111.28
867.309	7070.38
867.63	7123.49
867.95	7123.26
868.27	7096.59
868.59	7062.02
868.91	7057.5
869.23	7086.42
869.55	6999.65
869.87	7034.9
870.19	7017.95
870.51	6989.7
870.83	6967.1
871.15	6972.53
871.469	6978.4
871.789	6949.03
872.109	6958.74
872.428	6907.45
872.748	6921
873.067	6938.41
873.386	6956.94
873.706	6934.34
874.025	6812.76
874.344	6915.35
874.663	6873.32
874.982	6856.83
875.301	6794.68
875.62	6811.85
875.939	6756.94
876.258	6823.38
876.577	6831.29
876.896	6756.71
877.214	6791.29
877.533	6799.65
877.852	6761.23
878.17	6778.18
878.489	6757.62
878.807	6741.8
879.125	6728.47
879.444	6694.8
879.762	6695.25
880.08	6730.5
880.398	6660.67
880.716	6667.9
881.034	6621.58
881.352	6606.21
881.67	6618.41
881.988	6617.74
882.306	6528.02
882.624	6570.05
882.941	6567.79
883.259	6532.77
883.577	6528.02
883.894	6497.96
884.212	6444.86
884.529	6491.41
884.846	6457.97
885.164	6434.01
885.481	6438.53
885.798	6409.61
886.115	6368.02
886.432	6403.28
886.75	6332.77
887.067	6294.13
887.383	6307.24
887.7	6296.39
888.017	6312.88
888.334	6322.15
888.651	6267.46
888.967	6262.94
889.284	6209.38
889.6	6256.84
889.917	6140.91
890.233	6167.13
890.55	6177.3
890.866	6206.45
891.182	6144.53
891.498	6113.57
891.815	6121.48
892.131	6031.31
892.447	6003.74
892.763	6038.54
893.079	6063.4
893.395	6029.5
893.71	5979.33
894.026	6001.71
894.342	6002.16
894.657	5954.7
894.973	5867.47
895.289	5860.02
895.604	5889.85
895.92	5893.23
896.235	5839.45
896.55	5794.25
896.865	5802.62
897.181	5834.48
897.496	5804.88
897.811	5726.23
898.126	5727.59
898.441	5671.55
898.756	5698.21
899.071	5707.03
899.386	5695.05
899.7	5617.54
900.015	5579.8
900.33	5536.86
900.644	5573.02
900.959	5583.64
901.273	5575.5
901.588	5484.66
901.902	5476.3
902.216	5485.56
902.531	5441.27
902.845	5446.92
903.159	5445.79
903.473	5397.43
903.787	5321.05
904.101	5380.93
904.415	5327.83
904.729	5333.48
905.042	5314.72
905.356	5290.54
905.67	5263.42
905.984	5297.09
906.297	5257.55
906.611	5249.64
906.924	5147.94
907.237	5209.64
907.551	5193.14
907.864	5149.75
908.177	5129.87
908.491	5099.58
908.804	5100.49
909.117	5023.43
909.43	5036.99
909.743	5025.24
910.056	4986.37
910.368	4987.27
910.681	4935.52
910.994	4955.41
911.307	4944.33
911.619	4883.09
911.932	4902.53
912.244	4833.83
912.557	4822.3
912.869	4822.75
913.181	4823.21
913.494	4778.24
913.806	4765.35
914.118	4740.95
914.43	4690.33
914.742	4702.53
915.054	4662.98
915.366	4651.91
915.678	4688.52
915.99	4636.77
916.302	4623.66
916.613	4577.11
916.925	4599.48
917.236	4561.97
917.548	4537.79
917.859	4557.22
918.171	4481.52
918.482	4518.58
918.794	4407.4
919.105	4483.1
919.416	4394.52
919.727	4477.23
920.038	4466.83
920.349	4349.77
920.66	4394.29
920.971	4364.01
921.282	4311.36
921.593	4271.36
921.903	4274.29
922.214	4321.07
922.525	4308.87
922.835	4280.85
923.146	4213.28
923.456	4238.14
923.767	4233.17
924.077	4191.13
924.387	4181.42
924.697	4130.57
925.008	4139.38
925.318	4140.51
925.628	4100.29
925.938	4080.85
926.248	4041.08
926.558	4072.72
926.867	4061.64
927.177	4044.92
927.487	3964.25
927.796	3983.23
928.106	4000.63
928.416	3965.38
928.725	3937.58
929.034	3919.05
929.344	3906.62
929.653	3916.34
929.962	3900.52
930.271	3858.94
930.581	3825.04
930.89	3795.89
931.199	3787.53
931.508	3785.04
931.817	3816.45
932.125	3809.22
932.434	3769.67
932.743	3715.21
933.051	3665.72
933.36	3675.21
933.669	3702.56
933.977	3650.58
934.286	3650.81
934.594	3628.44
934.902	3620.53
935.21	3610.36
935.519	3598.83
935.827	3618.94
936.135	3568.55
936.443	3516.12
936.751	3531.49
937.059	3526.74
937.367	3517.03
937.674	3462.11
937.982	3503.47
938.29	3490.59
938.597	3474.32
938.905	3435.22
939.213	3380.08
939.52	3376.92
939.827	3411.49
940.135	3406.29
940.442	3384.6
940.749	3346.41
941.056	3374.21
941.363	3315.9
941.67	3344.15
941.977	3327.88
942.284	3297.6
942.591	3258.28
942.898	3248.78
943.205	3245.85
943.511	3247.43
943.818	3187.77
944.125	3192.97
944.431	3171.95
944.738	3208.11
945.044	3172.4
945.35	3159.97
945.657	3138.28
945.963	3097.38
946.269	3129.92
946.575	3126.75
946.881	3126.08
947.187	3084.95
947.493	3084.5
947.799	3051.5
948.105	3009.92
948.41	3018.06
948.716	2986.64
949.022	2995.68
949.327	2963.82
949.633	2948.91
949.938	2947.32
950.244	2980.09
950.549	2922.24
950.854	2936.25
951.16	2910.49
951.465	2927.21
951.77	2936.93
952.075	2875.46
952.38	2874.56
952.685	2888.79
952.99	2848.34
953.294	2857.83
953.599	2831.62
953.904	2781.45
954.209	2808.57
954.513	2780.32
954.818	2765.41
955.122	2752.3
955.426	2755.24
955.731	2768.35
956.035	2716.14
956.339	2761.57
956.643	2699.42
956.948	2720.21
957.252	2683.6
957.556	2691.06
957.86	2651.51
958.163	2648.8
958.467	2610.61
958.771	2603.83
959.075	2596.6
959.378	2609.25
959.682	2601.8
959.985	2563.38
960.289	2532.87
960.592	2563.38
960.896	2564.73
961.199	2575.36
961.502	2521.57
961.805	2489.93
962.108	2485.87
962.411	2524.74
962.714	2501.91
963.017	2493.78
963.32	2456.94
963.623	2480.22
963.926	2467.79
964.228	2461.01
964.531	2456.72
964.833	2425.98
965.136	2418.75
965.438	2382.37
965.741	2384.17
966.043	2375.36
966.345	2382.82
966.648	2394.12
966.95	2373.55
967.252	2353.67
967.554	2328.36
967.856	2301.24
968.158	2292.43
968.46	2305.08
968.761	2293.56
969.063	2294.01
969.365	2263.05
969.666	2292.43
969.968	2243.84
970.269	2255.14
970.571	2242.26
970.872	2263.27
971.174	2191.41
971.475	2217.85
971.776	2197.96
972.077	2174.91
972.378	2181.24
972.679	2193.67
972.98	2184.18
973.281	2169.72
973.582	2181.47
973.883	2146.89
974.183	2133.33
974.484	2132.2
974.785	2109.38
975.085	2119.77
975.386	2115.03
975.686	2074.13
975.986	2062.6
976.287	2054.24
976.587	2075.71
976.887	2044.75
977.187	2057.18
977.487	2026.44
977.787	2033.68
978.087	2027.35
978.387	2000.46
978.687	1996.84
978.987	2016.5
979.286	1998.2
979.586	1971.08
979.885	1933.11
980.185	1960
980.484	1970.63
980.784	1968.82
981.083	1937.86
981.382	1931.98
981.682	1937.41
981.981	1896.73
982.28	1932.44
982.579	1909.61
982.878	1918.2
983.177	1871.19
983.475	1887.01
983.774	1869.84
984.073	1884.07
984.372	1838.65
984.67	1841.14
984.969	1845.88
985.267	1838.2
985.566	1851.53
985.864	1825.77
986.162	1821.7
986.461	1798.43
986.759	1809.27
987.057	1803.62
987.355	1782.83
987.653	1767.02
987.951	1741.93
988.249	1764.53
988.547	1749.84
988.844	1734.47
989.142	1739.67
989.44	1733.8
989.737	1721.14
990.035	1696.06
990.332	1727.69
990.63	1669.62
990.927	1732.67
991.224	1705.32
991.521	1696.74
991.819	1672.1
992.116	1663.97
992.413	1674.59
992.71	1655.15
993.006	1667.36
993.303	1653.35
993.6	1640.01
993.897	1612.67
994.193	1614.93
994.49	1614.48
994.787	1607.7
995.083	1580.35
995.379	1562.95
995.676	1582.61
995.972	1558.89
996.268	1571.99
996.565	1561.6
996.861	1595.04
997.157	1541.03
997.453	1531.99
997.749	1548.49
998.044	1493.58
998.34	1521.6
998.636	1499.23
998.932	1486.8
999.227	1465.78
999.523	1492.9
999.818	1502.16
1000.114	1463.52
1000.409	1461.49
1000.704	1454.71
1001	1469.4
1001.295	1443.86
1001.59	1437.31
1001.885	1419.45
1002.18	1444.09
1002.475	1436.85
1002.77	1439.34
1003.065	1392.56
1003.359	1391.43
1003.654	1412.45
1003.949	1385.33
1004.243	1397.31
1004.538	1369.74
1004.832	1374.26
1005.127	1356.18
1005.421	1367.48
1005.715	1352.34
1006.009	1343.52
1006.304	1324.99
1006.598	1315.5
1006.892	1313.92
1007.186	1324.99
1007.48	1317.76
1007.773	1294.71
1008.067	1281.83
1008.361	1285.9
1008.655	1261.49
1008.948	1296.97
1009.242	1272.57
1009.535	1268.95
1009.829	1257.42
1010.122	1243.41
1010.415	1245
1010.708	1232.34
1011.001	1237.99
1011.295	1214.94
1011.588	1203.41
1011.881	1182.62
1012.173	1200.93
1012.466	1214.26
1012.759	1177.2
1013.052	1191.44
1013.344	1181.95
1013.637	1174.04
1013.93	1176.3
1014.222	1171.55
1014.514	1138.11
1014.807	1131.33
1015.099	1135.85
1015.391	1142.17
1015.683	1133.59
1015.976	1148.95
1016.268	1109.18
1016.56	1136.3
1016.851	1123.87
1017.143	1108.28
1017.435	1083.64
1017.727	1106.47
1018.018	1087.71
1018.31	1074.83
1018.602	1076.86
1018.893	1072.8
1019.185	1074.15
1019.476	1072.34
1019.767	1074.38
1020.058	1029.41
1020.35	1035.51
1020.641	1026.7
1020.932	1016.98
1021.223	1012.46
1021.514	1019.01
1021.804	1009.07
1022.095	1018.11
1022.386	995.51
1022.677	989.63
1022.967	1002.29
1023.258	994.83
1023.548	982.86
1023.839	970.88
1024.129	951.9
1024.419	948.73
1024.709	932.46
1025	977.66
1025.29	939.47
1025.58	941.05
1025.87	950.31
1026.16	928.39
1026.449	920.03
1026.739	912.12
1027.029	890.88
1027.319	898.11
1027.608	887.94
1027.898	886.13
1028.187	858.79
1028.477	867.38
1028.766	896.98
1029.055	878.45
1029.344	871.67
1029.634	871.9
1029.923	856.76
1030.212	850.66
1030.501	866.7
1030.79	848.4
1031.078	813.82
1031.367	798.45
1031.656	828.96
1031.945	828.74
1032.233	804.1
1032.522	808.62
1032.81	833.03
1033.099	794.16
1033.387	809.75
1033.675	768.4
1033.963	792.35
1034.251	785.12
1034.54	779.02
1034.828	764.33
1035.116	766.82
1035.403	755.74
1035.691	767.04
1035.979	783.31
1036.267	760.49
1036.554	747.16
1036.842	754.39
1037.129	759.81
1037.417	737.21
1037.704	746.48
1037.992	725.69
1038.279	703.54
1038.566	722.3
1038.853	722.3
1039.14	722.3
