Data from whiteboard_FLMS001491_00017.txt Node
Date: Wed Feb 08 11:25:29 GMT 2017
User: dcchb
Spectrometer: FLMS00149
Trigger mode: 0
Integration Time (sec): 2.000000E-2
Scans to average: 10
Electric dark correction enabled: true
Nonlinearity correction enabled: false
Boxcar width: 0
XAxis mode: Wavelengths
Number of Pixels in Spectrum: 2048
>>>>>Begin Spectral Data<<<<<
341.393	-13.84
341.776	-13.84
342.16	-13.84
342.543	-67.63
342.927	-80.28
343.31	-68.08
343.693	-79.6
344.077	-61.98
344.46	-42.99
344.843	-41.41
345.226	-39.6
345.61	-33.5
345.993	-28.76
346.376	-10.68
346.759	10.56
347.142	25.93
347.525	61.18
347.908	30
348.291	73.16
348.674	102.09
349.057	103.67
349.44	114.29
349.823	138.7
350.206	163.33
350.588	206.72
350.971	235.42
351.354	270.22
351.737	267.28
352.119	284.91
352.502	292.59
352.884	299.37
353.267	313.83
353.65	326.94
354.032	317.68
354.414	343.44
354.797	353.38
355.179	358.58
355.562	379.59
355.944	360.61
356.326	352.93
356.709	387.5
357.091	376.66
357.473	376.43
357.855	369.65
358.238	382.31
358.62	384.57
359.002	375.75
359.384	395.41
359.766	383.44
360.148	396.77
360.53	370.33
360.912	392.93
361.294	394.51
361.676	384.11
362.057	380.05
362.439	379.82
362.821	392.93
363.203	371.23
363.584	372.59
363.966	391.35
364.348	378.69
364.729	384.34
365.111	386.6
365.493	372.14
365.874	362.87
366.256	394.74
366.637	362.19
367.019	371.01
367.4	390.67
367.781	387.73
368.163	362.19
368.544	368.07
368.925	385.7
369.306	399.48
369.688	353.83
370.069	361.29
370.45	381.18
370.831	381.63
371.212	373.49
371.593	396.54
371.974	375.07
372.355	399.71
372.736	410.1
373.117	389.99
373.498	386.6
373.879	414.17
374.26	399.71
374.641	396.77
375.021	371.46
375.402	401.29
375.783	403.55
376.163	426.82
376.544	427.28
376.925	409.42
377.305	434.96
377.686	411.46
378.066	438.58
378.447	432.47
378.827	421.4
379.208	403.32
379.588	434.73
379.968	435.19
380.349	443.1
380.729	442.42
381.109	428.41
381.489	441.06
381.87	451.91
382.25	453.72
382.63	465.24
383.01	472.93
383.39	464.34
383.77	495.98
384.15	461.4
384.53	481.96
384.91	471.57
385.29	455.07
385.67	492.59
386.049	494.85
386.429	471.12
386.809	504.11
387.189	502.53
387.568	508.4
387.948	508.4
388.328	504.11
388.707	514.28
389.087	513.83
389.466	536.43
389.846	541.62
390.225	528.74
390.605	555.86
390.984	542.08
391.363	582.3
391.743	590.89
392.122	594.73
392.501	579.59
392.881	616.88
393.26	606.48
393.639	611
394.018	626.14
394.397	617.55
394.776	633.83
395.155	640.15
395.534	645.8
395.913	619.81
396.292	645.12
396.671	655.52
397.05	672.92
397.429	676.08
397.808	688.51
398.186	701.17
398.565	709.53
398.944	737.1
399.323	706.82
399.701	739.13
400.08	752.24
400.458	768.06
400.837	766.48
401.215	766.7
401.594	788.62
401.972	815.06
402.351	797.44
402.729	836.76
403.107	787.95
403.486	852.35
403.864	865.23
404.242	865.46
404.62	882.63
404.999	886.02
405.377	900.48
405.755	920.37
406.133	955.85
406.511	957.88
406.889	981.16
407.267	1005.79
407.645	995.85
408.023	1015.74
408.401	1057.32
408.779	1067.71
409.156	1054.61
409.534	1084.21
409.912	1130.54
410.29	1141.38
410.667	1145.68
411.045	1166.24
411.422	1205.79
411.8	1195.17
412.178	1243.3
412.555	1253.92
412.933	1282.17
413.31	1307.93
413.687	1337.54
414.065	1352.45
414.442	1356.52
414.819	1368.5
415.197	1375.05
415.574	1419.79
415.951	1445.78
416.328	1469.51
416.705	1467.48
417.082	1481.49
417.46	1491.43
417.837	1508.38
418.214	1544.31
418.591	1556.51
418.967	1563.29
419.344	1595.38
419.721	1615.49
420.098	1587.02
420.475	1666.57
420.852	1617.3
421.228	1691.88
421.605	1737.75
421.982	1707.02
422.358	1768.26
422.735	1786.79
423.111	1781.82
423.488	1835.38
423.864	1810.07
424.241	1850.74
424.617	1890.52
424.994	1880.8
425.37	1924.41
425.746	1940.01
426.123	1928.71
426.499	1968.25
426.875	2001.25
427.251	2081.92
427.627	2090.28
428.003	2127.12
428.379	2140.68
428.756	2153.79
429.132	2214.12
429.507	2259.77
429.883	2263.61
430.259	2331.86
430.635	2343.84
431.011	2363.5
431.387	2377.96
431.763	2422.25
432.138	2462.03
432.514	2468.81
432.89	2503.38
433.265	2576.82
433.641	2635.81
434.016	2636.94
434.392	2731.62
434.767	2745.18
435.143	2749.48
435.518	2745.63
435.894	2775.01
436.269	2843.03
436.644	2900.21
437.02	2917.15
437.395	2902.24
437.77	2979.07
438.145	3038.06
438.52	3070.82
438.895	3099.97
439.271	3102.23
439.646	3184.49
440.021	3169.8
440.395	3226.98
440.77	3186.3
441.145	3247.99
441.52	3328.22
441.895	3284.6
442.27	3302.23
442.645	3334.77
443.019	3406.41
443.394	3399.18
443.769	3453.41
444.143	3416.35
444.518	3520.3
444.892	3524.37
445.267	3530.92
445.641	3578.61
446.016	3593.75
446.39	3622.67
446.764	3639.17
447.139	3623.13
447.513	3720.07
447.887	3748.77
448.262	3752.84
448.636	3751.26
449.01	3835.77
449.384	3829.45
449.758	3862.44
450.132	3972.04
450.506	3993.96
450.88	4001.42
451.254	4011.36
451.628	4061.08
452.002	4071.93
452.376	4162.55
452.75	4201.87
453.123	4190.57
453.497	4277.12
453.871	4364.12
454.244	4462.43
454.618	4483.44
454.992	4518.69
455.365	4539.94
455.739	4651.8
456.112	4680.72
456.486	4719.82
456.859	4796.2
457.232	4879.14
457.606	4904.9
457.979	4931.34
458.352	5063.09
458.725	5105.8
459.099	5182.86
459.472	5251.33
459.845	5267.83
460.218	5373.81
460.591	5452.68
460.964	5433.7
461.337	5592.34
461.71	5656.07
462.083	5727.7
462.456	5762.28
462.829	5799.34
463.201	5901.71
463.574	5902.84
463.947	6051.99
464.32	6239.1
464.692	6240.23
465.065	6255.82
465.438	6397.97
465.81	6436.61
466.183	6531.3
466.555	6658.75
466.928	6673.44
467.3	6777.84
467.672	6865.07
468.045	6991.17
468.417	7122.24
468.789	7077.05
469.161	7211.51
469.534	7333.31
469.906	7456.92
470.278	7525.4
470.65	7642.23
471.022	7773.3
471.394	7890.81
471.766	8076.57
472.138	8157.92
472.51	8263.46
472.882	8411.7
473.253	8570.57
473.625	8653.5
473.997	8802.2
474.369	8906.6
474.74	9004.9
475.112	9130.1
475.484	9279.02
475.855	9454.38
476.227	9606.47
476.598	9861.38
476.97	9924.65
477.341	10194.25
477.713	10326.45
478.084	10397.64
478.455	10701.36
478.827	10797.17
479.198	11167.11
479.569	11114.45
479.94	11425.63
480.311	11559.87
480.682	11795.11
481.053	11973.19
481.424	12172.28
481.795	12422.67
482.166	12622.44
482.537	12714.41
482.908	12995.08
483.279	13130.22
483.65	13382.19
484.021	13595.29
484.391	13823.76
484.762	13977.66
485.133	14112.34
485.503	14290.42
485.874	14575.38
486.244	14712.55
486.615	15066.67
486.985	15267.11
487.356	15553.21
487.726	15646.99
488.097	16003.36
488.467	16046.08
488.837	16356.12
489.207	16485.61
489.578	16848.31
489.948	16970.57
490.318	17280.62
490.688	17323.1
491.058	17548.63
491.428	17804
491.798	17949.53
492.168	18330.31
492.538	18413.24
492.908	18698.89
493.278	18887.58
493.648	18928.49
494.017	19138.65
494.387	19319.66
494.757	19558.07
495.126	19748.8
495.496	19928.46
495.866	20050.94
496.235	20364.15
496.605	20526.64
496.974	20543.58
497.344	20784.48
497.713	20913.74
498.082	21147.18
498.452	21291.59
498.821	21406.61
499.19	21588.08
499.559	21753.5
499.928	21941.51
500.298	22013.15
500.667	22221.28
501.036	22250.21
501.405	22479.8
501.774	22464.44
502.143	22689.97
502.512	22797.08
502.88	23058.32
503.249	23052.9
503.618	23137.87
503.987	23348.26
504.356	23582.37
504.724	23693.11
505.093	23756.61
505.462	23965.42
505.83	24050.61
506.199	24388.68
506.567	24679.07
506.936	24569.92
507.304	24926.07
507.672	24980.53
508.041	25172.84
508.409	25476.11
508.777	25616.9
509.145	25841.07
509.514	25964.68
509.882	25994.74
510.25	26290.78
510.618	26424.11
510.986	26588.17
511.354	26642.86
511.722	26929.4
512.09	27315.61
512.458	27319.23
512.826	27568.26
513.193	27762.6
513.561	27826.78
513.929	28046.21
514.297	28408.01
514.664	28698.4
515.032	28672.64
515.4	28840.32
515.767	29017.03
516.135	29285.95
516.502	29121.44
516.869	29701.76
517.237	29784.7
517.604	29680.52
517.972	29995.54
518.339	30332.71
518.706	30388.97
519.073	30435.3
519.44	30739.02
519.808	31122.29
520.175	31074.15
520.542	31387.37
520.909	31570.86
521.276	31675.04
521.643	32085.43
522.009	32129.95
522.376	32552.76
522.743	32685.86
523.11	33011.96
523.477	33333.53
523.843	33448.56
524.21	33881.09
524.577	34141.87
524.943	34263
525.31	34351.36
525.676	34873.15
526.043	35156.08
526.409	35206.02
526.776	35644.88
527.142	35878.32
527.508	36006.23
527.874	36354.47
528.241	36632.43
528.607	36685.76
528.973	37107.89
529.339	37002.13
529.705	37353.31
530.071	37729.12
530.437	37856.12
530.803	38066.97
531.169	38231.93
531.535	38194.42
531.901	38389.22
532.267	38686.84
532.632	38784.69
532.998	38995.98
533.364	39153.94
533.73	39369.76
534.095	39456.53
534.461	39696.98
534.826	39976.52
535.192	40041.83
535.557	40490.86
535.923	40419.22
536.288	40625.54
536.653	40797.29
537.019	40625.77
537.384	40995.48
537.749	41043.84
538.114	41215.36
538.479	41313.89
538.845	41514.33
539.21	41465.75
539.575	41740.54
539.94	41922.46
540.305	42065.96
540.67	42129.91
541.034	42244.48
541.399	42474.98
541.764	42598.37
542.129	42712.04
542.494	42874.97
542.858	43093.27
543.223	42986.38
543.587	43283.1
543.952	43333.72
544.316	43370.78
544.681	43566.26
545.045	43791.33
545.41	43930.31
545.774	44036.98
546.138	44195.62
546.503	44333.92
546.867	44328.72
547.231	44716.06
547.595	44877.41
547.959	44926.22
548.324	44876.05
548.688	44865.88
549.052	45241.92
549.416	45322.14
549.779	45384.74
550.143	45666.31
550.507	45834.67
550.871	45855.01
551.235	46003.25
551.599	46282.57
551.962	46422.68
552.326	46468.1
552.689	46780.86
553.053	46600.98
553.417	46814.08
553.78	47315.99
554.143	47129.78
554.507	47263.79
554.87	47500.84
555.234	47779.25
555.597	47619.26
555.96	47794.84
556.323	47998.68
556.686	48128.62
557.05	48381.27
557.413	48458.78
557.776	48489.97
558.139	48931.54
558.502	48935.15
558.865	48878.43
559.228	49225.54
559.59	49316.61
559.953	49353.67
560.316	49771.97
560.679	49771.97
561.041	49977.16
561.404	50088.34
561.767	50416.7
562.129	50280.2
562.492	50569.46
562.854	50661.21
563.217	50697.37
563.579	50871.6
563.941	51117.92
564.304	51248.54
564.666	51314.75
565.028	51354.75
565.39	51558.36
565.753	51752.48
566.115	51782.31
566.477	52018.01
566.839	52091
567.201	52285.35
567.563	52297.78
567.925	52502.29
568.287	52617.32
568.648	52621.16
569.01	52820.02
569.372	53026.8
569.734	52916.29
570.095	53207.81
570.457	53368.71
570.819	53377.98
571.18	53279.45
571.542	53643.5
571.903	53590.62
572.265	53765.54
572.626	53845.53
572.987	53972.31
573.349	54053.89
573.71	54102.7
574.071	54225.41
574.432	54315.35
574.794	54515.57
575.155	54466.76
575.516	54542.69
575.877	54576.14
576.238	54676.25
576.599	54758.96
576.96	54746.07
577.32	54779.97
577.681	54969.8
578.042	54982
578.403	54986.75
578.763	54995.79
579.124	55089.34
579.485	55217.47
579.845	55191.03
580.206	55205.05
580.566	55172.73
580.927	55209.11
581.287	55346.74
581.648	55141.54
582.008	55325.04
582.368	55250.24
582.728	55249.34
583.089	55264.93
583.449	55243.69
583.809	55324.59
584.169	55347.41
584.529	55248.43
584.889	55451.59
585.249	55268.32
585.609	55247.98
585.969	55398.71
586.329	55239.4
586.688	55381.31
587.048	55348.32
587.408	55348.32
587.768	55407.3
588.127	55390.58
588.487	55336.34
588.846	55538.82
589.206	55343.35
589.565	55352.16
589.925	55511.03
590.284	55412.95
590.643	55547.64
591.003	55596.22
591.362	55742.43
591.721	55702.21
592.08	55651.59
592.44	55773.17
592.799	55766.61
593.158	55729.55
593.517	55736.78
593.876	55803.67
594.235	55800.96
594.593	55838.02
594.952	55942.2
595.311	55840.28
595.67	55881.19
596.029	56014.97
596.387	56075.53
596.746	56075.76
597.104	55921.86
597.463	56013.84
597.822	56066.94
598.18	55951.01
598.538	56011.8
598.897	56156.89
599.255	55870.56
599.613	56248.41
599.972	56072.82
600.33	56111.01
600.688	56004.12
601.046	56078.69
601.404	56193.95
601.762	56162.53
602.12	56220.39
602.478	56155.3
602.836	56132.48
603.194	55918.93
603.552	56041.63
603.91	55986.27
604.268	56085.02
604.625	56000.05
604.983	56053.61
605.341	55943.11
605.698	56154.17
606.056	56122.99
606.413	56105.81
606.771	56202.76
607.128	56262.42
607.485	56142.42
607.843	56232.14
608.2	56336.99
608.557	56396.88
608.914	56303.1
609.272	56435.75
609.629	56393.71
609.986	56551.45
610.343	56472.36
610.7	56599.36
611.057	56648.4
611.414	56600.72
611.771	56631
612.127	56737.21
612.484	56789.86
612.841	56784.44
613.198	56769.98
613.554	56797.09
613.911	56969.97
614.267	57024.88
614.624	56975.85
614.98	57006.58
615.337	57138.78
615.693	57085.9
616.05	57110.76
616.406	57237.76
616.762	57210.64
617.118	57141.27
617.475	57249.06
617.831	57317.08
618.187	57310.98
618.543	57323.63
618.899	57395.72
619.255	57409.06
619.611	57421.71
619.967	57454.03
620.323	57477.53
620.678	57428.72
621.034	57368.15
621.39	57331.77
621.746	57359.11
622.101	57552.33
622.457	57369.96
622.812	57415.38
623.168	57444.76
623.523	57424.65
623.879	57401.15
624.234	57301.49
624.589	57324.99
624.945	57381.26
625.3	57336.74
625.655	57291.32
626.01	57320.24
626.365	57320.92
626.72	57339
627.075	57343.52
627.43	57254.48
627.785	57150.53
628.14	57204.99
628.495	57296.74
628.85	57160.47
629.205	57143.98
629.559	57205.67
629.914	57104.2
630.269	57079.35
630.623	56973.13
630.978	56949.41
631.332	57079.12
631.687	57110.98
632.041	56978.33
632.396	57028.27
632.75	56885.23
633.104	56990.08
633.459	56861.5
633.813	56863.08
634.167	56898.79
634.521	56917.99
634.875	56983.53
635.229	56779.47
635.583	56746.47
635.937	56835.74
636.291	56711.9
636.645	56721.16
636.999	56672.8
637.352	56749.41
637.706	56621.05
638.06	56717.55
638.413	56653.14
638.767	56581.73
639.121	56616.99
639.474	56523.2
639.828	56464.45
640.181	56493.6
640.534	56523.88
640.888	56477.1
641.241	56312.59
641.594	56368.18
641.947	56466.26
642.301	56398.46
642.654	56411.34
643.007	56340.16
643.36	56297.9
643.713	56292.7
644.066	56349.42
644.419	56110.56
644.771	55948.53
645.124	55705.15
645.477	55606.84
645.83	55534.75
646.182	55447.98
646.535	55396.9
646.888	55343.35
647.24	55202.33
647.593	55364.59
647.945	55230.58
648.298	55080.3
648.65	55020.87
649.002	54995.33
649.355	55108.78
649.707	55015.9
650.059	55112.62
650.411	55464.93
650.763	55475.55
651.115	55651.59
651.467	55580.18
651.819	55637.58
652.171	55544.02
652.523	55458.15
652.875	55442.78
653.227	55313.52
653.578	55529.1
653.93	55411.37
654.282	55301.77
654.633	55252.95
654.985	55307.64
655.337	55266.06
655.688	55254.76
656.039	55418.6
656.391	55183.8
656.742	55158.49
657.094	55163.69
657.445	55274.42
657.796	55130.92
658.147	55062.9
658.498	54975.67
658.849	55055.9
659.2	55040.3
659.551	54932.51
659.902	55050.7
660.253	55075.11
660.604	55109.45
660.955	54905.62
661.306	55040.76
661.656	54814.1
662.007	54851.83
662.358	54895.68
662.708	54879.18
663.059	54785.85
663.409	54621.33
663.76	54825.85
664.11	54859.52
664.461	54896.13
664.811	54897.48
665.161	54769.8
665.511	54741.1
665.862	54850.93
666.212	54872.17
666.562	54881.66
666.912	54807.09
667.262	54713.31
667.612	54711.05
667.962	54753.31
668.312	54655
668.662	54826.52
669.011	54743.36
669.361	54602.12
669.711	54633.54
670.06	54639.41
670.41	54602.8
670.76	54508.34
671.109	54609.13
671.459	54569.81
671.808	54472.64
672.157	54558.96
672.507	54378.85
672.856	54378.85
673.205	54455.46
673.554	54535.46
673.904	54564.16
674.253	54570.26
674.602	54449.59
674.951	53958.07
675.3	53828.81
675.649	54347.44
675.998	54279.19
676.346	54382.47
676.695	54414.33
677.044	54188.35
677.393	54265.64
677.741	54251.62
678.09	54137.05
678.438	54121.91
678.787	54061.8
679.135	54056.38
679.484	53846.66
679.832	53918.98
680.181	53752.88
680.529	53802.14
680.877	53721.47
681.225	53721.24
681.573	53841.69
681.922	53624.75
682.27	53607.57
682.618	53510.85
682.966	53405.77
683.314	53490.97
683.661	53369.61
684.009	53287.58
684.357	53125.33
684.705	53132.11
685.053	53125.55
685.4	53068.38
685.748	52904.54
686.095	52896.63
686.443	52739.8
686.79	52787.93
687.138	52649.41
687.485	52676.07
687.832	52530.77
688.18	52549.75
688.527	52263.43
688.874	52287.38
689.221	52204.45
689.568	52186.14
689.915	52020.5
690.262	52072.7
690.609	51881.74
690.956	51867.51
691.303	51826.15
691.65	51618.7
691.997	51637.91
692.344	51426.16
692.69	51398.14
693.037	51346.39
693.383	51100.29
693.73	51174.87
694.077	51039.96
694.423	51039.51
694.769	50899.4
695.116	50922.9
695.462	50904.82
695.808	50750.02
696.155	50725.39
696.501	50511.38
696.847	50631.83
697.193	50224.61
697.539	50511.84
697.885	50171.51
698.231	50051.28
698.577	50187.32
698.923	50043.15
699.269	49788.46
699.614	49784.4
699.96	49739.2
700.306	49796.6
700.651	49557.06
700.997	49461.24
701.342	49433.67
701.688	49488.81
702.033	49287.01
702.379	49059.22
702.724	49104.19
703.069	49213.11
703.415	48785.78
703.76	48901.71
704.105	48905.55
704.45	48726.12
704.795	48436.64
705.14	48322.74
705.485	48341.5
705.83	48179.24
706.175	48261.27
706.52	48153.25
706.865	48050.88
707.209	47953.26
707.554	47849.76
707.899	47847.27
708.243	47600.95
708.588	47633.49
708.932	47432.37
709.277	47366.83
709.621	47408.64
709.966	47047.52
710.31	47332.03
710.654	46912.38
710.998	47130.46
711.342	46943.34
711.687	46724.82
712.031	46527.08
712.375	46533.86
712.719	46499.29
713.063	46421.77
713.407	46491.15
713.75	46215.68
714.094	46196.92
714.438	45985.63
714.782	45984.95
715.125	45765.29
715.469	45753.54
715.812	45485.08
716.156	45346.32
716.499	45398.07
716.843	45272.43
717.186	45119.89
717.53	45323.27
717.873	45217.29
718.216	44885.09
718.559	44815.26
718.902	44403.75
719.246	44745.89
719.589	44500.02
719.932	44320.13
720.275	44273.58
720.617	44141.16
720.96	44089.41
721.303	44074.49
721.646	44167.6
721.989	43740.94
722.331	44064.1
722.674	43672.92
723.016	43593.15
723.359	43700.94
723.701	43578.91
724.044	43440.38
724.386	43176.89
724.729	43406.71
725.071	43321.52
725.413	43265.25
725.755	43068.42
726.097	42971.02
726.439	42738.71
726.782	42669.1
727.124	42817.12
727.465	42776.22
727.807	42622.1
728.149	42457.13
728.491	42314.99
728.833	42440.64
729.175	42159.96
729.516	42200.42
729.858	42142.11
730.199	42217.36
730.541	42006.07
730.882	41871.61
731.224	42101.44
731.565	41690.15
731.906	41721.56
732.248	41795.45
732.589	41670.71
732.93	41485.63
733.271	41664.61
733.612	41671.39
733.953	41627.78
734.294	41408.8
734.635	41340.55
734.976	41490.83
735.317	41268.01
735.658	41166.54
735.999	41092.87
736.339	41013.78
736.68	41147.56
737.021	41065.76
737.361	40980.33
737.702	41101.24
738.042	40833.22
738.383	40747.57
738.723	40964.52
739.063	40731.08
739.404	40784.86
739.744	40570.63
740.084	40657.86
740.424	40654.24
740.764	40460.12
741.104	40524.3
741.444	40302.84
741.784	40196.4
742.124	40343.29
742.464	40317.08
742.804	40171.77
743.143	40181.03
743.483	40143.75
743.823	39878.44
744.162	39823.53
744.502	39853.81
744.841	39798.67
745.181	39876.18
745.52	39603.65
745.86	39685.23
746.199	39360.04
746.538	39441.62
746.877	39584.67
747.216	39364.11
747.556	39386.03
747.895	39373.82
748.234	39121.85
748.573	39144
748.911	38984.46
749.25	39040.95
749.589	38695.2
749.928	38826.72
750.267	38816.78
750.605	38634.41
750.944	38694.29
751.283	38510.12
751.621	38478.48
751.96	38316.45
752.298	38339.5
752.636	38223.35
752.975	38015.89
753.313	37988.1
753.651	38133.63
753.989	37974.31
754.327	37665.62
754.666	37633.76
755.004	37601.67
755.342	37650.25
755.679	37416.36
756.017	37275.57
756.355	37406.19
756.693	37280.77
757.031	37232.86
757.368	36962.14
757.706	37051.62
758.044	36879.65
758.381	36877.17
758.719	36644.18
759.056	36740.67
759.394	36513.33
759.731	36375.71
760.068	36206.22
760.405	36084.87
760.743	36022.27
761.08	36070.18
761.417	35747.7
761.754	35669.74
762.091	35598.56
762.428	35462.29
762.765	35215.74
763.102	35335.96
763.438	35111.56
763.775	34964.45
764.112	35031.34
764.449	34963.32
764.785	34752.25
765.122	34599.26
765.458	34395.65
765.795	34404.01
766.131	34416.44
766.467	34113.17
766.804	34147.29
767.14	33983.23
767.476	33761.99
767.812	33731.94
768.148	33797.47
768.485	33510.02
768.821	33360.42
769.157	33368.56
769.492	33139.64
769.828	33075.91
770.164	32764.96
770.5	32705.98
770.836	32595.24
771.171	32613.32
771.507	32512.53
771.842	32211.53
772.178	32254.69
772.513	32078.65
772.849	31976.5
773.184	31789.62
773.519	31725.44
773.855	31637.98
774.19	31531.32
774.525	31302.85
774.86	31265.56
775.195	31165.23
775.53	31020.6
775.865	31056.08
776.2	30684.33
776.535	30485.02
776.87	30469.88
777.205	30353.27
777.539	30175.2
777.874	30441.85
778.209	30114.18
778.543	30060.4
778.878	29719.39
779.212	29759.16
779.547	29714.64
779.881	29590.13
780.215	29275.56
780.55	29510.13
780.884	29232.85
781.218	29140.87
781.552	29189.01
781.886	28976.36
782.22	28752.18
782.554	28690.26
782.888	28435.58
783.222	28454.11
783.556	28254.57
783.889	28331.4
784.223	27988.81
784.557	27934.35
784.89	28121.46
785.224	27851.41
785.557	27679.67
785.891	27665.2
786.224	27621.14
786.558	27652.78
786.891	27360.58
787.224	27299.11
787.557	27125.56
787.891	27146.12
788.224	27161.49
788.557	27140.02
788.89	27011.89
789.223	27059.35
789.556	26786.58
789.888	26675.17
790.221	26635.4
790.554	26356.09
790.887	26333.26
791.219	26271.12
791.552	26232.25
791.884	26047.85
792.217	26044.68
792.549	25969.43
792.882	25674.52
793.214	25746.39
793.546	25754.07
793.879	25685.37
794.211	25475.88
794.543	25582.32
794.875	25449.9
795.207	25488.31
795.539	25334.64
795.871	25255.78
796.203	25089.45
796.535	24961.55
796.867	24882
797.198	24904.15
797.53	24940.76
797.862	24653.08
798.193	24803.13
798.525	24534.44
798.856	24599.97
799.188	24347.55
799.519	24321.11
799.85	24072.76
800.182	24185.52
800.513	24079.76
800.844	23915.47
801.175	24115.02
801.506	23974.23
801.837	23872.76
802.168	23824.4
802.499	23697.63
802.83	23579.44
803.161	23520.91
803.491	23560.23
803.822	23518.2
804.153	23308.71
804.483	23267.58
804.814	23099.45
805.145	23162.05
805.475	23145.78
805.805	22962.96
806.136	23016.51
806.466	22837.76
806.796	22879.34
807.126	22646.35
807.457	22555.51
807.787	22559.35
808.117	22497.88
808.447	22240.71
808.777	22440.26
809.107	22304.67
809.436	22177.44
809.766	22181.96
810.096	22104.22
810.426	21992.36
810.755	22004.34
811.085	21908.29
811.414	21863.55
811.744	21699.94
812.073	21627.62
812.403	21704.91
812.732	21587.4
813.061	21489.55
813.39	21321.87
813.719	21225.83
814.049	21349.44
814.378	21305.15
814.707	21116.45
815.036	21118.94
815.365	20978.6
815.693	20835.78
816.022	20884.59
816.351	20599.85
816.68	20549.46
817.008	20672.17
817.337	20445.28
817.665	20547.88
817.994	20502.91
818.322	20371.61
818.651	20307.66
818.979	20229.24
819.307	20301.33
819.636	20210.49
819.964	20036.93
820.292	20103.6
820.62	20043.48
820.948	20020.66
821.276	20196.93
821.604	20003.03
821.932	20118.74
822.259	20198.28
822.587	20014.56
822.915	19987.21
823.243	20115.8
823.57	20005.29
823.898	20062.47
824.225	19881
824.553	19936.14
824.88	20027.21
825.207	20022.69
825.535	20006.65
825.862	20028.57
826.189	19944.5
826.516	19971.62
826.843	20037.38
827.17	20080.55
827.497	20034.44
827.824	20067.89
828.151	20119.64
828.478	20034.9
828.805	20033.09
829.131	19984.05
829.458	20070.83
829.785	19888.01
830.111	20083.03
830.438	20143.37
830.764	20022.24
831.09	20065.63
831.417	20000.55
831.743	20093.43
832.069	19991.73
832.395	20040.32
832.722	20102.47
833.048	19939.76
833.374	19974.11
833.7	19952.64
834.026	19955.35
834.351	20058.17
834.677	19997.16
835.003	20035.8
835.329	19953.54
835.654	20064.05
835.98	19935.24
836.306	19885.97
836.631	19803.94
836.956	19956.93
837.282	19940.21
837.607	19829.7
837.932	19858.86
838.258	19818.41
838.583	19781.57
838.908	19717.17
839.233	19825.64
839.558	19659.09
839.883	19702.93
840.208	19549.26
840.533	19509.26
840.858	19624.96
841.182	19582.93
841.507	19518.07
841.832	19411.18
842.156	19405.08
842.481	19475.36
842.805	19274.92
843.13	19308.14
843.454	19146.78
843.778	19168.48
844.103	19039.44
844.427	19058.88
844.751	18974.36
845.075	18936.39
845.399	18844.87
845.723	18791.99
846.047	18834.48
846.371	18560.36
846.695	18678.32
847.019	18444.88
847.343	18288.05
847.666	18321.04
847.99	18325.56
848.313	18243.31
848.637	18102.74
848.96	18032.01
849.284	18000.15
849.607	17851.45
849.931	17863.2
850.254	17708.63
850.577	17435.42
850.9	17513.38
851.223	17434.74
851.546	17344.8
851.869	17182.54
852.192	17311.13
852.515	17060.51
852.838	16928.54
853.161	17015.77
853.483	16899.16
853.806	16807.86
854.129	16759.73
854.451	16668.21
854.774	16603.12
855.096	16599.28
855.419	16445.16
855.741	16440.64
856.063	16260.98
856.385	16347.54
856.708	16165.85
857.03	16135.79
857.352	16182.57
857.674	15984.83
857.996	16071.39
858.318	15908.23
858.64	15956.36
858.961	15801.11
859.283	15697.84
859.605	15684.05
859.926	15732.41
860.248	15732.19
860.57	15545.3
860.891	15638.4
861.212	15500.33
861.534	15481.57
861.855	15394.79
862.176	15405.64
862.498	15441.57
862.819	15324.96
863.14	15310.5
863.461	15199.54
863.782	15096.95
864.103	15169.71
864.424	15106.44
864.745	15097.17
865.065	15002.26
865.386	14957.74
865.707	14924.3
866.027	15064.86
866.348	15015.37
866.668	15010.85
866.989	14834.36
867.309	14824.41
867.63	14881.36
867.95	14890.85
868.27	14802.27
868.59	14796.84
868.91	14735.38
869.23	14763.17
869.55	14757.3
869.87	14726.11
870.19	14755.49
870.51	14714.36
870.83	14755.94
871.15	14591.42
871.469	14641.37
871.789	14673.23
872.109	14633.46
872.428	14605.21
872.748	14669.61
873.067	14581.03
873.386	14625.32
873.706	14584.64
874.025	14462.84
874.344	14442.73
874.663	14441.82
874.982	14489.05
875.301	14375.16
875.62	14460.58
875.939	14358.89
876.258	14450.86
876.577	14392.56
876.896	14411.99
877.214	14361.6
877.533	14346.68
877.852	14240.02
878.17	14256.29
878.489	14407.93
878.807	14349.85
879.125	14251.77
879.444	14295.61
879.762	14324.09
880.08	14324.09
880.398	14208.61
880.716	14134.26
881.034	14167.03
881.352	14196.63
881.67	14107.14
881.988	14090.87
882.306	14086.13
882.624	14072.12
882.941	14027.6
883.259	14047.71
883.577	13929.29
883.894	13991.67
884.212	13875.06
884.529	13904.89
884.846	13866.02
885.164	13871.22
885.481	13798.22
885.798	13837.32
886.115	13743.76
886.432	13736.31
886.75	13659.25
887.067	13696.31
887.383	13654.05
887.7	13622.18
888.017	13624.67
888.334	13660.83
888.651	13511
888.967	13528.85
889.284	13455.63
889.6	13426.71
889.917	13361.85
890.233	13302.19
890.55	13301.74
890.866	13350.78
891.182	13285.02
891.498	13206.38
891.815	13177
892.131	13190.78
892.447	13136.77
892.763	13016.32
893.079	13015.65
893.395	12947.4
893.71	12973.16
894.026	12931.58
894.342	12852.94
894.657	12791.02
894.973	12815.65
895.289	12771.13
895.604	12816.33
895.92	12609.33
896.235	12659.5
896.55	12539.95
896.865	12570.23
897.181	12440.52
897.496	12441.88
897.811	12416.57
898.126	12297.93
898.441	12260.86
898.756	12209.11
899.071	12121.43
899.386	12154.2
899.7	12032.4
900.015	11972.74
900.33	11898.39
900.644	11925.28
900.959	11864.49
901.273	11676.02
901.588	11681.44
901.902	11599.41
902.216	11648
902.531	11566.19
902.845	11593.09
903.159	11447.78
903.473	11393.32
903.787	11289.36
904.101	11275.35
904.415	11311.74
904.729	11267.44
905.042	11199.88
905.356	11155.58
905.67	11018.41
905.984	11038.98
906.297	10968.24
906.611	10967.34
906.924	10925.76
907.237	10847.57
907.551	10839.88
907.864	10788.13
908.177	10659.1
908.491	10674.24
908.804	10546.33
909.117	10492.32
909.43	10489.16
909.743	10459.33
910.056	10391.53
910.368	10372.78
910.681	10335.94
910.994	10156.29
911.307	10222.27
911.619	10133.24
911.932	10137.53
912.244	10080.81
912.557	10059.34
912.869	10008.27
913.181	9997.19
913.494	9959.46
913.806	9868.38
914.118	9905.22
914.43	9776.86
914.742	9807.37
915.054	9663.87
915.366	9688.5
915.678	9640.82
915.99	9554.04
916.302	9531.22
916.613	9518.56
916.925	9472.69
917.236	9477.43
917.548	9446.02
917.859	9435.4
918.171	9318.57
918.482	9317.44
918.794	9254.16
919.105	9201.06
919.416	9224.33
919.727	9157.22
920.038	9131
920.349	9071.8
920.66	8993.38
920.971	8985.7
921.282	8972.36
921.593	8874.74
921.903	8855.76
922.214	8893.95
922.525	8818.92
922.835	8803.78
923.146	8788.86
923.456	8727.62
923.767	8665.48
924.077	8635.2
924.387	8594.75
924.697	8577.12
925.008	8523.79
925.318	8491.7
925.628	8527.63
925.938	8474.75
926.248	8289.9
926.558	8340.74
926.867	8275.43
927.177	8296.45
927.487	8229.56
927.796	8150.46
928.106	8209.45
928.416	8178.94
928.725	8084.02
929.034	8045.16
929.344	8065.49
929.653	8067.08
929.962	7953.86
930.271	7917.48
930.581	7910.24
930.89	7881.32
931.199	7923.8
931.508	7854.43
931.817	7872.5
932.125	7738.95
932.434	7731.94
932.743	7646.52
933.051	7621.21
933.36	7626.18
933.669	7552.74
933.977	7531.72
934.286	7606.52
934.594	7494.66
934.902	7435.45
935.21	7414.89
935.519	7436.13
935.827	7296.7
936.135	7356.59
936.443	7252.41
936.751	7229.58
937.059	7194.56
937.367	7228.68
937.674	7228.91
937.982	7110.27
938.29	7168.34
938.597	7101.9
938.905	7059.19
939.213	7028.91
939.52	6982.36
939.827	7028.69
940.135	6906.43
940.442	6957.73
940.749	6896.49
941.056	6950.04
941.363	6887.22
941.67	6774
941.977	6834.11
942.284	6718.18
942.591	6684.06
942.898	6699.43
943.205	6688.36
943.511	6617.85
943.818	6630.96
944.125	6532.43
944.431	6586.21
944.738	6529.72
945.044	6488.13
945.35	6462.15
945.657	6457.17
945.963	6458.3
946.269	6372.43
946.575	6347.57
946.881	6334.69
947.187	6296.5
947.493	6309.16
947.799	6240.91
948.105	6242.04
948.41	6180.57
948.716	6172.66
949.022	6129.05
949.327	6181.93
949.633	6083.85
949.938	6101.03
950.244	6028.94
950.549	6025.77
950.854	5980.35
951.16	5894.48
951.465	5894.93
951.77	5909.84
952.075	5861.26
952.38	5814.25
952.685	5813.58
952.99	5791.2
953.294	5753.24
953.599	5728.38
953.904	5699.68
954.209	5647.25
954.513	5695.84
954.818	5640.7
955.122	5628.95
955.426	5587.59
955.731	5489.06
956.035	5489.06
956.339	5532.68
956.643	5478.67
956.948	5396.19
957.252	5440.48
957.556	5414.04
957.86	5367.26
958.163	5393.93
958.467	5317.32
958.771	5288.62
959.075	5327.04
959.378	5296.98
959.682	5260.82
959.985	5230.09
960.289	5210.88
960.592	5177.89
960.896	5091.56
961.199	5110.77
961.502	5095.18
961.805	5125.01
962.108	5068.51
962.411	5089.3
962.714	5022.86
963.017	4988.51
963.32	4956.65
963.623	4928.85
963.926	4934.95
964.228	4921.4
964.531	4865.8
964.833	4855.41
965.136	4830.1
965.438	4807.05
965.741	4802.98
966.043	4739.25
966.345	4786.48
966.648	4721.85
966.95	4739.93
967.252	4705.13
967.554	4697.45
967.856	4615.64
968.158	4631.69
968.46	4618.58
968.761	4608.86
969.063	4619.94
969.365	4577.9
969.666	4566.6
969.968	4471.92
970.269	4529.99
970.571	4496.32
970.872	4469.43
971.174	4368.42
971.475	4416.1
971.776	4405.7
972.077	4367.29
972.378	4319.38
972.679	4308.08
972.98	4297.01
973.281	4313.73
973.582	4261.3
973.883	4224.01
974.183	4184.24
974.484	4198.7
974.785	4199.83
975.085	4134.75
975.386	4134.98
975.686	4132.72
975.986	4104.69
976.287	4080.97
976.587	4021.31
976.887	4018.37
977.187	4000.52
977.487	3991.03
977.787	3988.77
978.087	3904.7
978.387	3965.49
978.687	3985.6
978.987	3887.75
979.286	3858.83
979.586	3859.05
979.885	3826.06
980.185	3816.57
980.484	3801.2
980.784	3793.52
981.083	3690.02
981.382	3746.51
981.682	3672.39
981.981	3747.19
982.28	3707.19
982.579	3665.16
982.878	3672.39
983.177	3662.9
983.475	3654.54
983.774	3632.39
984.073	3572.28
984.372	3567.99
984.67	3579.06
984.969	3542.68
985.267	3518.95
985.566	3516.01
985.864	3465.62
986.162	3448.89
986.461	3447.76
986.759	3445.95
987.057	3443.92
987.355	3404.6
987.653	3457.93
987.951	3345.39
988.249	3374.32
988.547	3342
988.844	3327.77
989.142	3316.92
989.44	3294.55
989.737	3291.16
990.035	3267.43
990.332	3280.54
990.63	3265.17
990.927	3194.21
991.224	3169.13
991.521	3172.06
991.819	3189.24
992.116	3146.3
992.413	3143.14
992.71	3107.21
993.006	3157.37
993.303	3090.71
993.6	3150.14
993.897	3078.96
994.193	3054.1
994.49	3029.47
994.787	3046.19
995.083	2969.13
995.379	2985.18
995.676	2988.34
995.972	2976.59
996.268	2980.66
996.565	2938.85
996.861	2909.25
997.157	2943.37
997.453	2876.25
997.749	2858.85
998.044	2836.03
998.34	2850.04
998.636	2827.67
998.932	2809.81
999.227	2835.35
999.523	2818.63
999.818	2774.56
1000.114	2760.1
1000.409	2754
1000.704	2713.09
1001	2717.61
1001.295	2713.32
1001.59	2729.36
1001.885	2679.65
1002.18	2644.39
1002.475	2660.44
1002.77	2618.18
1003.065	2572.31
1003.359	2616.37
1003.654	2577.28
1003.949	2597.16
1004.243	2607.56
1004.538	2535.7
1004.832	2520.56
1005.127	2556.26
1005.421	2512.42
1005.715	2476.49
1006.009	2492.99
1006.304	2463.61
1006.598	2451.63
1006.892	2466.77
1007.186	2424.74
1007.48	2455.47
1007.773	2385.87
1008.067	2370.95
1008.361	2389.49
1008.655	2388.81
1008.948	2388.81
1009.242	2338.87
1009.535	2305.65
1009.829	2306.55
1010.122	2301.13
1010.415	2228.13
1010.708	2240.11
1011.001	2252.09
1011.295	2210.28
1011.588	2214.8
1011.881	2219.77
1012.173	2209.38
1012.466	2179.77
1012.759	2208.25
1013.052	2205.08
1013.344	2168.02
1013.637	2145.42
1013.93	2131.19
1014.222	2127.8
1014.514	2119.21
1014.807	2116.05
1015.099	2093.22
1015.391	2067.01
1015.683	2068.59
1015.976	2034.69
1016.268	2024.75
1016.56	2018.65
1016.851	1995.6
1017.143	1995.82
1017.435	1985.65
1017.727	2013.68
1018.018	1936.16
1018.31	1932.32
1018.602	1933.9
1018.893	1944.53
1019.185	1901.59
1019.476	1908.37
1019.767	1909.5
1020.058	1889.61
1020.35	1866.34
1020.641	1842.61
1020.932	1847.13
1021.223	1819.33
1021.514	1777.3
1021.804	1784.98
1022.095	1789.27
1022.386	1747.92
1022.677	1728.49
1022.967	1755.6
1023.258	1696.85
1023.548	1721.93
1023.839	1717.41
1024.129	1707.47
1024.419	1712.44
1024.709	1685.77
1025	1654.82
1025.29	1650.75
1025.58	1640.13
1025.87	1613.69
1026.16	1623.63
1026.449	1599.22
1026.739	1604.87
1027.029	1599.45
1027.319	1523.97
1027.608	1569.62
1027.898	1552.67
1028.187	1507.93
1028.477	1518.77
1028.766	1540.69
1029.055	1495.05
1029.344	1474.03
1029.634	1482.84
1029.923	1464.09
1030.212	1462.73
1030.501	1438.32
1030.79	1445.33
1031.078	1415.05
1031.367	1437.42
1031.656	1398.1
1031.945	1414.14
1032.233	1387.93
1032.522	1365.33
1032.81	1383.18
1033.099	1365.11
1033.387	1378.66
1033.675	1323.07
1033.963	1360.36
1034.251	1318.55
1034.54	1296.41
1034.828	1316.75
1035.116	1313.13
1035.403	1311.32
1035.691	1285.79
1035.979	1278.55
1036.267	1287.37
1036.554	1246.92
1036.842	1248.05
1037.129	1224.54
1037.417	1213.24
1037.704	1235.62
1037.992	1223.64
1038.279	1201.72
1038.566	1213.24
1038.853	1213.24
1039.14	1213.24
