Data from whiteboard_FLMS001491_00015.txt Node
Date: Wed Feb 08 11:25:28 GMT 2017
User: dcchb
Spectrometer: FLMS00149
Trigger mode: 0
Integration Time (sec): 2.000000E-2
Scans to average: 10
Electric dark correction enabled: true
Nonlinearity correction enabled: false
Boxcar width: 0
XAxis mode: Wavelengths
Number of Pixels in Spectrum: 2048
>>>>>Begin Spectral Data<<<<<
341.393	-23.47
341.776	-23.47
342.16	-23.47
342.543	-60.76
342.927	-63.25
343.31	-75.45
343.693	-72.96
344.077	-67.54
344.46	-54.21
344.843	-61.89
345.226	-53.3
345.61	-32.51
345.993	-44.04
346.376	-3.14
346.759	21.27
347.142	48.84
347.525	42.51
347.908	66.69
348.291	87.03
348.674	88.16
349.057	110.53
349.44	130.42
349.823	137.2
350.206	157.09
350.588	214.71
350.971	237.76
351.354	254.71
351.737	263.98
352.119	298.1
352.502	284.31
352.884	304.88
353.267	301.49
353.65	323.64
354.032	324.77
354.414	339.91
354.797	334.71
355.179	340.13
355.562	363.41
355.944	353.69
356.326	365.67
356.709	372.45
357.091	369.51
357.473	372.67
357.855	378.55
358.238	384.2
358.62	380.81
359.002	377.87
359.384	367.48
359.766	395.27
360.148	372.22
360.53	379.68
360.912	400.92
361.294	369.28
361.676	389.17
362.057	380.81
362.439	387.59
362.821	407.48
363.203	363.86
363.584	375.84
363.966	371.77
364.348	363.18
364.729	362.5
365.111	369.96
365.493	380.81
365.874	382.84
366.256	381.94
366.637	385.55
367.019	371.77
367.4	381.49
367.781	387.59
368.163	343.3
368.544	379.23
368.925	368.61
369.306	382.84
369.688	362.96
370.069	380.81
370.45	382.39
370.831	376.52
371.212	369.28
371.593	383.3
371.974	383.52
372.355	376.29
372.736	389.62
373.117	393.69
373.498	381.71
373.879	380.36
374.26	394.82
374.641	389.62
375.021	366.57
375.402	407.7
375.783	415.61
376.163	414.48
376.544	414.71
376.925	394.82
377.305	411.99
377.686	425.78
378.066	412.45
378.447	434.14
378.827	410.19
379.208	444.99
379.588	428.04
379.968	427.81
380.349	435.27
380.729	441.15
381.109	444.54
381.489	439.34
381.87	437.3
382.25	466
382.63	439.79
383.01	446.12
383.39	450.64
383.77	449.73
384.15	472.78
384.53	467.13
384.91	464.65
385.29	480.24
385.67	486.34
386.049	500.35
386.429	492.44
386.809	492.44
387.189	513.91
387.568	517.3
387.948	489.51
388.328	524.08
388.707	523.86
389.087	540.35
389.466	541.26
389.846	563.4
390.225	550.07
390.605	535.16
390.984	542.16
391.363	553.23
391.743	585.55
392.122	557.08
392.501	587.81
392.881	602.95
393.26	607.24
393.639	604.31
394.018	637.75
394.397	616.74
394.776	627.58
395.155	637.3
395.534	622.61
395.913	617.19
396.292	664.87
396.671	671.65
397.05	679.33
397.429	680.69
397.808	697.64
398.186	691.99
398.565	674.81
398.944	694.25
399.323	689.95
399.701	715.72
400.08	732.21
400.458	738.77
400.837	757.97
401.215	780.12
401.594	763.17
401.972	759.78
402.351	797.97
402.729	796.17
403.107	827.13
403.486	844.07
403.864	874.81
404.242	840.91
404.62	918.2
404.999	898.54
405.377	895.82
405.755	928.59
406.133	930.17
406.511	949.38
406.889	992.77
407.267	989.38
407.645	999.78
408.023	1004.75
408.401	1016.72
408.779	1054.69
409.156	1069.83
409.534	1078.19
409.912	1104.86
410.29	1127.91
410.667	1141.24
411.045	1189.38
411.422	1177.62
411.8	1203.84
412.178	1217.85
412.555	1240.67
412.933	1256.27
413.31	1306.21
413.687	1313.44
414.065	1362.03
414.442	1371.52
414.819	1396.6
415.197	1393.21
415.574	1418.97
415.951	1414.23
416.328	1459.88
416.705	1474.79
417.082	1468.46
417.46	1510.27
417.837	1550.95
418.214	1550.04
418.591	1588.69
418.967	1619.42
419.344	1611.51
419.721	1617.84
420.098	1639.76
420.475	1675.24
420.852	1675.92
421.228	1689.25
421.605	1704.84
421.982	1765.63
422.358	1758.85
422.735	1771.73
423.111	1770.15
423.488	1810.83
423.864	1839.3
424.241	1855.57
424.617	1894.22
424.994	1901.9
425.37	1922.01
425.746	1954.78
426.123	1984.16
426.499	1977.83
426.875	2045.17
427.251	2044.72
427.627	2110.48
428.003	2120.65
428.379	2165.62
428.756	2161.55
429.132	2203.81
429.507	2202
429.883	2259.86
430.259	2296.92
430.635	2316.13
431.011	2343.7
431.387	2407.42
431.763	2425.95
432.138	2490.36
432.514	2496.46
432.89	2512.05
433.265	2587.98
433.641	2609.45
434.016	2637.47
434.392	2665.49
434.767	2734.42
435.143	2745.49
435.518	2761.31
435.894	2787.3
436.269	2869.78
436.644	2890.35
437.02	2944.36
437.395	2937.58
437.77	2946.39
438.145	3038.14
438.52	3019.38
438.895	3096.44
439.271	3132.15
439.646	3128.99
440.021	3204.24
440.395	3227.97
440.77	3156.78
441.145	3225.25
441.52	3255.31
441.895	3263.45
442.27	3306.61
442.645	3337.79
443.019	3393.84
443.394	3395.87
443.769	3448.75
444.143	3437.9
444.518	3493.95
444.892	3490.56
445.267	3524.91
445.641	3540.95
446.016	3588.41
446.39	3613.04
446.764	3653.04
447.139	3640.38
447.513	3719.93
447.887	3706.6
448.262	3769.42
448.636	3754.73
449.01	3840.83
449.384	3864.79
449.758	3911.34
450.132	3933.71
450.506	3966.7
450.88	4034.72
451.254	3991.79
451.628	4059.13
452.002	4116.53
452.376	4182.07
452.75	4179.58
453.123	4253.93
453.497	4286.47
453.871	4323.3
454.244	4430.65
454.618	4446.24
454.992	4514.49
455.365	4522.17
455.739	4631.32
456.112	4653.01
456.486	4742.05
456.859	4781.6
457.232	4862.5
457.606	4883.74
457.979	4934.14
458.352	5051.65
458.725	5138.88
459.099	5132.77
459.472	5237.86
459.845	5350.85
460.218	5406.21
460.591	5416.16
460.964	5434.46
461.337	5557.17
461.71	5636.72
462.083	5790.84
462.456	5775.92
462.829	5788.8
463.201	5915.13
463.574	5917.61
463.947	6008.91
464.32	6162.13
464.692	6250.71
465.065	6282.8
465.438	6350.6
465.81	6456.36
466.183	6523.25
466.555	6689.57
466.928	6739.29
467.3	6669.23
467.672	6842.56
468.045	7037.36
468.417	6999.39
468.789	7107.64
469.161	7191.03
469.534	7330.68
469.906	7470.79
470.278	7545.59
470.65	7655.19
471.022	7845.7
471.394	7979.25
471.766	8002.98
472.138	8104
472.51	8297.66
472.882	8443.42
473.253	8515.74
473.625	8652.68
473.997	8869.17
474.369	8930.64
474.74	8936.06
475.112	9142.16
475.484	9254.7
475.855	9445.66
476.227	9573.56
476.598	9808.13
476.97	9951.41
477.341	10193.43
477.713	10298.74
478.084	10400.66
478.455	10690.37
478.827	10746.64
479.198	11089.91
479.569	11010.81
479.94	11417.13
480.311	11467.3
480.682	11800.85
481.053	12063.44
481.424	12259.37
481.795	12389.76
482.166	12579.81
482.537	12756.08
482.908	13061.15
483.279	13116.75
483.65	13384.31
484.021	13604.19
484.391	13807.12
484.762	13909.72
485.133	14100.67
485.503	14320.56
485.874	14624.73
486.244	14755.12
486.615	15064.04
486.985	15189.91
487.356	15511.26
487.726	15613.4
488.097	15969.78
488.467	16025.6
488.837	16324.8
489.207	16574.28
489.578	16940.15
489.948	16958.45
490.318	17181.5
490.688	17271.66
491.058	17604.99
491.428	17793.68
491.798	17917.07
492.168	18337.63
492.538	18344.86
492.908	18602.03
493.278	18780.55
493.648	18868.91
494.017	19253.08
494.387	19333.53
494.757	19594.77
495.126	19824.59
495.496	19902.56
495.866	20051.48
496.235	20263.45
496.605	20407.85
496.974	20529.88
497.344	20803.55
497.713	20986.14
498.082	21121.51
498.452	21269.53
498.821	21423.19
499.19	21528.95
499.559	21671.32
499.928	21875.84
500.298	22054.82
500.667	22283.74
501.036	22136.85
501.405	22441.25
501.774	22599.21
502.143	22657.51
502.512	22831.97
502.88	23007.56
503.249	23109.03
503.618	23280.55
503.987	23394.22
504.356	23491.61
504.724	23673.76
505.093	23724.15
505.462	23779.97
505.83	24083.01
506.199	24320.52
506.567	24563.22
506.936	24601.64
507.304	24824.23
507.672	24985.36
508.041	25141.97
508.409	25438.91
508.777	25597.77
509.145	25864.21
509.514	25934.49
509.882	26127.93
510.25	26296.96
510.618	26359.11
510.986	26519.1
511.354	26767.01
511.722	27126.09
512.09	27219.2
512.458	27258.07
512.826	27545.74
513.193	27740.54
513.561	27801.11
513.929	28063.02
514.297	28344.59
514.664	28671.59
515.032	28715.21
515.4	29012.6
515.767	28976.22
516.135	29206.04
516.502	29086.04
516.869	29597.22
517.237	29837.21
517.604	29728.51
517.972	30153.59
518.339	30321.49
518.706	30318.33
519.073	30535.27
519.44	30683.74
519.808	31096.39
520.175	31085.09
520.542	31441.91
520.909	31607.33
521.276	31602.36
521.643	32048.45
522.009	32267.65
522.376	32407.31
522.743	32680.52
523.11	32934.98
523.477	33238.7
523.843	33371.13
524.21	33892.7
524.577	34193.93
524.943	34223.08
525.31	34564.54
525.676	35040.01
526.043	35202.04
526.409	35212.21
526.776	35536.04
527.142	35783.49
527.508	35967.9
527.874	36290.6
528.241	36525.17
528.607	36582.12
528.973	36934.65
529.339	37128.54
529.705	37242.21
530.071	37719.04
530.437	37820.73
530.803	37851.24
531.169	38300.49
531.535	38323.09
531.901	38212.13
532.267	38564.21
532.632	38828.39
532.998	38882.4
533.364	39211.2
533.73	39248.94
534.095	39592.43
534.461	39647.57
534.826	39939.77
535.192	40000.33
535.557	40361.68
535.923	40381.79
536.288	40564.16
536.653	40745.4
537.019	40656.36
537.384	40931.61
537.749	41040.76
538.114	41286.63
538.479	41234.65
538.845	41576.34
539.21	41492.72
539.575	41760.74
539.94	41827.18
540.305	42078.02
540.67	42059.26
541.034	42191.24
541.399	42492.92
541.764	42543.54
542.129	42800.03
542.494	42978.79
542.858	43132.91
543.223	43207.48
543.587	43299
543.952	43388.04
544.316	43450.19
544.681	43475.27
545.045	43760.23
545.41	43985.09
545.774	44074.35
546.138	44327.45
546.503	44269.15
546.867	44362.93
547.231	44662.58
547.595	44813.09
547.959	44896.7
548.324	44996.59
548.688	45190.7
549.052	45248.1
549.416	45371.26
549.779	45348.44
550.143	45461.66
550.507	45848.09
550.871	45877.92
551.235	45894.87
551.599	46348.64
551.962	46413.27
552.326	46469.99
552.689	46705.47
553.053	46589.54
553.417	46780.27
553.78	47294.15
554.143	47196.75
554.507	47286.47
554.87	47496.18
555.234	47919.22
555.597	47745.21
555.96	47861.14
556.323	48053.23
556.686	47946.79
557.05	48476.95
557.413	48420.68
557.776	48511.52
558.139	48836.26
558.502	48909.7
558.865	48942.92
559.228	49199.64
559.59	49263.82
559.953	49369.58
560.316	49773.18
560.679	49734.31
561.041	50021.99
561.404	50142.44
561.767	50333.17
562.129	50277.58
562.492	50622.2
562.854	50587.85
563.217	50663.1
563.579	50861.74
563.941	51097.89
564.304	51260.6
564.666	51314.16
565.028	51462.18
565.39	51505.34
565.753	51729.29
566.115	51778.78
566.477	51927.02
566.839	52058.32
567.201	52311.2
567.563	52288.37
567.925	52434.13
568.287	52535.82
568.648	52697.63
569.01	52827.57
569.372	52983.27
569.734	52934.91
570.095	53169.25
570.457	53311.62
570.819	53359.08
571.18	53381.9
571.542	53604.27
571.903	53588.68
572.265	53755.22
572.626	53898.95
572.987	53912.51
573.349	54049.68
573.71	54175.78
574.071	54237.7
574.432	54377.58
574.794	54530.8
575.155	54499.61
575.516	54385.94
575.877	54588.42
576.238	54647.86
576.599	54749.78
576.96	54747.06
577.32	54881.52
577.681	54972.82
578.042	54980.05
578.403	54979.37
578.763	54970.79
579.124	55096.43
579.485	55137.56
579.845	55212.36
580.206	55162.19
580.566	55154.06
580.927	55276.31
581.287	55335.52
581.648	55240.61
582.008	55389.76
582.368	55302.53
582.728	55306.6
583.089	55282.64
583.449	55213.04
583.809	55301.17
584.169	55299.59
584.529	55250.78
584.889	55449.64
585.249	55319.48
585.609	55291.68
585.969	55405.13
586.329	55336.88
586.688	55415.07
587.048	55339.59
587.408	55379.14
587.768	55374.39
588.127	55361.74
588.487	55330.55
588.846	55539.36
589.206	55305.69
589.565	55477.89
589.925	55482.64
590.284	55439.25
590.643	55523.31
591.003	55572.13
591.362	55711.78
591.721	55643.54
592.08	55641.96
592.44	55676.3
592.799	55720.15
593.158	55735.74
593.517	55726.47
593.876	55838.56
594.235	55780.71
594.593	55798.56
594.952	55911.1
595.311	55820.03
595.67	55961.27
596.029	56098.21
596.387	56069.06
596.746	56095.95
597.104	55963.53
597.463	56001.04
597.822	56129.17
598.18	55985
598.538	56004.43
598.897	56131.21
599.255	55831.55
599.613	56242.84
599.972	56060.48
600.33	56095.73
600.688	56029.74
601.046	56082.62
601.404	56218.44
601.762	56104.09
602.12	56198.32
602.478	56233.58
602.836	56097.08
603.194	55919.69
603.552	56087.37
603.91	55999.69
604.268	56083.75
604.625	56067.48
604.983	56076.52
605.341	56051.44
605.698	56153.58
606.056	56171.21
606.413	56083.07
606.771	56210.98
607.128	56239.45
607.485	56108.84
607.843	56156.29
608.2	56278.32
608.557	56410.75
608.914	56336.85
609.272	56449.62
609.629	56444.19
609.986	56540.69
610.343	56437.41
610.7	56614.58
611.057	56580.24
611.414	56627.69
611.771	56642.61
612.127	56705.2
612.484	56807.35
612.841	56794.24
613.198	56702.27
613.554	56780.91
613.911	56992.88
614.267	56959.66
614.624	56986.78
614.98	57064.97
615.337	57149.03
615.693	57124.63
616.05	57079.43
616.406	57281.91
616.762	57155.14
617.118	57211.41
617.475	57253.89
617.831	57314
618.187	57346.54
618.543	57348.8
618.899	57449.82
619.255	57378.63
619.611	57393.1
619.967	57489.14
620.323	57520.78
620.678	57382.47
621.034	57375.69
621.39	57339.09
621.746	57299.76
622.101	57657.72
622.457	57326.43
622.812	57347.22
623.168	57436.94
623.523	57449.59
623.879	57474.9
624.234	57214.12
624.589	57344.06
624.945	57337.5
625.3	57363.27
625.655	57330.5
626.01	57362.36
626.365	57265.64
626.72	57282.59
627.075	57302.25
627.43	57266.09
627.785	57199.65
628.14	57250.5
628.495	57240.11
628.85	57206.43
629.205	57030.62
629.559	57253.44
629.914	57038.75
630.269	57054.57
630.623	57008.02
630.978	57021.35
631.332	57117.17
631.687	57099.54
632.041	57023.39
632.396	57083.73
632.75	57003.95
633.104	56936.61
633.459	56843.05
633.813	56891.87
634.167	56885.99
634.521	56890.51
634.875	56947.91
635.229	56865.2
635.583	56668.37
635.937	56696.39
636.291	56709.05
636.645	56742.72
636.999	56671.53
637.352	56791.3
637.706	56576.85
638.06	56708.37
638.413	56630.63
638.767	56650.74
639.121	56709.95
639.474	56488.94
639.828	56518.77
640.181	56592.66
640.534	56570.74
640.888	56418.21
641.241	56350.64
641.594	56427.25
641.947	56502.72
642.301	56326.46
642.654	56379.34
643.007	56353.57
643.36	56313.12
643.713	56255.72
644.066	56308.6
644.419	56137.31
644.771	56011.89
645.124	55674.72
645.477	55698.68
645.83	55547.95
646.182	55445.35
646.535	55313.83
646.888	55319.7
647.24	55152.93
647.593	55368.29
647.945	55287.61
648.298	55102.99
648.65	55043.1
649.002	55006.94
649.355	55088.3
649.707	55129.65
650.059	55158.35
650.411	55480.38
650.763	55490.77
651.115	55691.22
651.467	55658.23
651.819	55590.88
652.171	55468.63
652.523	55433.6
652.875	55434.05
653.227	55386.14
653.578	55471.56
653.93	55439.02
654.282	55279.93
654.633	55260.27
654.985	55255.3
655.337	55329.65
655.688	55336.65
656.039	55381.62
656.391	55133.04
656.742	55178.92
657.094	55174.17
657.445	55241.06
657.796	55191.57
658.147	55175.53
658.498	55077.68
658.849	55116.55
659.2	55029.99
659.551	55003.33
659.902	55068.86
660.253	54965.14
660.604	54988.19
660.955	54934.18
661.306	54966.94
661.656	54866.61
662.007	54898.25
662.358	54847.4
662.708	54815.76
663.059	54771.24
663.409	54670.91
663.76	54943.22
664.11	54787.06
664.461	54891.01
664.811	54829.55
665.161	54869.77
665.511	54784.35
665.862	54813.28
666.212	54911.13
666.562	54855.76
666.912	54792.03
667.262	54776.44
667.612	54727.63
667.962	54703.67
668.312	54659.38
668.662	54845.37
669.011	54742.77
669.361	54668.65
669.711	54714.52
670.06	54653.05
670.41	54570.8
670.76	54482.44
671.109	54670.23
671.459	54579.61
671.808	54580.97
672.157	54571.02
672.507	54382.78
672.856	54422.78
673.205	54485.15
673.554	54524.02
673.904	54423.46
674.253	54662.77
674.602	54525.37
674.951	54016.01
675.3	53860.31
675.649	54404.47
675.998	54383.91
676.346	54301.43
676.695	54377.81
677.044	54126.51
677.393	54197.93
677.741	54277.47
678.09	54231.82
678.438	54119.28
678.787	54133.97
679.135	54046.52
679.484	53807.65
679.832	53925.84
680.181	53654.21
680.529	53803.13
680.877	53761.55
681.225	53712.97
681.573	53816.92
681.922	53557.72
682.27	53484.05
682.618	53529.47
682.966	53466.65
683.314	53424.61
683.661	53376.93
684.009	53167.22
684.357	53070.95
684.705	53148.46
685.053	53034.34
685.4	52995.92
685.748	52938.07
686.095	52811.97
686.443	52659.43
686.79	52668.7
687.138	52654.46
687.485	52673.45
687.832	52560.68
688.18	52530.85
688.527	52294.7
688.874	52238.43
689.221	52275.26
689.568	52176.51
689.915	52004.54
690.262	52141.71
690.609	51950.75
690.956	51757.76
691.303	51789.4
691.65	51674.6
691.997	51656.98
692.344	51380.82
692.69	51372.01
693.037	51361.62
693.383	51175.18
693.73	51171.34
694.077	51049.53
694.423	51014.96
694.769	50790.11
695.116	50759.15
695.462	50862.19
695.808	50682.54
696.155	50795.75
696.501	50507.4
696.847	50494.07
697.193	50278.03
697.539	50559.6
697.885	50164.58
698.231	49982.89
698.577	50223.57
698.923	50043.01
699.269	49935.66
699.614	49773.41
699.96	49697.03
700.306	49606.41
700.651	49574.32
700.997	49394.21
701.342	49462.91
701.688	49411.61
702.033	49330.71
702.379	49334.78
702.724	49090.71
703.069	49246.42
703.415	48684.17
703.76	48784.06
704.105	48801.23
704.45	48619.09
704.795	48457.96
705.14	48434.46
705.485	48360.11
705.83	48112.44
706.175	48196.73
706.52	48074.47
706.865	48009.16
707.209	48056.84
707.554	47846
707.899	47982.5
708.243	47711.32
708.588	47634.71
708.932	47344.77
709.277	47396.52
709.621	47395.84
709.966	47136.87
710.31	47138
710.654	46971
710.998	47055.51
711.342	46936.2
711.687	46807.16
712.031	46699.14
712.375	46410.56
712.719	46437.23
713.063	46427.96
713.407	46419.6
713.75	46237.68
714.094	46102.09
714.438	45861.42
714.782	46015.54
715.125	45642.22
715.469	45808.32
715.812	45589.34
716.156	45305.96
716.499	45242.91
716.843	45388.21
717.186	45084.49
717.53	45288.55
717.873	45176.02
718.216	45112.74
718.559	44781
718.902	44659.64
719.246	44668.68
719.589	44502.81
719.932	44328.13
720.275	44215.36
720.617	44276.15
720.96	44081.81
721.303	44030.06
721.646	44108.47
721.989	43881.13
722.331	44002.94
722.674	43864.64
723.016	43782.38
723.359	43608.15
723.701	43746
724.044	43327.02
724.386	43165.67
724.729	43375.38
725.071	43155.73
725.413	43183.98
725.755	43096.3
726.097	42996.64
726.439	42736.08
726.782	42874.83
727.124	42914.15
727.465	42570.66
727.807	42729.07
728.149	42531.34
728.491	42390.55
728.833	42195.3
729.175	42289.76
729.516	42212.48
729.858	42045.7
730.199	42207.28
730.541	42040.5
730.882	41972.26
731.224	42032.82
731.565	41712.83
731.906	41721.19
732.248	41894.75
732.589	41577.47
732.93	41564.13
733.271	41612.95
733.612	41745.6
733.953	41605.49
734.294	41431.03
734.635	41253.63
734.976	41389.45
735.317	41291.15
735.658	41161.66
735.999	41167.76
736.339	40995.33
736.68	41221.54
737.021	41115.56
737.361	40878.73
737.702	41151.49
738.042	40896.58
738.383	40740.2
738.723	40924.38
739.063	40723.7
739.404	40890.7
739.744	40676.47
740.084	40635.8
740.424	40637.6
740.764	40402.58
741.104	40634.21
741.444	40268.35
741.784	40230.83
742.124	40325.75
742.464	40245.07
742.804	40158.97
743.143	40253.89
743.483	40189.25
743.823	39956.49
744.162	39727.8
744.502	39885.99
744.841	39752.88
745.181	39912.88
745.52	39729.15
745.86	39754.92
746.199	39553.34
746.538	39389.73
746.877	39575.71
747.216	39434.47
747.556	39374.36
747.895	39350.18
748.234	39080.36
748.573	39016.4
748.911	38925.33
749.25	39067.7
749.589	38822.96
749.928	38869.97
750.267	38943.86
750.605	38704.77
750.944	38735.28
751.283	38456.19
751.621	38516.3
751.96	38288.96
752.298	38311.79
752.636	38291.9
752.975	38081.96
753.313	37967.84
753.651	38061.85
753.989	37945.02
754.327	37778.02
754.666	37742.54
755.004	37593.39
755.342	37665.7
755.679	37497.35
756.017	37367.86
756.355	37432.04
756.693	37338.48
757.031	37270.23
757.368	36985.27
757.706	37191.14
758.044	36956.34
758.381	36828.66
758.719	36678.16
759.056	36718.84
759.394	36607.43
759.731	36207.44
760.068	36221.45
760.405	36077.95
760.743	35902.14
761.08	35992.53
761.417	35766.55
761.754	35794.57
762.091	35640.22
762.428	35480
762.765	35217.18
763.102	35371.75
763.438	35112.55
763.775	34957.53
764.112	34971.31
764.449	34859.45
764.785	34856.06
765.122	34456.3
765.458	34362.06
765.795	34424.89
766.131	34348.28
766.467	34209.75
766.804	34105.35
767.14	33945.8
767.476	33845.47
767.812	33658.8
768.148	33722.08
768.485	33459.04
768.821	33216.1
769.157	33283.9
769.492	33241.64
769.828	33039.39
770.164	32831.26
770.5	32687.3
770.836	32664.71
771.171	32449.8
771.507	32433.75
771.842	32262
772.178	32189.46
772.513	32104.95
772.849	31948.57
773.184	31852.98
773.519	31659.53
773.855	31575.92
774.19	31395.59
774.525	31350.16
774.86	31360.33
775.195	31331.86
775.53	31128.02
775.865	30928.71
776.2	30838.99
776.535	30509.51
776.87	30415.27
777.205	30305.45
777.539	30323.75
777.874	30500.02
778.209	30049.63
778.543	30036.53
778.878	29691.22
779.212	29825.01
779.547	29502.76
779.881	29564.9
780.215	29400.39
780.55	29481.29
780.884	29081.3
781.218	29064.12
781.552	29131.24
781.886	28891.92
782.22	28732.15
782.554	28691.93
782.888	28386.17
783.222	28388.66
783.556	28203.58
783.889	28236.57
784.223	28040.65
784.557	27981.21
784.89	28000.87
785.224	27871.84
785.557	27670.94
785.891	27624.16
786.224	27465.07
786.558	27599.08
786.891	27341
787.224	27164.96
787.557	27138.75
787.891	27069.15
788.224	27161.57
788.557	27079.32
788.89	27042.48
789.223	26962.26
789.556	26770.4
789.888	26578.99
790.221	26632.77
790.554	26375.61
790.887	26261.03
791.219	26324.99
791.552	26294.25
791.884	26159.57
792.217	26115.05
792.549	25936.52
792.882	25741.27
793.214	25731.78
793.546	25720.71
793.879	25605.91
794.211	25447.04
794.543	25529.98
794.875	25385.58
795.207	25493.14
795.539	25409.53
795.871	25311
796.203	25158.01
796.535	24944.23
796.867	24989.65
797.198	24882.99
797.53	24795.99
797.862	24616.33
798.193	24770.45
798.525	24579.95
798.856	24512.15
799.188	24344.7
799.519	24340.18
799.85	24234.42
800.182	24117.36
800.513	24259.96
800.844	23872.39
801.175	24016.57
801.506	24017.7
801.837	23810.7
802.168	23718.73
802.499	23696.35
802.83	23514.89
803.161	23583.81
803.491	23485.06
803.822	23579.97
804.153	23348.34
804.483	23143.37
804.814	23172.53
805.145	23054.56
805.475	23059.53
805.805	23037.84
806.136	22995.13
806.466	22897.28
806.796	22823.38
807.126	22634.01
807.457	22557.85
807.787	22630.85
808.117	22448.93
808.447	22288.03
808.777	22488.7
809.107	22257.97
809.436	22166.9
809.766	22127.58
810.096	22007.13
810.426	22087.58
810.755	22003.07
811.085	21972.56
811.414	21855.95
811.744	21692.34
812.073	21644.66
812.403	21736.18
812.732	21577.31
813.061	21458.67
813.39	21355.85
813.719	21348.85
814.049	21403.31
814.378	21281.05
814.707	21088.97
815.036	21075.86
815.365	20992.92
815.693	20761.29
816.022	20865.02
816.351	20690.11
816.68	20661.86
817.008	20665.47
817.337	20477
817.665	20409.89
817.994	20580.28
818.322	20395.88
818.651	20255.31
818.979	20210.12
819.307	20365.59
819.636	20300.74
819.964	20008.99
820.292	20234.07
820.62	20114.3
820.948	20031.14
821.276	20046.05
821.604	20048.31
821.932	20081.08
822.259	19960.63
822.587	20051.03
822.915	19973.06
823.243	20039.28
823.57	19971.25
823.898	20091.93
824.225	19816
824.553	19990.92
824.88	20069.56
825.207	20011.71
825.535	19993.17
825.862	20045.38
826.189	19950.46
826.516	20081.99
826.843	20141.87
827.17	20094.64
827.497	20077.47
827.824	20031.14
828.151	20108.65
828.478	20096.45
828.805	20152.04
829.131	20018.03
829.458	19980.75
829.785	19922.89
830.111	20044.92
830.438	20125.83
830.764	20083.57
831.09	20058.48
831.417	20057.13
831.743	19993.63
832.069	20081.76
832.395	20016
832.722	20076.56
833.048	19936.68
833.374	20032.95
833.7	20008.54
834.026	19904.59
834.351	20044.92
834.677	20015.55
835.003	20106.84
835.329	19998.82
835.654	19981.2
835.98	20018.48
836.306	19964.7
836.631	19799.06
836.956	19968.54
837.282	19930.35
837.607	19756.12
837.932	19776.23
838.258	19802.67
838.583	19787.76
838.908	19710.02
839.233	19769
839.558	19690.13
839.883	19643.35
840.208	19515.67
840.533	19602.22
840.858	19608.1
841.182	19605.61
841.507	19564.71
841.832	19456.24
842.156	19423.25
842.481	19379.18
842.805	19268.45
843.13	19319.75
843.454	19213.08
843.778	19191.16
844.103	19166.08
844.427	19021.67
844.751	19056.48
845.075	18889.93
845.399	18889.02
845.723	18824.17
846.047	18770.61
846.371	18686.54
846.695	18684.51
847.019	18473.21
847.343	18386.44
847.666	18285.2
847.99	18158.42
848.313	18160.68
848.637	18090.17
848.96	18006.11
849.284	17956.62
849.607	17863.51
849.931	17888.37
850.254	17636.85
850.577	17542.17
850.9	17401.83
851.223	17472.79
851.546	17365.9
851.869	17241.83
852.192	17269.4
852.515	17104.21
852.838	16870.77
853.161	16989.19
853.483	16901.05
853.806	16856.31
854.129	16842.3
854.451	16647.5
854.774	16666.26
855.096	16585.81
855.419	16546.49
855.741	16409.54
856.063	16346.04
856.385	16215.2
856.708	16240.51
857.03	16049.78
857.352	16201.18
857.674	16080.28
857.996	15976.11
858.318	15955.54
858.64	15862.89
858.961	15817.69
859.283	15819.95
859.605	15672.16
859.926	15701.54
860.248	15605.27
860.57	15610.92
860.891	15555.55
861.212	15519.85
861.534	15460.64
861.855	15437.81
862.176	15403.92
862.498	15279.17
862.819	15413.63
863.14	15169.35
863.461	15244.15
863.782	15138.39
864.103	15191.95
864.424	15050.71
864.745	15106.98
865.065	14972.06
865.386	14956.02
865.707	14906.08
866.027	14933.87
866.348	15017.71
866.668	14943.14
866.989	14869.92
867.309	14798.96
867.63	14892.29
867.95	14851.84
868.27	14796.25
868.59	14769.36
868.91	14705.18
869.23	14797.38
869.55	14716.48
869.87	14756.7
870.19	14798.96
870.51	14737.27
870.83	14657.5
871.15	14545.86
871.469	14720.32
871.789	14661.79
872.109	14662.24
872.428	14510.83
872.748	14579.08
873.067	14565.52
873.386	14514
873.706	14483.94
874.025	14443.49
874.344	14438.74
874.663	14435.81
874.982	14424.28
875.301	14408.91
875.62	14471.29
875.939	14385.64
876.258	14401.91
876.577	14336.6
876.896	14403.94
877.214	14344.06
877.533	14355.58
877.852	14282.59
878.17	14297.28
878.489	14349.48
878.807	14426.32
879.125	14287.56
879.444	14370.72
879.762	14258.86
880.08	14259.31
880.398	14215.47
880.716	14162.37
881.034	14158.98
881.352	14224.74
881.67	14048.92
881.988	14177.28
882.306	14119.66
882.624	14033.56
882.941	14024.52
883.259	14067.91
883.577	13957.4
883.894	13921.92
884.212	13861.13
884.529	13891.41
884.846	13837.86
885.164	13825.2
885.481	13836.95
885.798	13834.47
886.115	13706.33
886.432	13686.67
886.75	13689.16
887.067	13706.33
887.383	13650.74
887.7	13691.87
888.017	13537.98
888.334	13521.03
888.651	13535.27
888.967	13571.65
889.284	13422.95
889.6	13385.66
889.917	13322.39
890.233	13319.9
890.55	13344.31
890.866	13379.79
891.182	13301.83
891.498	13204.88
891.815	13241.04
892.131	13158.1
892.447	13067.26
892.763	13043.75
893.079	12942.74
893.395	12966.47
893.71	12993.58
894.026	12887.15
894.342	12923.08
894.657	12822.06
894.973	12773.93
895.289	12716.3
895.604	12742.29
895.92	12643.76
896.235	12524.67
896.55	12629.98
896.865	12512.24
897.181	12458.23
897.496	12393.37
897.811	12322.64
898.126	12373.71
898.441	12324.68
898.756	12231.8
899.071	12208.75
899.386	12164.23
899.7	12015.08
900.015	11967.62
900.33	11866.16
900.644	11922.2
900.959	11865.25
901.273	11835.88
901.588	11732.15
901.902	11686.5
902.216	11581.64
902.531	11556.79
902.845	11504.58
903.159	11468.88
903.473	11446.96
903.787	11363.12
904.101	11322.44
904.415	11299.17
904.729	11193.86
905.042	11173.29
905.356	11160.64
905.67	11036.35
905.984	11090.13
906.297	11008.33
906.611	10919.97
906.924	10869.8
907.237	10830.93
907.551	10759.07
907.864	10732.4
908.177	10680.2
908.491	10667.32
908.804	10539.41
909.117	10505.97
909.43	10499.87
909.743	10389.81
910.056	10374.9
910.368	10324.95
910.681	10322.24
910.994	10237.27
911.307	10253.09
911.619	10158.86
911.932	10135.13
912.244	10058.97
912.557	10068.01
912.869	9992.31
913.181	9985.53
913.494	9978.97
913.806	9870.5
914.118	9783.27
914.43	9802.93
914.742	9717.96
915.054	9686.55
915.366	9675.48
915.678	9605.88
915.99	9593.9
916.302	9490.4
916.613	9549.38
916.925	9486.56
917.236	9465.77
917.548	9422.15
917.859	9429.84
918.171	9350.52
918.482	9289.73
918.794	9218.54
919.105	9268.03
919.416	9153.01
919.727	9155.27
920.038	9114.36
920.349	9111.88
920.66	9056.97
920.971	8979.68
921.282	8988.72
921.593	8904.65
921.903	8878.66
922.214	8828.04
922.525	8800.02
922.835	8772.9
923.146	8669.63
923.456	8653.59
923.767	8627.6
924.077	8630.76
924.387	8619.46
924.697	8569.29
925.008	8548.28
925.318	8452.91
925.628	8546.7
925.938	8455.85
926.248	8397.1
926.558	8238.23
926.867	8281.62
927.177	8244.56
927.487	8179.25
927.796	8207.5
928.106	8195.52
928.416	8202.98
928.725	8131.79
929.034	8013.38
929.344	7997.56
929.653	7994.17
929.962	7969.99
930.271	7895.64
930.581	7876.43
930.89	7868.07
931.199	7839.37
931.508	7817.45
931.817	7786.04
932.125	7766.6
932.434	7756.43
932.743	7653.16
933.051	7620.62
933.36	7609.77
933.669	7517.57
933.977	7530.23
934.286	7485.03
934.594	7501.53
934.902	7454.75
935.21	7376.11
935.519	7427.18
935.827	7333.39
936.135	7318.25
936.443	7300.63
936.751	7284.58
937.059	7219.73
937.367	7239.61
937.674	7143.34
937.982	7086.85
938.29	7093.63
938.597	7121.65
938.905	7062.22
939.213	7080.29
939.52	6985.38
939.827	6994.87
940.135	6932.28
940.442	6889.11
940.749	6945.61
941.056	6863.8
941.363	6806.18
941.67	6834.88
941.977	6758.95
942.284	6751.04
942.591	6691.83
942.898	6682.11
943.205	6674.43
943.511	6620.65
943.818	6659.06
944.125	6570.93
944.431	6514.66
944.738	6528.9
945.044	6531.61
945.35	6486.86
945.657	6424.27
945.963	6382.23
946.269	6391.72
946.575	6353.53
946.881	6375.91
947.187	6306.53
947.493	6263.59
947.799	6233.08
948.105	6239.86
948.41	6181.79
948.716	6143.82
949.022	6175.46
949.327	6135.91
949.633	6048.46
949.938	6017.95
950.244	6080.77
950.549	6007.33
950.854	5949.48
951.16	5910.38
951.465	5942.7
951.77	5918.29
952.075	5847.11
952.38	5830.38
952.685	5863.83
952.99	5785.19
953.294	5732.76
953.599	5682.36
953.904	5676.26
954.209	5670.61
954.513	5666.09
954.818	5597.62
955.122	5602.37
955.426	5623.84
955.731	5496.83
956.035	5514.01
956.339	5436.04
956.643	5490.05
956.948	5420.22
957.252	5412.54
957.556	5346.33
957.86	5388.14
958.163	5388.59
958.467	5347.01
958.771	5301.36
959.075	5344.97
959.378	5267.69
959.682	5272.43
959.985	5214.13
960.289	5163.73
960.592	5158.99
960.896	5118.54
961.199	5118.76
961.502	5141.81
961.805	5091.19
962.108	4993.34
962.411	5059.56
962.714	5007.35
963.017	4977.07
963.32	4957.41
963.623	4958.09
963.926	4945.66
964.228	4898.66
964.531	4875.61
964.833	4895.49
965.136	4841.48
965.438	4810.07
965.741	4789.51
966.043	4772.33
966.345	4735.95
966.648	4742.05
966.95	4715.16
967.252	4687.14
967.554	4665.67
967.856	4657.98
968.158	4576.86
968.46	4629.06
968.761	4590.64
969.063	4607.59
969.365	4495.73
969.666	4564.2
969.968	4498.67
970.269	4459.35
970.571	4458.67
970.872	4427.71
971.174	4412.57
971.475	4432.68
971.776	4339.8
972.077	4345.45
972.378	4387.26
972.679	4325.56
972.98	4280.82
973.281	4274.49
973.582	4220.48
973.883	4248.73
974.183	4260.48
974.484	4174.38
974.785	4179.13
975.085	4174.16
975.386	4143.42
975.686	4094.16
975.986	4123.99
976.287	4120.6
976.587	4061.62
976.887	4035.63
977.187	4015.74
977.487	3977.55
977.787	3962.41
978.087	3966.93
978.387	3957.89
978.687	3965.12
978.987	3885.12
979.286	3878.8
979.586	3895.29
979.885	3798.35
980.185	3815.97
980.484	3827.05
980.784	3768.74
981.083	3759.25
981.382	3774.17
981.682	3781.85
981.981	3702.98
982.28	3696.88
982.579	3707.28
982.878	3665.02
983.177	3632.25
983.475	3646.94
983.774	3625.02
984.073	3578.01
984.372	3567.62
984.67	3537.34
984.969	3519.48
985.267	3497.11
985.566	3511.57
985.864	3492.59
986.162	3456.66
986.461	3428.86
986.759	3435.64
987.057	3429.77
987.355	3375.31
987.653	3421.86
987.951	3415.76
988.249	3326.27
988.547	3333.27
988.844	3333.05
989.142	3308.19
989.44	3284.24
989.737	3269.77
990.035	3263.22
990.332	3260.51
990.63	3253.5
990.927	3205.82
991.224	3211.02
991.521	3247.4
991.819	3205.14
992.116	3171.24
992.413	3119.95
992.71	3139.38
993.006	3127.4
993.303	3071.81
993.6	3113.62
993.897	3048.08
994.193	3050.34
994.49	3002.21
994.787	3036.33
995.083	3044.24
995.379	2997.69
995.676	2979.61
995.972	2986.62
996.268	2958.37
996.565	2947.75
996.861	2954.07
997.157	2941.65
997.453	2897.35
997.749	2867.3
998.044	2845.15
998.34	2872.27
998.636	2836.79
998.932	2821.42
999.227	2790.46
999.523	2778.03
999.818	2768.32
1000.114	2750.01
1000.409	2739.39
1000.704	2733.97
1001	2752.95
1001.295	2706.17
1001.59	2706.4
1001.885	2696.68
1002.18	2656.68
1002.475	2671.14
1002.77	2645.16
1003.065	2606.51
1003.359	2585.05
1003.654	2604.48
1003.949	2593.41
1004.243	2563.8
1004.538	2538.72
1004.832	2540.53
1005.127	2527.87
1005.421	2516.12
1005.715	2480.19
1006.009	2454.88
1006.304	2474.99
1006.598	2438.83
1006.892	2430.7
1007.186	2434.54
1007.48	2375.11
1007.773	2390.47
1008.067	2399.74
1008.361	2366.97
1008.655	2364.71
1008.948	2340.08
1009.242	2317.03
1009.535	2332.85
1009.829	2287.88
1010.122	2335.11
1010.415	2278.16
1010.708	2238.39
1011.001	2249.46
1011.295	2252.4
1011.588	2222.79
1011.881	2229.8
1012.173	2195.68
1012.466	2211.95
1012.759	2176.47
1013.052	2156.81
1013.344	2129.24
1013.637	2143.25
1013.93	2143.47
1014.222	2107.32
1014.514	2108.67
1014.807	2080.65
1015.099	2075.68
1015.391	2063.48
1015.683	2050.14
1015.976	2067.32
1016.268	2032.97
1016.56	2031.39
1016.851	1983.93
1017.143	2021.22
1017.435	1973.31
1017.727	1983.03
1018.018	1933.99
1018.31	1930.82
1018.602	1902.35
1018.893	1976.25
1019.185	1876.36
1019.476	1903.93
1019.767	1879.07
1020.058	1833.2
1020.35	1825.07
1020.641	1836.82
1020.932	1830.94
1021.223	1820.77
1021.514	1779.64
1021.804	1760.21
1022.095	1762.69
1022.386	1730.6
1022.677	1745.07
1022.967	1745.52
1023.258	1711.17
1023.548	1690.61
1023.839	1678.18
1024.129	1717.72
1024.419	1664.39
1024.709	1639.99
1025	1693.54
1025.29	1637.5
1025.58	1621.23
1025.87	1631.17
1026.16	1577.61
1026.449	1569.25
1026.739	1599.53
1027.029	1581.46
1027.319	1571.74
1027.608	1563.83
1027.898	1534
1028.187	1510.05
1028.477	1510.95
1028.766	1508.69
1029.055	1501.46
1029.344	1463.72
1029.634	1506.66
1029.923	1477.05
1030.212	1447.9
1030.501	1435.02
1030.79	1437.05
1031.078	1439.99
1031.367	1385.3
1031.656	1398.41
1031.945	1393.44
1032.233	1404.06
1032.522	1378.07
1032.81	1360.67
1033.099	1335.36
1033.387	1346.89
1033.675	1331.97
1033.963	1361.57
1034.251	1322.71
1034.54	1330.61
1034.828	1319.99
1035.116	1290.16
1035.403	1271.18
1035.691	1279.09
1035.979	1279.54
1036.267	1262.59
1036.554	1247.23
1036.842	1228.92
1037.129	1241.13
1037.417	1223.95
1037.704	1199.32
1037.992	1228.47
1038.279	1202.48
1038.566	1229.83
1038.853	1229.83
1039.14	1229.83
