Data from white_wall_FLMS001491_036.txt Node
Date: Tue Feb 07 11:04:18 GMT 2017
User: dcchb
Spectrometer: FLMS00149
Trigger mode: 0
Integration Time (sec): 2.000000E-2
Scans to average: 10
Electric dark correction enabled: true
Nonlinearity correction enabled: false
Boxcar width: 0
XAxis mode: Wavelengths
Number of Pixels in Spectrum: 2048
>>>>>Begin Spectral Data<<<<<
341.393	-0.04
341.776	-0.04
342.16	-0.04
342.543	-57.22
342.927	-71.9
343.31	-72.13
343.693	-73.03
344.077	-55.63
344.46	-62.19
344.843	-64.67
345.226	-43.66
345.61	-28.06
345.993	-20.38
346.376	0.86
346.759	-1.62
347.142	23.69
347.525	44.48
347.908	64.59
348.291	93.51
348.674	92.61
349.057	101.65
349.44	123.57
349.823	136.23
350.206	158.15
350.588	199.5
350.971	220.97
351.354	246.73
351.737	232.49
352.119	260.97
352.502	263.23
352.884	290.35
353.267	287.86
353.65	304.58
354.032	309.1
354.414	313.85
354.797	322.66
355.179	324.47
355.562	335.77
355.944	333.51
356.326	327.18
356.709	337.12
357.091	356.11
357.473	354.52
357.855	352.49
358.238	341.19
358.62	345.94
359.002	352.26
359.384	344.36
359.766	349.1
360.148	343.23
360.53	347.52
360.912	362.43
361.294	337.35
361.676	359.72
362.057	331.25
362.439	355.2
362.821	356.11
363.203	338.71
363.584	348.2
363.966	338.03
364.348	339.16
364.729	321.08
365.111	314.3
365.493	361.76
365.874	336.67
366.256	333.28
366.637	318.37
367.019	321.08
367.4	333.51
367.781	335.09
368.163	331.47
368.544	327.41
368.925	307.52
369.306	347.07
369.688	314.75
370.069	349.55
370.45	332.38
370.831	311.81
371.212	337.8
371.593	321.31
371.974	317.24
372.355	331.47
372.736	327.41
373.117	335.99
373.498	323.56
373.879	319.72
374.26	329.44
374.641	307.07
375.021	340.97
375.402	338.93
375.783	340.74
376.163	345.94
376.544	340.97
376.925	349.78
377.305	347.75
377.686	341.19
378.066	351.81
378.447	371.25
378.827	351.59
379.208	380.06
379.588	353.62
379.968	366.95
380.349	368.08
380.729	370.34
381.109	377.35
381.489	347.97
381.87	367.41
382.25	353.17
382.63	372.38
383.01	390.46
383.39	365.82
383.77	364.02
384.15	357.46
384.53	383.45
384.91	363.79
385.29	380.29
385.67	389.33
386.049	393.17
386.429	392.72
386.809	387.97
387.189	390.68
387.568	382.77
387.948	389.78
388.328	422.32
388.707	399.95
389.087	403.79
389.466	430.91
389.846	403.56
390.225	438.36
390.605	421.19
390.984	447.18
391.363	452.6
391.743	430.91
392.122	460.96
392.501	439.49
392.881	453.51
393.26	462.77
393.639	505.71
394.018	463.9
394.397	489.66
394.776	484.01
395.155	500.96
395.534	503.45
395.913	516.78
396.292	501.87
396.671	522.2
397.05	518.59
397.429	518.59
397.808	522.2
398.186	550.68
398.565	564.46
398.944	574.41
399.323	572.15
399.701	591.58
400.08	616.89
400.458	598.36
400.837	621.64
401.215	629.32
401.594	637.45
401.972	625.93
402.351	651.01
402.729	668.41
403.107	664.12
403.486	670
403.864	678.81
404.242	699.6
404.62	701.63
404.999	710.9
405.377	728.3
405.755	758.58
406.133	764.46
406.511	759.94
406.889	777.79
407.267	812.59
407.645	813.04
408.023	847.62
408.401	830.9
408.779	825.02
409.156	858.69
409.534	875.87
409.912	921.06
410.29	925.58
410.667	950.67
411.045	943.66
411.422	957.22
411.8	966.94
412.178	1014.85
412.555	1020.95
412.933	1001.29
413.31	1013.04
413.687	1055.75
414.065	1069.08
414.442	1097.78
414.819	1073.6
415.197	1103.21
415.574	1107.27
415.951	1130.78
416.328	1148.4
416.705	1167.84
417.082	1145.24
417.46	1173.26
417.837	1199.02
418.214	1218
418.591	1208.29
418.967	1241.96
419.344	1271.56
419.721	1248.06
420.098	1253.48
420.475	1280.38
420.852	1307.72
421.228	1323.54
421.605	1329.41
421.982	1338
422.358	1363.76
422.735	1400.6
423.111	1382.52
423.488	1406.93
423.864	1403.54
424.241	1442.18
424.617	1478.56
424.994	1448.73
425.37	1483.99
425.746	1473.59
426.123	1501.61
426.499	1506.13
426.875	1578.67
427.251	1526.92
427.627	1601.27
428.003	1594.27
428.379	1617.99
428.756	1651.89
429.132	1646.69
429.507	1681.04
429.883	1713.81
430.259	1728.05
430.635	1740.25
431.011	1744.09
431.387	1794.26
431.763	1813.7
432.138	1851.66
432.514	1850.98
432.89	1884.2
433.265	1935.95
433.641	1943.86
434.016	1953.13
434.392	1977.98
434.767	2034.48
435.143	2027.93
435.518	2069.28
435.894	2103.86
436.269	2135.04
436.644	2145.89
437.02	2149.73
437.395	2161.48
437.77	2213.23
438.145	2225.66
438.52	2266.79
438.895	2271.31
439.271	2285.32
439.646	2344.75
440.021	2359.67
440.395	2343.62
440.77	2364.64
441.145	2398.31
441.52	2428.82
441.895	2422.49
442.27	2460.91
442.645	2462.04
443.019	2485.32
443.394	2472.66
443.769	2541.59
444.143	2525.99
444.518	2577.74
444.892	2581.13
445.267	2596.5
445.641	2619.1
446.016	2666.78
446.39	2685.31
446.764	2692.54
447.139	2692.32
447.513	2749.04
447.887	2747.46
448.262	2770.51
448.636	2777.96
449.01	2799.21
449.384	2870.39
449.758	2880.33
450.132	2893.21
450.506	2929.15
450.88	2913.78
451.254	2921.24
451.628	2978.64
452.002	3022.03
452.376	3062.25
452.75	3078.75
453.123	3078.29
453.497	3164.85
453.871	3175.47
454.244	3231.51
454.618	3242.36
454.992	3282.58
455.365	3317.84
455.739	3446.87
456.112	3481.45
456.486	3471.28
456.859	3534.55
457.232	3547.89
457.606	3558.51
457.979	3606.19
458.352	3742.46
458.725	3748.79
459.099	3761.89
459.472	3845.51
459.845	3897.71
460.218	3932.51
460.591	3974.32
460.964	3946.07
461.337	4055.44
461.71	4118.49
462.083	4182.22
462.456	4215.21
462.829	4253.86
463.201	4292.05
463.574	4337.7
463.947	4410.69
464.32	4467.41
464.692	4503.34
465.065	4582.66
465.438	4622.89
465.81	4681.19
466.183	4744.24
466.555	4894.29
466.928	4906.27
467.3	4886.16
467.672	4952.37
468.045	5059.71
468.417	5100.84
468.789	5121.86
469.161	5260.61
469.534	5339.25
469.906	5414.28
470.278	5462.86
470.65	5583.09
471.022	5660.37
471.394	5751.44
471.766	5821.05
472.138	5855.85
472.51	5993.25
472.882	6101.49
473.253	6186.01
473.625	6287.02
473.997	6372.67
474.369	6431.43
474.74	6507.81
475.112	6718.65
475.484	6770.18
475.855	6869.83
476.227	6892.43
476.598	7109.6
476.97	7249.71
477.341	7354.79
477.713	7457.39
478.084	7539.42
478.455	7792.75
478.827	7835.23
479.198	8035.45
479.569	8131.27
479.94	8366.74
480.311	8450.81
480.682	8592.05
481.053	8812.38
481.424	8904.13
481.795	9009.21
482.166	9135.76
482.537	9275.87
482.908	9563.1
483.279	9579.82
483.65	9774.16
484.021	9950.2
484.391	10055.74
484.762	10214.6
485.133	10361.72
485.503	10469.96
485.874	10699.34
486.244	10789.96
486.615	10985.21
486.985	11128.93
487.356	11311.75
487.726	11486.89
488.097	11606.66
488.467	11686.2
488.837	12005.97
489.207	12106.98
489.578	12304.94
489.948	12441.89
490.318	12604.82
490.688	12599.4
491.058	12823.12
491.428	13136.34
491.798	13202.32
492.168	13436.44
492.538	13484.57
492.908	13685.47
493.278	13821.97
493.648	13837.79
494.017	14081.85
494.387	14207.04
494.757	14357.32
495.126	14499.01
495.496	14567.71
495.866	14647.03
496.235	14895.16
496.605	15039.11
496.974	15168.82
497.344	15269.84
497.713	15370.63
498.082	15499.66
498.452	15666.44
498.821	15737.85
499.19	15863.95
499.559	16000.67
499.928	16120.44
500.298	16232.53
500.667	16395.01
501.036	16400.2
501.405	16615.34
501.774	16739.4
502.143	16810.59
502.512	16958.38
502.88	17125.84
503.249	17162.22
503.618	17273.4
503.987	17464.58
504.356	17519.5
504.724	17625.03
505.093	17787.96
505.462	17832.94
505.83	18129.65
506.199	18085.58
506.567	18390.89
506.936	18397.67
507.304	18648.28
507.672	18680.14
508.041	18820.71
508.409	19012.79
508.777	19159.68
509.145	19275.61
509.514	19355.15
509.882	19558.99
510.25	19523.74
510.618	19839.66
510.986	19860.45
511.354	20057.96
511.722	20326.88
512.09	20450.95
512.458	20455.01
512.826	20625.63
513.193	20743.82
513.561	20861.33
513.929	21131.61
514.297	21319.17
514.664	21456.12
515.032	21426.96
515.4	21686.39
515.767	21818.82
516.135	22024.92
516.502	21850.23
516.869	22316.43
517.237	22356.88
517.604	22364.57
517.972	22633.49
518.339	22815.4
518.706	22889.07
519.073	23018.79
519.44	23262.4
519.808	23446.8
520.175	23460.13
520.542	23835.72
520.909	23894.7
521.276	23987.8
521.643	24154.58
522.009	24421.01
522.376	24642.7
522.743	24772.41
523.11	25012.63
523.477	25280.2
523.843	25365.17
524.21	25656.01
524.577	25740.3
524.943	25990.46
525.31	26021.87
525.676	26265.71
526.043	26481.52
526.409	26493.27
526.776	26844
527.142	27055.07
527.508	27131.67
527.874	27396.07
528.241	27534.6
528.607	27635.39
528.973	27915.38
529.339	27932.78
529.705	28170.52
530.071	28404.63
530.437	28535.03
530.803	28773.66
531.169	28906.54
531.535	28859.76
531.901	28949.7
532.267	29188.34
532.632	29170.04
532.998	29493.87
533.364	29662
533.73	29812.96
534.095	30034.87
534.461	30179.28
534.826	30297.47
535.192	30357.8
535.557	30677.57
535.923	30720.05
536.288	30777.68
536.653	31057.67
537.019	30969.76
537.384	31097.67
537.749	31254.05
538.114	31321.17
538.479	31444.55
538.845	31601.84
539.21	31567.49
539.575	31572.01
539.94	31953.47
540.305	32142.84
540.67	32064.65
541.034	32264.65
541.399	32416.51
541.764	32577.63
542.129	32694.01
542.494	32647.23
542.858	32870.73
543.223	32880
543.587	33268.24
543.952	33180.78
544.316	33286.09
544.681	33311.85
545.045	33486.08
545.41	33627.77
545.774	33891.5
546.138	33871.16
546.503	34129.23
546.867	34076.35
547.231	34461.2
547.595	34497.36
547.959	34604.47
548.324	34635.21
548.688	34722.89
549.052	35011.92
549.416	34987.51
549.779	35146.38
550.143	35309.99
550.507	35508.63
550.871	35632.92
551.235	35707.95
551.599	36071.1
551.962	36180.02
552.326	36172.57
552.689	36425.67
553.053	36349.74
553.417	36605.32
553.78	36995.14
554.143	36822.27
554.507	37048.93
554.87	37290.5
555.234	37527.56
555.597	37465.64
555.96	37666.76
556.323	37862.69
556.686	37955.8
557.05	38200.54
557.413	38411.15
557.776	38339.97
558.139	38833.74
558.502	38843.46
558.865	39072.83
559.228	39297.91
559.59	39390.11
559.953	39471.01
560.316	40020.83
560.679	39785.13
561.041	40044.1
561.404	40346.92
561.767	40535.16
562.129	40454.49
562.492	40955.26
562.854	40841.82
563.217	40927.7
563.579	41171.53
563.941	41342.6
564.304	41538.75
564.666	41879.99
565.028	41897.84
565.39	41890.38
565.753	42277.49
566.115	42328.11
566.477	42557.48
566.839	42640.64
567.201	42974.87
567.563	42833.63
567.925	43190.46
568.287	43370.12
568.648	43368.53
569.01	43574.18
569.372	43822.08
569.734	43780.95
570.095	44116.99
570.457	44278.79
570.819	44395.63
571.18	44323.99
571.542	44549.75
571.903	44658.9
572.265	44795.84
572.626	44918.1
572.987	44970.07
573.349	45167.36
573.71	45384.98
574.071	45362.15
574.432	45469.27
574.794	45737.96
575.155	45749.04
575.516	45570.96
575.877	45892.54
576.238	45941.8
576.599	46118.07
576.96	46112.42
577.32	46128.69
577.681	46252.3
578.042	46398.96
578.403	46298.85
578.763	46396.7
579.124	46546.3
579.485	46683.02
579.845	46704.72
580.206	46644.83
580.566	46772.74
580.927	46882.79
581.287	46900.65
581.648	46791.27
582.008	46973.19
582.368	46954.88
582.728	47062.9
583.089	46950.81
583.449	46935.9
583.809	46979.29
584.169	47050.47
584.529	47064.93
584.889	47388.09
585.249	47071.26
585.609	46957.59
585.969	47173.63
586.329	47129.11
586.688	47263.35
587.048	47054.31
587.408	47010.92
587.768	47101.54
588.127	47028.55
588.487	47090.24
588.846	47400.52
589.206	46958.95
589.565	47187.19
589.925	47309.22
590.284	47146.51
590.643	47130.24
591.003	47138.61
591.362	47301.09
591.721	47196.23
592.08	47131.83
592.44	47318.94
592.799	47222.67
593.158	47239.17
593.517	47270.58
593.876	47296.79
594.235	47158.27
594.593	47288.66
594.952	47367.98
595.311	47311.71
595.67	47391.93
596.029	47684.35
596.387	47585.15
596.746	47665.6
597.104	47428.09
597.463	47491.59
597.822	47659.95
598.18	47620.63
598.538	47544.24
598.897	47885.7
599.255	47479.61
599.613	47876.89
599.972	47689.78
600.33	47710.79
600.688	47686.39
601.046	47828.3
601.404	48107.39
601.762	47782.88
602.12	48017.45
602.478	48095.19
602.836	47962.09
603.194	47840.06
603.552	48100.39
603.91	47910.79
604.268	48162.53
604.625	47934.06
604.983	48124.57
605.341	48052.25
605.698	48086.38
606.056	48313.49
606.413	48083.21
606.771	48337.22
607.128	48510.09
607.485	48217.67
607.843	48354.84
608.2	48460.15
608.557	48605.69
608.914	48479.13
609.272	48569.08
609.629	48649.07
609.986	48877.32
610.343	48644.33
610.7	48979.01
611.057	48825.79
611.414	48830.31
611.771	48802.29
612.127	48870.54
612.484	48950.76
612.841	49105.33
613.198	49079.57
613.554	48890.65
613.911	49226.91
614.267	49154.82
614.624	49085.45
614.98	49174.48
615.337	49359.56
615.693	49310.07
616.05	49247.93
616.406	49506.45
616.762	49269.4
617.118	49528.82
617.475	49309.62
617.831	49404.99
618.187	49441.82
618.543	49496.28
618.899	49758.88
619.255	49650.63
619.611	49616.96
619.967	49805.88
620.323	49754.13
620.678	49711.19
621.034	49563.4
621.39	49647.24
621.746	49599.33
622.101	50047.46
622.457	49770.63
622.812	49724.98
623.168	49870.51
623.523	49804.52
623.879	49895.59
624.234	49632.32
624.589	49720.46
624.945	49854.47
625.3	49844.07
625.655	49777.41
626.01	49881.13
626.365	49870.96
626.72	49842.04
627.075	49730.85
627.43	49732.66
627.785	49630.97
628.14	49730.85
628.495	49673.68
628.85	49727.01
629.205	49611.31
629.559	49915.48
629.914	49765.65
630.269	49713.23
630.623	49627.81
630.978	49639.33
631.332	49749.84
631.687	49884.75
632.041	49682.95
632.396	49720.91
632.75	49564.98
633.104	49597.3
633.459	49436.17
633.813	49401.82
634.167	49414.7
634.521	49328.6
634.875	49374.48
635.229	49384.65
635.583	49065.56
635.937	49287.48
636.291	49212.22
636.645	49181.94
636.999	49073.02
637.352	49294.71
637.706	48987.14
638.06	49001.61
638.413	49091.55
638.767	48937.88
639.121	49045.22
639.474	48735.85
639.828	48707.38
640.181	48764.1
640.534	48950.53
640.888	48752.12
641.241	48402.98
641.594	48527.27
641.947	48647.04
642.301	48492.92
642.654	48501.28
643.007	48557.32
643.36	48496.54
643.713	48276.2
644.066	48640.03
644.419	48250.89
644.771	47987.85
645.124	47471.7
645.477	47540.63
645.83	47281.2
646.182	47289.11
646.535	47089.11
646.888	47106.06
647.24	47003.24
647.593	47236
647.945	47131.6
648.298	46907.42
648.65	46807.99
649.002	46795.34
649.355	46739.97
649.707	46789.69
650.059	46895.22
650.411	47340.18
650.763	47340.63
651.115	47745.82
651.467	47638.71
651.819	47541.08
652.171	47427.41
652.523	47505.83
652.875	47421.76
653.227	47358.71
653.578	47539.95
653.93	47373.85
654.282	47253.63
654.633	47129.57
654.985	47115.55
655.337	47112.17
655.688	47195.55
656.039	47319.17
656.391	46961.21
656.742	46991.94
657.094	47012.51
657.445	47142.22
657.796	46980.64
658.147	46857.71
658.498	46841.44
658.849	46888.44
659.2	46818.61
659.551	46707.88
659.902	46845.73
660.253	46770.03
660.604	46842.79
660.955	46453.65
661.306	46704.72
661.656	46596.92
662.007	46686.64
662.358	46658.84
662.708	46703.81
663.059	46667.43
663.409	46398.51
663.76	46710.14
664.11	46630.37
664.461	46665.4
664.811	46565.96
665.161	46477.38
665.511	46344.73
665.862	46363.03
666.212	46533.88
666.562	46558.96
666.912	46492.29
667.262	46356.25
667.612	46305.18
667.962	46372.07
668.312	46320.1
668.662	46515.34
669.011	46360.77
669.361	46326.65
669.711	46219.76
670.06	46118.52
670.41	46262.24
670.76	46136.6
671.109	46314.45
671.459	46302.24
671.808	45975.92
672.157	46199.42
672.507	45945.64
672.856	45921.46
673.205	45982.03
673.554	46132.3
673.904	45845.31
674.253	46208.23
674.602	45983.61
674.951	45313.79
675.3	44980.02
675.649	45791.52
675.998	45603.96
676.346	45697.06
676.695	45831.75
677.044	45509.27
677.393	45669.04
677.741	45656.38
678.09	45583.84
678.438	45383.4
678.787	45442.83
679.135	45529.61
679.484	45169.84
679.832	45460.01
680.181	45219.79
680.529	45234.93
680.877	45241.03
681.225	45020.92
681.573	45225.89
681.922	44862.05
682.27	44860.47
682.618	44803.53
682.966	44766.24
683.314	44844.65
683.661	44688.27
684.009	44451.22
684.357	44349.3
684.705	44220.26
685.053	44415.29
685.4	44234.95
685.748	43977.78
686.095	43947.95
686.443	43815.75
686.79	43712.48
687.138	43871.35
687.485	43956.99
687.832	43645.36
688.18	43704.8
688.527	43436.56
688.874	43472.94
689.221	43126.73
689.568	43139.61
689.915	42922.44
690.262	43018.94
690.609	42890.36
690.956	42712.73
691.303	42714.99
691.65	42462.34
691.997	42545.96
692.344	42271.39
692.69	42291.73
693.037	42265.74
693.383	41884.05
693.73	42117.95
694.077	41947.33
694.423	42056.48
694.769	41767.45
695.116	41611.97
695.462	41645.42
695.808	41559.54
696.155	41564.51
696.501	41303.73
696.847	41263.28
697.193	41022.38
697.539	41076.17
697.885	40811.99
698.231	40543.52
698.577	40775.16
698.923	40646.57
699.269	40343.53
699.614	40266.24
699.96	40226.24
700.306	40122.29
700.651	39971.11
700.997	39823.77
701.342	39746.71
701.688	39674.85
702.033	39565.92
702.379	39487.73
702.724	39377.23
703.069	39475.08
703.415	38988.09
703.76	39037.35
704.105	39096.1
704.45	38977.92
704.795	38806.17
705.14	38722.1
705.485	38643.46
705.83	38517.81
706.175	38616.57
706.52	38388.78
706.865	38383.58
707.209	38308.33
707.554	38184.49
707.899	38154.43
708.243	38038.51
708.588	38023.82
708.932	37721.68
709.277	37662.7
709.621	37762.58
709.966	37612.3
710.31	37612.98
710.654	37109.72
710.998	37245.08
711.342	37444.17
711.687	37159.21
712.031	37105.42
712.375	36947.23
712.719	37049.38
713.063	36880.12
713.407	36934.81
713.75	36831.08
714.094	36728.48
714.438	36618.43
714.782	36551.99
715.125	36572.33
715.469	36565.1
715.812	36361.71
716.156	36140.93
716.499	36259.8
716.843	36258.89
717.186	35956.75
717.53	36293.47
717.873	36171.89
718.216	36066.81
718.559	35977.77
718.902	35726.48
719.246	35797.89
719.589	35588.85
719.932	35617.1
720.275	35362.87
720.617	35486.03
720.96	35310.67
721.303	35427.95
721.646	35327.39
721.989	35177.56
722.331	35281.29
722.674	35072.93
723.016	35035.65
723.359	35057.34
723.701	34987.06
724.044	34820.29
724.386	34664.36
724.729	34796.78
725.071	34611.02
725.413	34690.12
725.755	34743.9
726.097	34331.26
726.439	34376.45
726.782	34450.35
727.124	34417.58
727.465	34331.03
727.807	34329.45
728.149	34203.35
728.491	34081.1
728.833	34204.93
729.175	33897.15
729.516	33964.71
729.858	33874.77
730.199	33991.61
730.541	33760.65
730.882	33675
731.224	33785.51
731.565	33528.57
731.906	33634.78
732.248	33654.44
732.589	33420.77
732.93	33273.88
733.271	33393.2
733.612	33297.84
733.953	33370.15
734.294	33239.76
734.635	33079.09
734.976	33201.34
735.317	33084.29
735.658	33120.67
735.999	33009.49
736.339	32980.79
736.68	32898.08
737.021	32969.49
737.361	32673.9
737.702	32978.75
738.042	32818.08
738.383	32681.36
738.723	32731.98
739.063	32541.93
739.404	32590.51
739.744	32388.94
740.084	32381.93
740.424	32374.7
740.764	32364.53
741.104	32429.61
741.444	32116.4
741.784	32068.72
742.124	32092
742.464	31975.61
742.804	32093.8
743.143	31851.55
743.483	31965.22
743.823	31822.62
744.162	31802.06
744.502	31826.47
744.841	31743.53
745.181	31726.13
745.52	31531.56
745.86	31793.02
746.199	31602.06
746.538	31503.99
746.877	31530.65
747.216	31513.48
747.556	31381.51
747.895	31399.36
748.234	31267.61
748.573	31237.1
748.911	31176.54
749.25	31282.3
749.589	31053.38
749.928	31096.99
750.267	31006.15
750.605	31000.05
750.944	30833.72
751.283	30647.51
751.621	30795.53
751.96	30581.98
752.298	30424.24
752.636	30487.07
752.975	30412.27
753.313	30344.02
753.651	30418.14
753.989	30241.65
754.327	30174.53
754.666	30123.69
755.004	30091.14
755.342	29956.68
755.679	30004.37
756.017	29751.94
756.355	29885.95
756.693	29589.24
757.031	29912.39
757.368	29609.35
757.706	29435.34
758.044	29529.35
758.381	29461.78
758.719	29366.87
759.056	29267.44
759.394	29165.52
759.731	28996.03
760.068	29111.96
760.405	28870.61
760.743	28876.94
761.08	28812.76
761.417	28587.23
761.754	28575.25
762.091	28603.5
762.428	28501.58
762.765	28311.3
763.102	28415.26
763.438	28081.03
763.775	28161.93
764.112	28160.57
764.449	27996.74
764.785	28003.06
765.122	27733.47
765.458	27691.43
765.795	27596.07
766.131	27509.29
766.467	27514.71
766.804	27332.12
767.14	27306.81
767.476	27247.38
767.812	27163.99
768.148	27124.22
768.485	27029.98
768.821	26845.58
769.157	26621.18
769.492	26674.74
769.828	26707.5
770.164	26403.56
770.5	26410.11
770.836	26410.11
771.171	26241.08
771.507	26187.29
771.842	25951.37
772.178	25911.59
772.513	25891.48
772.849	25878.6
773.184	25609.23
773.519	25704.37
773.855	25495.11
774.19	25321.55
774.525	25250.14
774.86	25248.11
775.195	25071.16
775.53	25098.73
775.865	24967.21
776.2	24777.16
776.535	24573.1
776.87	24718.63
777.205	24564.28
777.539	24506.88
777.874	24427.34
778.209	24356.61
778.543	24245.2
778.878	24131.07
779.212	24047.91
779.547	23912.78
779.881	23898.54
780.215	23858.09
780.55	23851.31
780.884	23714.81
781.218	23631.88
781.552	23697.41
781.886	23455.39
782.22	23410.42
782.554	23251.55
782.888	23087.94
783.222	22999.13
783.556	22954.38
783.889	22910.32
784.223	22692.92
784.557	22647.72
784.89	22648.4
785.224	22508.29
785.557	22487.95
785.891	22439.37
786.224	22276.43
786.558	22327.73
786.891	22058.59
787.224	22025.59
787.557	21900.17
787.891	21889.33
788.224	21802.32
788.557	21769.33
788.89	21750.8
789.223	21718.48
789.556	21497.47
789.888	21443.91
790.221	21391.26
790.554	21258.38
790.887	21246.86
791.219	21139.51
791.552	21124.83
791.884	20930.48
792.217	20921.44
792.549	20867.66
792.882	20702.69
793.214	20595.57
793.546	20623.82
793.879	20569.36
794.211	20444.62
794.543	20478.74
794.875	20426.77
795.207	20519.64
795.539	20297.5
795.871	20235.36
796.203	20129.6
796.535	20048.7
796.867	20002.6
797.198	19910.62
797.53	20037.62
797.862	19790.4
798.193	19891.64
798.525	19605.54
798.856	19709.72
799.188	19529.61
799.519	19469.28
799.85	19294.59
800.182	19389.5
800.513	19309.51
800.844	19142.96
801.175	19314.48
801.506	19195.61
801.837	19005.79
802.168	19066.57
802.499	18955.62
802.83	18868.39
803.161	18934.6
803.491	18806.92
803.822	18712.69
804.153	18670.88
804.483	18578.9
804.814	18424.78
805.145	18452.35
805.475	18453.03
805.805	18367.61
806.136	18295.97
806.466	18387.04
806.796	18409.87
807.126	18115.64
807.457	18192.7
807.787	18157.67
808.117	18016.66
808.447	17941.86
808.777	18071.57
809.107	17933.95
809.436	17932.59
809.766	17899.37
810.096	17787.74
810.426	17666.61
810.755	17675.65
811.085	17661.41
811.414	17694.41
811.744	17451.25
812.073	17451.02
812.403	17444.47
812.732	17340.97
813.061	17251.93
813.39	17250.8
813.719	17180.75
814.049	17274.08
814.378	17213.29
814.707	17124.25
815.036	17152.73
815.365	17017.14
815.693	16879.74
816.022	16864.6
816.351	16871.6
816.68	16714.55
817.008	16800.65
817.337	16637.71
817.665	16544.16
817.994	16660.99
818.322	16605.62
818.651	16555
818.979	16503.03
819.307	16524.27
819.636	16466.64
819.964	16370.83
820.292	16402.24
820.62	16390.04
820.948	16305.52
821.276	16452.63
821.604	16298.51
821.932	16320.21
822.259	16297.38
822.587	16301.22
822.915	16222.13
823.243	16302.81
823.57	16226.65
823.898	16258.06
824.225	16151.4
824.553	16223.71
824.88	16247.89
825.207	16223.49
825.535	16202.7
825.862	16219.87
826.189	16126.54
826.516	16208.57
826.843	16239.08
827.17	16188.01
827.497	16234.78
827.824	16196.59
828.151	16298.74
828.478	16149.14
828.805	16293.77
829.131	16127.9
829.458	16230.49
829.785	16082.92
830.111	16150.27
830.438	16198.18
830.764	16067.11
831.09	16106.2
831.417	16085.18
831.743	16166.31
832.069	16138.29
832.395	16018.07
832.722	16083.15
833.048	15994.79
833.374	16103.04
833.7	15936.94
834.026	15959.31
834.351	16049.03
834.677	15912.53
835.003	15951.4
835.329	15894.45
835.654	15896.94
835.98	15860.11
836.306	15814.91
836.631	15757.51
836.956	15794.34
837.282	15777.62
837.607	15705.31
837.932	15704.18
838.258	15676.38
838.583	15630.96
838.908	15579.66
839.233	15595.71
839.558	15663.27
839.883	15452.43
840.208	15551.19
840.533	15527.01
840.858	15535.82
841.182	15514.13
841.507	15527.23
841.832	15383.28
842.156	15292.66
842.481	15337.18
842.805	15392.1
843.13	15338.09
843.454	15286.11
843.778	15222.16
844.103	15079.34
844.427	15062.61
844.751	15042.27
845.075	15018.77
845.399	14997.3
845.723	14969.06
846.047	14852.9
846.371	14817.65
846.695	14777.42
847.019	14753.02
847.343	14647.26
847.666	14501.27
847.99	14630.99
848.313	14469.86
848.637	14393.25
848.96	14406.81
849.284	14323.42
849.607	14193.03
849.931	14226.02
850.254	14172.69
850.577	14040.94
850.9	13972.7
851.223	13896.54
851.546	13851.34
851.869	13776.09
852.192	13816.32
852.515	13661.97
852.838	13570.45
853.161	13658.13
853.483	13535.42
853.806	13447.51
854.129	13536.1
854.451	13430.34
854.774	13367.06
855.096	13343.11
855.419	13307.18
855.741	13318.25
856.063	13188.09
856.385	13132.04
856.708	13095.43
857.03	13085.94
857.352	13148.54
857.674	13087.98
857.996	12947.87
858.318	12885.72
858.64	12909.45
858.961	12861.77
859.283	12875.1
859.605	12731.6
859.926	12876.23
860.248	12820.19
860.57	12662.9
860.891	12730.24
861.212	12689.57
861.534	12599.4
861.855	12589.23
862.176	12534.54
862.498	12593.07
862.819	12506.07
863.14	12448.67
863.461	12443.47
863.782	12350.59
864.103	12385.39
864.424	12334.1
864.745	12332.29
865.065	12308.79
865.386	12284.38
865.707	12285.96
866.027	12242.8
866.348	12280.76
866.668	12151.05
866.989	12168.9
867.309	12123.03
867.63	12101.11
867.95	12113.31
868.27	12007.55
868.59	12046.19
868.91	11993.54
869.23	12043.26
869.55	11901.34
869.87	11937.95
870.19	12004.84
870.51	11927.1
870.83	11982.69
871.15	11931.62
871.469	11960.55
871.789	11870.83
872.109	11800.33
872.428	11749.93
872.748	11796.26
873.067	11861.11
873.386	11785.64
873.706	11722.59
874.025	11747.9
874.344	11669.48
874.663	11676.94
874.982	11645.53
875.301	11700.89
875.62	11568.92
875.939	11591.29
876.258	11597.62
876.577	11513.78
876.896	11535.7
877.214	11530.28
877.533	11572.76
877.852	11483.27
878.17	11515.36
878.489	11503.16
878.807	11451.41
879.125	11403.95
879.444	11406.89
879.762	11383.84
880.08	11401.24
880.398	11327.8
880.716	11328.7
881.034	11298.19
881.352	11303.84
881.67	11259.1
881.988	11310.85
882.306	11229.94
882.624	11183.17
882.941	11133
883.259	11078.54
883.577	11166.9
883.894	11106.78
884.212	11072.43
884.529	11082.6
884.846	10972.55
885.164	10956.28
885.481	10899.78
885.798	10901.37
886.115	10841.25
886.432	10870.86
886.75	10848.49
887.067	10813.46
887.383	10766.45
887.7	10829.28
888.017	10757.41
888.334	10706.79
888.651	10644.42
888.967	10684.65
889.284	10642.39
889.6	10493.02
889.917	10480.13
890.233	10593.8
890.55	10484.88
890.866	10451.43
891.182	10473.35
891.498	10387.93
891.815	10412.11
892.131	10290.53
892.447	10322.4
892.763	10233.81
893.079	10266.81
893.395	10210.99
893.71	10226.36
894.026	10170.09
894.342	10170.76
894.657	10069.3
894.973	10063.65
895.289	10063.2
895.604	9998.56
895.92	9953.37
896.235	9926.02
896.55	9966.93
896.865	9905.23
897.181	9905.23
897.496	9814.61
897.811	9814.39
898.126	9744.33
898.441	9721.74
898.756	9669.53
899.071	9672.92
899.386	9669.08
899.7	9571.23
900.015	9499.37
900.33	9460.05
900.644	9440.61
900.959	9477.9
901.273	9412.37
901.588	9349.32
901.902	9306.83
902.216	9307.96
902.531	9329.88
902.845	9259.6
903.159	9206.5
903.473	9213.05
903.787	9104.8
904.101	9044.92
904.415	9133.5
904.729	9011.47
905.042	9036.78
905.356	8953.39
905.67	8955.2
905.984	8946.84
906.297	8879.72
906.611	8829.1
906.924	8832.49
907.237	8764.92
907.551	8779.16
907.864	8653.29
908.177	8672.72
908.491	8613.74
908.804	8608.54
909.117	8548.21
909.43	8460.07
909.743	8424.59
910.056	8478.83
910.368	8423.69
910.681	8412.39
910.994	8416.91
911.307	8341.21
911.619	8304.82
911.932	8307.31
912.244	8259.18
912.557	8211.27
912.869	8170.82
913.181	8101.67
913.494	8143.7
913.806	8064.15
914.118	8009.01
914.43	7980.76
914.742	8016.02
915.054	7925.85
915.366	7888.79
915.678	7850.37
915.99	7862.35
916.302	7764.95
916.613	7702.13
916.925	7696.48
917.236	7675.24
917.548	7658.74
917.859	7679.08
918.171	7554.11
918.482	7542.13
918.794	7531.06
919.105	7502.13
919.416	7425.53
919.727	7444.51
920.038	7402.25
920.349	7343.95
920.66	7312.08
920.971	7345.08
921.282	7307.34
921.593	7192.08
921.903	7190.5
922.214	7127
922.525	7156.83
922.835	7108.92
923.146	7085.65
923.456	7034.12
923.767	6995.71
924.077	7031.64
924.387	7005.2
924.697	6884.3
925.008	6980.34
925.318	6841.59
925.628	6895.6
925.938	6821.25
926.248	6787.35
926.558	6762.27
926.867	6700.57
927.177	6672.78
927.487	6665.32
927.796	6665.09
928.106	6620.57
928.416	6589.16
928.725	6555.94
929.034	6529.73
929.344	6541.48
929.653	6525.44
929.962	6449.51
930.271	6400.24
930.581	6376.74
930.89	6334.25
931.199	6376.51
931.508	6313.01
931.817	6271.88
932.125	6283.86
932.434	6268.49
932.743	6200.7
933.051	6231.43
933.36	6161.38
933.669	6072.79
933.977	6100.59
934.286	6073.92
934.594	6056.3
934.902	6022.85
935.21	5942.4
935.519	6036.86
935.827	6017.65
936.135	5885.9
936.443	5897.66
936.751	5862.4
937.059	5864.21
937.367	5771.33
937.674	5820.14
937.982	5723.65
938.29	5730.2
938.597	5746.93
938.905	5681.39
939.213	5632.8
939.52	5610.21
939.827	5641.17
940.135	5533.15
940.442	5520.04
940.749	5525.24
941.056	5527.04
941.363	5436.65
941.67	5491.11
941.977	5464.9
942.284	5417.89
942.591	5351.23
942.898	5341.96
943.205	5355.07
943.511	5309.2
943.818	5272.81
944.125	5259.48
944.431	5250.44
944.738	5257.9
945.044	5183.78
945.35	5191.01
945.657	5152.36
945.963	5116.66
946.269	5097.68
946.575	5118.24
946.881	5071.46
947.187	5067.85
947.493	5009.54
947.799	5029.43
948.105	4979.71
948.41	4943.1
948.716	4923.22
949.022	4836.89
949.327	4882.09
949.633	4783.79
949.938	4876.89
950.244	4854.75
950.549	4785.59
950.854	4764.58
951.16	4764.8
951.465	4712.38
951.77	4769.1
952.075	4680.06
952.38	4742.88
952.685	4680.51
952.99	4595.54
953.294	4639.38
953.599	4615.2
953.904	4530.23
954.209	4578.82
954.513	4590.8
954.818	4508.09
955.122	4497.69
955.426	4491.82
955.731	4443.46
956.035	4377.47
956.339	4441.42
956.643	4441.42
956.948	4376.79
957.252	4405.94
957.556	4336.11
957.86	4308.32
958.163	4304.25
958.467	4331.37
958.771	4233.52
959.075	4267.87
959.378	4214.76
959.682	4209.79
959.985	4179.51
960.289	4205.5
960.592	4161.66
960.896	4161.88
961.199	4173.63
961.502	4069.23
961.805	4073.52
962.108	4045.73
962.411	4049.34
962.714	4060.19
963.017	3993.98
963.32	4025.16
963.623	3970.93
963.926	3989.01
964.228	3912.85
964.531	3945.62
964.833	3944.49
965.136	3856.13
965.438	3884.15
965.741	3861.1
966.043	3880.31
966.345	3841.66
966.648	3792.85
966.95	3784.26
967.252	3759.86
967.554	3765.96
967.856	3769.35
968.158	3671.27
968.46	3732.74
968.761	3727.54
969.063	3682.8
969.365	3673.53
969.666	3655.45
969.968	3608
970.269	3620.2
970.571	3588.79
970.872	3560.99
971.174	3553.08
971.475	3561.9
971.776	3496.81
972.077	3494.33
972.378	3506.31
972.679	3524.38
972.98	3444.16
973.281	3422.01
973.582	3450.26
973.883	3451.84
974.183	3415.01
974.484	3427.44
974.785	3401.22
975.085	3407.78
975.386	3368.91
975.686	3333.2
975.986	3310.38
976.287	3347.67
976.587	3245.52
976.887	3276.93
977.187	3268.12
977.487	3263.83
977.787	3208.01
978.087	3255.01
978.387	3177.05
978.687	3213.66
978.987	3177.05
979.286	3163.94
979.586	3153.55
979.885	3133.43
980.185	3098.86
980.484	3104.73
980.784	3131.17
981.083	3085.98
981.382	3049.59
981.682	3069.03
981.981	3052.53
982.28	3040.78
982.579	3008.69
982.878	3011.18
983.177	2997.17
983.475	2971.86
983.774	2961.01
984.073	2952.2
984.372	2913.78
984.67	2869.26
984.969	2930.28
985.267	2911.07
985.566	2875.36
985.864	2852.54
986.162	2856.15
986.461	2847.34
986.759	2837.17
987.057	2799.66
987.355	2812.77
987.653	2795.82
987.951	2787
988.249	2777.74
988.547	2758.08
988.844	2728.93
989.142	2735.7
989.44	2728.47
989.737	2704.07
990.035	2704.97
990.332	2671.75
990.63	2649.38
990.927	2661.13
991.224	2665.88
991.521	2629.49
991.819	2621.58
992.116	2588.36
992.413	2609.38
992.71	2582.49
993.006	2566.9
993.303	2514.47
993.6	2525.31
993.897	2530.06
994.193	2542.26
994.49	2553.79
994.787	2461.36
995.083	2490.74
995.379	2457.75
995.676	2412.32
995.972	2422.94
996.268	2412.32
996.565	2401.93
996.861	2422.04
997.157	2407.8
997.453	2353.12
997.749	2349.95
998.044	2358.99
998.34	2340.24
998.636	2335.72
998.932	2314.93
999.227	2308.6
999.523	2302.72
999.818	2308.37
1000.114	2229.05
1000.409	2290.52
1000.704	2248.49
1001	2282.61
1001.295	2225.66
1001.59	2207.13
1001.885	2220.46
1002.18	2198.32
1002.475	2168.26
1002.77	2138.21
1003.065	2126.68
1003.359	2126.68
1003.654	2149.28
1003.949	2155.16
1004.243	2090.3
1004.538	2116.74
1004.832	2090.75
1005.127	2100.69
1005.421	2064.54
1005.715	2043.52
1006.009	2013.69
1006.304	2007.59
1006.598	2003.75
1006.892	2041.26
1007.186	2015.72
1007.48	1971.43
1007.773	1976.85
1008.067	1956.52
1008.361	1940.25
1008.655	1904.54
1008.948	1928.72
1009.242	1927.36
1009.535	1894.15
1009.829	1888.95
1010.122	1903.64
1010.415	1894.37
1010.708	1843.98
1011.001	1842.85
1011.295	1838.1
1011.588	1855.5
1011.881	1813.24
1012.173	1788.39
1012.466	1795.62
1012.759	1792.23
1013.052	1782.74
1013.344	1769.63
1013.637	1768.72
1013.93	1749.52
1014.222	1739.12
1014.514	1741.61
1014.807	1717.2
1015.099	1731.66
1015.391	1700.25
1015.683	1686.69
1015.976	1676.52
1016.268	1687.82
1016.56	1644.66
1016.851	1636.07
1017.143	1660.48
1017.435	1630.2
1017.727	1625.23
1018.018	1588.16
1018.31	1587.26
1018.602	1604.21
1018.893	1571.89
1019.185	1557.88
1019.476	1530.76
1019.767	1527.15
1020.058	1545.45
1020.35	1494.16
1020.641	1540.71
1020.932	1509.75
1021.223	1496.42
1021.514	1480.14
1021.804	1479.69
1022.095	1484.66
1022.386	1441.95
1022.677	1423.65
1022.967	1432.46
1023.258	1404.67
1023.548	1397.89
1023.839	1394.05
1024.129	1378.68
1024.419	1361.5
1024.709	1396.31
1025	1386.59
1025.29	1357.89
1025.58	1334.84
1025.87	1339.58
1026.16	1334.84
1026.449	1338.68
1026.739	1348.4
1027.029	1304.56
1027.319	1292.8
1027.608	1305.46
1027.898	1285.57
1028.187	1265.01
1028.477	1251.22
1028.766	1269.98
1029.055	1259.36
1029.344	1208.97
1029.634	1237.89
1029.923	1229.08
1030.212	1217.78
1030.501	1205.8
1030.79	1177.78
1031.078	1184.33
1031.367	1194.05
1031.656	1177.1
1031.945	1163.54
1032.233	1186.59
1032.522	1173.49
1032.81	1132.13
1033.099	1138.91
1033.387	1135.97
1033.675	1113.15
1033.963	1148.63
1034.251	1116.09
1034.54	1088.74
1034.828	1079.48
1035.116	1087.39
1035.403	1078.8
1035.691	1063.43
1035.979	1069.99
1036.267	1026.6
1036.554	1035.86
1036.842	1049.65
1037.129	1028.63
1037.417	1021.17
1037.704	1039.25
1037.992	1037.67
1038.279	1015.3
1038.566	1006.48
1038.853	1006.48
1039.14	1006.48
