Data from White_paper_FLMS001491_004.txt Node
Date: Tue Feb 07 10:34:34 GMT 2017
User: dcchb
Spectrometer: FLMS00149
Trigger mode: 0
Integration Time (sec): 2.000000E-2
Scans to average: 10
Electric dark correction enabled: true
Nonlinearity correction enabled: false
Boxcar width: 0
XAxis mode: Wavelengths
Number of Pixels in Spectrum: 2048
>>>>>Begin Spectral Data<<<<<
341.393	9.76
341.776	9.76
342.16	9.76
342.543	-59.84
342.927	-57.36
343.31	-70.24
343.693	-80.63
344.077	-90.12
344.46	-49.67
344.843	-56
345.226	-55.55
345.61	-8.09
345.993	-20.75
346.376	-9.9
346.759	29.87
347.142	25.35
347.525	41.17
347.908	58.12
348.291	87.72
348.674	106.48
349.057	92.24
349.44	109.87
349.823	139.02
350.206	173.15
350.588	225.12
350.971	249.98
351.354	249.98
351.737	265.35
352.119	295.63
352.502	302.63
352.884	291.79
353.267	300.37
353.65	304.89
354.032	334.95
354.414	323.65
354.797	334.5
355.179	342.18
355.562	343.99
355.944	344.44
356.326	344.67
356.709	360.71
357.091	374.04
357.473	369.52
357.855	378.34
358.238	367.04
358.62	381.05
359.002	374.27
359.384	377.66
359.766	392.8
360.148	372.01
360.53	383.31
360.912	364.55
361.294	374.5
361.676	377.21
362.057	371.11
362.439	368.17
362.821	373.59
363.203	362.74
363.584	353.93
363.966	383.31
364.348	385.57
364.729	355.51
365.111	360.26
365.493	364.1
365.874	371.56
366.256	367.04
366.637	350.09
367.019	360.48
367.4	376.08
367.781	356.87
368.163	348.06
368.544	373.82
368.925	356.87
369.306	363.65
369.688	354.61
370.069	341.5
370.45	362.29
370.831	369.75
371.212	365.23
371.593	384.44
371.974	357.77
372.355	365.46
372.736	377.21
373.117	378.56
373.498	373.82
373.879	366.81
374.26	359.58
374.641	377.43
375.021	367.04
375.402	370.43
375.783	367.49
376.163	388.73
376.544	390.31
376.925	373.82
377.305	381.95
377.686	384.89
378.066	412.91
378.447	404.55
378.827	385.57
379.208	404.33
379.588	388.96
379.968	389.18
380.349	407.94
380.729	411.56
381.109	408.62
381.489	401.84
381.87	407.04
382.25	417.66
382.63	422.18
383.01	446.13
383.39	416.98
383.77	440.71
384.15	438.45
384.53	436.19
384.91	456.08
385.29	447.49
385.67	448.39
386.049	455.17
386.429	458.11
386.809	464.66
387.189	451.78
387.568	468.73
387.948	468.05
388.328	450.65
388.707	464.21
389.087	483.19
389.466	485.91
389.846	473.93
390.225	489.97
390.605	484.1
390.984	497.2
391.363	499.69
391.743	526.36
392.122	538.79
392.501	526.13
392.881	523.64
393.26	549.63
393.639	537.88
394.018	558.22
394.397	553.7
394.776	545.79
395.155	566.81
395.534	584.21
395.913	553.47
396.292	583.3
396.671	571.55
397.05	585.34
397.429	587.37
397.808	613.36
398.186	603.64
398.565	598.44
398.944	622.4
399.323	598.22
399.701	634.38
400.08	621.72
400.458	647.71
400.837	647.93
401.215	645
401.594	660.82
401.972	652.23
402.351	670.08
402.729	675.28
403.107	713.92
403.486	714.15
403.864	699.46
404.242	741.72
404.62	714.83
404.999	748.95
405.377	787.14
405.755	776.07
406.133	802.96
406.511	828.72
406.889	856.74
407.267	860.58
407.645	873.24
408.023	885.22
408.401	899.68
408.779	916.85
409.156	943.75
409.534	952.56
409.912	1003.41
410.29	1034.37
410.667	1048.38
411.045	1081.14
411.422	1074.14
411.8	1108.94
412.178	1140.58
412.555	1155.94
412.933	1188.03
413.31	1246.79
413.687	1240.01
414.065	1278.43
414.442	1267.13
414.819	1322.95
415.197	1351.19
415.574	1379.22
415.951	1398.2
416.328	1425.99
416.705	1494.92
417.082	1502.15
417.46	1522.94
417.837	1544.86
418.214	1545.09
418.591	1589.38
418.967	1590.96
419.344	1646.55
419.721	1675.03
420.098	1700.34
420.475	1693.33
420.852	1742.37
421.228	1785.31
421.605	1795.25
421.982	1814.23
422.358	1850.39
422.735	1869.37
423.111	1879.09
423.488	1938.97
423.864	1961.57
424.241	1995.24
424.617	2009.71
424.994	2039.31
425.37	2028.01
425.746	2056.26
426.123	2114.56
426.499	2123.38
426.875	2159.53
427.251	2225.07
427.627	2284.5
428.003	2247.44
428.379	2317.27
428.756	2312.07
429.132	2366.99
429.507	2402.24
429.883	2416.02
430.259	2505.74
430.635	2484.04
431.011	2530.15
431.387	2587.77
431.763	2622.8
432.138	2626.87
432.514	2698.73
432.89	2709.35
433.265	2777.37
433.641	2811.95
434.016	2842
434.392	2929.91
434.767	2944.15
435.143	2973.3
435.518	3013.97
435.894	3048.32
436.269	3070.02
436.644	3124.48
437.02	3177.36
437.395	3181.65
437.77	3225.72
438.145	3297.58
438.52	3279.96
438.895	3329.67
439.271	3355.66
439.646	3461.42
440.021	3444.92
440.395	3449.9
440.77	3452.83
441.145	3512.04
441.52	3561.08
441.895	3583
442.27	3591.13
442.645	3587.07
443.019	3667.06
443.394	3635.88
443.769	3693.5
444.143	3651.7
444.518	3740.51
444.892	3738.93
445.267	3766.05
445.641	3818.7
446.016	3822.77
446.39	3844.01
446.764	3885.82
447.139	3882.43
447.513	3933.27
447.887	3898.02
448.262	3941.63
448.636	3997.45
449.01	4060.95
449.384	4066.6
449.758	4098.01
450.132	4115.64
450.506	4211.46
450.88	4211.23
451.254	4228.63
451.628	4253.04
452.002	4307.95
452.376	4323.09
452.75	4398.34
453.123	4443.54
453.497	4488.51
453.871	4499.36
454.244	4644.67
454.618	4665
454.992	4700.71
455.365	4685.12
455.739	4818.67
456.112	4833.36
456.486	4867.26
456.859	4935.05
457.232	5027.03
457.606	5036.97
457.979	5126.91
458.352	5229.74
458.725	5259.34
459.099	5292.78
459.472	5439.9
459.845	5411.43
460.218	5509.95
460.591	5533.46
460.964	5570.74
461.337	5700.68
461.71	5779.33
462.083	5896.61
462.456	5858.87
462.829	5941.81
463.201	6034.46
463.574	6066.55
463.947	6125.98
464.32	6313.77
464.692	6344.28
465.065	6351.74
465.438	6457.05
465.81	6556.48
466.183	6683.48
466.555	6762.12
466.928	6832.41
467.3	6832.86
467.672	6908.79
468.045	7085.28
468.417	7143.13
468.789	7112.62
469.161	7282.79
469.534	7377.93
469.906	7562.78
470.278	7589.45
470.65	7709.22
471.022	7804.36
471.394	8010.68
471.766	8026.72
472.138	8146.04
472.51	8314.85
472.882	8444.34
473.253	8538.35
473.625	8715.75
473.997	8754.39
474.369	8862.63
474.74	8997.32
475.112	9169.29
475.484	9366.35
475.855	9530.87
476.227	9566.12
476.598	9863.06
476.97	9956.39
477.341	10159.78
477.713	10308.25
478.084	10369.49
478.455	10693.77
478.827	10750.04
479.198	11059.41
479.569	11048.34
479.94	11350.03
480.311	11466.86
480.682	11643.58
481.053	11964.93
481.424	12068.43
481.795	12258.25
482.166	12419.15
482.537	12606.49
482.908	12900.04
483.279	12964.22
483.65	13212.58
484.021	13481.04
484.391	13606.01
484.762	13736.63
485.133	13947.02
485.503	14037.87
485.874	14300.68
486.244	14414.58
486.615	14696.38
486.985	14935.92
487.356	15155.58
487.726	15321.45
488.097	15676.24
488.467	15664.49
488.837	15968.89
489.207	16149.9
489.578	16456.56
489.948	16612.03
490.318	16720.05
490.688	16781.75
491.058	17035.53
491.428	17331.56
491.798	17529.07
492.168	17811.33
492.538	17861.27
492.908	17972.23
493.278	18191.65
493.648	18325.66
494.017	18572.66
494.387	18763.16
494.757	18794.58
495.126	19216.49
495.496	19042.48
495.866	19223.94
496.235	19582.35
496.605	19665.51
496.974	19836.58
497.344	19900.08
497.713	20071.15
498.082	20132.39
498.452	20383.01
498.821	20471.14
499.19	20545.04
499.559	20807.18
499.928	20933.05
500.298	20963.78
500.667	21200.84
501.036	21253.04
501.405	21391.34
501.774	21392.7
502.143	21677.44
502.512	21841.95
502.88	21943.19
503.249	21982.52
503.618	22214.15
503.987	22289.63
504.356	22355.84
504.724	22491.43
505.093	22743.17
505.462	22738.43
505.83	23022.04
506.199	23191.52
506.567	23420.22
506.936	23525.3
507.304	23633.32
507.672	23715.35
508.041	23964.61
508.409	24136.13
508.777	24238.5
509.145	24382.23
509.514	24344.26
509.882	24664.48
510.25	24832.84
510.618	24939.5
510.986	24942.21
511.354	25198.02
511.722	25551.23
512.09	25737.9
512.458	25542.87
512.826	25920.49
513.193	25998.68
513.561	26158.68
513.929	26283.65
514.297	26508.72
514.664	26714.59
515.032	26881.37
515.4	27137.63
515.767	27102.61
516.135	27326.33
516.502	27294.92
516.869	27684.51
517.237	27760.22
517.604	27694
517.972	27991.85
518.339	28261.45
518.706	28423.7
519.073	28517.03
519.44	28647.88
519.808	28896.23
520.175	29001.09
520.542	29451.92
520.909	29575.76
521.276	29416.67
521.643	29897.34
522.009	29941.63
522.376	30304.1
522.743	30350.43
523.11	30718.56
523.477	30978.89
523.843	31196.28
524.21	31509.95
524.577	31718.98
524.943	31782.48
525.31	31937.73
525.676	32221.12
526.043	32348.12
526.409	32504.95
526.776	32905.17
527.142	32984.49
527.508	33122.34
527.874	33433.51
528.241	33730.68
528.607	33627.63
528.973	34081.63
529.339	34048.19
529.705	34406.14
530.071	34696.76
530.437	34864.44
530.803	34947.15
531.169	35307.14
531.535	35210.87
531.901	35411.77
532.267	35529.05
532.632	35829.83
532.998	35926.78
533.364	36072.54
533.73	36155.02
534.095	36459.42
534.461	36582.58
534.826	36755.01
535.192	36835.23
535.557	37126.75
535.923	37136.69
536.288	37339.63
536.653	37530.81
537.019	37393.41
537.384	37752.04
537.749	37816.22
538.114	37939.84
538.479	38181.64
538.845	38321.75
539.21	38249.66
539.575	38587.73
539.94	38479.48
540.305	38833.37
540.67	38697.56
541.034	39160.37
541.399	39121.5
541.764	39365.56
542.129	39411.66
542.494	39532.34
542.858	39686.91
543.223	39727.13
543.587	39991.76
543.952	39999.67
544.316	40209.15
544.681	40081.25
545.045	40462.71
545.41	40681.68
545.774	40716.03
546.138	40736.15
546.503	40852.08
546.867	40833.09
547.231	41228.11
547.595	41352.4
547.959	41458.39
548.324	41552.17
548.688	41581.77
549.052	41903.8
549.416	41877.59
549.779	42043.68
550.143	42116.45
550.507	42317.12
550.871	42563.44
551.235	42520.96
551.599	42826.26
551.962	42875.75
552.326	42982.19
552.689	43172.69
553.053	43073.03
553.417	43317.1
553.78	43736.52
554.143	43675.28
554.507	43749.85
554.87	43790.08
555.234	44235.49
555.597	44062.61
555.96	44302.38
556.323	44480.68
556.686	44512.09
557.05	44860.56
557.413	44780.33
557.776	45071.4
558.139	45234.33
558.502	45178.74
558.865	45458.73
559.228	45613.31
559.59	45840.87
559.953	45755.22
560.316	46399.05
560.679	46220.07
561.041	46493.06
561.404	46647.86
561.767	46908.87
562.129	46758.81
562.492	47254.17
562.854	47193.6
563.217	47253.26
563.579	47522.86
563.941	47699.81
564.304	47696.19
564.666	48054.15
565.028	48112.68
565.39	48232.45
565.753	48400.8
566.115	48665.88
566.477	48711.3
566.839	48895.03
567.201	49149.71
567.563	49122.82
567.925	49412.08
568.287	49423.15
568.648	49410.72
569.01	49643.26
569.372	50019.74
569.734	49753.76
570.095	50050.7
570.457	50328.89
570.819	50415.44
571.18	50399.17
571.542	50698.14
571.903	50599.39
572.265	50687.52
572.626	50861.76
572.987	50996.44
573.349	51105.37
573.71	51280.95
574.071	51353.27
574.432	51457.45
574.794	51620.61
575.155	51629.19
575.516	51479.14
575.877	51657.89
576.238	51860.83
576.599	51871.22
576.96	52003.42
577.32	52008.62
577.681	52123.42
578.042	52236.63
578.403	52247.26
578.763	52332.23
579.124	52330.87
579.485	52547.81
579.845	52550.98
580.206	52591.2
580.566	52613.35
580.927	52619.9
581.287	52769.95
581.648	52661.48
582.008	52818.31
582.368	52809.95
582.728	52910.97
583.089	52802.95
583.449	52869.16
583.809	52982.83
584.169	52929.95
584.529	52877.52
584.889	53219.66
585.249	53110.96
585.609	53005.2
585.969	53164.29
586.329	53030.06
586.688	53178.76
587.048	53170.85
587.408	53066.22
587.768	53083.39
588.127	53176.95
588.487	53187.34
588.846	53375.14
589.206	53147.8
589.565	53136.05
589.925	53307.57
590.284	53291.07
590.643	53342.37
591.003	53450.39
591.362	53582.36
591.721	53437.73
592.08	53512.31
592.44	53550.95
592.799	53486.55
593.158	53486.32
593.517	53528.8
593.876	53660.78
594.235	53525.41
594.593	53526.77
594.952	53673.43
595.311	53572.87
595.67	53699.87
596.029	53862.81
596.387	53898.74
596.746	53879.53
597.104	53692.42
597.463	53872.3
597.822	53919.75
598.18	53742.81
598.538	53785.97
598.897	53964.73
599.255	53665.3
599.613	54223.25
599.972	53973.31
600.33	54060.32
600.688	53910.49
601.046	53964.05
601.404	54202.01
601.762	54176.47
602.12	54258.73
602.478	54181.44
602.836	54164.04
603.194	54119.3
603.552	54188.45
603.91	54141.9
604.268	54269.8
604.625	54154.32
604.983	54313.64
605.341	54218.96
605.698	54246.3
606.056	54420.53
606.413	54433.41
606.771	54400.65
607.128	54480.19
607.485	54414.66
607.843	54344.83
608.2	54564.94
608.557	54719.96
608.914	54494.65
609.272	54665.95
609.629	54767.64
609.986	54782.33
610.343	54642.9
610.7	54831.37
611.057	54826.4
611.414	54757.7
611.771	54890.35
612.127	54914.76
612.484	54863.46
612.841	54991.14
613.198	54812.39
613.554	54870.24
613.911	55060.06
614.267	55004.02
614.624	54967.86
614.98	55074.3
615.337	55183.9
615.693	55056.9
616.05	55104.81
616.406	55270.23
616.762	55125.6
617.118	55212.83
617.475	55178.48
617.831	55210.57
618.187	55230.68
618.543	55262.32
618.899	55399.49
619.255	55382.99
619.611	55282.43
619.967	55472.71
620.323	55420.96
620.678	55360.39
621.034	55393.61
621.39	55380.73
621.746	55390
622.101	55582.76
622.457	55451.24
622.812	55357.91
623.168	55516.77
623.523	55513.61
623.879	55597.45
624.234	55364.91
624.589	55455.76
624.945	55535.76
625.3	55484.23
625.655	55460.73
626.01	55529.2
626.365	55527.4
626.72	55511.35
627.075	55440.39
627.43	55480.84
627.785	55468.41
628.14	55492.37
628.495	55524.23
628.85	55467.96
629.205	55490.56
629.559	55532.37
629.914	55402.65
630.269	55396.1
630.623	55364.91
630.978	55368.53
631.332	55503.22
631.687	55514.06
632.041	55412.37
632.396	55425.93
632.75	55342.09
633.104	55372.15
633.459	55295.31
633.813	55273.84
634.167	55316.78
634.521	55217.57
634.875	55374.63
635.229	55303.9
635.583	55138.93
635.937	55188.65
636.291	55139.84
636.645	55218.48
636.999	55095.54
637.352	55233.39
637.706	55121.08
638.06	55156.56
638.413	55051.02
638.767	55068.2
639.121	55124.47
639.474	54895.77
639.828	55024.58
640.181	55080.63
640.534	55011.25
640.888	54979.39
641.241	54811.71
641.594	54941.87
641.947	54960.63
642.301	54965.38
642.654	54943.68
643.007	54896.45
643.36	54879.05
643.713	54898.71
644.066	54923.8
644.419	54795.44
644.771	54585.27
645.124	54324.49
645.477	54307.99
645.83	54126.53
646.182	54056.25
646.535	53922.24
646.888	54010.83
647.24	53821.23
647.593	54087.89
647.945	53949.36
648.298	53856.48
648.65	53820.55
649.002	53717.5
649.355	53878.17
649.707	53814.45
650.059	53956.14
650.411	54335.79
650.763	54392.74
651.115	54613.75
651.467	54511.38
651.819	54526.29
652.171	54463.24
652.523	54394.77
652.875	54405.84
653.227	54358.16
653.578	54488.55
653.93	54429.12
654.282	54391.61
654.633	54122.91
654.985	54337.6
655.337	54322.91
655.688	54369.69
656.039	54461.89
656.391	54177.37
656.742	54205.62
657.094	54186.64
657.445	54368.56
657.796	54291.5
658.147	54256.47
658.498	54214.44
658.849	54194.32
659.2	54182.8
659.551	54080.65
659.902	54172.63
660.253	54133.76
660.604	54191.39
660.955	53955.46
661.306	54244.27
661.656	54094.67
662.007	54095.34
662.358	54095.34
662.708	54006.98
663.059	54056.93
663.409	53864.39
663.76	54119.3
664.11	54047.43
664.461	54058.73
664.811	54045.17
665.161	53970.6
665.511	53905.07
665.862	54005.18
666.212	54067.77
666.562	54105.74
666.912	53950.26
667.262	53884.28
667.612	53930.38
667.962	53988.45
668.312	53887.44
668.662	53943.26
669.011	53834.79
669.361	53825.07
669.711	53831.17
670.06	53705.52
670.41	53719.76
670.76	53674.56
671.109	53825.97
671.459	53680.66
671.808	53675.92
672.157	53632.08
672.507	53520.89
672.856	53446.77
673.205	53596.83
673.554	53590.27
673.904	53576.03
674.253	53681.34
674.602	53540.1
674.951	53097.4
675.3	52970.4
675.649	53394.12
675.998	53435.93
676.346	53423.95
676.695	53470.27
677.044	53243.39
677.393	53350.05
677.741	53324.74
678.09	53256.95
678.438	53185.31
678.787	53145.99
679.135	53238.64
679.484	52946.9
679.832	53059.44
680.181	52859.9
680.529	52993.45
680.877	52906.22
681.225	52861.7
681.573	52943.74
681.922	52749.84
682.27	52604.76
682.618	52718.2
682.966	52639.11
683.314	52642.27
683.661	52512.56
684.009	52364.54
684.357	52350.53
684.705	52335.84
685.053	52240.7
685.4	52247.71
685.748	52032.12
686.095	52063.53
686.443	51949.18
686.79	51897.66
687.138	51895.85
687.485	51804.56
687.832	51593.26
688.18	51796.19
688.527	51515.07
688.874	51563.43
689.221	51488.41
689.568	51280.95
689.915	51241.41
690.262	51157.12
690.609	51052.26
690.956	51068.08
691.303	51025.14
691.65	50847.74
691.997	50800.29
692.344	50576.79
692.69	50567.75
693.037	50601.88
693.383	50250.02
693.73	50443.01
694.077	50257.03
694.423	50105.62
694.769	50132.96
695.116	49971.16
695.462	49954.66
695.808	49828.56
696.155	49891.39
696.501	49583.37
696.847	49573.88
697.193	49446.88
697.539	49418.63
697.885	49081.69
698.231	49076.27
698.577	49096.83
698.923	49131.86
699.269	48787.23
699.614	48632.21
699.96	48529.84
700.306	48636.28
700.651	48284.87
700.997	48427.7
701.342	48270.41
701.688	48197.19
702.033	48003.07
702.379	48062.96
702.724	48008.5
703.069	48136.18
703.415	47573.71
703.76	47626.13
704.105	47569.19
704.45	47440.38
704.795	47295.3
705.14	47188.63
705.485	47094.85
705.83	46974.17
706.175	47053.27
706.52	46904.57
706.865	46873.61
707.209	46688.08
707.554	46476.56
707.899	46581.87
708.243	46297.81
708.588	46267.75
708.932	46089.45
709.277	46017.36
709.621	46056.46
709.966	45818.05
710.31	45964.26
710.654	45458.51
710.998	45716.13
711.342	45791.38
711.687	45579.18
712.031	45263.48
712.375	45193.88
712.719	45354.78
713.063	45169.25
713.407	45388.45
713.75	45129.48
714.094	45099.42
714.438	44867.34
714.782	44926.77
715.125	44712.99
715.469	44689.26
715.812	44499.89
716.156	44334.7
716.499	44401.81
716.843	44367.01
717.186	44107.58
717.53	44268.03
717.873	44186.23
718.216	44179.67
718.559	44073.69
718.902	43852.67
719.246	43811.32
719.589	43724.32
719.932	43505.79
720.275	43525.45
720.617	43455.85
720.96	43396.19
721.303	43389.86
721.646	43415.17
721.989	43176.76
722.331	43337.43
722.674	43128.85
723.016	43166.36
723.359	43079.81
723.701	42999.59
724.044	42862.19
724.386	42665.14
724.729	42830.33
725.071	42641.63
725.413	42667.4
725.755	42711.91
726.097	42442.77
726.439	42280.96
726.782	42471.24
727.124	42562.09
727.465	42234.19
727.807	42221.53
728.149	42113.29
728.491	41974.76
728.833	42022.44
729.175	41948.77
729.516	41874.87
729.858	41840.75
730.199	41822.9
730.541	41668.55
730.882	41683.92
731.224	41668.1
731.565	41467.88
731.906	41602.79
732.248	41504.71
732.589	41452.96
732.93	41193.54
733.271	41201.67
733.612	41207.09
733.953	41330.03
734.294	41177.49
734.635	41005.52
734.976	41085.74
735.317	40872.41
735.658	40899.76
735.999	40912.86
736.339	40839.87
736.68	40902.92
737.021	40710.84
737.361	40558.98
737.702	40906.76
738.042	40578.18
738.383	40434.69
738.723	40471.07
739.063	40401.69
739.404	40376.16
739.744	40355.82
740.084	40074.02
740.424	40147.46
740.764	40003.74
741.104	40174.35
741.444	39966.9
741.784	39897.52
742.124	40024.75
742.464	39953.12
742.804	39705.21
743.143	39808.26
743.483	39833.8
743.823	39583.63
744.162	39631.54
744.502	39492.34
744.841	39442.85
745.181	39415.73
745.52	39356.97
745.86	39396.52
746.199	39152.46
746.538	39210.99
746.877	39357.43
747.216	39243.3
747.556	39144.32
747.895	39077.43
748.234	38951.33
748.573	38924.22
748.911	38805.12
749.25	38579.82
749.589	38582.98
749.928	38605.81
750.267	38781.17
750.605	38532.36
750.944	38520.61
751.283	38471.8
751.621	38456.43
751.96	38255.53
752.298	38276.32
752.636	38210.34
752.975	37995.2
753.313	37969.89
753.651	38107.29
753.989	37775.77
754.327	37866.84
754.666	37590.47
755.004	37605.61
755.342	37648.09
755.679	37551.6
756.017	37296.24
756.355	37511.6
756.693	37279.97
757.031	37287.65
757.368	37100.08
757.706	36962.46
758.044	36877.72
758.381	36916.81
758.719	36759.08
759.056	36846.08
759.394	36652.86
759.731	36305.3
760.068	36336.49
760.405	36380.1
760.743	36104.4
761.08	36203.84
761.417	35966.78
761.754	35920.91
762.091	35829.83
762.428	35748.93
762.765	35618.54
763.102	35637.07
763.438	35483.63
763.775	35333.35
764.112	35442.27
764.449	35215.39
764.785	34956.64
765.122	34938.11
765.458	34745.34
765.795	34731.56
766.131	34700.6
766.467	34526.59
766.804	34447.5
767.14	34333.15
767.476	34229.88
767.812	34134.51
768.148	34050.9
768.485	33855.2
768.821	33748.99
769.157	33654.3
769.492	33575.43
769.828	33546.28
770.164	33222.22
770.5	33221.09
770.836	33181.99
771.171	33007.08
771.507	33051.38
771.842	32715.34
772.178	32595.12
772.513	32480.77
772.849	32531.62
773.184	32391.96
773.519	32293.2
773.855	32128.46
774.19	32007.11
774.525	31928.24
774.86	31954.68
775.195	31835.36
775.53	31626.56
775.865	31455.49
776.2	31281.93
776.535	31130.3
776.87	31085.78
777.205	31008.27
777.539	30745.45
777.874	30956.97
778.209	30714.26
778.543	30469.3
778.878	30385.91
779.212	30417.55
779.547	30276.53
779.881	30321.28
780.215	29990.89
780.55	30123.77
780.884	29924.68
781.218	29851.46
781.552	29857.56
781.886	29683.1
782.22	29446.73
782.554	29411.7
782.888	29148.88
783.222	29061.2
783.556	28979.85
783.889	28903.69
784.223	28722.45
784.557	28672.51
784.89	28780.53
785.224	28561.1
785.557	28479.07
785.891	28304.83
786.224	28248.11
786.558	28162.69
786.891	28023.49
787.224	27808.58
787.557	27894
787.891	27808.58
788.224	27621.24
788.557	27606.77
788.89	27449.26
789.223	27584.18
789.556	27312.54
789.888	27237.52
790.221	27146.9
790.554	26978.77
790.887	26843.86
791.219	26892.67
791.552	26644.54
791.884	26516.41
792.217	26525.67
792.549	26420.14
792.882	26310.76
793.214	26196.64
793.546	26281.16
793.879	26063.54
794.211	26050.2
794.543	25995.07
794.875	25958
795.207	25882.53
795.539	25745.58
795.871	25633.94
796.203	25535.19
796.535	25300.62
796.867	25325.48
797.198	25225.37
797.53	25254.75
797.862	25013.4
798.193	25094.52
798.525	24871.93
798.856	24971.36
799.188	24707.42
799.519	24722.1
799.85	24503.58
800.182	24517.82
800.513	24448.67
800.844	24326.41
801.175	24348.78
801.506	24342
801.837	24199.63
802.168	24189.91
802.499	24067.21
802.83	23954.21
803.161	23956.93
803.491	23801.68
803.822	23830.6
804.153	23634
804.483	23613.21
804.814	23483.94
805.145	23425.64
805.475	23439.2
805.805	23366.66
806.136	23283.05
806.466	23288.7
806.796	23265.19
807.126	22997.4
807.457	23031.98
807.787	23000.12
808.117	22955.37
808.447	22784.08
808.777	22728.03
809.107	22732.78
809.436	22638.32
809.766	22642.16
810.096	22466.34
810.426	22464.76
810.755	22256.41
811.085	22410.53
811.414	22275.84
811.744	22133.25
812.073	22017.54
812.403	22171.66
812.732	21964.21
813.061	21978.9
813.39	21808.96
813.719	21818.23
814.049	21873.14
814.378	21789.75
814.707	21601.28
815.036	21661.62
815.365	21558.8
815.693	21385.92
816.022	21320.16
816.351	21358.8
816.68	21167.62
817.008	21378.46
817.337	21114.74
817.665	21090.11
817.994	21137.34
818.322	21186.6
818.651	21013.28
818.979	20961.98
819.307	20912.26
819.636	21004.91
819.964	20770.12
820.292	20807.86
820.62	20729.67
820.948	20658.48
821.276	20814.86
821.604	20754.07
821.932	20691.02
822.259	20751.59
822.587	20718.59
822.915	20686.73
823.243	20670.46
823.57	20640.18
823.898	20724.92
824.225	20525.6
824.553	20632.27
824.88	20589.56
825.207	20700.74
825.535	20677.92
825.862	20750.68
826.189	20618.71
826.516	20620.97
826.843	20720.18
827.17	20656
827.497	20621.42
827.824	20550.01
828.151	20703.23
828.478	20684.47
828.805	20697.8
829.131	20624.58
829.458	20566.73
829.785	20412.39
830.111	20567.41
830.438	20653.74
830.764	20578.26
831.09	20543.01
831.417	20364.93
831.743	20549.33
832.069	20510.01
832.395	20359.51
832.722	20400.41
833.048	20413.74
833.374	20383.01
833.7	20247.65
834.026	20337.81
834.351	20350.02
834.677	20277.93
835.003	20469.33
835.329	20328.32
835.654	20278.15
835.98	20225.05
836.306	20197.93
836.631	20232.5
836.956	20036.35
837.282	20171.04
837.607	20035
837.932	19955.22
838.258	20046.97
838.583	20048.33
838.908	19848.56
839.233	19942.12
839.558	19910.03
839.883	19747.55
840.208	19644.72
840.533	19712.97
840.858	19636.14
841.182	19693.08
841.507	19631.16
841.832	19499.19
842.156	19613.09
842.481	19519.08
842.805	19408.57
843.13	19330.38
843.454	19468.68
843.778	19388.91
844.103	19244.51
844.427	19215.13
844.751	19243.38
845.075	19167.22
845.399	19059.2
845.723	18957.06
846.047	19079.31
846.371	18856.95
846.695	18893.1
847.019	18554.36
847.343	18652.66
847.666	18529.27
847.99	18429.61
848.313	18457.41
848.637	18257.19
848.96	18241.37
849.284	18250.86
849.607	18112.11
849.931	18082.05
850.254	17964.54
850.577	17858.78
850.9	17783.3
851.223	17671.89
851.546	17600.94
851.869	17396.65
852.192	17678.22
852.515	17434.16
852.838	17395.07
853.161	17386.48
853.483	17317.78
853.806	17210.66
854.129	17093.15
854.451	16988.52
854.774	17001.63
855.096	16946.04
855.419	17015.64
855.741	16873.72
856.063	16795.76
856.385	16730.9
856.708	16643.67
857.03	16634.41
857.352	16615.88
857.674	16489.33
857.996	16470.57
858.318	16380.85
858.64	16380.85
858.961	16398.03
859.283	16398.26
859.605	16210.69
859.926	16365.49
860.248	16221.31
860.57	16122.78
860.891	16133.86
861.212	16044.82
861.534	16081.2
861.855	15960.98
862.176	15992.16
862.498	15944.48
862.819	16001.43
863.14	15910.81
863.461	15913.75
863.782	15828.78
864.103	15761.89
864.424	15725.96
864.745	15769.8
865.065	15717.82
865.386	15738.39
865.707	15656.58
866.027	15692.51
866.348	15588.11
866.668	15630.14
866.989	15520.99
867.309	15372.97
867.63	15461.1
867.95	15406.42
868.27	15329.13
868.59	15330.26
868.91	15352.18
869.23	15337.27
869.55	15226.99
869.87	15316.93
870.19	15191.96
870.51	15275.57
870.83	15258.85
871.15	15136.14
871.469	15151.06
871.789	15189.93
872.109	15044.84
872.428	15057.95
872.748	15087.33
873.067	15083.94
873.386	14980.67
873.706	14980.21
874.025	14886.2
874.344	14858.41
874.663	14906.32
874.982	14864.51
875.301	14900.89
875.62	14790.39
875.939	14751.29
876.258	14782.03
876.577	14709.03
876.896	14712.42
877.214	14572.54
877.533	14662.48
877.852	14675.14
878.17	14610.51
878.489	14607.79
878.807	14573.44
879.125	14509.94
879.444	14535.71
879.762	14543.39
880.08	14497.97
880.398	14390.17
880.716	14289.38
881.034	14264.3
881.352	14333.45
881.67	14271.98
881.988	14217.97
882.306	14300.68
882.624	14176.17
882.941	14125.55
883.259	14131.2
883.577	14086
883.894	14161.93
884.212	14021.59
884.529	13989.28
884.846	13894.14
885.164	13942.73
885.481	13901.15
885.798	13946.34
886.115	13805.1
886.432	13822.28
886.75	13775.73
887.067	13785.67
887.383	13632.68
887.7	13725.78
888.017	13639.46
888.334	13615.28
888.651	13572.34
888.967	13466.58
889.284	13493.7
889.6	13476.3
889.917	13378.45
890.233	13402.18
890.55	13330.09
890.866	13251.45
891.182	13217.1
891.498	13204.21
891.815	13191.33
892.131	13109.08
892.447	13114.27
892.763	13054.84
893.079	13005.58
893.395	12910.21
893.71	12956.31
894.026	12971
894.342	12892.13
894.657	12785.47
894.973	12794.51
895.289	12726.71
895.604	12790.44
895.92	12580.73
896.235	12583.67
896.55	12630.44
896.865	12580.05
897.181	12520.17
897.496	12524.23
897.811	12400.17
898.126	12352.49
898.441	12321.75
898.756	12314.75
899.071	12238.82
899.386	12199.95
899.7	12120.4
900.015	12078.37
900.33	11980.07
900.644	11909.33
900.959	11980.97
901.273	11964.02
901.588	11835.21
901.902	11778.94
902.216	11781.43
902.531	11778.26
902.845	11765.16
903.159	11600.87
903.473	11570.81
903.787	11560.64
904.101	11576.01
904.415	11505.28
904.729	11468.67
905.042	11416.69
905.356	11397.71
905.67	11263.48
905.984	11284.94
906.297	11180.99
906.611	11150.03
906.924	11137.83
907.237	11179.64
907.551	11120.2
907.864	10999.3
908.177	10945.97
908.491	10919.53
908.804	10900.55
909.117	10840.89
909.43	10746.88
909.743	10736.26
910.056	10683.83
910.368	10615.81
910.681	10620.1
910.994	10544.4
911.307	10543.49
911.619	10438.86
911.932	10421.69
912.244	10388.02
912.557	10312.54
912.869	10279.32
913.181	10176.27
913.494	10198.64
913.806	10109.83
914.118	10142.15
914.43	10035.03
914.742	10023.51
915.054	9969.95
915.366	9966.33
915.678	9931.31
915.99	9882.49
916.302	9717.75
916.613	9745.1
916.925	9713.91
917.236	9767.02
917.548	9615.16
917.859	9682.73
918.171	9568.6
918.482	9562.73
918.794	9517.31
919.105	9487.25
919.416	9456.74
919.727	9420.36
920.038	9322.06
920.349	9273.92
920.66	9219.23
920.971	9184.21
921.282	9157.77
921.593	9101.72
921.903	9010.43
922.214	9014.49
922.525	8988.28
922.835	8941.05
923.146	8876.65
923.456	8815.63
923.767	8854.95
924.077	8819.7
924.387	8765.69
924.697	8695.41
925.008	8711.23
925.318	8673.71
925.628	8678.23
925.938	8598.23
926.248	8512.59
926.558	8497.22
926.867	8462.87
927.177	8439.82
927.487	8323.44
927.796	8266.49
928.106	8288.64
928.416	8229.88
928.725	8254.06
929.034	8205.02
929.344	8164.35
929.653	8155.99
929.962	8065.82
930.271	8040.51
930.581	7985.6
930.89	8001.64
931.199	7933.17
931.508	7903.56
931.817	7867.41
932.125	7911.02
932.434	7819.5
932.743	7732.72
933.051	7761.87
933.36	7735.21
933.669	7692.27
933.977	7583.57
934.286	7582.44
934.594	7582.89
934.902	7505.61
935.21	7533.4
935.519	7455.44
935.827	7464.7
936.135	7392.39
936.443	7372.96
936.751	7339.06
937.059	7328.66
937.367	7193.53
937.674	7246.41
937.982	7209.57
938.29	7128.22
938.597	7183.58
938.905	7103.13
939.213	7069.69
939.52	7030.37
939.827	7030.37
940.135	6974.1
940.442	6968.22
940.749	6958.28
941.056	6897.94
941.363	6853.65
941.67	6845.74
941.977	6784.72
942.284	6762.35
942.591	6756.7
942.898	6748.34
943.205	6683.03
943.511	6704.05
943.818	6641.22
944.125	6549.93
944.431	6533.66
944.738	6482.36
945.044	6517.61
945.35	6493.43
945.657	6405.52
945.963	6451.17
946.269	6380.44
946.575	6334.34
946.881	6331.4
947.187	6276.71
947.493	6264.06
947.799	6221.57
948.105	6161.01
948.41	6145.42
948.716	6135.25
949.022	6098.41
949.327	6094.8
949.633	6007.34
949.938	6010.96
950.244	6017.74
950.549	6017.96
950.854	5935.48
951.16	5956.04
951.465	5859.1
951.77	5935.48
952.075	5843.05
952.38	5811.41
952.685	5824.52
952.99	5729.61
953.294	5763.28
953.599	5681.7
953.904	5704.98
954.209	5653
954.513	5696.16
954.818	5593.57
955.122	5620.91
955.426	5560.12
955.731	5549.95
956.035	5534.81
956.339	5490.97
956.643	5483.51
956.948	5454.14
957.252	5463.63
957.556	5422.72
957.86	5378.66
958.163	5351.54
958.467	5356.74
958.771	5299.34
959.075	5250.3
959.378	5289.62
959.682	5202.62
959.985	5215.95
960.289	5214.37
960.592	5122.85
960.896	5079.68
961.199	5154.26
961.502	5109.29
961.805	5083.75
962.108	5083.3
962.411	4968.73
962.714	5005.79
963.017	4966.24
963.32	4993.81
963.623	4929.86
963.926	4902.74
964.228	4855.28
964.531	4842.85
964.833	4865
965.136	4820.25
965.438	4740.03
965.741	4754.27
966.043	4762.63
966.345	4693.25
966.648	4690.09
966.95	4727.83
967.252	4690.31
967.554	4649.64
967.856	4633.14
968.158	4565.8
968.46	4601.5
968.761	4563.99
969.063	4535.52
969.365	4491.9
969.666	4531.45
969.968	4420.94
970.269	4457.33
970.571	4457.1
970.872	4415.52
971.174	4354.96
971.475	4391.57
971.776	4358.12
972.077	4316.09
972.378	4315.86
972.679	4283.55
972.98	4273.15
973.281	4254.85
973.582	4288.29
973.883	4199.48
974.183	4217.11
974.484	4234.73
974.785	4176.88
975.085	4128.97
975.386	4095.75
975.686	4075.87
975.986	4109.09
976.287	4048.3
976.587	4020.05
976.887	4035.42
977.187	4015.08
977.487	4043.78
977.787	3953.16
978.087	3940.28
978.387	3900.5
978.687	3932.59
978.987	3893.95
979.286	3815.54
979.586	3858.47
979.885	3856.66
980.185	3824.35
980.484	3778.47
980.784	3780.51
981.083	3779.15
981.382	3756.78
981.682	3781.64
981.981	3732.6
982.28	3717.23
982.579	3684.01
982.878	3665.03
983.177	3643.11
983.475	3656.44
983.774	3619.61
984.073	3597.91
984.372	3602.21
984.67	3557.24
984.969	3582.77
985.267	3541.87
985.566	3545.94
985.864	3511.81
986.162	3484.7
986.461	3468.2
986.759	3439.27
987.057	3395.21
987.355	3391.37
987.653	3385.72
987.951	3391.59
988.249	3370.12
988.547	3369.45
988.844	3322.21
989.142	3315.21
989.44	3316.34
989.737	3324.25
990.035	3289.45
990.332	3276.11
990.63	3242.89
990.927	3218.49
991.224	3242.44
991.521	3205.16
991.819	3207.87
992.116	3192.27
992.413	3171.94
992.71	3134.65
993.006	3115.89
993.303	3064.14
993.6	3118.6
993.897	3080.64
994.193	3045.16
994.49	3041.77
994.787	3041.77
995.083	3024.6
995.379	3028.89
995.676	2994.99
995.972	2985.5
996.268	2953.41
996.565	2912.51
996.861	2942.79
997.157	2908.44
997.453	2860.98
997.749	2853.07
998.044	2840.87
998.34	2863.02
998.636	2856.92
998.932	2805.17
999.227	2822.12
999.523	2747.54
999.818	2778.05
1000.114	2747.77
1000.409	2744.38
1000.704	2714.1
1001	2721.33
1001.295	2714.1
1001.59	2684.49
1001.885	2683.59
1002.18	2651.05
1002.475	2649.24
1002.77	2606.98
1003.065	2615.34
1003.359	2580.09
1003.654	2571.05
1003.949	2550.94
1004.243	2532.63
1004.538	2528.11
1004.832	2527.66
1005.127	2488.34
1005.421	2472.29
1005.715	2470.26
1006.009	2451.96
1006.304	2455.12
1006.598	2435.91
1006.892	2406.76
1007.186	2400.21
1007.48	2379.41
1007.773	2381.9
1008.067	2340.55
1008.361	2345.52
1008.655	2314.33
1008.948	2337.61
1009.242	2336.48
1009.535	2328.12
1009.829	2267.1
1010.122	2279.53
1010.415	2265.97
1010.708	2233.66
1011.001	2250.38
1011.295	2193.21
1011.588	2204.73
1011.881	2155.24
1012.173	2142.36
1012.466	2177.84
1012.759	2140.55
1013.052	2123.38
1013.344	2132.87
1013.637	2111.4
1013.93	2082.25
1014.222	2083.6
1014.514	2077.73
1014.807	2083.6
1015.099	2059.42
1015.391	2015.13
1015.683	2034.34
1015.976	2024.17
1016.268	1999.09
1016.56	1955.7
1016.851	1947.34
1017.143	1953.89
1017.435	1929.26
1017.727	1938.97
1018.018	1903.27
1018.31	1878.19
1018.602	1896.26
1018.893	1851.52
1019.185	1877.73
1019.476	1830.95
1019.767	1801.8
1020.058	1818.98
1020.35	1801.58
1020.641	1783.5
1020.932	1785.53
1021.223	1773.1
1021.514	1735.82
1021.804	1760.67
1022.095	1732.88
1022.386	1716.16
1022.677	1702.82
1022.967	1710.28
1023.258	1714.8
1023.548	1670.05
1023.839	1659.43
1024.129	1641.36
1024.419	1626.21
1024.709	1632.99
1025	1633.22
1025.29	1593.9
1025.58	1600.9
1025.87	1608.36
1026.16	1569.27
1026.449	1558.87
1026.739	1554.35
1027.029	1548.7
1027.319	1531.3
1027.608	1499.66
1027.898	1513.45
1028.187	1507.8
1028.477	1501.47
1028.766	1501.25
1029.055	1463.05
1029.344	1437.29
1029.634	1458.08
1029.923	1439.78
1030.212	1444.3
1030.501	1419.89
1030.79	1385.77
1031.078	1389.61
1031.367	1408.37
1031.656	1386.45
1031.945	1367.69
1032.233	1367.69
1032.522	1359.33
1032.81	1341.48
1033.099	1352.1
1033.387	1312.78
1033.675	1331.08
1033.963	1306.67
1034.251	1276.84
1034.54	1277.3
1034.828	1263.29
1035.116	1264.64
1035.403	1247.02
1035.691	1251.99
1035.979	1240.01
1036.267	1237.3
1036.554	1216.51
1036.842	1211.54
1037.129	1189.84
1037.417	1199.56
1037.704	1197.07
1037.992	1169.5
1038.279	1189.84
1038.566	1158.43
1038.853	1158.43
1039.14	1158.43
