Data from white_poster_card_FLMS001491_00062.txt Node
Date: Wed Feb 08 11:51:50 GMT 2017
User: dcchb
Spectrometer: FLMS00149
Trigger mode: 0
Integration Time (sec): 2.000000E-2
Scans to average: 10
Electric dark correction enabled: true
Nonlinearity correction enabled: false
Boxcar width: 0
XAxis mode: Wavelengths
Number of Pixels in Spectrum: 2048
>>>>>Begin Spectral Data<<<<<
341.393	-14.01
341.776	-14.01
342.16	-14.01
342.543	-47.46
342.927	-65.99
343.31	-67.79
343.693	-65.53
344.077	-62.6
344.46	-73.67
344.843	-36.61
345.226	-55.59
345.61	-23.28
345.993	-16.27
346.376	4.07
346.759	9.94
347.142	22.37
347.525	42.71
347.908	44.97
348.291	71.64
348.674	89.49
349.057	116.16
349.44	109.6
349.823	131.97
350.206	145.76
350.588	184.85
350.971	228.47
351.354	212.42
351.737	235.7
352.119	236.6
352.502	270.28
352.884	275.47
353.267	271.41
353.65	288.35
354.032	299.2
354.414	310.27
354.797	318.41
355.179	335.81
355.562	329.93
355.944	324.06
356.326	336.71
356.709	346.43
357.091	309.6
357.473	342.14
357.855	317.96
358.238	330.16
358.62	345.3
359.002	327.22
359.384	333.55
359.766	333.55
360.148	351.18
360.53	332.42
360.912	331.06
361.294	330.16
361.676	345.08
362.057	345.53
362.439	342.14
362.821	317.96
363.203	325.87
363.584	352.31
363.966	338.07
364.348	342.59
364.729	330.16
365.111	319.09
365.493	317.96
365.874	318.41
366.256	323.83
366.637	317.73
367.019	338.3
367.4	317.73
367.781	318.18
368.163	293.55
368.544	312.99
368.925	302.36
369.306	322.7
369.688	304.17
370.069	313.44
370.45	328.35
370.831	315.02
371.212	306.21
371.593	318.64
371.974	329.03
372.355	331.29
372.736	322.93
373.117	320.67
373.498	326.09
373.879	334.91
374.26	340.1
374.641	325.87
375.021	329.48
375.402	331.06
375.783	335.36
376.163	326.55
376.544	331.52
376.925	322.25
377.305	336.49
377.686	349.82
378.066	324.51
378.447	328.58
378.827	337.17
379.208	325.19
379.588	359.99
379.968	320.9
380.349	346.43
380.729	342.14
381.109	343.49
381.489	330.39
381.87	341.69
382.25	345.3
382.63	338.75
383.01	350.73
383.39	345.53
383.77	364.96
384.15	364.51
384.53	345.3
384.91	347.79
385.29	356.83
385.67	364.51
386.049	366.54
386.429	368.58
386.809	348.92
387.189	376.26
387.568	366.09
387.948	363.38
388.328	359.54
388.707	366.32
389.087	367.45
389.466	373.1
389.846	380.55
390.225	385.3
390.605	375.81
390.984	384.17
391.363	396.15
391.743	381.46
392.122	382.14
392.501	415.36
392.881	392.31
393.26	397.05
393.639	393.44
394.018	411.74
394.397	410.84
394.776	425.53
395.155	403.61
395.534	407.67
395.913	417.16
396.292	434.56
396.671	448.12
397.05	437.05
397.429	430.95
397.808	416.94
398.186	403.15
398.565	439.76
398.944	425.98
399.323	440.89
399.701	446.32
400.08	467.33
400.458	451.06
400.837	450.16
401.215	453.1
401.594	447.22
401.972	446.99
402.351	473.89
402.729	472.76
403.107	475.69
403.486	474.34
403.864	478.86
404.242	474.56
404.62	517.95
404.999	497.16
405.377	516.37
405.755	506.88
406.133	518.18
406.511	524.05
406.889	524.28
407.267	526.77
407.645	545.07
408.023	558.63
408.401	562.7
408.779	581.68
409.156	600.21
409.534	585.3
409.912	591.17
410.29	614.45
410.667	625.29
411.045	615.58
411.422	620.1
411.8	647.89
412.178	655.8
412.555	659.87
412.933	670.26
413.31	709.59
413.687	713.2
414.065	719.98
414.442	747.55
414.819	726.08
415.197	762.47
415.574	782.58
415.951	788.68
416.328	794.33
416.705	804.5
417.082	821
417.46	866.64
417.837	867.55
418.214	882.91
418.591	865.97
418.967	884.5
419.344	912.29
419.721	924.72
420.098	929.92
420.475	967.88
420.852	960.65
421.228	987.09
421.605	1019.41
421.982	1041.1
422.358	1006.75
422.735	1046.53
423.111	1048.11
423.488	1075
423.864	1095.11
424.241	1122.68
424.617	1113.19
424.994	1138.95
425.37	1147.54
425.746	1152.29
426.123	1177.82
426.499	1161.78
426.875	1201.78
427.251	1215.79
427.627	1255.33
428.003	1282.45
428.379	1278.61
428.756	1319.97
429.132	1293.53
429.507	1341.43
429.883	1336.24
430.259	1393.18
430.635	1387.99
431.011	1406.29
431.387	1420.98
431.763	1450.58
432.138	1460.75
432.514	1507.98
432.89	1482.9
433.265	1542.78
433.641	1561.31
434.016	1594.08
434.392	1614.65
434.767	1641.99
435.143	1653.74
435.518	1658.49
435.894	1643.12
436.269	1714.31
436.644	1711.82
437.02	1725.38
437.395	1736.45
437.77	1748.43
438.145	1817.13
438.52	1818.26
438.895	1818.48
439.271	1834.3
439.646	1905.94
440.021	1909.1
440.395	1908.65
440.77	1907.29
441.145	1899.61
441.52	1950.68
441.895	1957.69
442.27	1923.79
442.645	2009.21
443.019	1951.59
443.394	1990.68
443.769	2013.73
444.143	2008.99
444.518	2034.97
444.892	2059.83
445.267	2088.76
445.641	2081.08
446.016	2122.2
446.39	2091.47
446.764	2124.46
447.139	2143.45
447.513	2165.14
447.887	2156.55
448.262	2192.48
448.636	2232.26
449.01	2187.29
449.384	2221.64
449.758	2241.52
450.132	2296.44
450.506	2289.66
450.88	2318.13
451.254	2289.66
451.628	2338.7
452.002	2355.42
452.376	2378.02
452.75	2388.41
453.123	2410.11
453.497	2483.1
453.871	2464.34
454.244	2509.09
454.618	2533.49
454.992	2570.1
455.365	2610.78
455.739	2637.9
456.112	2611.23
456.486	2645.81
456.859	2668.4
457.232	2731.91
457.606	2739.36
457.979	2761.96
458.352	2812.13
458.725	2827.5
459.099	2872.24
459.472	2909.53
459.845	2939.13
460.218	2956.31
460.591	2986.14
460.964	2983.65
461.337	3078.11
461.71	3160.14
462.083	3176.19
462.456	3159.46
462.829	3188.62
463.201	3238.56
463.574	3277.88
463.947	3298.67
464.32	3368.72
464.692	3409.63
465.065	3425.45
465.438	3488.04
465.81	3521.94
466.183	3552.67
466.555	3631.09
466.928	3649.4
467.3	3656.18
467.672	3697.98
468.045	3807.13
468.417	3832.44
468.789	3869.28
469.161	3897.3
469.534	3943.4
469.906	4039.44
470.278	4043.06
470.65	4072.44
471.022	4197.18
471.394	4246.89
471.766	4312.43
472.138	4323.95
472.51	4423.16
472.882	4469.94
473.253	4554.46
473.625	4598.07
473.997	4673.32
474.369	4699.99
474.74	4743.38
475.112	4869.25
475.484	4893.66
475.855	5039.64
476.227	5068.12
476.598	5181.11
476.97	5231.27
477.341	5315.57
477.713	5402.8
478.084	5460.2
478.455	5625.16
478.827	5635.11
479.198	5769.57
479.569	5810.24
479.94	5922.33
480.311	6023.34
480.682	6165.04
481.053	6214.98
481.424	6355.31
481.795	6403.67
482.166	6496.78
482.537	6571.8
482.908	6777.67
483.279	6788.97
483.65	6883.43
484.021	7071.45
484.391	7121.39
484.762	7209.08
485.133	7276.42
485.503	7417.66
485.874	7545.56
486.244	7556.41
486.615	7756.86
486.985	7828.72
487.356	7998.89
487.726	8035.95
488.097	8189.16
488.467	8269.16
488.837	8460.57
489.207	8501.47
489.578	8607.68
489.948	8684.74
490.318	8844.51
490.688	8842.93
491.058	8991.4
491.428	9088.57
491.798	9221.9
492.168	9414.67
492.538	9416.7
492.908	9545.51
493.278	9718.61
493.648	9671.16
494.017	9818.5
494.387	9896.69
494.757	10019.62
495.126	10095.55
495.496	10089
495.866	10209.45
496.235	10314.31
496.605	10469.1
496.974	10472.04
497.344	10621.87
497.713	10656.67
498.082	10813.05
498.452	10889.43
498.821	10937.11
499.19	10939.83
499.559	11086.94
499.928	11145.02
500.298	11253.04
500.667	11290.78
501.036	11235.18
501.405	11450.55
501.774	11466.14
502.143	11632.01
502.512	11641.5
502.88	11768.05
503.249	11797.88
503.618	11872.68
503.987	12009.85
504.356	12035.62
504.724	12210.07
505.093	12233.58
505.462	12286.68
505.83	12424.76
506.199	12534.81
506.567	12688.71
506.936	12669.5
507.304	12847.57
507.672	12917.4
508.041	12878.53
508.409	13053.44
508.777	13117.62
509.145	13310.84
509.514	13231.52
509.882	13385.64
510.25	13428.12
510.618	13555.35
510.986	13617.5
511.354	13726.87
511.722	13832.86
512.09	14082.57
512.458	13964.6
512.826	14072.85
513.193	14165.28
513.561	14290.7
513.929	14403.92
514.297	14477.81
514.664	14665.83
515.032	14657.24
515.4	14874.41
515.767	14919.61
516.135	15031.02
516.502	15037.34
516.869	15165.48
517.237	15299.48
517.604	15327.28
517.972	15522.53
518.339	15687.27
518.706	15655.63
519.073	15791.45
519.44	15892.24
519.808	16105.57
520.175	16115.96
520.542	16251.55
520.909	16374.48
521.276	16514.14
521.643	16652.22
522.009	16750.29
522.376	16907.58
522.743	17064.18
523.11	17204.07
523.477	17319.77
523.843	17454.91
524.21	17604.28
524.577	17787.1
524.943	17849.25
525.31	17927.44
525.676	18057.83
526.043	18131.73
526.409	18293.08
526.776	18537.82
527.142	18516.8
527.508	18743.91
527.874	18827.53
528.241	18886.96
528.607	19022.55
528.973	19138.25
529.339	19209.21
529.705	19446.27
530.071	19658.24
530.437	19659.14
530.803	19825.47
531.169	19926.93
531.535	19944.11
531.901	20053.26
532.267	20224.1
532.632	20314.27
532.998	20457.77
533.364	20499.57
533.73	20600.36
534.095	20768.95
534.461	20912.22
534.826	20883.29
535.192	20989.05
535.557	21214.81
535.923	21187.47
536.288	21288.71
536.653	21453
537.019	21311.98
537.384	21560.34
537.749	21577.74
538.114	21708.81
538.479	21731.86
538.845	21833.78
539.21	21816.38
539.575	21938.41
539.94	22042.58
540.305	22158.51
540.67	22282.13
541.034	22354.89
541.399	22429.69
541.764	22531.16
542.129	22553.98
542.494	22555.11
542.858	22833.07
543.223	22764.37
543.587	22974.31
543.952	22782.9
544.316	23026.51
544.681	23036.46
545.045	23156.45
545.41	23218.6
545.774	23330.69
546.138	23449.1
546.503	23452.49
546.867	23441.64
547.231	23694.52
547.595	23709.89
547.959	23845.93
548.324	23855.87
548.688	23912.59
549.052	24131.12
549.416	24104
549.779	24146.48
550.143	24183.32
550.507	24360.04
550.871	24587.6
551.235	24480.26
551.599	24639.35
551.962	24830.76
552.326	24804.55
552.689	24960.7
553.053	24852.68
553.417	24978.55
553.78	25269.62
554.143	25233.23
554.507	25373.34
554.87	25574.47
555.234	25654.24
555.597	25641.81
555.96	25724.97
556.323	25941.69
556.686	25931.07
557.05	26126.09
557.413	26210.61
557.776	26204.51
558.139	26493.77
558.502	26538.51
558.865	26539.19
559.228	26855.11
559.59	26948.67
559.953	26902.12
560.316	27171.71
560.679	27188.21
561.041	27420.75
561.404	27516.34
561.767	27745.71
562.129	27665.04
562.492	27838.82
562.854	27841.08
563.217	27954.52
563.579	28170.78
563.941	28314.96
564.304	28340.27
564.666	28594.73
565.028	28560.15
565.39	28799.92
565.753	28951.78
566.115	29051.89
566.477	29201.04
566.839	29270.19
567.201	29423.86
567.563	29418.44
567.925	29646.45
568.287	29661.59
568.648	29744.53
569.01	29933.22
569.372	30045.76
569.734	29993.34
570.095	30205.31
570.457	30409.14
570.819	30394
571.18	30494.11
571.542	30613.43
571.903	30665.41
572.265	30732.75
572.626	30867.21
572.987	30983.14
573.349	30968
573.71	31118.96
574.071	31282.57
574.432	31335.22
574.794	31535.44
575.155	31567.76
575.516	31447.08
575.877	31567.53
576.238	31714.19
576.599	31783.12
576.96	31807.98
577.32	31821.31
577.681	31896.11
578.042	32180.17
578.403	32139.95
578.763	32188.08
579.124	32209.1
579.485	32313.05
579.845	32399.6
580.206	32300.39
580.566	32362.54
580.927	32454.97
581.287	32557.79
581.648	32396.21
582.008	32643.66
582.368	32591.69
582.728	32645.47
583.089	32530.44
583.449	32631.91
583.809	32593.27
584.169	32633.04
584.529	32456.1
584.889	32942.64
585.249	32575.19
585.609	32574.28
585.969	32831.68
586.329	32711.23
586.688	32666.03
587.048	32848.63
587.408	32704
587.768	32806.6
588.127	32742.87
588.487	32733.6
588.846	32913.94
589.206	32629.2
589.565	32645.02
589.925	32968.62
590.284	32748.74
590.643	32819.48
591.003	32809.08
591.362	32934.95
591.721	32836.65
592.08	32780.83
592.44	32987.38
592.799	32966.14
593.158	32907.84
593.517	32893.6
593.876	33017.89
594.235	33000.49
594.593	33066.48
594.952	33107.83
595.311	32895.18
595.67	32958.46
596.029	33204.32
596.387	33206.36
596.746	33208.17
597.104	32979.92
597.463	33083.65
597.822	33228.73
598.18	33150.77
598.538	33153.25
598.897	33297.43
599.255	33031.67
599.613	33540.59
599.972	33312.12
600.33	33394.6
600.688	33305.79
601.046	33457.88
601.404	33495.62
601.762	33456.75
602.12	33626.01
602.478	33493.36
602.836	33671.21
603.194	33535.16
603.552	33550.53
603.91	33403.42
604.268	33581.94
604.625	33583.3
604.983	33713.01
605.341	33578.33
605.698	33926.79
606.056	33844.76
606.413	33762.95
606.771	33810.41
607.128	33911.42
607.485	33710.98
607.843	33895.15
608.2	33899.9
608.557	34090.4
608.914	34018.09
609.272	34141.48
609.629	34185.09
609.986	34322.94
610.343	34163.4
610.7	34434.8
611.057	34272.77
611.414	34274.81
611.771	34372.43
612.127	34419.43
612.484	34525.19
612.841	34492.43
613.198	34529.49
613.554	34488.81
613.911	34635.02
614.267	34549.15
614.624	34590.28
614.98	34697.84
615.337	34800.21
615.693	34675.7
616.05	34624.63
616.406	34894.9
616.762	34877.05
617.118	34669.37
617.475	34785.53
617.831	34938.74
618.187	35060.77
618.543	34867.78
618.899	35082.69
619.255	35124.95
619.611	35059.19
619.967	35016.48
620.323	35178.06
620.678	35110.94
621.034	35056.71
621.39	35006.09
621.746	34829.82
622.101	35272.74
622.457	34990.72
622.812	35097.61
623.168	35139.87
623.523	35213.31
623.879	35309.13
624.234	35079.76
624.589	35119.98
624.945	35261.22
625.3	35174.89
625.655	35208.11
626.01	35271.16
626.365	35148.23
626.72	35066.65
627.075	35202.01
627.43	35108.23
627.785	35014.22
628.14	35097.38
628.495	35200.88
628.85	35214.67
629.205	35030.49
629.559	35199.75
629.914	35002.7
630.269	35071.39
630.623	34942.81
630.978	34835.02
631.332	34941
631.687	35028.01
632.041	34855.35
632.396	34916.6
632.75	34775.36
633.104	34783.72
633.459	34687.68
633.813	34696.71
634.167	34630.73
634.521	34487
634.875	34576.49
635.229	34501.69
635.583	34385.31
635.937	34355.71
636.291	34337.4
636.645	34417.63
636.999	34195.94
637.352	34442.94
637.706	34153.9
638.06	34362.49
638.413	34204.3
638.767	34007.92
639.121	34210.17
639.474	33957.98
639.828	33861.48
640.181	33957.3
640.534	34058.99
640.888	33895.61
641.241	33697.65
641.594	33757.53
641.947	33799.79
642.301	33598.89
642.654	33659.91
643.007	33669.17
643.36	33564.09
643.713	33565.67
644.066	33694.03
644.419	33488.38
644.771	33178.34
645.124	33060.37
645.477	32852.02
645.83	32723.66
646.182	32491.58
646.535	32488.86
646.888	32551.69
647.24	32213.16
647.593	32568.86
647.945	32428.98
648.298	32215.2
648.65	32087.74
649.002	32099.49
649.355	32200.96
649.707	32153.05
650.059	32250.45
650.411	32594.62
650.763	32670.55
651.115	33087.72
651.467	32929.76
651.819	32890.21
652.171	32692.93
652.523	32567.51
652.875	32781.74
653.227	32520.95
653.578	32742.42
653.93	32678.91
654.282	32531.12
654.633	32475.98
654.985	32469.43
655.337	32478.02
655.688	32353.05
656.039	32578.13
656.391	32157.8
656.742	32267.4
657.094	32307.4
657.445	32325.93
657.796	32355.99
658.147	32290
658.498	32172.94
658.849	32212.03
659.2	32113.05
659.551	32034.64
659.902	32209.77
660.253	32139.27
660.604	32152.15
660.955	32040.29
661.306	32101.53
661.656	32120.74
662.007	32107.18
662.358	32041.64
662.708	32032.15
663.059	31974.3
663.409	31790.12
663.76	31887.52
664.11	31925.49
664.461	31859.95
664.811	32018.82
665.161	31868.31
665.511	31812.27
665.862	31819.73
666.212	31944.02
666.562	31905.6
666.912	31851.37
667.262	31824.93
667.612	31695.21
667.962	31838.03
668.312	31704.25
668.662	31945.6
669.011	31717.58
669.361	31662.9
669.711	31693.86
670.06	31550.36
670.41	31648.66
670.76	31452.05
671.109	31632.61
671.459	31593.97
671.808	31649.56
672.157	31534.99
672.507	31418.38
672.856	31399.4
673.205	31365.5
673.554	31569.34
673.904	31416.58
674.253	31507.42
674.602	31327.76
674.951	31036.02
675.3	30697.5
675.649	31157.6
675.998	31182.68
676.346	31154.66
676.695	31310.36
677.044	31066.75
677.393	31185.39
677.741	31164.15
678.09	31084.83
678.438	30988.34
678.787	31089.58
679.135	31132.06
679.484	30733.43
679.832	30936.81
680.181	30753.99
680.529	30991.73
680.877	30831.51
681.225	30628.12
681.573	30889.36
681.922	30711.73
682.27	30557.84
682.618	30567.56
682.966	30417.96
683.314	30543.83
683.661	30393.33
684.009	30287.57
684.357	30235.82
684.705	30290.28
685.053	30266.1
685.4	30236.95
685.748	30021.58
686.095	29945.2
686.443	29862.49
686.79	29813
687.138	29929.83
687.485	29934.35
687.832	29686.45
688.18	29781.36
688.527	29607.13
688.874	29624.08
689.221	29619.56
689.568	29460.69
689.915	29354.26
690.262	29324.2
690.609	29149.74
690.956	29129.4
691.303	29070.42
691.65	28783.88
691.997	28904.1
692.344	28679.7
692.69	28781.62
693.037	28802.86
693.383	28593.15
693.73	28583.43
694.077	28429.53
694.423	28460.27
694.769	28332.59
695.116	28427.05
695.462	28242.65
695.808	28180.05
696.155	28220.95
696.501	27980.96
696.847	27967.4
697.193	27796.11
697.539	27951.58
697.885	27691.48
698.231	27663.23
698.577	27728.54
698.923	27533.74
699.269	27352.05
699.614	27286.06
699.96	27304.14
700.306	27256.01
700.651	27107.76
700.997	27070.93
701.342	26962.45
701.688	26921.1
702.033	26914.32
702.379	26804.94
702.724	26764.49
703.069	26797.49
703.415	26560.66
703.76	26581.67
704.105	26541
704.45	26473.88
704.795	26353.88
705.14	26235.47
705.485	26156.15
705.83	26084.06
706.175	26111.4
706.52	26038.41
706.865	25866.44
707.209	25848.13
707.554	25837.29
707.899	25805.42
708.243	25650.85
708.588	25614.47
708.932	25384.64
709.277	25362.27
709.621	25419.9
709.966	25426.68
710.31	25239.56
710.654	25080.02
710.998	25204.31
711.342	25210.18
711.687	24992.34
712.031	24970.42
712.375	24946.46
712.719	24969.06
713.063	24783.3
713.407	24995.27
713.75	24807.94
714.094	24795.73
714.438	24694.04
714.782	24612.69
715.125	24570.43
715.469	24629.63
715.812	24579.69
716.156	24423.09
716.499	24357.1
716.843	24365.01
717.186	24137.22
717.53	24308.74
717.873	24187.84
718.216	24193.04
718.559	24062.42
718.902	23962.08
719.246	24005.02
719.589	23835.31
719.932	23790.56
720.275	23929.31
720.617	23780.39
720.96	23680.96
721.303	23707.4
721.646	23640.96
721.989	23631.47
722.331	23572.49
722.674	23466.5
723.016	23525.71
723.359	23540.85
723.701	23468.99
724.044	23375.88
724.386	23318.93
724.729	23369.33
725.071	23134.98
725.413	23238.03
725.755	23347.63
726.097	23162.55
726.439	22929.57
726.782	23014.76
727.124	23101.77
727.465	22949
727.807	22909.68
728.149	22866.74
728.491	22892.96
728.833	22838.5
729.175	22828.78
729.516	22786.29
729.858	22629.01
730.199	22668.56
730.541	22711.49
730.882	22499.97
731.224	22745.62
731.565	22422.46
731.906	22503.14
732.248	22472.18
732.589	22295.23
732.93	22317.38
733.271	22347.66
733.612	22391.05
733.953	22461.78
734.294	22177.04
734.635	22285.97
734.976	22198.06
735.317	22087.1
735.658	22134.33
735.999	22045.3
736.339	22046.88
736.68	22049.36
737.021	21925.98
737.361	21853.44
737.702	22100.66
738.042	21849.82
738.383	21870.16
738.723	21943.38
739.063	21757.62
739.404	21914.68
739.744	21672.88
740.084	21647.79
740.424	21616.83
740.764	21652.31
741.104	21582.94
741.444	21494.58
741.784	21438.53
742.124	21497.29
742.464	21377.07
742.804	21459.55
743.143	21334.13
743.483	21343.39
743.823	21250.29
744.162	21195.6
744.502	21307.24
744.841	21130.52
745.181	21217.97
745.52	21061.14
745.86	21199.67
746.199	21037.41
746.538	20975.49
746.877	21067.47
747.216	21064.76
747.556	20901.37
747.895	21021.59
748.234	20846.91
748.573	20810.75
748.911	20787.7
749.25	20767.59
749.589	20569.85
749.928	20607.59
750.267	20705.9
750.605	20608.95
750.944	20599.68
751.283	20459.8
751.621	20592.45
751.96	20454.83
752.298	20432.23
752.636	20330.31
752.975	20289.64
753.313	20238.79
753.651	20300.03
753.989	20168.51
754.327	20122.86
754.666	20176.19
755.004	20141.17
755.342	20119.24
755.679	19990.66
756.017	19900.04
756.355	19979.14
756.693	19857.1
757.031	19884
757.368	19776.66
757.706	19638.81
758.044	19483.78
758.381	19697.11
758.719	19577.79
759.056	19493.72
759.394	19505.02
759.731	19292.83
760.068	19234.07
760.405	19201.75
760.743	19103.45
761.08	19182.09
761.417	19028.88
761.754	18968.99
762.091	19010.8
762.428	18871.37
762.765	18838.15
763.102	18874.98
763.438	18745.27
763.775	18617.59
764.112	18690.58
764.449	18654.88
764.785	18620.75
765.122	18484.71
765.458	18349.8
765.795	18258.73
766.131	18266.86
766.467	18243.36
766.804	18117.72
767.14	18104.83
767.476	18046.08
767.812	17987.1
768.148	18014.22
768.485	17928.34
768.821	17785.3
769.157	17781.23
769.492	17718.18
769.828	17688.12
770.164	17516.38
770.5	17492.87
770.836	17458.3
771.171	17355.7
771.507	17349.83
771.842	17300.11
772.178	17194.35
772.513	17154.8
772.849	17149.61
773.184	16948.03
773.519	16995.03
773.855	16915.71
774.19	16865.32
774.525	16895.37
774.86	16808.6
775.195	16694.93
775.53	16659.9
775.865	16567.25
776.2	16499.91
776.535	16335.84
776.87	16271.44
777.205	16244.77
777.539	16228.05
777.874	16307.37
778.209	16096.3
778.543	16022.18
778.878	16085.45
779.212	15897.21
779.547	15884.1
779.881	15863.99
780.215	15861.5
780.55	15802.75
780.884	15716.2
781.218	15681.85
781.552	15636.43
781.886	15584.67
782.22	15451.57
782.554	15494.51
782.888	15296.09
783.222	15232.37
783.556	15139.94
783.889	15235.53
784.223	14980.85
784.557	14979.49
784.89	15213.16
785.224	14957.35
785.557	14906.27
785.891	14833.96
786.224	14818.37
786.558	14729.56
786.891	14599.39
787.224	14614.53
787.557	14576.57
787.891	14555.32
788.224	14571.14
788.557	14502.22
788.89	14437.81
789.223	14379.51
789.556	14308.32
789.888	14244.37
790.221	14211.6
790.554	13996.24
790.887	14070.14
791.219	14031.04
791.552	13977.49
791.884	13880.54
792.217	13847.77
792.549	13760.77
792.882	13721.45
793.214	13668.57
793.546	13744.27
793.879	13665.86
794.211	13542.02
794.543	13547.44
794.875	13525.97
795.207	13524.16
795.539	13428.12
795.871	13458.63
796.203	13321.01
796.535	13259.09
796.867	13259.54
797.198	13234.68
797.53	13207.34
797.862	13121.91
798.193	13172.08
798.525	13057.74
798.856	13019.32
799.188	12803.28
799.519	12893.22
799.85	12786.56
800.182	12794.01
800.513	12827.69
800.844	12749.04
801.175	12755.14
801.506	12677.86
801.837	12606.22
802.168	12569.16
802.499	12534.81
802.83	12517.41
803.161	12510.63
803.491	12485.1
803.822	12443.74
804.153	12363.52
804.483	12270.19
804.814	12236.97
805.145	12297.08
805.475	12287.13
805.805	12233.12
806.136	12137.31
806.466	12184.76
806.796	12136.86
807.126	11995.84
807.457	11987.93
807.787	11921.72
808.117	11965.11
808.447	11935.73
808.777	11901.61
809.107	11898.22
809.436	11822.06
809.766	11829.29
810.096	11670.65
810.426	11699.58
810.755	11693.03
811.085	11675.4
811.414	11709.97
811.744	11595.18
812.073	11584.78
812.403	11534.84
812.732	11526.93
813.061	11558.11
813.39	11411.68
813.719	11437.89
814.049	11478.79
814.378	11393.82
814.707	11309.53
815.036	11352.24
815.365	11272.25
815.693	11201.97
816.022	11174.85
816.351	11127.17
816.68	11079.48
817.008	11113.15
817.337	11024.34
817.665	10988.41
817.994	10960.16
818.322	11022.54
818.651	10979.37
818.979	10920.84
819.307	10952.03
819.636	10886.95
819.964	10775.08
820.292	10814.4
820.62	10820.51
820.948	10805.37
821.276	10827.74
821.604	10744.58
821.932	10817.57
822.259	10779.15
822.587	10738.02
822.915	10734.41
823.243	10772.6
823.57	10749.77
823.898	10775.08
824.225	10723.79
824.553	10699.38
824.88	10716.1
825.207	10717.91
825.535	10742.09
825.862	10707.29
826.189	10698.25
826.516	10769.21
826.843	10767.17
827.17	10718.36
827.497	10829.09
827.824	10780.51
828.151	10812.6
828.478	10732.37
828.805	10802.65
829.131	10728.08
829.458	10724.24
829.785	10575.99
830.111	10706.39
830.438	10728.31
830.764	10643.56
831.09	10720.4
831.417	10681.98
831.743	10731.92
832.069	10661.41
832.395	10672.04
832.722	10655.54
833.048	10644.69
833.374	10627.97
833.7	10548.65
834.026	10614.86
834.351	10602.66
834.677	10523.11
835.003	10516.33
835.329	10568.76
835.654	10639.95
835.98	10446.05
836.306	10526.95
836.631	10512.94
836.956	10604.92
837.282	10553.62
837.607	10410.8
837.932	10536.67
838.258	10525.6
838.583	10397.92
838.908	10377.13
839.233	10439.95
839.558	10388.2
839.883	10310.01
840.208	10366.51
840.533	10306.17
840.858	10298.03
841.182	10286.51
841.507	10272.95
841.832	10258.71
842.156	10189.79
842.481	10216.91
842.805	10232.5
843.13	10090.58
843.454	10135.78
843.778	10103.01
844.103	10043.13
844.427	10062.79
844.751	10007.65
845.075	10051.49
845.399	10058.72
845.723	9884.49
846.047	9925.84
846.371	9871.38
846.695	9777.82
847.019	9852.85
847.343	9793.19
847.666	9711.84
847.99	9655.34
848.313	9652.85
848.637	9599.3
848.96	9601.33
849.284	9566.98
849.607	9495.57
849.931	9489.69
850.254	9411.28
850.577	9299.19
850.9	9278.4
851.223	9276.37
851.546	9199.31
851.869	9171.06
852.192	9216.93
852.515	9135.8
852.838	9082.25
853.161	9072.08
853.483	9101.23
853.806	8912.53
854.129	9037.5
854.451	8965.41
854.774	8900.33
855.096	8847
855.419	8889.71
855.741	8817.62
856.063	8821.91
856.385	8705.99
856.708	8744.63
857.03	8781.92
857.352	8700.34
857.674	8624.86
857.996	8601.36
858.318	8600.9
858.64	8608.36
858.961	8595.03
859.283	8561.13
859.605	8533.56
859.926	8473
860.248	8507.35
860.57	8457.18
860.891	8499.66
861.212	8397.07
861.534	8393
861.855	8352.1
862.176	8370.4
862.498	8340.12
862.819	8381.93
863.14	8313.45
863.461	8308.03
863.782	8251.53
864.103	8292.21
864.424	8278.65
864.745	8252.66
865.065	8167.92
865.386	8174.02
865.707	8154.81
866.027	8157.75
866.348	8181.71
866.668	8167.92
866.989	8160.46
867.309	8052.44
867.63	8129.73
867.95	8136.96
868.27	8069.17
868.59	8114.81
868.91	8004.31
869.23	8021.26
869.55	7994.59
869.87	8033.01
870.19	8067.81
870.51	8019.9
870.83	7975.84
871.15	7915.5
871.469	7966.57
871.789	7996.17
872.109	7949.85
872.428	7902.62
872.748	7947.81
873.067	7929.73
873.386	7943.52
873.706	7863.07
874.025	7817.87
874.344	7847.25
874.663	7810.87
874.982	7816.97
875.301	7824.65
875.62	7779.91
875.939	7788.27
876.258	7748.27
876.577	7737.88
876.896	7781.94
877.214	7742.85
877.533	7692.68
877.852	7666.69
878.17	7677.31
878.489	7661.95
878.807	7638.9
879.125	7691.32
879.444	7563.64
879.762	7595.51
880.08	7636.41
880.398	7528.39
880.716	7601.16
881.034	7534.27
881.352	7543.98
881.67	7470.09
881.988	7467.15
882.306	7496.98
882.624	7420.37
882.941	7414.49
883.259	7389.41
883.577	7374.04
883.894	7346.93
884.212	7387.15
884.529	7342.41
884.846	7317.1
885.164	7303.54
885.481	7256.53
885.798	7297.89
886.115	7245.23
886.432	7275.74
886.75	7236.19
887.067	7193.03
887.383	7195.07
887.7	7183.99
888.017	7195.97
888.334	7116.2
888.651	7089.31
888.967	7133.82
889.284	7086.59
889.6	7069.87
889.917	6963.88
890.233	7107.84
890.55	7031.68
890.866	6980.16
891.182	6946.94
891.498	6914.85
891.815	6937.9
892.131	6947.39
892.447	6877.33
892.763	6882.53
893.079	6852.93
893.395	6799.37
893.71	6792.14
894.026	6750.11
894.342	6808.41
894.657	6758.24
894.973	6721.18
895.289	6724.34
895.604	6708.07
895.92	6686.38
896.235	6620.39
896.55	6659.03
896.865	6578.13
897.181	6578.13
897.496	6544.46
897.811	6600.28
898.126	6522.99
898.441	6491.13
898.756	6473.05
899.071	6428.98
899.386	6490
899.7	6376.78
900.015	6326.39
900.33	6316.67
900.644	6296.11
900.959	6337.01
901.273	6375.2
901.588	6235.99
901.902	6209.78
902.216	6257.24
902.531	6215.66
902.845	6207.52
903.159	6162.78
903.473	6135.43
903.787	6083.91
904.101	6090.69
904.415	6121.42
904.729	6046.62
905.042	5966.62
905.356	6042.1
905.67	5997.13
905.984	5982.89
906.297	5932.05
906.611	5914.65
906.924	5922.78
907.237	5914.42
907.551	5888.66
907.864	5871.03
908.177	5872.39
908.491	5799.85
908.804	5736.8
909.117	5801.66
909.43	5700.87
909.743	5680.08
910.056	5651.15
910.368	5731.83
910.681	5653.18
910.994	5608.44
911.307	5593.75
911.619	5528.89
911.932	5511.72
912.244	5522.11
912.557	5505.84
912.869	5435.11
913.181	5448.44
913.494	5417.26
913.806	5416.13
914.118	5395.79
914.43	5339.52
914.742	5349.01
915.054	5335.23
915.366	5323.7
915.678	5338.39
915.99	5260.43
916.302	5230.37
916.613	5172.75
916.925	5196.93
917.236	5189.02
917.548	5138.85
917.859	5123.93
918.171	5082.35
918.482	5092.97
918.794	5092.97
919.105	5074.22
919.416	5003.48
919.727	5038.51
920.038	5031.05
920.349	4942.92
920.66	4953.77
920.971	4938.18
921.282	4876.48
921.593	4879.42
921.903	4860.21
922.214	4819.53
922.525	4853.66
922.835	4849.59
923.146	4777.73
923.456	4803.04
923.767	4751.51
924.077	4728.92
924.387	4740.44
924.697	4692.76
925.008	4682.14
925.318	4657.05
925.628	4685.07
925.938	4620.22
926.248	4570.5
926.558	4544.06
926.867	4551.29
927.177	4622.93
927.487	4512.88
927.796	4555.81
928.106	4518.07
928.416	4473.1
928.725	4478.07
929.034	4395.59
929.344	4429.04
929.653	4394.46
929.962	4423.84
930.271	4354.46
930.581	4360.79
930.89	4386.55
931.199	4282.83
931.508	4311.07
931.817	4305.88
932.125	4287.8
932.434	4253.22
932.743	4213
933.051	4194.24
933.36	4164.18
933.669	4154.92
933.977	4156.95
934.286	4147.01
934.594	4148.82
934.902	4065.66
935.21	4098.2
935.519	4100.01
935.827	4098.65
936.135	4056.39
936.443	4006.45
936.751	4003.51
937.059	3981.14
937.367	3926.68
937.674	3943.85
937.982	3941.59
938.29	3946.34
938.597	3917.19
938.905	3860.01
939.213	3836.06
939.52	3865.21
939.827	3882.16
940.135	3818.88
940.442	3813.69
940.749	3824.53
941.056	3798.09
941.363	3778.88
941.67	3769.17
941.977	3752.9
942.284	3761.93
942.591	3719.45
942.898	3704.31
943.205	3689.62
943.511	3642.84
943.818	3665.89
944.125	3609.85
944.431	3624.09
944.738	3596.74
945.044	3599.45
945.35	3571.21
945.657	3515.84
945.963	3531.88
946.269	3513.81
946.575	3544.54
946.881	3488.95
947.187	3498.89
947.493	3433.13
947.799	3451.89
948.105	3441.49
948.41	3394.71
948.716	3444.2
949.022	3407.37
949.327	3396.29
949.633	3365.34
949.938	3330.31
950.244	3349.97
950.549	3307.26
950.854	3285.34
951.16	3332.34
951.465	3297.31
951.77	3277.43
952.075	3242.63
952.38	3263.42
952.685	3245.56
952.99	3203.76
953.294	3221.16
953.599	3178
953.904	3190.2
954.209	3148.39
954.513	3136.87
954.818	3150.43
955.122	3150.43
955.426	3115.62
955.731	3094.61
956.035	3094.16
956.339	3054.83
956.643	3074.72
956.948	3029.07
957.252	3032.24
957.556	3027.27
957.86	3016.64
958.163	3001.73
958.467	2921.05
958.771	2968.51
959.075	2976.42
959.378	2918.79
959.682	2931.67
959.985	2928.28
960.289	2912.47
960.592	2896.42
960.896	2915.86
961.199	2874.73
961.502	2863.43
961.805	2841.51
962.108	2835.86
962.411	2819.36
962.714	2803.54
963.017	2787.27
963.32	2787.95
963.623	2753.15
963.926	2750.89
964.228	2759.02
964.531	2693.26
964.833	2733.04
965.136	2699.82
965.438	2720.83
965.741	2711.12
966.043	2668.63
966.345	2660.27
966.648	2670.66
966.95	2667.27
967.252	2623.89
967.554	2612.81
967.856	2606.49
968.158	2627.5
968.46	2595.64
968.761	2595.41
969.063	2566.26
969.365	2601.74
969.666	2541.85
969.968	2516.54
970.269	2517.45
970.571	2505.7
970.872	2517.22
971.174	2480.39
971.475	2495.75
971.776	2508.63
972.077	2437.22
972.378	2408.52
972.679	2469.31
972.98	2478.35
973.281	2427.96
973.582	2429.09
973.883	2409.88
974.183	2376.21
974.484	2403.1
974.785	2382.99
975.085	2390.22
975.386	2346.15
975.686	2329.88
975.986	2343.89
976.287	2328.53
976.587	2301.18
976.887	2326.72
977.187	2292.14
977.487	2317.68
977.787	2285.82
978.087	2300.73
978.387	2257.34
978.687	2244.91
978.987	2233.39
979.286	2239.72
979.586	2246.95
979.885	2200.85
980.185	2215.31
980.484	2205.59
980.784	2174.41
981.083	2165.82
981.382	2181.19
981.682	2161.53
981.981	2172.37
982.28	2150.45
982.579	2115.65
982.878	2154.75
983.177	2115.2
983.475	2113.62
983.774	2115.2
984.073	2093.96
984.372	2096.22
984.67	2069.32
984.969	2070
985.267	2067.29
985.566	2066.16
985.864	2044.01
986.162	2015.31
986.461	2008.76
986.759	1978.03
987.057	2002.66
987.355	1976.45
987.653	1969.67
987.951	1941.42
988.249	1947.97
988.547	1959.27
988.844	1959.5
989.142	1942.1
989.44	1910.23
989.737	1920.18
990.035	1915.88
990.332	1887.86
990.63	1913.85
990.927	1864.36
991.224	1863.45
991.521	1861.42
991.819	1867.3
992.116	1856
992.413	1864.81
992.71	1856.45
993.006	1834.3
993.303	1814.42
993.6	1803.12
993.897	1789.33
994.193	1806.05
994.49	1794.76
994.787	1785.49
995.083	1802.21
995.379	1760.18
995.676	1778.26
995.972	1757.69
996.268	1759.73
996.565	1747.07
996.861	1730.12
997.157	1731.71
997.453	1707.3
997.749	1683.35
998.044	1698.26
998.34	1712.05
998.636	1688.54
998.932	1645.61
999.227	1647.19
999.523	1682.44
999.818	1628.88
1000.114	1641.76
1000.409	1635.21
1000.704	1616.23
1001	1633.4
1001.295	1596.34
1001.59	1596.34
1001.885	1605.83
1002.18	1552.28
1002.475	1585.95
1002.77	1558.6
1003.065	1556.8
1003.359	1536.46
1003.654	1546.4
1003.949	1541.43
1004.243	1510.02
1004.538	1500.75
1004.832	1500.98
1005.127	1516.34
1005.421	1501.43
1005.715	1486.06
1006.009	1498.72
1006.304	1478.15
1006.598	1463.24
1006.892	1440.87
1007.186	1445.16
1007.48	1439.51
1007.773	1427.53
1008.067	1384.6
1008.361	1385.95
1008.655	1384.37
1008.948	1430.24
1009.242	1418.27
1009.535	1370.59
1009.829	1387.53
1010.122	1373.3
1010.415	1352.51
1010.708	1340.98
1011.001	1356.57
1011.295	1358.16
1011.588	1326.29
1011.881	1340.53
1012.173	1311.38
1012.466	1323.58
1012.759	1293.98
1013.052	1331.94
1013.344	1322.23
1013.637	1305.05
1013.93	1280.42
1014.222	1284.49
1014.514	1285.62
1014.807	1259.63
1015.099	1266.86
1015.391	1253.53
1015.683	1243.81
1015.976	1253.3
1016.268	1258.72
1016.56	1208.1
1016.851	1201.1
1017.143	1217.37
1017.435	1188.9
1017.727	1187.31
1018.018	1187.31
1018.31	1183.7
1018.602	1183.7
1018.893	1155.9
1019.185	1171.27
1019.476	1151.61
1019.767	1159.52
1020.058	1139.86
1020.35	1127.43
1020.641	1127.2
1020.932	1131.95
1021.223	1111.61
1021.514	1095.79
1021.804	1107.09
1022.095	1107.54
1022.386	1095.79
1022.677	1065.73
1022.967	1069.12
1023.258	1076.58
1023.548	1078.39
1023.839	1035.45
1024.129	1065.73
1024.419	1027.32
1024.709	1035
1025	1016.24
1025.29	1039.52
1025.58	1000.2
1025.87	993.65
1026.16	1032.52
1026.449	1027.32
1026.739	1012.4
1027.029	985.74
1027.319	991.16
1027.608	990.03
1027.898	987.54
1028.187	964.27
1028.477	944.38
1028.766	945.74
1029.055	958.17
1029.344	948.45
1029.634	943.25
1029.923	947.55
1030.212	930.6
1030.501	918.62
1030.79	911.84
1031.078	925.85
1031.367	907.55
1031.656	884.27
1031.945	886.53
1032.233	877.94
1032.522	880.43
1032.81	888.34
1033.099	887.21
1033.387	876.81
1033.675	846.31
1033.963	848.79
1034.251	852.63
1034.54	852.86
1034.828	839.98
1035.116	877.27
1035.403	830.71
1035.691	795.69
1035.979	818.96
1036.267	799.53
1036.554	832.07
1036.842	809.92
1037.129	803.37
1037.417	798.17
1037.704	799.08
1037.992	788
1038.279	791.62
1038.566	799.53
1038.853	799.53
1039.14	799.53
