Data from white_poster_card_FLMS001491_00038.txt Node
Date: Wed Feb 08 11:51:26 GMT 2017
User: dcchb
Spectrometer: FLMS00149
Trigger mode: 0
Integration Time (sec): 2.000000E-2
Scans to average: 10
Electric dark correction enabled: true
Nonlinearity correction enabled: false
Boxcar width: 0
XAxis mode: Wavelengths
Number of Pixels in Spectrum: 2048
>>>>>Begin Spectral Data<<<<<
341.393	10.44
341.776	10.44
342.16	10.44
342.543	-50.13
342.927	-63.01
343.31	-79.96
343.693	-78.83
344.077	-72.05
344.46	-63.01
344.843	-56.91
345.226	-35.21
345.61	-34.08
345.993	-11.93
346.376	10.89
346.759	4.79
347.142	19.48
347.525	48.4
347.908	54.5
348.291	75.52
348.674	107.61
349.057	110.77
349.44	117.78
349.823	151.9
350.206	160.49
350.588	204.56
350.971	228.51
351.354	219.25
351.737	219.47
352.119	247.72
352.502	262.41
352.884	281.62
353.267	283.42
353.65	299.7
354.032	308.51
354.414	313.25
354.797	330.2
355.179	290.43
355.562	315.06
355.944	336.98
356.326	333.37
356.709	339.69
357.091	330.2
357.473	359.35
357.855	338.11
358.238	338.79
358.62	338.79
359.002	330.66
359.384	322.75
359.766	358.68
360.148	335.17
360.53	346.25
360.912	326.36
361.294	325.46
361.676	335.63
362.057	349.41
362.439	350.32
362.821	336.53
363.203	324.1
363.584	343.76
363.966	341.05
364.348	326.59
364.729	326.14
365.111	324.55
365.493	299.47
365.874	336.3
366.256	315.97
366.637	321.16
367.019	306.02
367.4	312.35
367.781	319.58
368.163	291.33
368.544	317.55
368.925	330.66
369.306	329.07
369.688	318.68
370.069	329.07
370.45	316.64
370.831	317.1
371.212	323.88
371.593	308.51
371.974	314.16
372.355	299.47
372.736	315.06
373.117	308.96
373.498	323.2
373.879	325.23
374.26	312.35
374.641	327.49
375.021	297.21
375.402	313.93
375.783	330.2
376.163	343.99
376.544	341.28
376.925	333.59
377.305	356.19
377.686	322.29
378.066	342.18
378.447	351.67
378.827	345.34
379.208	345.34
379.588	343.99
379.968	308.96
380.349	337.21
380.729	348.73
381.109	359.35
381.489	341.28
381.87	339.47
382.25	348.51
382.63	334.04
383.01	352.12
383.39	351.45
383.77	370.65
384.15	341.5
384.53	359.35
384.91	352.58
385.29	346.7
385.67	346.02
386.049	359.58
386.429	381.28
386.809	363.2
387.189	366.36
387.568	384.44
387.948	381.73
388.328	377.89
388.707	370.88
389.087	378.34
389.466	392.35
389.846	407.49
390.225	390.99
390.605	374.95
390.984	381.73
391.363	388.51
391.743	379.69
392.122	379.47
392.501	416.3
392.881	410.88
393.26	404.78
393.639	412.23
394.018	397.77
394.397	404.55
394.776	420.82
395.155	405.68
395.534	419.24
395.913	407.04
396.292	393.03
396.671	446.58
397.05	422.86
397.429	420.82
397.808	416.98
398.186	414.27
398.565	430.54
398.944	445.68
399.323	434.16
399.701	460.6
400.08	458.79
400.458	449.97
400.837	466.47
401.215	475.28
401.594	466.24
401.972	449.97
402.351	453.59
402.729	457.88
403.107	484.32
403.486	458.79
403.864	474.61
404.242	469.63
404.62	454.49
404.999	484.1
405.377	496.98
405.755	503.08
406.133	496.3
406.511	510.54
406.889	508.96
407.267	522.51
407.645	531.33
408.023	523.42
408.401	529.52
408.779	539.92
409.156	560.25
409.534	574.04
409.912	576.98
410.29	579.01
410.667	598.67
411.045	593.93
411.422	602.29
411.8	632.79
412.178	644.32
412.555	642.74
412.933	647.26
413.31	666.01
413.687	678.89
414.065	723.19
414.442	734.26
414.819	717.54
415.197	746.46
415.574	756.41
415.951	721.15
416.328	763.19
416.705	813.58
417.082	783.98
417.46	834.82
417.837	832.11
418.214	854.48
418.591	833.92
418.967	881.83
419.344	880.47
419.721	885.89
420.098	903.07
420.475	932
420.852	941.94
421.228	949.4
421.605	960.24
421.982	972.45
422.358	968.83
422.735	1005.44
423.111	1005.21
423.488	1047.7
423.864	1037.98
424.241	1048.38
424.617	1078.66
424.994	1067.58
425.37	1102.16
425.746	1089.73
426.123	1110.75
426.499	1141.03
426.875	1150.07
427.251	1200.24
427.627	1190.97
428.003	1217.86
428.379	1202.04
428.756	1262.61
429.132	1282.04
429.507	1259.22
429.883	1290.4
430.259	1297.18
430.635	1329.05
431.011	1334.47
431.387	1365.43
431.763	1410.63
432.138	1404.98
432.514	1424.64
432.89	1454.92
433.265	1513.67
433.641	1484.52
434.016	1480.68
434.392	1507.8
434.767	1582.15
435.143	1579.66
435.518	1580.34
435.894	1627.12
436.269	1626.89
436.644	1630.96
437.02	1641.58
437.395	1653.56
437.77	1688.13
438.145	1738.75
438.52	1718.42
438.895	1761.8
439.271	1751.41
439.646	1773.78
440.021	1785.76
440.395	1769.26
440.77	1800
441.145	1845.19
441.52	1827.79
441.895	1856.72
442.27	1883.16
442.645	1889.94
443.019	1925.19
443.394	1922.03
443.769	1915.47
444.143	1911.86
444.518	1942.59
444.892	1942.82
445.267	1970.84
445.641	1986.66
446.016	2004.51
446.39	1999.76
446.764	2009.48
447.139	1989.37
447.513	2042.7
447.887	2055.58
448.262	2086.99
448.636	2098.52
449.01	2104.62
449.384	2135.58
449.758	2167.67
450.132	2147.33
450.506	2178.74
450.88	2188.91
451.254	2174.45
451.628	2180.55
452.002	2239.08
452.376	2233.66
452.75	2304.16
453.123	2301
453.497	2351.62
453.871	2377.83
454.244	2403.59
454.618	2392.52
454.992	2429.36
455.365	2413.09
455.739	2493.76
456.112	2489.24
456.486	2545.29
456.859	2530.15
457.232	2594.78
457.606	2559.98
457.979	2596.36
458.352	2679.29
458.725	2741.67
459.099	2731.95
459.472	2781.66
459.845	2778.05
460.218	2798.84
460.591	2873.87
460.964	2828.44
461.337	2882
461.71	2926.75
462.083	3006.74
462.456	2959.74
462.829	2988.89
463.201	3106.18
463.574	3105.27
463.947	3126.51
464.32	3219.39
464.692	3218.49
465.065	3267.75
465.438	3312.95
465.81	3312.5
466.183	3362.67
466.555	3398.15
466.928	3464.13
467.3	3470.91
467.672	3514.53
468.045	3544.81
468.417	3581.19
468.789	3612.83
469.161	3702.09
469.534	3720.85
469.906	3827.51
470.278	3806.95
470.65	3879.94
471.022	3945.7
471.394	3996.55
471.766	3988.41
472.138	4111.12
472.51	4166.71
472.882	4172.59
473.253	4208.29
473.625	4302.08
473.997	4403.77
474.369	4405.58
474.74	4441.96
475.112	4573.93
475.484	4643.54
475.855	4683.31
476.227	4720.82
476.598	4834.49
476.97	4945
477.341	4997.65
477.713	5088.04
478.084	5091.66
478.455	5219.57
478.827	5300.92
479.198	5412.78
479.569	5470.63
479.94	5574.36
480.311	5634.47
480.682	5788.36
481.053	5877.4
481.424	5970.28
481.795	6022.03
482.166	6102.48
482.537	6200.11
482.908	6268.8
483.279	6376.82
483.65	6477.16
484.021	6636.93
484.391	6676.7
484.762	6742.46
485.133	6790.15
485.503	6945.85
485.874	7039.63
486.244	7153.3
486.615	7199.18
486.985	7364.59
487.356	7433.97
487.726	7542.89
488.097	7626.73
488.467	7693.85
488.837	7850.01
489.207	7976.33
489.578	8070.56
489.948	8120.28
490.318	8243.67
490.688	8282.31
491.058	8447.5
491.428	8569.08
491.798	8604.79
492.168	8812.92
492.538	8849.98
492.908	8908.06
493.278	9030.99
493.648	9060.14
494.017	9213.81
494.387	9326.35
494.757	9352.56
495.126	9427.82
495.496	9477.53
495.866	9628.72
496.235	9694.48
496.605	9831.42
496.974	9772.89
497.344	9848.82
497.713	9925.21
498.082	10115.26
498.452	10204.07
498.821	10262.82
499.19	10288.36
499.559	10460.11
499.928	10489.26
500.298	10519.09
500.667	10711.17
501.036	10602.48
501.405	10809.7
501.774	10761.57
502.143	10839.08
502.512	10873.88
502.88	11030.94
503.249	11097.15
503.618	11147.77
503.987	11203.59
504.356	11332.4
504.724	11358.16
505.093	11378.95
505.462	11531.04
505.83	11619.62
506.199	11693.29
506.567	11865.72
506.936	11789.79
507.304	11952.5
507.672	11958.6
508.041	12115.2
508.409	12176.9
508.777	12279.04
509.145	12469.77
509.514	12468.19
509.882	12497.34
510.25	12528.53
510.618	12663.89
510.986	12740.27
511.354	12876.77
511.722	12936.43
512.09	13073.37
512.458	13163.54
512.826	13171.67
513.193	13284.89
513.561	13394.04
513.929	13510.2
514.297	13663.86
514.664	13742.96
515.032	13765.1
515.4	13873.12
515.767	13938.66
516.135	14107.92
516.502	13995.15
516.869	14177.97
517.237	14262.72
517.604	14368.48
517.972	14567.12
518.339	14575.25
518.706	14645.31
519.073	14683.05
519.44	14820.9
519.808	14959.88
520.175	15076.48
520.542	15239.87
520.909	15357.38
521.276	15329.13
521.643	15559.63
522.009	15609.35
522.376	15737.48
522.743	15824.03
523.11	15950.13
523.477	16214.08
523.843	16208.66
524.21	16434.86
524.577	16626.72
524.943	16618.81
525.31	16812.26
525.676	16920.5
526.043	17052.48
526.409	17105.58
526.776	17369.08
527.142	17320.26
527.508	17517.32
527.874	17672.12
528.241	17715.28
528.607	17797.77
528.973	17991.89
529.339	18032.79
529.705	18237.3
530.071	18364.31
530.437	18483.17
530.803	18536.73
531.169	18654.24
531.535	18721.81
531.901	18796.61
532.267	18849.72
532.632	19053.78
532.998	19050.84
533.364	19276.15
533.73	19243.15
534.095	19418.74
534.461	19510.72
534.826	19510.49
535.192	19684.5
535.557	19754.78
535.923	19861.22
536.288	19809.92
536.653	19974.21
537.019	19964.72
537.384	20131.94
537.749	20223.69
538.114	20206.74
538.479	20281.99
538.845	20457.81
539.21	20437.02
539.575	20534.42
539.94	20589.11
540.305	20729.89
540.67	20735.32
541.034	20765.15
541.399	20933.73
541.764	21099.37
542.129	21071.8
542.494	21145.48
542.858	21198.13
543.223	21277
543.587	21375.53
543.952	21487.16
544.316	21498.69
544.681	21548.85
545.045	21720.38
545.41	21852.58
545.774	21938.22
546.138	21814.16
546.503	21865.91
546.867	22019.12
547.231	22165.79
547.595	22212.34
547.959	22303.18
548.324	22367.59
548.688	22331.66
549.052	22388.61
549.416	22597.64
549.779	22556.74
550.143	22614.59
550.507	22794.47
550.871	22846
551.235	22880.57
551.599	23148.13
551.962	23125.31
552.326	23176.83
552.689	23307
553.053	23339.77
553.417	23362.37
553.78	23611.17
554.143	23562.36
554.507	23740.44
554.87	23740.21
555.234	24019.98
555.597	23916.7
555.96	24006.19
556.323	24245.28
556.686	24192.63
557.05	24402.79
557.413	24560.98
557.776	24494.09
558.139	24721.43
558.502	24672.84
558.865	24849.33
559.228	24955.77
559.59	25018.14
559.953	25170.68
560.316	25405.48
560.679	25529.77
561.041	25646.83
561.404	25697.45
561.767	25845.01
562.129	25831.23
562.492	26126.36
562.854	26080.71
563.217	26064.44
563.579	26222.86
563.941	26362.29
564.304	26473.02
564.666	26648.38
565.028	26662.39
565.39	26839.11
565.753	26971.31
566.115	27152.1
566.477	27270.74
566.839	27231.64
567.201	27411.3
567.563	27510.05
567.925	27670.05
568.287	27710.27
568.648	27827.79
569.01	27965.86
569.372	28053.32
569.734	28006.54
570.095	28298.28
570.457	28334.44
570.819	28455.79
571.18	28537.82
571.542	28628.44
571.903	28625.5
572.265	28820.3
572.626	28805.16
572.987	28935.55
573.349	28977.59
573.71	29033.4
574.071	29145.04
574.432	29389.78
574.794	29597.68
575.155	29440.62
575.516	29544.12
575.877	29595.42
576.238	29637.68
576.599	29753.61
576.96	29734.4
577.32	29840.84
577.681	29945.47
578.042	30017.78
578.403	30047.39
578.763	30112.47
579.124	30071.34
579.485	30249.19
579.845	30248.74
580.206	30192.92
580.566	30210.1
580.927	30264.33
581.287	30450.09
581.648	30338.91
582.008	30393.82
582.368	30448.28
582.728	30406.93
583.089	30383.65
583.449	30460.71
583.809	30466.81
584.169	30489.41
584.529	30454.38
584.889	30721.04
585.249	30530.77
585.609	30466.59
585.969	30666.58
586.329	30540.93
586.688	30580.03
587.048	30566.02
587.408	30650.54
587.768	30447.6
588.127	30547.71
588.487	30414.16
588.846	30820.02
589.206	30608.73
589.565	30456.42
589.925	30855.28
590.284	30710.42
590.643	30798.33
591.003	30735.96
591.362	30954.26
591.721	30747.26
592.08	30732.12
592.44	30823.86
592.799	30853.92
593.158	30888.72
593.517	30730.31
593.876	30844.43
594.235	30750.42
594.593	30791.32
594.952	30905.44
595.311	30860.7
595.67	30832.9
596.029	31080.36
596.387	31066.57
596.746	31010.53
597.104	30959.91
597.463	30913.13
597.822	31157.87
598.18	31023.18
598.538	31081.71
598.897	31192.67
599.255	30837.2
599.613	31373.45
599.972	31082.61
600.33	31259.33
600.688	31173.23
601.046	31360.12
601.404	31451.19
601.762	31311.08
602.12	31464.3
602.478	31400.12
602.836	31394.25
603.194	31270.86
603.552	31329.61
603.91	31329.61
604.268	31534.13
604.625	31414.13
604.983	31498.88
605.341	31436.5
605.698	31523.06
606.056	31509.5
606.413	31631.98
606.771	31664.97
607.128	31630.4
607.485	31570.29
607.843	31595.6
608.2	31788.81
608.557	31758.53
608.914	31772.99
609.272	31971.18
609.629	31855.7
609.986	32050.73
610.343	31852.54
610.7	32094.79
611.057	32077.17
611.414	32153.55
611.771	32091.18
612.127	32170.04
612.484	32203.26
612.841	32201.23
613.198	32175.24
613.554	32281.45
613.911	32468.79
614.267	32355.8
614.624	32321.68
614.98	32356.71
615.337	32501.79
615.693	32379.3
616.05	32388.34
616.406	32588.56
616.762	32361.68
617.118	32523.93
617.475	32461.79
617.831	32627.43
618.187	32620.65
618.543	32613.2
618.899	32814.55
619.255	32639.86
619.611	32756.92
619.967	32819.97
620.323	32790.37
620.678	32689.8
621.034	32666.3
621.39	32794.89
621.746	32679.18
622.101	32979.06
622.457	32758.73
622.812	32768.67
623.168	32881.21
623.523	32760.31
623.879	32883.02
624.234	32696.36
624.589	32961.21
624.945	32816.58
625.3	32993.07
625.655	32824.72
626.01	32855
626.365	32974.32
626.72	32831.04
627.075	32809.58
627.43	32792.63
627.785	32685.96
628.14	32737.49
628.495	32801.89
628.85	32734.32
629.205	32681.89
629.559	32761.67
629.914	32657.04
630.269	32646.64
630.623	32632.63
630.978	32571.39
631.332	32599.86
631.687	32580.2
632.041	32501.56
632.396	32727.32
632.75	32405.74
633.104	32406.87
633.459	32355.12
633.813	32435.57
634.167	32288.91
634.521	32292.75
634.875	32459.75
635.229	32299.53
635.583	32132.3
635.937	32170.5
636.291	32096.83
636.645	32125.07
636.999	31989.94
637.352	32025.64
637.706	31871.07
638.06	31947
638.413	31983.38
638.767	31738.42
639.121	31887.57
639.474	31595.82
639.828	31625.43
640.181	31766.21
640.534	31582.71
640.888	31624.97
641.241	31446.9
641.594	31440.35
641.947	31542.94
642.301	31472.44
642.654	31452.77
643.007	31390.4
643.36	31343.63
643.713	31316.06
644.066	31436.05
644.419	31229.28
644.771	31005.33
645.124	30749.97
645.477	30585.23
645.83	30485.34
646.182	30256.42
646.535	30334.16
646.888	30295.74
647.24	30160.61
647.593	30219.13
647.945	30130.78
648.298	29998.12
648.65	29985.02
649.002	30013.26
649.355	30043.77
649.707	29950.89
650.059	29975.3
650.411	30413.25
650.763	30437.66
651.115	30750.19
651.467	30597.66
651.819	30574.38
652.171	30612.34
652.523	30514.95
652.875	30559.92
653.227	30200.6
653.578	30529.86
653.93	30512.46
654.282	30375.29
654.633	30382.97
654.985	30302.75
655.337	30229.3
655.688	30182.53
656.039	30312.47
656.391	30002.19
656.742	30136.88
657.094	30239.02
657.445	30140.72
657.796	30173.94
658.147	30071.12
658.498	30088.52
658.849	30107.27
659.2	29978.24
659.551	29906.6
659.902	30049.65
660.253	30007.16
660.604	29995.86
660.955	29816.89
661.306	30035.18
661.656	29836.77
662.007	29817.56
662.358	29880.16
662.708	29812.37
663.059	29863.89
663.409	29578.02
663.76	29852.36
664.11	29834.29
664.461	29864.34
664.811	29744.8
665.161	29705.93
665.511	29676.32
665.862	29656.21
666.212	29729.43
666.562	29743.44
666.912	29686.49
667.262	29705.93
667.612	29619.6
667.962	29607.17
668.312	29564.01
668.662	29762.65
669.011	29518.59
669.361	29536.67
669.711	29588.87
670.06	29491.47
670.41	29381.19
670.76	29446.5
671.109	29585.71
671.459	29478.59
671.808	29400.4
672.157	29422.09
672.507	29241.08
672.856	29223
673.205	29290.8
673.554	29391.59
673.904	29329.21
674.253	29372.38
674.602	29199.5
674.951	28717.71
675.3	28753.86
675.649	29244.47
675.998	29099.62
676.346	29162.67
676.695	29168.31
677.044	28994.53
677.393	29168.54
677.741	29111.37
678.09	29006.96
678.438	29044.93
678.787	28970.58
679.135	28872.05
679.484	28778.72
679.832	28926.51
680.181	28766.74
680.529	28833.18
680.877	28655.11
681.225	28690.59
681.573	28704.15
681.922	28564.72
682.27	28540.53
682.618	28596.13
682.966	28425.96
683.314	28298.51
683.661	28356.13
684.009	28179.64
684.357	28218.51
684.705	28075.24
685.053	28121.11
685.4	28211.05
685.748	27970.38
686.095	28024.16
686.443	27754.34
686.79	27814
687.138	27825.53
687.485	27879.99
687.832	27750.95
688.18	27734
688.527	27523.39
688.874	27609.71
689.221	27543.27
689.568	27392.54
689.915	27353.67
690.262	27256.5
690.609	27262.38
690.956	27124.75
691.303	27095.6
691.65	27051.31
691.997	26976.73
692.344	26831.43
692.69	26768.15
693.037	26797.98
693.383	26641.38
693.73	26749.17
694.077	26537.2
694.423	26551.43
694.769	26517.76
695.116	26390.08
695.462	26416.07
695.808	26272.35
696.155	26348.95
696.501	26142.63
696.847	26075.97
697.193	25954.61
697.539	26018.34
697.885	25844.33
698.231	25704.45
698.577	25869.19
698.923	25764.56
699.269	25555.75
699.614	25471.91
699.96	25424.01
700.306	25372.93
700.651	25325.03
700.997	25213.39
701.342	25176.56
701.688	25126.39
702.033	25157.12
702.379	25112.38
702.724	24872.61
703.069	25034.86
703.415	24752.16
703.76	24767.07
704.105	24686.17
704.45	24697.25
704.795	24589.68
705.14	24475.56
705.485	24419.74
705.83	24280.08
706.175	24393.3
706.52	24269.69
706.865	24211.16
707.209	24027.66
707.554	24086.19
707.899	24150.37
708.243	23973.42
708.588	23877.15
708.932	23805.97
709.277	23690.27
709.621	23737.27
709.966	23655.24
710.31	23634.68
710.654	23481.01
710.998	23483.04
711.342	23415.92
711.687	23449.82
712.031	23333.67
712.375	23222.48
712.719	23225.87
713.063	23203.27
713.407	23177.96
713.75	23064.97
714.094	23124.18
714.438	22905.65
714.782	22953.34
715.125	22774.81
715.469	22894.81
715.812	22673.12
716.156	22650.75
716.499	22727.81
716.843	22679.22
717.186	22578.43
717.53	22648.49
717.873	22705.66
718.216	22558.32
718.559	22472.9
718.902	22321.04
719.246	22290.3
719.589	22271.55
719.932	22148.39
720.275	22137.77
720.617	22175.73
720.96	22093.47
721.303	22119.46
721.646	22226.12
721.989	21997.2
722.331	22072.46
722.674	21953.59
723.016	22040.37
723.359	21788.62
723.701	21894.61
724.044	21794.27
724.386	21723.76
724.729	21760.6
725.071	21568.74
725.413	21659.13
725.755	21592.69
726.097	21416.88
726.439	21592.92
726.782	21498.46
727.124	21578.23
727.465	21351.12
727.807	21418.24
728.149	21298.69
728.491	21339.14
728.833	21383.89
729.175	21272.7
729.516	21135.98
729.858	21144.57
730.199	21090.79
730.541	21090.56
730.882	21034.74
731.224	21087.4
731.565	20888.53
731.906	20941.86
732.248	20898.02
732.589	20816.44
732.93	20769.89
733.271	20773.28
733.612	20824.13
733.953	20769.21
734.294	20573.51
734.635	20669.56
734.976	20697.13
735.317	20540.07
735.658	20573.51
735.999	20568.09
736.339	20623
736.68	20584.36
737.021	20416.23
737.361	20302.79
737.702	20542.78
738.042	20309.56
738.383	20212.62
738.723	20441.09
739.063	20343.24
739.404	20384.14
739.744	20272.28
740.084	20197.48
740.424	20132.39
740.764	20163.81
741.104	20199.51
741.444	19980.99
741.784	19984.83
742.124	20078.38
742.464	20035.67
742.804	19980.76
743.143	19848.11
743.483	19952.06
743.823	19810.14
744.162	19780.54
744.502	19743.48
744.841	19660.99
745.181	19778.73
745.52	19583.03
745.86	19653.76
746.199	19573.09
746.538	19555.23
746.877	19580.54
747.216	19665.06
747.556	19529.47
747.895	19414.9
748.234	19433.43
748.573	19417.84
748.911	19323.15
749.25	19338.97
749.589	19283.83
749.928	19239.54
750.267	19305.52
750.605	19202.25
750.944	19139.2
751.283	19068.47
751.621	19129.48
751.96	18877.29
752.298	19034.34
752.636	18981.01
752.975	18771.75
753.313	18828.25
753.651	18839.1
753.989	18820.79
754.327	18727.01
754.666	18615.6
755.004	18693.11
755.342	18677.07
755.679	18634.13
756.017	18495.15
756.355	18634.35
756.693	18509.16
757.031	18439.33
757.368	18291.76
757.706	18276.85
758.044	18245.44
758.381	18259.68
758.719	18147.81
759.056	18212.22
759.394	18056.97
759.731	17991.43
760.068	17896.07
760.405	17830.53
760.743	17684.32
761.08	17872.79
761.417	17705.34
761.754	17697.43
762.091	17638
762.428	17623.53
762.765	17509.19
763.102	17518
763.438	17460.6
763.775	17366.37
764.112	17391.22
764.449	17404.78
764.785	17212.92
765.122	17175.86
765.458	17162.3
765.795	17085.47
766.131	17026.04
766.467	16905.36
766.804	16951.91
767.14	16796.21
767.476	16831.24
767.812	16765.93
768.148	16736.33
768.485	16704.24
768.821	16546.27
769.157	16511.47
769.492	16434.86
769.828	16506.5
770.164	16252.27
770.5	16229.22
770.836	16162.78
771.171	16097.02
771.507	16113.52
771.842	15934.99
772.178	16021.32
772.513	15881.66
772.849	15958.94
773.184	15863.81
773.519	15840.08
773.855	15712.17
774.19	15664.26
774.525	15578.39
774.86	15507.21
775.195	15490.26
775.53	15457.72
775.865	15432.63
776.2	15372.97
776.535	15221.79
776.87	15225.18
777.205	15148.8
777.539	15115.13
777.874	15100.44
778.209	14988.12
778.543	14955.58
778.878	14827.9
779.212	14841.46
779.547	14730.05
779.881	14754.23
780.215	14689.15
780.55	14723.72
780.884	14658.87
781.218	14554.46
781.552	14622.48
781.886	14409.83
782.22	14411.41
782.554	14325.77
782.888	14188.37
783.222	14124.19
783.556	14094.59
783.889	14023.4
784.223	14055.04
784.557	13945.66
784.89	13986.79
785.224	13872.9
785.557	13930.07
785.891	13749.51
786.224	13749.51
786.558	13748.83
786.891	13633.36
787.224	13667.25
787.557	13568.27
787.891	13566.47
788.224	13438.56
788.557	13420.93
788.89	13369.86
789.223	13366.24
789.556	13239.47
789.888	13229.07
790.221	13196.31
790.554	13077.21
790.887	13097.55
791.219	13069.3
791.552	13037.67
791.884	12989.53
792.217	12855.07
792.549	12811.68
792.882	12839.03
793.214	12681.52
793.546	12736.66
793.879	12599.71
794.211	12470
794.543	12618.24
794.875	12548.86
795.207	12578.47
795.539	12528.3
795.871	12494.86
796.203	12438.36
796.535	12358.81
796.867	12327.85
797.198	12290.79
797.53	12339.83
797.862	12221.87
798.193	12238.14
798.525	12148.65
798.856	12128.99
799.188	12006.28
799.519	12021.65
799.85	11956.56
800.182	11839.05
800.513	11906.4
800.844	11821.43
801.175	11842.89
801.506	11825.95
801.837	11811.48
802.168	11821.65
802.499	11738.72
802.83	11677.7
803.161	11677.93
803.491	11617.14
803.822	11552.96
804.153	11526.97
804.483	11512.51
804.814	11372.62
805.145	11362.46
805.475	11333.53
805.805	11323.36
806.136	11393.64
806.466	11341.44
806.796	11237.49
807.126	11239.07
807.457	11172.4
807.787	11135.79
808.117	11092.86
808.447	11017.61
808.777	11087.89
809.107	11013.76
809.436	10922.92
809.766	11044.5
810.096	10895.8
810.426	10840.21
810.755	10928.34
811.085	10794.56
811.414	10779.65
811.744	10770.83
812.073	10678.86
812.403	10726.77
812.732	10607
813.061	10668.91
813.39	10666.2
813.719	10560.67
814.049	10647.22
814.378	10564.06
814.707	10483.16
815.036	10513.89
815.365	10511.4
815.693	10425.53
816.022	10442.48
816.351	10384.18
816.68	10370.39
817.008	10303.73
817.337	10225.99
817.665	10287
817.994	10238.64
818.322	10208.36
818.651	10121.58
818.979	10081.59
819.307	10210.17
819.636	10177.18
819.964	10129.49
820.292	10115.71
820.62	10093.11
820.948	10077.52
821.276	10042.49
821.604	10057.86
821.932	10071.19
822.259	10072.32
822.587	10014.69
822.915	9940.12
823.243	10055.6
823.57	9981.7
823.898	10047.46
824.225	9979.67
824.553	10002.72
824.88	9995.71
825.207	10073.22
825.535	10032.55
825.862	10093.56
826.189	10048.59
826.516	9955.26
826.843	10086.78
827.17	10045.2
827.497	10047.91
827.824	9969.72
828.151	10033.9
828.478	9957.07
828.805	10023.06
829.131	9976.96
829.458	9946.22
829.785	9980.8
830.111	9890.18
830.438	10038.42
830.764	10018.08
831.09	9963.17
831.417	9933.11
831.743	9968.59
832.069	9989.38
832.395	9919.1
832.722	9956.62
833.048	9903.06
833.374	9902.15
833.7	9849.95
834.026	9904.19
834.351	9855.6
834.677	9878.43
835.003	9851.76
835.329	9914.58
835.654	9852.66
835.98	9856.28
836.306	9807.47
836.631	9809.28
836.956	9762.5
837.282	9825.09
837.607	9777.19
837.932	9743.97
838.258	9691.54
838.583	9721.14
838.908	9655.38
839.233	9673.23
839.558	9684.53
839.883	9622.39
840.208	9631.65
840.533	9636.85
840.858	9587.36
841.182	9671.65
841.507	9562.05
841.832	9510.07
842.156	9518.21
842.481	9479.12
842.805	9470.75
843.13	9429.17
843.454	9415.61
843.778	9391.66
844.103	9347.59
844.427	9295.84
844.751	9308.05
845.075	9303.07
845.399	9362.51
845.723	9244.77
846.047	9222.62
846.371	9160.48
846.695	9181.5
847.019	9094.72
847.343	9078
847.666	8999.58
847.99	8936.3
848.313	8960.71
848.637	8925.01
848.96	8874.16
849.284	8934.5
849.607	8797.55
849.931	8827.61
850.254	8767.5
850.577	8681.4
850.9	8625.58
851.223	8639.36
851.546	8616.09
851.869	8516.65
852.192	8656.09
852.515	8492.93
852.838	8447.05
853.161	8476.43
853.483	8419.48
853.806	8293.38
854.129	8313.72
854.451	8311.24
854.774	8275.53
855.096	8268.75
855.419	8255.19
855.741	8257.68
856.063	8212.26
856.385	8211.58
856.708	8155.99
857.03	8129.32
857.352	8139.94
857.674	8090.9
857.996	8081.86
858.318	7989.44
858.64	8055.88
858.961	8004.13
859.283	7961.64
859.605	7944.69
859.926	7948.99
860.248	7939.27
860.57	7881.42
860.891	7849.55
861.212	7843.68
861.534	7853.4
861.855	7795.54
862.176	7798.26
862.498	7753.74
862.819	7771.14
863.14	7769.1
863.461	7762.55
863.782	7692.72
864.103	7796.45
864.424	7701.53
864.745	7716.68
865.065	7683.68
865.386	7647.07
865.707	7549.22
866.027	7710.35
866.348	7637.36
866.668	7587.41
866.989	7664.25
867.309	7510.35
867.63	7525.49
867.95	7527.3
868.27	7514.42
868.59	7498.83
868.91	7463.35
869.23	7503.57
869.55	7466.96
869.87	7444.59
870.19	7406.85
870.51	7446.63
870.83	7413.18
871.15	7426.29
871.469	7434.2
871.789	7398.04
872.109	7390.58
872.428	7322.79
872.748	7358.94
873.067	7344.71
873.386	7311.94
873.706	7283.01
874.025	7266.52
874.344	7253.41
874.663	7278.27
874.982	7250.25
875.301	7216.35
875.62	7216.35
875.939	7209.8
876.258	7180.64
876.577	7190.81
876.896	7164.15
877.214	7172.51
877.533	7125.05
877.852	7112.17
878.17	7137.71
878.489	7127.09
878.807	7108.56
879.125	7155.33
879.444	7139.74
879.762	7085.51
880.08	7057.03
880.398	6996.69
880.716	7070.82
881.034	7007.54
881.352	7019.97
881.67	7032.17
881.988	6981.78
882.306	6973.19
882.624	6953.76
882.941	6938.17
883.259	6897.26
883.577	6825.63
883.894	6870.6
884.212	6861.56
884.529	6828.34
884.846	6774.78
885.164	6842.12
885.481	6771.84
885.798	6830.82
886.115	6732.75
886.432	6777.04
886.75	6749.92
887.067	6741.56
887.383	6707.21
887.7	6712.18
888.017	6695.46
888.334	6666.53
888.651	6671.05
888.967	6644.61
889.284	6596.93
889.6	6574.33
889.917	6475.8
890.233	6580.89
890.55	6548.12
890.866	6475.8
891.182	6528.46
891.498	6478.29
891.815	6451.62
892.131	6443.49
892.447	6367.56
892.763	6398.74
893.079	6462.92
893.395	6338.41
893.71	6347.22
894.026	6319.42
894.342	6323.04
894.657	6240.78
894.973	6220.22
895.289	6195.36
895.604	6272.19
895.92	6183.38
896.235	6172.31
896.55	6199.88
896.865	6178.86
897.181	6152.2
897.496	6092.76
897.811	6075.14
898.126	6051.18
898.441	6019.32
898.756	6034.69
899.071	6025.87
899.386	5971.64
899.7	5975.25
900.015	5927.8
900.33	5834.92
900.644	5892.09
900.959	5859.78
901.273	5861.36
901.588	5826.33
901.902	5778.87
902.216	5773.9
902.531	5761.25
902.845	5772.09
903.159	5707.24
903.473	5735.26
903.787	5681.02
904.101	5652.78
904.415	5621.82
904.729	5622.04
905.042	5584.08
905.356	5627.47
905.67	5542.5
905.984	5572.55
906.297	5601.25
906.611	5527.13
906.924	5504.76
907.237	5491.42
907.551	5455.49
907.864	5436.28
908.177	5462.05
908.491	5349.96
908.804	5380.47
909.117	5322.84
909.43	5316.29
909.743	5313.12
910.056	5296.63
910.368	5269.96
910.681	5255.05
910.994	5219.79
911.307	5192.9
911.619	5165.1
911.932	5190.19
912.244	5109.96
912.557	5107.93
912.869	5121.26
913.181	5086.24
913.494	5077.2
913.806	4995.39
914.118	5112.9
914.43	4982.51
914.742	4986.58
915.054	5013.92
915.366	4921.49
915.678	4937.77
915.99	4922.17
916.302	4889.86
916.613	4839.46
916.925	4810.99
917.236	4853.25
917.548	4866.36
917.859	4837.66
918.171	4751.56
918.482	4737.77
918.794	4724.89
919.105	4735.29
919.416	4641.73
919.727	4720.37
920.038	4686.47
920.349	4634.72
920.66	4585.68
920.971	4593.14
921.282	4577.1
921.593	4583.42
921.903	4571.45
922.214	4475.63
922.525	4508.62
922.835	4509.98
923.146	4488.29
923.456	4470.43
923.767	4444.45
924.077	4467.95
924.387	4403.54
924.697	4384.33
925.008	4375.75
925.318	4390.89
925.628	4390.89
925.938	4354.5
926.248	4283.77
926.558	4327.84
926.867	4300.72
927.177	4220.5
927.487	4222.08
927.796	4214.17
928.106	4209.65
928.416	4184.11
928.725	4205.36
929.034	4126.04
929.344	4123.32
929.653	4098.24
929.962	4072.48
930.271	4079.03
930.581	4102.31
930.89	4056.21
931.199	4010.11
931.508	3992.93
931.817	3989.77
932.125	3975.31
932.434	4004
932.743	3943.22
933.051	3944.57
933.36	3953.84
933.669	3893.95
933.977	3827.51
934.286	3857.34
934.594	3869.32
934.902	3836.1
935.21	3832.94
935.519	3830.45
935.827	3804.91
936.135	3752.26
936.443	3778.7
936.751	3725.14
937.059	3692.83
937.367	3701.87
937.674	3683.34
937.982	3700.74
938.29	3659.38
938.597	3679.27
938.905	3687.4
939.213	3653.28
939.52	3584.81
939.827	3603.79
940.135	3586.16
940.442	3567.18
940.749	3570.8
941.056	3529.44
941.363	3536.22
941.67	3522.44
941.977	3490.35
942.284	3456.45
942.591	3448.31
942.898	3455.77
943.205	3426.39
943.511	3376.22
943.818	3421.87
944.125	3387.3
944.431	3351.37
944.738	3385.26
945.044	3341.2
945.35	3345.72
945.657	3321.08
945.963	3262.33
946.269	3301.42
946.575	3243.57
946.881	3259.62
947.187	3263.01
947.493	3244.48
947.799	3201.77
948.105	3218.04
948.41	3211.94
948.716	3197.7
949.022	3176.91
949.327	3128.77
949.633	3137.14
949.938	3146.63
950.244	3104.59
950.549	3095.33
950.854	3078.38
951.16	3080.87
951.465	3093.52
951.77	3040.19
952.075	3024.14
952.38	3007.19
952.685	3009.68
952.99	2994.54
953.294	2994.31
953.599	2980.08
953.904	2958.38
954.209	2919.97
954.513	2909.12
954.818	2934.65
955.122	2933.98
955.426	2907.31
955.731	2895.11
956.035	2901.44
956.339	2852.62
956.643	2853.07
956.948	2809.91
957.252	2845.17
957.556	2825.05
957.86	2767.88
958.163	2771.72
958.467	2813.98
958.771	2797.26
959.075	2778.05
959.378	2728.11
959.682	2754.77
959.985	2735.34
960.289	2708.22
960.592	2701.21
960.896	2727.65
961.199	2673.19
961.502	2669.35
961.805	2641.1
962.108	2666.86
962.411	2674.32
962.714	2625.74
963.017	2612.18
963.32	2638.84
963.623	2601.56
963.926	2619.63
964.228	2559.75
964.531	2572.4
964.833	2563.14
965.136	2516.13
965.438	2537.15
965.741	2517.26
966.043	2491.05
966.345	2483.82
966.648	2512.52
966.95	2481.11
967.252	2493.54
967.554	2451.73
967.856	2467.32
968.158	2441.56
968.46	2417.61
968.761	2435.01
969.063	2410.6
969.365	2389.36
969.666	2432.75
969.968	2365.18
970.269	2381
970.571	2362.47
970.872	2341.9
971.174	2349.36
971.475	2373.54
971.776	2311.39
972.077	2305.74
972.378	2312.75
972.679	2279.3
972.98	2293.99
973.281	2266.2
973.582	2279.98
973.883	2245.86
974.183	2263.49
974.484	2243.6
974.785	2219.87
975.085	2249.93
975.386	2200.21
975.686	2214.67
975.986	2192.98
976.287	2180.1
976.587	2174.45
976.887	2150.04
977.187	2145.97
977.487	2159.99
977.787	2137.61
978.087	2129.7
978.387	2125.18
978.687	2152.3
978.987	2126.54
979.286	2096.03
979.586	2096.48
979.885	2062.14
980.185	2070.04
980.484	2059.65
980.784	2042.7
981.083	2063.26
981.382	2037.05
981.682	2004.74
981.981	2023.27
982.28	2030.72
982.579	2012.87
982.878	2016.26
983.177	2014.23
983.475	2007.9
983.774	1975.13
984.073	1966.77
984.372	1955.7
984.67	1931.52
984.969	1922.48
985.267	1954.79
985.566	1950.05
985.864	1894.23
986.162	1913.66
986.461	1875.25
986.759	1900.11
987.057	1868.47
987.355	1879.99
987.653	1897.62
987.951	1857.39
988.249	1825.76
988.547	1860.78
988.844	1824.85
989.142	1843.38
989.44	1816.49
989.737	1795.7
990.035	1793.22
990.332	1789.6
990.63	1823.05
990.927	1778.53
991.224	1779.43
991.521	1739.43
991.819	1775.59
992.116	1748.47
992.413	1741.01
992.71	1717.74
993.006	1750.5
993.303	1739.88
993.6	1697.4
993.897	1695.82
994.193	1717.96
994.49	1666.89
994.787	1707.34
995.083	1657.85
995.379	1670.28
995.676	1643.61
995.972	1646.78
996.268	1623.5
996.565	1648.13
996.861	1655.59
997.157	1628.47
997.453	1601.36
997.749	1626.67
998.044	1597.06
998.34	1581.47
998.636	1610.4
998.932	1573.79
999.227	1561.81
999.523	1566.1
999.818	1557.97
1000.114	1552.77
1000.409	1580.34
1000.704	1517.29
1001	1520
1001.295	1509.61
1001.59	1517.06
1001.885	1528.14
1002.18	1485.43
1002.475	1463.05
1002.77	1500.57
1003.065	1470.96
1003.359	1467.57
1003.654	1488.14
1003.949	1461.25
1004.243	1409.04
1004.538	1431.87
1004.832	1431.64
1005.127	1442.94
1005.421	1398.42
1005.715	1393
1006.009	1396.84
1006.304	1400.91
1006.598	1388.71
1006.892	1364.07
1007.186	1373.34
1007.48	1383.06
1007.773	1344.19
1008.067	1329.72
1008.361	1330.4
1008.655	1318.43
1008.948	1324.75
1009.242	1320.01
1009.535	1321.82
1009.829	1318.2
1010.122	1293.57
1010.415	1284.53
1010.708	1299.44
1011.001	1280.01
1011.295	1284.08
1011.588	1264.42
1011.881	1268.03
1012.173	1235.72
1012.466	1276.17
1012.759	1250.18
1013.052	1232.1
1013.344	1253.34
1013.637	1240.46
1013.93	1200.01
1014.222	1220.58
1014.514	1204.98
1014.807	1185.1
1015.099	1190.75
1015.391	1201.59
1015.683	1202.5
1015.976	1180.58
1016.268	1198.65
1016.56	1182.38
1016.851	1136.28
1017.143	1139.9
1017.435	1131.54
1017.727	1122.05
1018.018	1146.68
1018.31	1144.87
1018.602	1106.23
1018.893	1109.84
1019.185	1114.14
1019.476	1084.99
1019.767	1079.34
1020.058	1058.09
1020.35	1089.96
1020.641	1075.27
1020.932	1049.51
1021.223	1068.26
1021.514	1070.52
1021.804	1031.88
1022.095	1032.33
1022.386	1042.27
1022.677	1026.91
1022.967	1026.91
1023.258	1016.29
1023.548	1002.73
1023.839	1016.96
1024.129	1005.21
1024.419	998.21
1024.709	978.55
1025	967.47
1025.29	964.54
1025.58	955.27
1025.87	992.78
1026.16	956.4
1026.449	962.05
1026.739	928.61
1027.029	952.11
1027.319	939.9
1027.608	946.68
1027.898	938.77
1028.187	938.1
1028.477	902.17
1028.766	900.36
1029.055	931.77
1029.344	902.39
1029.634	881.83
1029.923	889.96
1030.212	898.78
1030.501	890.87
1030.79	868.04
1031.078	876.18
1031.367	869.17
1031.656	865.1
1031.945	858.78
1032.233	857.65
1032.522	823.75
1032.81	839.12
1033.099	842.73
1033.387	819.46
1033.675	812
1033.963	818.33
1034.251	816.29
1034.54	816.97
1034.828	816.74
1035.116	795.28
1035.403	800.25
1035.691	823.07
1035.979	801.6
1036.267	772.45
1036.554	774.94
1036.842	779.91
1037.129	782.39
1037.417	762.28
1037.704	749.18
1037.992	765.22
1038.279	767.48
1038.566	745.33
1038.853	745.33
1039.14	745.33
