Data from white_poster_card_FLMS001491_00051.txt Node
Date: Wed Feb 08 11:51:42 GMT 2017
User: dcchb
Spectrometer: FLMS00149
Trigger mode: 0
Integration Time (sec): 2.000000E-2
Scans to average: 10
Electric dark correction enabled: true
Nonlinearity correction enabled: false
Boxcar width: 0
XAxis mode: Wavelengths
Number of Pixels in Spectrum: 2048
>>>>>Begin Spectral Data<<<<<
341.393	-28.88
341.776	-28.88
342.16	-28.88
342.543	-41.76
342.927	-64.81
343.31	-74.53
343.693	-56.68
344.077	-72.72
344.46	-63.46
344.843	-30.92
345.226	-50.35
345.61	-22.33
345.993	-21.65
346.376	2.75
346.759	6.6
347.142	7.27
347.525	36.88
347.908	78.01
348.291	82.98
348.674	78.23
349.057	99.93
349.44	129.98
349.823	148.74
350.206	175.18
350.588	182.18
350.971	214.95
351.354	217.89
351.737	222.41
352.119	258.57
352.502	254.27
352.884	293.59
353.267	268.06
353.65	291.33
354.032	305.12
354.414	304.89
354.797	305.35
355.179	310.09
355.562	325.46
355.944	305.8
356.326	318.23
356.709	332.01
357.091	347.38
357.473	347.38
357.855	322.75
358.238	334.5
358.62	341.95
359.002	348.28
359.384	331.56
359.766	339.69
360.148	332.24
360.53	338.34
360.912	335.63
361.294	320.26
361.676	322.75
362.057	355.74
362.439	325.68
362.821	325.68
363.203	338.11
363.584	325.46
363.966	308.51
364.348	333.14
364.729	319.13
365.111	315.29
365.493	319.58
365.874	308.51
366.256	332.46
366.637	315.29
367.019	318.68
367.4	310.32
367.781	299.92
368.163	306.02
368.544	339.24
368.925	316.42
369.306	304.67
369.688	314.84
370.069	326.59
370.45	314.38
370.831	328.17
371.212	306.7
371.593	296.98
371.974	323.88
372.355	316.87
372.736	340.82
373.117	323.65
373.498	314.16
373.879	327.27
374.26	328.4
374.641	320.49
375.021	319.81
375.402	317.1
375.783	318.23
376.163	326.36
376.544	329.07
376.925	346.7
377.305	327.04
377.686	342.63
378.066	319.58
378.447	335.17
378.827	338.34
379.208	341.05
379.588	336.3
379.968	342.41
380.349	331.56
380.729	315.74
381.109	339.47
381.489	342.86
381.87	334.95
382.25	337.66
382.63	352.35
383.01	338.11
383.39	362.29
383.77	354.84
384.15	343.54
384.53	338.34
384.91	358.23
385.29	358
385.67	365.46
386.049	373.37
386.429	373.37
386.809	349.41
387.189	382.63
387.568	369.98
387.948	359.13
388.328	363.87
388.707	380.15
389.087	379.47
389.466	381.28
389.846	363.42
390.225	393.48
390.605	389.18
390.984	386.92
391.363	405
391.743	395.29
392.122	413.82
392.501	394.61
392.881	409.07
393.26	414.27
393.639	391.44
394.018	412.69
394.397	391.67
394.776	405.46
395.155	415.17
395.534	413.82
395.913	398.45
396.292	439.58
396.671	426.02
397.05	421.95
397.429	418.56
397.808	406.13
398.186	429.86
398.565	425.79
398.944	422.4
399.323	456.98
399.701	413.82
400.08	445.45
400.458	435.06
400.837	466.47
401.215	454.95
401.594	475.06
401.972	447.49
402.351	468.28
402.729	463.76
403.107	461.5
403.486	463.53
403.864	478.22
404.242	485.68
404.62	487.26
404.999	479.58
405.377	475.06
405.755	501.5
406.133	506.7
406.511	503.31
406.889	527.94
407.267	520.71
407.645	522.51
408.023	539.92
408.401	534.27
408.779	553.47
409.156	566.13
409.534	558.67
409.912	563.87
410.29	577.65
410.667	598.22
411.045	602.51
411.422	622.4
411.8	629.4
412.178	654.49
412.555	659.69
412.933	669.18
413.31	688.39
413.687	693.58
414.065	703.53
414.442	753.47
414.819	743.3
415.197	750.08
415.574	764.77
415.951	779.91
416.328	771.32
416.705	786.91
417.082	806.57
417.46	837.53
417.837	859.23
418.214	877.76
418.591	855.39
418.967	896.06
419.344	896.52
419.721	908.04
420.098	916.63
420.475	942.84
420.852	948.04
421.228	938.32
421.605	973.12
421.982	990.75
422.358	1022.39
422.735	1009.73
423.111	1006.57
423.488	1054.93
423.864	1052.22
424.241	1075.72
424.617	1056.29
424.994	1111.88
425.37	1099.67
425.746	1153.68
426.123	1148.94
426.499	1136.51
426.875	1183.06
427.251	1188.94
427.627	1222.84
428.003	1223.29
428.379	1249.05
428.756	1254.02
429.132	1273.46
429.507	1321.14
429.883	1306.22
430.259	1348.48
430.635	1335.15
431.011	1379.89
431.387	1384.41
431.763	1414.24
432.138	1427.35
432.514	1465.31
432.89	1463.96
433.265	1488.36
433.641	1534.01
434.016	1535.6
434.392	1534.47
434.767	1568.59
435.143	1591.41
435.518	1586.67
435.894	1637.06
436.269	1622.6
436.644	1661.47
437.02	1689.04
437.395	1676.83
437.77	1703.73
438.145	1740.34
438.52	1743.73
438.895	1800.67
439.271	1764.97
439.646	1818.98
440.021	1841.35
440.395	1832.31
440.77	1840.45
441.145	1840.9
441.52	1894.68
441.895	1882.03
442.27	1919.77
442.645	1852.2
443.019	1916.6
443.394	1920.67
443.769	1980.78
444.143	1956.83
444.518	1967.45
444.892	1947.79
445.267	2001.8
445.641	2027.56
446.016	2007.45
446.39	2037.28
446.764	2054.23
447.139	2010.61
447.513	2086.09
447.887	2089.25
448.262	2103.49
448.636	2132.87
449.01	2134
449.384	2153.66
449.758	2136.94
450.132	2189.36
450.506	2204.96
450.88	2218.74
451.254	2220.32
451.628	2269.36
452.002	2243.37
452.376	2265.75
452.75	2303.94
453.123	2344.84
453.497	2355.46
453.871	2371.51
454.244	2421.22
454.618	2469.36
454.992	2508
455.365	2442.46
455.739	2506.64
456.112	2573.31
456.486	2555.68
456.859	2572.4
457.232	2636.81
457.606	2666.64
457.979	2687.43
458.352	2705.28
458.725	2759.07
459.099	2762.46
459.472	2839.52
459.845	2828.67
460.218	2857.14
460.591	2881.55
460.964	2919.06
461.337	3008.55
461.71	2995.9
462.083	3032.96
462.456	3053.52
462.829	3081.09
463.201	3095.1
463.574	3128.1
463.947	3171.26
464.32	3264.82
464.692	3281.99
465.065	3308.2
465.438	3352.04
465.81	3396.34
466.183	3429.78
466.555	3506.16
466.928	3511.59
467.3	3515.88
467.672	3553.85
468.045	3666.84
468.417	3654.86
468.789	3688.53
469.161	3763.56
469.534	3834.07
469.906	3871.58
470.278	3881.07
470.65	3937.79
471.022	3992.48
471.394	4111.8
471.766	4079.48
472.138	4160.16
472.51	4245.13
472.882	4281.29
473.253	4297.78
473.625	4394.96
473.997	4494.39
474.369	4495.74
474.74	4564.89
475.112	4678.34
475.484	4717.88
475.855	4787.49
476.227	4801.5
476.598	4959.23
476.97	4986.58
477.341	5076.07
477.713	5188.38
478.084	5200.81
478.455	5340.92
478.827	5386.79
479.198	5507.92
479.569	5526
479.94	5708.14
480.311	5718.31
480.682	5893.22
481.053	5943.61
481.424	6071.07
481.795	6089.15
482.166	6269.03
482.537	6280.56
482.908	6421.12
483.279	6482.13
483.65	6564.16
484.021	6750.37
484.391	6848
484.762	6893.42
485.133	6909.47
485.503	7082.57
485.874	7180.87
486.244	7241.89
486.615	7390.58
486.985	7523.01
487.356	7573.4
487.726	7694.53
488.097	7780.18
488.467	7913.28
488.837	7975.65
489.207	8085.25
489.578	8257.68
489.948	8334.96
490.318	8427.39
490.688	8480.5
491.058	8566.37
491.428	8711.45
491.798	8837.55
492.168	8991.67
492.538	8997.55
492.908	9151.21
493.278	9239.57
493.648	9300.59
494.017	9378.78
494.387	9548.04
494.757	9543.07
495.126	9696.96
495.496	9702.61
495.866	9754.14
496.235	9866.9
496.605	10005.65
496.974	10054.92
497.344	10193.22
497.713	10218.98
498.082	10231.19
498.452	10381.24
498.821	10455.81
499.19	10480.22
499.559	10654.45
499.928	10622.14
500.298	10755.01
500.667	10932.18
501.036	10855.35
501.405	10894.45
501.774	11017.83
502.143	11091.5
502.512	11142.12
502.88	11232.06
503.249	11313.64
503.618	11366.07
503.987	11435.67
504.356	11564.94
504.724	11565.61
505.093	11676.35
505.462	11741.2
505.83	11889
506.199	11899.39
506.567	12077.92
506.936	12120.85
507.304	12228.42
507.672	12288.76
508.041	12331.02
508.409	12478.36
508.777	12552.25
509.145	12630.22
509.514	12694.62
509.882	12809.88
510.25	12808.52
510.618	12966.93
510.986	13045.12
511.354	13150.21
511.722	13240.6
512.09	13392.46
512.458	13374.61
512.826	13560.14
513.193	13634.26
513.561	13638.55
513.929	13709.29
514.297	13895.04
514.664	14035.38
515.032	14112.21
515.4	14170.52
515.767	14299.1
516.135	14382.04
516.502	14321.02
516.869	14584.97
517.237	14632.43
517.604	14709.03
517.972	14851.18
518.339	14973.43
518.706	15003.72
519.073	15031.29
519.44	15120.1
519.808	15378.4
520.175	15385.17
520.542	15523.48
520.909	15708.1
521.276	15726.63
521.643	15873.07
522.009	16002.79
522.376	16057.02
522.743	16188.54
523.11	16452.72
523.477	16534.97
523.843	16669.66
524.21	16854.29
524.577	16974.06
524.943	17065.13
525.31	17100.61
525.676	17299.25
526.043	17440.04
526.409	17494.5
526.776	17721.16
527.142	17837.09
527.508	17950.53
527.874	17959.8
528.241	18136.97
528.607	18243.4
528.973	18452.21
529.339	18449.05
529.705	18615.37
530.071	18759.32
530.437	18849.26
530.803	18967.68
531.169	19112.99
531.535	19123.38
531.901	19203.83
532.267	19274.34
532.632	19442.47
532.998	19532.18
533.364	19746.87
533.73	19594.33
534.095	19851.5
534.461	19930.14
534.826	20063.02
535.192	20087.42
535.557	20225.05
535.923	20300.53
536.288	20356.8
536.653	20463.69
537.019	20473.4
537.384	20631.14
537.749	20686.96
538.114	20767.63
538.479	20764.92
538.845	20948.87
539.21	20908.19
539.575	21031.58
539.94	21077.23
540.305	21227.96
540.67	21234.74
541.034	21376.43
541.399	21415.75
541.764	21504.56
542.129	21611.45
542.494	21781.84
542.858	21709.75
543.223	21759.47
543.587	21899.35
543.952	21889.86
544.316	22062.29
544.681	22129.63
545.045	22193.13
545.41	22304.99
545.774	22255.73
546.138	22306.35
546.503	22373.69
546.867	22509.96
547.231	22700.46
547.595	22672.44
547.959	22772.78
548.324	22805.54
548.688	22939.78
549.052	22976.16
549.416	23118.3
549.779	23115.37
550.143	23260.45
550.507	23393.33
550.871	23364.85
551.235	23455.47
551.599	23511.29
551.962	23737.5
552.326	23713.32
552.689	23855.01
553.053	23834.44
553.417	23886.87
553.78	24303.58
554.143	24154.21
554.507	24271.04
554.87	24350.36
555.234	24594.2
555.597	24426.97
555.96	24570.02
556.323	24691.14
556.686	24821.76
557.05	25042.55
557.413	25000.51
557.776	25106.5
558.139	25328.19
558.502	25334.29
558.865	25526.6
559.228	25722.53
559.59	25754.39
559.953	25765.47
560.316	26105.34
560.679	25927.72
561.041	26286.58
561.404	26331.1
561.767	26583.98
562.129	26447.93
562.492	26766.34
562.854	26686.57
563.217	26765.21
563.579	26899.22
563.941	27018.99
564.304	27144.87
564.666	27320.68
565.028	27409.27
565.39	27618.98
565.753	27577.17
566.115	27754.79
566.477	27799.31
566.839	27971.96
567.201	28106.65
567.563	28192.52
567.925	28291.05
568.287	28421.44
568.648	28454.66
569.01	28637.03
569.372	28758.38
569.734	28618.5
570.095	29061.43
570.457	29069.56
570.819	29258.48
571.18	29113.85
571.542	29193.85
571.903	29319.27
572.265	29471.36
572.626	29551.58
572.987	29653.27
573.349	29664.35
573.71	29917.67
574.071	29900.5
574.432	30049.42
574.794	30231.34
575.155	30066.37
575.516	30080.16
575.877	30231.56
576.238	30235.86
576.599	30439.47
576.96	30526.02
577.32	30504.33
577.681	30634.94
578.042	30732.79
578.403	30691.44
578.763	30857.54
579.124	30749.52
579.485	30979.57
579.845	30949.06
580.206	30986.35
580.566	30977.08
580.927	31053.69
581.287	31071.32
581.648	30942.05
582.008	31194.7
582.368	31111.54
582.728	31262.95
583.089	31234.93
583.449	31041.94
583.809	31149.28
584.169	31236.28
584.529	31205.55
584.889	31435.37
585.249	31212.78
585.609	31192.67
585.969	31206.23
586.329	31329.39
586.688	31360.35
587.048	31344.75
587.408	31221.14
587.768	31312.89
588.127	31197.87
588.487	31183.63
588.846	31573.68
589.206	31225.89
589.565	31286.23
589.925	31471.76
590.284	31328.94
590.643	31489.84
591.003	31469.05
591.362	31544.52
591.721	31475.15
592.08	31555.82
592.44	31598.31
592.799	31579.78
593.158	31638.53
593.517	31666.33
593.876	31651.64
594.235	31415.71
594.593	31561.7
594.952	31579.55
595.311	31556.05
595.67	31635.82
596.029	31786.33
596.387	31715.82
596.746	31784.52
597.104	31604.64
597.463	31667.46
597.822	31775.25
598.18	31656.16
598.538	31509.95
598.897	31935.02
599.255	31687.34
599.613	32115.58
599.972	31939.99
600.33	31860
600.688	31769.38
601.046	32005.08
601.404	32044.62
601.762	32100.89
602.12	32137.95
602.478	32082.59
602.836	32317.16
603.194	32038.75
603.552	32164.62
603.91	32081.68
604.268	32313.09
604.625	32044.85
604.983	32228.35
605.341	32191.74
605.698	32336.59
606.056	32226.09
606.413	32309.93
606.771	32389.02
607.128	32479.19
607.485	32236.03
607.843	32352.64
608.2	32507.21
608.557	32620.2
608.914	32548.34
609.272	32704.49
609.629	32650.71
609.986	32759.41
610.343	32737.71
610.7	32911.49
611.057	32711.27
611.414	32829.24
611.771	32829.46
612.127	32873.75
612.484	32981.32
612.841	33106.74
613.198	32901.1
613.554	33078.27
613.911	33189.23
614.267	33193.52
614.624	33144.48
614.98	33133.63
615.337	33326.4
615.693	33212.5
616.05	33222.22
616.406	33298.15
616.762	33279.17
617.118	33447.98
617.475	33330.92
617.831	33456.79
618.187	33414.98
618.543	33482.55
618.899	33655.88
619.255	33578.14
619.611	33495.88
619.967	33627.86
620.323	33726.84
620.678	33547.86
621.034	33469.67
621.39	33587.63
621.746	33485.04
622.101	33783.56
622.457	33501.31
622.812	33642.55
623.168	33667.86
623.523	33747.18
623.879	33874.86
624.234	33636.45
624.589	33777.91
624.945	33766.61
625.3	33772.49
625.655	33791.24
626.01	33745.14
626.365	33751.7
626.72	33692.49
627.075	33665.6
627.43	33596.67
627.785	33686.84
628.14	33534.08
628.495	33567.07
628.85	33586.5
629.205	33440.97
629.559	33619.95
629.914	33435.32
630.269	33421.99
630.623	33276.68
630.978	33353.74
631.332	33563
631.687	33529.1
632.041	33345.38
632.396	33386.74
632.75	33219.28
633.104	33374.08
633.459	33187.64
633.813	33072.39
634.167	33149
634.521	33174.54
634.875	33274.65
635.229	33054.54
635.583	33048.89
635.937	33035.56
636.291	32895.67
636.645	32906.3
636.999	32702.46
637.352	32972.28
637.706	32701.78
638.06	32775.23
638.413	32650.71
638.767	32624.5
639.121	32719.18
639.474	32552.18
639.828	32407.1
640.181	32453.43
640.534	32550.82
640.888	32352.41
641.241	32230.38
641.594	32423.6
641.947	32429.02
642.301	32294.33
642.654	32252.98
643.007	32243.71
643.36	32230.61
643.713	32130.27
644.066	32251.62
644.419	32108.8
644.771	31807.12
645.124	31548.37
645.477	31611.64
645.83	31174.36
646.182	31234.7
646.535	31030.19
646.888	31241.25
647.24	30917.2
647.593	31143.63
647.945	31061.37
648.298	30891.43
648.65	30754.94
649.002	30676.52
649.355	30855.5
649.707	30754.71
650.059	30949.96
650.411	31316.06
650.763	31335.26
651.115	31516.5
651.467	31382.04
651.819	31485.09
652.171	31380.69
652.523	31268.37
652.875	31245.77
653.227	31229.96
653.578	31262.05
653.93	31253.46
654.282	31148.83
654.633	30992.22
654.985	31063.41
655.337	31129.17
655.688	31101.6
656.039	31036.97
656.391	30910.87
656.742	30971.21
657.094	31095.5
657.445	30994.71
657.796	30848.5
658.147	30792
658.498	30944.54
658.849	30827.93
659.2	30884.2
659.551	30804.88
659.902	30849.17
660.253	30852.79
660.604	30828.38
660.955	30729.4
661.306	30853.92
661.656	30628.84
662.007	30664.77
662.358	30656.41
662.708	30608.73
663.059	30590.65
663.409	30505
663.76	30659.35
664.11	30655.96
664.461	30569.86
664.811	30667.94
665.161	30558.56
665.511	30484.89
665.862	30413.03
666.212	30544.32
666.562	30565.34
666.912	30413.25
667.262	30408.28
667.612	30407.38
667.962	30540.48
668.312	30472.46
668.662	30485.12
669.011	30305.01
669.361	30407.15
669.711	30381.16
670.06	30302.07
670.41	30259.81
670.76	30185.01
671.109	30266.82
671.459	30172.36
671.808	30104.79
672.157	30175.29
672.507	30012.81
672.856	30018.91
673.205	29928.29
673.554	30105.92
673.904	30024.79
674.253	30031.8
674.602	30024.34
674.951	29658.92
675.3	29507.74
675.649	29825.92
675.998	29945.47
676.346	29756.55
676.695	29992.47
677.044	29729.66
677.393	29744.35
677.741	29753.61
678.09	29619.6
678.438	29611.92
678.787	29656.66
679.135	29620.73
679.484	29630.22
679.832	29565.14
680.181	29480.85
680.529	29639.49
680.877	29418.7
681.225	29439.72
681.573	29665.25
681.922	29328.54
682.27	29164.25
682.618	29219.84
682.966	29188.2
683.314	29258.48
683.661	29123.8
684.009	28948.66
684.357	29112.72
684.705	28846.06
685.053	28953.86
685.4	28846.06
685.748	28613.75
686.095	28730.59
686.443	28756.57
686.79	28558.16
687.138	28667.54
687.485	28616.47
687.832	28439.75
688.18	28558.61
688.527	28312.07
688.874	28362.69
689.221	28243.82
689.568	28173.54
689.915	28103.94
690.262	28128.34
690.609	27991.85
690.956	27992.3
691.303	27934.45
691.65	27820.33
691.997	27693.55
692.344	27581.01
692.69	27609.49
693.037	27547.79
693.383	27401.36
693.73	27610.16
694.077	27351.64
694.423	27262.15
694.769	27246.11
695.116	27170.4
695.462	27122.95
695.808	27061.48
696.155	27079.33
696.501	26819.9
696.847	26796.4
697.193	26568.16
697.539	26736.29
697.885	26501.72
698.231	26388.5
698.577	26514.15
698.923	26459.46
699.269	26292.46
699.614	26136.3
699.96	26121.39
700.306	26170.88
700.651	26070.54
700.997	25928.63
701.342	25896.08
701.688	25825.35
702.033	25674.85
702.379	25733.38
702.724	25646.83
703.069	25660.84
703.415	25367.74
703.76	25405.25
704.105	25341.07
704.45	25271.02
704.795	25121.64
705.14	25094.52
705.485	25030.34
705.83	25031.02
706.175	25059.04
706.52	24885.04
706.865	24745.83
707.209	24850.46
707.554	24680.07
707.899	24717.58
708.243	24494.54
708.588	24480.98
708.932	24274.66
709.277	24327.76
709.621	24241.89
709.966	24274.21
710.31	24307.65
710.654	24106.53
710.998	24169.8
711.342	24080.54
711.687	24044.38
712.031	23920.32
712.375	23767.33
712.719	23948.57
713.063	23884.84
713.407	23958.96
713.75	23757.84
714.094	23698.18
714.438	23676.71
714.782	23817.04
715.125	23544.06
715.469	23568.46
715.812	23450.5
716.156	23338.41
716.499	23287.11
716.843	23354
717.186	23308.81
717.53	23353.1
717.873	23352.87
718.216	23172.99
718.559	23122.6
718.902	22984.97
719.246	23025.65
719.589	22919.21
719.932	22850.51
720.275	22842.38
720.617	22766.22
720.96	22661.59
721.303	22752.89
721.646	22730.74
721.989	22451.66
722.331	22663.4
722.674	22448.27
723.016	22593.12
723.359	22575.27
723.701	22525.55
724.044	22351.32
724.386	22295.28
724.729	22368.04
725.071	22342.05
725.413	22303.41
725.755	22349.96
726.097	22157.2
726.439	22101.16
726.782	21978.67
727.124	22117.43
727.465	22027.71
727.807	21960.82
728.149	21840.6
728.491	21881.5
728.833	21889.64
729.175	21821.16
729.516	21814.84
729.858	21661.39
730.199	21700.26
730.541	21555.63
730.882	21708.85
731.224	21627.04
731.565	21443.09
731.906	21472.7
732.248	21586.14
732.589	21299.6
732.93	21343.66
733.271	21250.56
733.612	21408.74
733.953	21372.36
734.294	21272.48
734.635	21134.4
734.976	21375.53
735.317	21171.69
735.658	21223.67
735.999	21111.58
736.339	20998.13
736.68	21022.77
737.021	21005.82
737.361	20968.08
737.702	20948.87
738.042	20906.84
738.383	20871.81
738.723	20830.23
739.063	20836.56
739.404	20801.98
739.744	20747.75
740.084	20753.62
740.424	20764.92
740.764	20709.78
741.104	20711.14
741.444	20627.52
741.784	20660.97
742.124	20647.18
742.464	20461.43
742.804	20474.53
743.143	20420.07
743.483	20434.76
743.823	20277.48
744.162	20323.8
744.502	20310.47
744.841	20164.71
745.181	20324.71
745.52	20231.37
745.86	20225.5
746.199	20099.17
746.538	20094.66
746.877	20155.67
747.216	20159.74
747.556	20155.22
747.895	20053.3
748.234	20018.05
748.573	19896.02
748.911	19893.76
749.25	19874.32
749.589	19796.36
749.928	19776.02
750.267	19780.54
750.605	19743.03
750.944	19644.27
751.283	19586.87
751.621	19659.19
751.96	19517.72
752.298	19508
752.636	19391.62
752.975	19381.68
753.313	19300.55
753.651	19405.63
753.989	19289.25
754.327	19174
754.666	19107.79
755.004	19181.01
755.342	19170.84
755.679	19121.12
756.017	19046.55
756.355	19057.62
756.693	18908.92
757.031	18924.52
757.368	18776.72
757.706	18807.46
758.044	18737.63
758.381	18780.79
758.719	18666.44
759.056	18614.47
759.394	18657.63
759.731	18514.58
760.068	18403.17
760.405	18409.05
760.743	18264.42
761.08	18238.21
761.417	18239.79
761.754	18228.26
762.091	18173.58
762.428	18082.96
762.765	17956.18
763.102	18022.39
763.438	17995.73
763.775	17821.27
764.112	17827.14
764.449	17823.3
764.785	17796.41
765.122	17598.45
765.458	17587.15
765.795	17603.65
766.131	17541.73
766.467	17351.22
766.804	17358.46
767.14	17238.91
767.476	17337.21
767.812	17183.32
768.148	17258.57
768.485	17063.55
768.821	16942.65
769.157	16883.21
769.492	16948.3
769.828	16915.76
770.164	16794.63
770.5	16683.67
770.836	16744.46
771.171	16599.61
771.507	16551.02
771.842	16421.08
772.178	16517.12
772.513	16405.94
772.849	16311.25
773.184	16305.38
773.519	16296.34
773.855	16184.93
774.19	16126.4
774.525	16058.38
774.86	16015.44
775.195	15969.57
775.53	15955.1
775.865	15883.24
776.2	15687.09
776.535	15700.65
776.87	15653.42
777.205	15593.08
777.539	15475.79
777.874	15538.39
778.209	15399.86
778.543	15410.03
778.878	15247.78
779.212	15245.97
779.547	15182.24
779.881	15213.65
780.215	15143.15
780.55	15174.56
780.884	15049.82
781.218	15010.95
781.552	14951.97
781.886	14816.15
782.22	14782.03
782.554	14734.57
782.888	14582.48
783.222	14582.48
783.556	14480.11
783.889	14438.53
784.223	14323.51
784.557	14339.55
784.89	14343.85
785.224	14220.91
785.557	14217.75
785.891	14208.26
786.224	14109.5
786.558	14129.61
786.891	14001.03
787.224	13946.57
787.557	13921.26
787.891	13861.37
788.224	13846.68
788.557	13789.28
788.89	13753.13
789.223	13719.91
789.556	13615.28
789.888	13559.46
790.221	13503.87
790.554	13460.25
790.887	13423.87
791.219	13354.49
791.552	13342.52
791.884	13374.15
792.217	13284.44
792.549	13226.36
792.882	13082.86
793.214	13106.59
793.546	13146.59
793.879	13051
794.211	12970.77
794.543	12994.73
794.875	12967.84
795.207	12936.2
795.539	12854.39
795.871	12879.7
796.203	12725.36
796.535	12711.8
796.867	12674.96
797.198	12696.43
797.53	12608.98
797.862	12511.35
798.193	12612.59
798.525	12452.82
798.856	12373.28
799.188	12374.41
799.519	12270.91
799.85	12265.93
800.182	12286.95
800.513	12194.3
800.844	12093.06
801.175	12226.39
801.506	12185.71
801.837	12067.07
802.168	12073.85
802.499	12030.23
802.83	12009.9
803.161	11951.82
803.491	11871.14
803.822	11905.49
804.153	11859.62
804.483	11793.18
804.814	11670.47
805.145	11776.46
805.475	11676.35
805.805	11628.89
806.136	11632.96
806.466	11570.36
806.796	11570.59
807.126	11421.44
807.457	11486.97
807.787	11420.08
808.117	11326.07
808.447	11379.63
808.777	11332.17
809.107	11329.69
809.436	11331.95
809.766	11342.12
810.096	11221.22
810.426	11153.2
810.755	11205.62
811.085	11204.72
811.414	11156.36
811.744	11082.46
812.073	11024.39
812.403	11055.12
812.732	10978.06
813.061	10983.26
813.39	10921.11
813.719	10947.33
814.049	10952.97
814.378	10892.86
814.707	10789.59
815.036	10928.57
815.365	10770.38
815.693	10728.12
816.022	10753.88
816.351	10713.43
816.68	10637.28
817.008	10657.84
817.337	10564.28
817.665	10526.55
817.994	10546.66
818.322	10554.57
818.651	10508.24
818.979	10452.87
819.307	10428.69
819.636	10432.31
819.964	10318.87
820.292	10388.47
820.62	10406.77
820.948	10309.38
821.276	10405.19
821.604	10337.17
821.932	10378.07
822.259	10378.53
822.587	10265.99
822.915	10302.14
823.243	10334.91
823.57	10284.52
823.898	10285.87
824.225	10293.33
824.553	10228.02
824.88	10303.5
825.207	10334.23
825.535	10261.24
825.862	10276.16
826.189	10344.86
826.516	10312.31
826.843	10348.7
827.17	10345.31
827.497	10326.55
827.824	10263.5
828.151	10324.74
828.478	10317.06
828.805	10241.58
829.131	10262.37
829.458	10258.3
829.785	10246.78
830.111	10245.2
830.438	10249.04
830.764	10308.47
831.09	10317.06
831.417	10244.74
831.743	10272.31
832.069	10355.93
832.395	10165.42
832.722	10236.38
833.048	10190.73
833.374	10189.83
833.7	10153.45
834.026	10160.91
834.351	10191.86
834.677	10151.87
835.003	10123.39
835.329	10122.04
835.654	10161.58
835.98	10029.84
836.306	10055.82
836.631	9992.1
836.956	10090.4
837.282	10024.19
837.607	9949.84
837.932	9952.55
838.258	9943.74
838.583	10001.81
838.908	9967.24
839.233	9999.33
839.558	9906.9
839.883	9913.68
840.208	9825.09
840.533	9847.02
840.858	9831.42
841.182	9833.46
841.507	9804.3
841.832	9841.37
842.156	9795.49
842.481	9812.44
842.805	9736.51
843.13	9670.3
843.454	9712.1
843.778	9600.24
844.103	9632.78
844.427	9575.38
844.751	9621.71
845.075	9569.96
845.399	9517.08
845.723	9555.5
846.047	9492.45
846.371	9383.75
846.695	9462.39
847.019	9317.99
847.343	9325.67
847.666	9300.36
847.99	9251.32
848.313	9247.03
848.637	9137.66
848.96	9170.87
849.284	9124.77
849.607	9082.29
849.931	9030.31
850.254	8971.56
850.577	8961.61
850.9	8890.88
851.223	8934.04
851.546	8849.75
851.869	8800.04
852.192	8821.05
852.515	8754.61
852.838	8655.41
853.161	8715.97
853.483	8599.59
853.806	8673.71
854.129	8603.21
854.451	8538.35
854.774	8522.08
855.096	8496.77
855.419	8418.8
855.741	8474.4
856.063	8436.43
856.385	8410.89
856.708	8407.73
857.03	8355.53
857.352	8335.64
857.674	8314.85
857.996	8320.5
858.318	8240.28
858.64	8232.37
858.961	8212.71
859.283	8176.1
859.605	8135.65
859.926	8208.64
860.248	8130.68
860.57	8135.87
860.891	8067.4
861.212	8072.37
861.534	7996.89
861.855	8054.75
862.176	8026.72
862.498	8009.55
862.819	8024.92
863.14	7961.19
863.461	7917.35
863.782	7903.34
864.103	7937.91
864.424	7871.7
864.745	7952.6
865.065	7877.12
865.386	7846.62
865.707	7800.74
866.027	7809.33
866.348	7849.78
866.668	7840.29
866.989	7794.19
867.309	7730.23
867.63	7691.37
867.95	7765.04
868.27	7724.59
868.59	7757.35
868.91	7681.2
869.23	7694.76
869.55	7638.26
869.87	7666.73
870.19	7678.48
870.51	7698.82
870.83	7629.67
871.15	7622.21
871.469	7627.41
871.789	7601.2
872.109	7614.08
872.428	7544.93
872.748	7578.15
873.067	7548.77
873.386	7513.52
873.706	7494.76
874.025	7448.66
874.344	7478.04
874.663	7499.73
874.982	7426.97
875.301	7480.3
875.62	7439.85
875.939	7412.5
876.258	7399.62
876.577	7364.14
876.896	7414.54
877.214	7310.13
877.533	7376.57
877.852	7371.15
878.17	7363.69
878.489	7330.47
878.807	7310.58
879.125	7295.67
879.444	7313.07
879.762	7265.84
880.08	7237.59
880.398	7213.19
880.716	7238.95
881.034	7180.19
881.352	7232.17
881.67	7226.07
881.988	7169.12
882.306	7163.24
882.624	7116.01
882.941	7109.46
883.259	7075.79
883.577	7056.81
883.894	7050.93
884.212	7070.59
884.529	7020.65
884.846	7020.87
885.164	7017.48
885.481	6970.25
885.798	7038.05
886.115	6928.9
886.432	6999.41
886.75	6895.23
887.067	6898.62
887.383	6843.25
887.7	6844.38
888.017	6811.61
888.334	6863.59
888.651	6853.42
888.967	6826.3
889.284	6825.85
889.6	6755.34
889.917	6761.9
890.233	6739.07
890.55	6743.82
890.866	6763.03
891.182	6656.82
891.498	6615.91
891.815	6574.56
892.131	6579.53
892.447	6598.06
892.763	6517.84
893.079	6562.58
893.395	6514
893.71	6572.98
894.026	6498.4
894.342	6472.87
894.657	6444.84
894.973	6380.21
895.289	6398.52
895.604	6412.98
895.92	6363.49
896.235	6336.37
896.55	6375.47
896.865	6290.72
897.181	6309.93
897.496	6315.13
897.811	6200.78
898.126	6276.04
898.441	6210.5
898.756	6228.58
899.071	6173.44
899.386	6149.26
899.7	6123.05
900.015	6069.71
900.33	6102.48
900.644	6038.3
900.959	6116.49
901.273	6025.19
901.588	5995.14
901.902	5996.04
902.216	5970.28
902.531	5969.38
902.845	5929.83
903.159	5935.93
903.473	5874.24
903.787	5832.21
904.101	5814.8
904.415	5869.49
904.729	5780.23
905.042	5747.69
905.356	5760.57
905.67	5758.31
905.984	5722.83
906.297	5692.32
906.611	5659.33
906.924	5653
907.237	5603.74
907.551	5627.69
907.864	5593.34
908.177	5537.52
908.491	5544.53
908.804	5547.24
909.117	5479.9
909.43	5435.38
909.743	5445.1
910.056	5459.79
910.368	5406.68
910.681	5343.18
910.994	5360.81
911.307	5338.89
911.619	5264.99
911.932	5331.2
912.244	5316.06
912.557	5297.76
912.869	5221.15
913.181	5273.58
913.494	5198.55
913.806	5207.82
914.118	5165.56
914.43	5143.86
914.742	5068.38
915.054	5090.3
915.366	5039.46
915.678	5046.24
915.99	5006.69
916.302	5014.83
916.613	5012.34
916.925	4992.23
917.236	4973.24
917.548	4937.99
917.859	4904.32
918.171	4886.24
918.482	4879.91
918.794	4815.96
919.105	4881.04
919.416	4837.2
919.727	4836.75
920.038	4760.14
920.349	4741.84
920.66	4743.65
920.971	4758.79
921.282	4682.86
921.593	4753.14
921.903	4636.53
922.214	4650.77
922.525	4636.3
922.835	4576.19
923.146	4607.15
923.456	4590.66
923.767	4606.02
924.077	4556.76
924.387	4513.6
924.697	4495.07
925.008	4493.26
925.318	4468.85
925.628	4446.25
925.938	4433.6
926.248	4404.22
926.558	4403.99
926.867	4373.03
927.177	4360.15
927.487	4337.56
927.796	4333.94
928.106	4309.31
928.416	4300.95
928.725	4262.3
929.034	4300.49
929.344	4257.78
929.653	4241.06
929.962	4212.59
930.271	4161.29
930.581	4156.32
930.89	4137.56
931.199	4105.92
931.508	4118.13
931.817	4110.89
932.125	4126.49
932.434	4073.16
932.743	4051.01
933.051	4004.91
933.36	4034.06
933.669	3998.58
933.977	3970.33
934.286	4006.72
934.594	3953.16
934.902	3929.2
935.21	3928.53
935.519	3937.34
935.827	3886.72
936.135	3829.32
936.443	3832.26
936.751	3827.51
937.059	3839.72
937.367	3812.15
937.674	3763.11
937.982	3782.77
938.29	3763.79
938.597	3740.06
938.905	3742.09
939.213	3666.16
939.52	3744.8
939.827	3703.9
940.135	3673.84
940.442	3651.92
940.749	3660.74
941.056	3662.09
941.363	3593.85
941.67	3570.12
941.977	3598.59
942.284	3560.17
942.591	3505.94
942.898	3557.24
943.205	3533.73
943.511	3531.7
943.818	3481.08
944.125	3486.28
944.431	3513.85
944.738	3439.95
945.044	3441.76
945.35	3434.53
945.657	3409.67
945.963	3404.25
946.269	3381.87
946.575	3404.92
946.881	3374.42
947.187	3331.25
947.493	3335.77
947.799	3303.01
948.105	3315.89
948.41	3274.31
948.716	3292.39
949.022	3240.41
949.327	3204.93
949.633	3210.58
949.938	3224.14
950.244	3183.69
950.549	3185.27
950.854	3129.9
951.16	3171.26
951.465	3139.39
951.77	3136.91
952.075	3113.86
952.38	3098.72
952.685	3088.77
952.99	3090.81
953.294	3057.36
953.599	3000.19
953.904	3048.1
954.209	3037.7
954.513	3020.53
954.818	3017.36
955.122	2964.48
955.426	3000.42
955.731	2966.74
956.035	2976.46
956.339	2933.3
956.643	2980.75
956.948	2953.64
957.252	2875
957.556	2900.53
957.86	2866.63
958.163	2856.69
958.467	2875.67
958.771	2863.7
959.075	2865.96
959.378	2820.99
959.682	2835.22
959.985	2832.74
960.289	2799.52
960.592	2761.78
960.896	2776.24
961.199	2785.05
961.502	2746.64
961.805	2724.49
962.108	2762.23
962.411	2710.48
962.714	2697.6
963.017	2676.36
963.32	2717.26
963.623	2699.41
963.926	2676.13
964.228	2654.21
964.531	2634.78
964.833	2614.89
965.136	2631.84
965.438	2600.88
965.741	2570.6
966.043	2575.79
966.345	2583.03
966.648	2574.66
966.95	2533.54
967.252	2531.73
967.554	2519.75
967.856	2516.59
968.158	2500.54
968.46	2484.27
968.761	2468.9
969.063	2484.04
969.365	2440.43
969.666	2436.14
969.968	2455.12
970.269	2407.21
970.571	2427.78
970.872	2388.91
971.174	2401.34
971.475	2410.15
971.776	2397.95
972.077	2396.36
972.378	2376.93
972.679	2376.03
972.98	2307.55
973.281	2331.73
973.582	2363.6
973.883	2303.94
974.183	2299.87
974.484	2295.35
974.785	2273.43
975.085	2265.07
975.386	2267.78
975.686	2246.54
975.986	2236.37
976.287	2261
976.587	2240.44
976.887	2228.91
977.187	2207.67
977.487	2190.95
977.787	2202.47
978.087	2225.52
978.387	2187.56
978.687	2176.71
978.987	2182.36
979.286	2153.43
979.586	2165.64
979.885	2130.16
980.185	2101
980.484	2131.51
980.784	2088.8
981.083	2097.16
981.382	2090.16
981.682	2101.23
981.981	2077.28
982.28	2050.84
982.579	2088.35
982.878	2066.43
983.177	2046.32
983.475	2033.21
983.774	2013.1
984.073	2011.51
984.372	1996.6
984.67	1963.15
984.969	2002.93
985.267	1995.92
985.566	1979.88
985.864	1978.97
986.162	1960.44
986.461	1953.66
986.759	1973.78
987.057	1945.98
987.355	1897.62
987.653	1943.27
987.951	1903.04
988.249	1899.43
988.547	1874.8
988.844	1906.88
989.142	1886.32
989.44	1869.82
989.737	1862.14
990.035	1829.15
990.332	1839.09
990.63	1823.27
990.927	1858.98
991.224	1843.84
991.521	1815.59
991.819	1804.51
992.116	1817.4
992.413	1791.18
992.71	1787.34
993.006	1792.54
993.303	1775.59
993.6	1751.86
993.897	1761.35
994.193	1750.73
994.49	1735.14
994.787	1703.5
995.083	1736.27
995.379	1706.89
995.676	1713.9
995.972	1699.88
996.268	1707.57
996.565	1657.63
996.861	1671.86
997.157	1655.14
997.453	1637.06
997.749	1655.37
998.044	1650.17
998.34	1657.17
998.636	1639.1
998.932	1600.9
999.227	1616.27
999.523	1588.25
999.818	1614.69
1000.114	1556.84
1000.409	1542.15
1000.704	1576.5
1001	1569.72
1001.295	1548.93
1001.59	1570.17
1001.885	1545.09
1002.18	1538.53
1002.475	1529.27
1002.77	1533.79
1003.065	1510.74
1003.359	1483.85
1003.654	1498.31
1003.949	1484.07
1004.243	1491.75
1004.538	1427.35
1004.832	1469.61
1005.127	1439.55
1005.421	1431.87
1005.715	1437.97
1006.009	1433.45
1006.304	1449.27
1006.598	1418.08
1006.892	1407.46
1007.186	1402.27
1007.48	1400.01
1007.773	1405.66
1008.067	1396.62
1008.361	1380.57
1008.655	1351.42
1008.948	1362.04
1009.242	1345.09
1009.535	1337.63
1009.829	1325.88
1010.122	1348.03
1010.415	1337.86
1010.708	1333.11
1011.001	1329.72
1011.295	1290.86
1011.588	1292.89
1011.881	1289.5
1012.173	1265.55
1012.466	1278.88
1012.759	1231.87
1013.052	1264.19
1013.344	1257.64
1013.637	1253.34
1013.93	1279.1
1014.222	1230.74
1014.514	1238.65
1014.807	1204.53
1015.099	1192.78
1015.391	1231.87
1015.683	1210.18
1015.976	1211.08
1016.268	1184.64
1016.56	1216.06
1016.851	1180.35
1017.143	1179.22
1017.435	1168.6
1017.727	1177.41
1018.018	1167.47
1018.31	1141.71
1018.602	1139.9
1018.893	1129.96
1019.185	1122.05
1019.476	1115.49
1019.767	1099.67
1020.058	1146.45
1020.35	1092.44
1020.641	1103.97
1020.932	1085.89
1021.223	1082.95
1021.514	1075.27
1021.804	1076.62
1022.095	1070.52
1022.386	1071.43
1022.677	1059.68
1022.967	1073.01
1023.258	1009.73
1023.548	1029.17
1023.839	1030.52
1024.129	1010.41
1024.419	1007.93
1024.709	1023.07
1025	995.27
1025.29	1010.19
1025.58	996.85
1025.87	968.15
1026.16	971.32
1026.449	968.15
1026.739	961.37
1027.029	970.64
1027.319	935.16
1027.608	941.94
1027.898	943.52
1028.187	934.93
1028.477	917.31
1028.766	920.02
1029.055	948.49
1029.344	898.78
1029.634	905.56
1029.923	901.04
1030.212	891.77
1030.501	909.17
1030.79	878.66
1031.078	862.62
1031.367	875.73
1031.656	865.1
1031.945	894.48
1032.233	868.72
1032.522	859.68
1032.81	844.99
1033.099	870.08
1033.387	840.47
1033.675	839.79
1033.963	821.72
1034.251	849.29
1034.54	795.28
1034.828	820.13
1035.116	809.06
1035.403	833.01
1035.691	792.79
1035.979	804.99
1036.267	804.99
1036.554	808.83
1036.842	796.41
1037.129	790.3
1037.417	784.88
1037.704	779.68
1037.992	776.07
1038.279	789.85
1038.566	763.64
1038.853	763.64
1039.14	763.64
