Data from White_reflection_standard_FLMS001491_039.txt Node
Date: Tue Feb 07 10:32:03 GMT 2017
User: dcchb
Spectrometer: FLMS00149
Trigger mode: 0
Integration Time (sec): 2.000000E-2
Scans to average: 10
Electric dark correction enabled: true
Nonlinearity correction enabled: false
Boxcar width: 0
XAxis mode: Wavelengths
Number of Pixels in Spectrum: 2048
>>>>>Begin Spectral Data<<<<<
341.393	7.51
341.776	7.51
342.16	7.51
342.543	-51.92
342.927	-40.62
343.31	-75.42
343.693	-53.05
344.077	-58.02
344.46	-59.38
344.843	-54.18
345.226	-38.81
345.61	-39.49
345.993	-20.28
346.376	-21.19
346.759	8.64
347.142	8.19
347.525	53.61
347.908	65.37
348.291	73.5
348.674	95.2
349.057	115.31
349.44	115.76
349.823	142.88
350.206	152.14
350.588	238.24
350.971	243.21
351.354	264.46
351.737	259.48
352.119	298.81
352.502	301.52
352.884	320.5
353.267	307.85
353.65	333.16
354.032	347.39
354.414	355.08
354.797	356.88
355.179	369.76
355.562	346.94
355.944	389.2
356.326	400.95
356.709	399.59
357.091	369.99
357.473	406.83
357.855	409.09
358.238	390.1
358.62	389.2
359.002	388.97
359.384	416.09
359.766	409.09
360.148	417.9
360.53	407.05
360.912	418.35
361.294	389.88
361.676	393.04
362.057	393.04
362.439	416.32
362.821	424
363.203	401.85
363.584	397.79
363.966	394.4
364.348	401.85
364.729	413.83
365.111	400.05
365.493	418.12
365.874	417.9
366.256	405.7
366.637	421.74
367.019	413.83
367.4	402.31
367.781	418.58
368.163	414.28
368.544	431.01
368.925	434.62
369.306	417.67
369.688	432.36
370.069	409.31
370.45	422.87
370.831	428.52
371.212	434.4
371.593	431.68
371.974	440.04
372.355	436.66
372.736	462.64
373.117	463.77
373.498	461.51
373.879	459.03
374.26	465.35
374.641	420.84
375.021	448.63
375.402	459.93
375.783	466.03
376.163	509.2
376.544	492.47
376.925	497.67
377.305	489.54
377.686	497.67
378.066	480.27
378.447	494.28
378.827	521.62
379.208	494.05
379.588	510.33
379.968	503.09
380.349	536.54
380.729	510.1
381.109	531.57
381.489	541.96
381.87	548.52
382.25	545.35
382.63	535.18
383.01	551.68
383.39	580.15
383.77	567.5
384.15	554.39
384.53	567.5
384.91	572.02
385.29	583.77
385.67	614.73
386.049	607.95
386.429	602.53
386.809	623.32
387.189	593.71
387.568	616.99
387.948	642.3
388.328	628.51
388.707	657.89
389.087	656.31
389.466	669.64
389.846	681.39
390.225	699.93
390.605	697.89
390.984	686.37
391.363	696.76
391.743	728.4
392.122	680.72
392.501	724.33
392.881	733.82
393.26	746.48
393.639	745.57
394.018	776.99
394.397	777.44
394.776	781.5
395.155	805.69
395.534	787.83
395.913	792.13
396.292	806.14
396.671	845.46
397.05	829.41
397.429	853.59
397.808	825.57
398.186	844.1
398.565	852.46
398.944	882.75
399.323	876.19
399.701	874.84
400.08	882.29
400.458	901.28
400.837	927.26
401.215	922.74
401.594	922.07
401.972	934.95
402.351	943.76
402.729	968.17
403.107	999.35
403.486	968.62
403.864	979.69
404.242	1001.16
404.62	996.41
404.999	1028.28
405.377	1044.55
405.755	1071.44
406.133	1052.01
406.511	1096.98
406.889	1098.33
407.267	1099.69
407.645	1103.08
408.023	1120.48
408.401	1141.04
408.779	1168.84
409.156	1191.66
409.534	1203.64
409.912	1224.21
410.29	1228.72
410.667	1238.44
411.045	1279.8
411.422	1274.15
411.8	1322.73
412.178	1331.55
412.555	1347.14
412.933	1364.09
413.31	1383.52
413.687	1395.05
414.065	1417.19
414.442	1418.78
414.819	1432.11
415.197	1461.26
415.574	1485.22
415.951	1511.88
416.328	1525.21
416.705	1531.32
417.082	1538.55
417.46	1557.98
417.837	1564.31
418.214	1573.8
418.591	1610.64
418.967	1641.82
419.344	1626.91
419.721	1656.96
420.098	1649.73
420.475	1713.01
420.852	1698.54
421.228	1729.73
421.605	1722.27
421.982	1777.86
422.358	1770.86
422.735	1811.31
423.111	1830.29
423.488	1836.39
423.864	1856.96
424.241	1864.87
424.617	1893.79
424.994	1925.2
425.37	1928.82
425.746	1985.54
426.123	1998.87
426.499	1981.7
426.875	2032.55
427.251	2061.92
427.627	2107.57
428.003	2125.2
428.379	2158.64
428.756	2159.55
429.132	2195.03
429.507	2222.14
429.883	2279.32
430.259	2317.74
430.635	2305.76
431.011	2345.53
431.387	2417.85
431.763	2449.03
432.138	2456.72
432.514	2495.81
432.89	2509.6
433.265	2584.62
433.641	2583.04
434.016	2637.05
434.392	2668.69
434.767	2698.52
435.143	2710.27
435.518	2752.53
435.894	2846.99
436.269	2846.76
436.644	2884.73
437.02	2853.99
437.395	2922.92
437.77	2955.46
438.145	2963.82
438.52	3032.29
438.895	3041.56
439.271	3074.33
439.646	3109.13
440.021	3158.17
440.395	3150.03
440.77	3184.61
441.145	3205.17
441.52	3235.45
441.895	3268.9
442.27	3292.85
442.645	3325.84
443.019	3372.62
443.394	3360.19
443.769	3387.54
444.143	3432.28
444.518	3493.52
444.892	3462.56
445.267	3524.94
445.641	3542.11
446.016	3571.04
446.39	3611.49
446.764	3604.26
447.139	3602.22
447.513	3633.86
447.887	3669.34
448.262	3733.52
448.636	3687.19
449.01	3781.88
449.384	3838.37
449.758	3842.89
450.132	3896.45
450.506	3893.51
450.88	3973.96
451.254	3921.31
451.628	4048.09
452.002	4043.79
452.376	4083.79
452.75	4156.11
453.123	4200.4
453.497	4243.33
453.871	4249.44
454.244	4406.95
454.618	4380.96
454.992	4454.63
455.365	4460.28
455.739	4583.89
456.112	4634.28
456.486	4700.05
456.859	4698.92
457.232	4828.63
457.606	4780.72
457.979	4863.21
458.352	4970.77
458.725	5037.89
459.099	5031.56
459.472	5178
459.845	5206.02
460.218	5299.35
460.591	5330.99
460.964	5343.87
461.337	5505
461.71	5541.83
462.083	5628.38
462.456	5616.86
462.829	5674.94
463.201	5781.83
463.574	5796.74
463.947	5913.35
464.32	6056.85
464.692	6037.86
465.065	6119.67
465.438	6196.28
465.81	6365.99
466.183	6409.83
466.555	6595.14
466.928	6528.47
467.3	6557.17
467.672	6701.35
468.045	6889.14
468.417	6917.84
468.789	6921.46
469.161	7039.19
469.534	7134.11
469.906	7354.89
470.278	7384.27
470.65	7473.31
471.022	7626.97
471.394	7736.35
471.766	7841.43
472.138	7925.72
472.51	8031.94
472.882	8191.03
473.253	8291.36
473.625	8468.99
473.997	8615.2
474.369	8676.21
474.74	8771.8
475.112	8954.4
475.484	9116.43
475.855	9256.99
476.227	9342.86
476.598	9594.15
476.97	9687.26
477.341	9904.2
477.713	10010.64
478.084	10149.62
478.455	10442.27
478.827	10496.96
479.198	10875.48
479.569	10825.31
479.94	11141.46
480.311	11309.82
480.682	11494.22
481.053	11724.95
481.424	11909.12
481.795	12022.57
482.166	12263.69
482.537	12430.46
482.908	12720.4
483.279	12815.09
483.65	13003.33
484.021	13204.23
484.391	13422.98
484.762	13538.91
485.133	13669.98
485.503	13937.54
485.874	14250.08
486.244	14361.03
486.615	14641.03
486.985	14809.84
487.356	15084.63
487.726	15165.31
488.097	15491.4
488.467	15611.62
488.837	15958.28
489.207	16085.74
489.578	16335.67
489.948	16463.58
490.318	16703.57
490.688	16708.32
491.058	16998.25
491.428	17352.59
491.798	17436.89
492.168	17789.87
492.538	17858.8
492.908	18087.49
493.278	18336.75
493.648	18372.45
494.017	18611.09
494.387	18796.17
494.757	18936.96
495.126	19121.81
495.496	19269.83
495.866	19337.18
496.235	19601.57
496.605	19799.08
496.974	19921.34
497.344	20065.74
497.713	20241.56
498.082	20317.94
498.452	20575.56
498.821	20691.49
499.19	20802
499.559	20979.17
499.928	21124.25
500.298	21277.69
500.667	21478.59
501.036	21559.72
501.405	21752.48
501.774	21776.66
502.143	21937.56
502.512	22110.21
502.88	22338.23
503.249	22420.03
503.618	22608.95
503.987	22696.41
504.356	22929.62
504.724	22962.39
505.093	23132.1
505.462	23257.98
505.83	23375.49
506.199	23574.13
506.567	23810.73
506.936	23838.98
507.304	24183.15
507.672	24398.29
508.041	24304.5
508.409	24654.78
508.777	24796.01
509.145	25057.93
509.514	25067.42
509.882	25287.98
510.25	25321.65
510.618	25552.83
510.986	25595.77
511.354	25974.06
511.722	26180.16
512.09	26370.44
512.458	26400.72
512.826	26630.09
513.193	26810.88
513.561	26984.66
513.929	27121.83
514.297	27284.54
514.664	27544.42
515.032	27774.24
515.4	27923.39
515.767	28131.52
516.135	28332.64
516.502	28168.36
516.869	28666.2
517.237	29009.69
517.604	28771.05
517.972	29200.64
518.339	29365.16
518.706	29405.61
519.073	29622.1
519.44	29941.87
519.808	30192.93
520.175	30282.42
520.542	30598.35
520.909	30906.36
521.276	30937.55
521.643	31307.48
522.009	31471.55
522.376	31570.98
522.743	32036.73
523.11	32225.2
523.477	32447.56
523.843	32786.31
524.21	32976.82
524.577	33238.73
524.943	33382.91
525.31	33609.79
525.676	33949.45
526.043	34156.45
526.409	34335.88
526.776	34765.92
527.142	34820.38
527.508	34959.36
527.874	35296.08
528.241	35446.58
528.607	35573.81
528.973	35865.78
529.339	35976.96
529.705	36276.39
530.071	36724.51
530.437	36863.72
530.803	37039.99
531.169	37179.19
531.535	37237.95
531.901	37356.81
532.267	37649.01
532.632	37680.87
532.998	38109.56
533.364	38326.73
533.73	38383.68
534.095	38599.72
534.461	38712.26
534.826	38938.69
535.192	39054.62
535.557	39325.58
535.923	39474.05
536.288	39597.66
536.653	39730.09
537.019	39646.92
537.384	39946.58
537.749	40123.75
538.114	40308.83
538.479	40262.73
538.845	40451.87
539.21	40545.66
539.575	40613
539.94	40874.69
540.305	41246.43
540.67	41028.36
541.034	41250.95
541.399	41549.25
541.764	41616.36
542.129	41825.85
542.494	41806.64
542.858	42065.62
543.223	42069.46
543.587	42302
543.952	42316.23
544.316	42482.56
544.681	42563.68
545.045	42763.68
545.41	42935.65
545.774	43103.78
546.138	43178.58
546.503	43188.07
546.867	43300.84
547.231	43723.88
547.595	43708.96
547.959	43869.64
548.324	43965
548.688	43964.78
549.052	44325.22
549.416	44263.98
549.779	44284.77
550.143	44631.88
550.507	44805.21
550.871	44893.57
551.235	44922.94
551.599	45247.45
551.962	45465.08
552.326	45552.08
552.689	45763.6
553.053	45684.96
553.417	45644.96
553.78	46295.56
554.143	46150.93
554.507	46387.09
554.87	46552.73
555.234	46959.73
555.597	46678.15
555.96	46873.85
556.323	47181.64
556.686	47236.55
557.05	47514.51
557.413	47525.13
557.776	47689.88
558.139	48057.1
558.502	47979.81
558.865	48101.62
559.228	48445.11
559.59	48523.53
559.953	48747.7
560.316	49007.81
560.679	49025.43
561.041	49198.31
561.404	49433.78
561.767	49632.42
562.129	49517.62
562.492	49980.89
562.854	49867.9
563.217	50010.49
563.579	50299.98
563.941	50311.05
564.304	50649.35
564.666	50739.06
565.028	50892.28
565.39	51092.72
565.753	51162.78
566.115	51214.08
566.477	51401.42
566.839	51486.84
567.201	51713.95
567.563	51722.31
567.925	51950.78
568.287	52026.94
568.648	52130.21
569.01	52118.23
569.372	52400.03
569.734	52300.83
570.095	52613.36
570.457	52784.66
570.819	52838.67
571.18	52807.26
571.542	52987.36
571.903	52981.71
572.265	53159.34
572.626	53213.12
572.987	53288.37
573.349	53356.62
573.71	53449.05
574.071	53539.67
574.432	53679.32
574.794	53898.53
575.155	53760.22
575.516	53802.71
575.877	53833.22
576.238	54004.96
576.599	54116.15
576.96	54141.91
577.32	54165.86
577.681	54207.9
578.042	54319.08
578.403	54357.72
578.763	54331.96
579.124	54378.97
579.485	54522.01
579.845	54591.16
580.206	54489.25
580.566	54573.54
580.927	54509.81
581.287	54664.38
581.648	54570.15
582.008	54726.53
582.368	54652.4
582.728	54734.44
583.089	54676.81
583.449	54684.95
583.809	54725.85
584.169	54765.62
584.529	54739.41
584.889	54939.85
585.249	54669.13
585.609	54697.6
585.969	54852.63
586.329	54782.34
586.688	54841.1
587.048	54804.94
587.408	54807.65
587.768	54823.47
588.127	54809.24
588.487	54777.6
588.846	54964.71
589.206	54813.53
589.565	54802.68
589.925	54917.48
590.284	54779.63
590.643	54834.32
591.003	54870.7
591.362	55007.2
591.721	54905.05
592.08	54870.93
592.44	55026.41
592.799	55039.51
593.158	54948.67
593.517	54978.5
593.876	55056.91
594.235	54914.32
594.593	55026.86
594.952	55040.87
595.311	54916.35
595.67	55039.29
596.029	55169.68
596.387	55169.23
596.746	55203.58
597.104	55050.81
597.463	55119.06
597.822	55270.47
598.18	55091.72
598.538	55146.4
598.897	55232.95
599.255	55064.82
599.613	55453.51
599.972	55203.12
600.33	55352.27
600.688	55209.45
601.046	55391.37
601.404	55496.22
601.762	55417.81
602.12	55493.96
602.478	55511.14
602.836	55456.68
603.194	55345.49
603.552	55435.89
603.91	55370.13
604.268	55575.09
604.625	55463.46
604.983	55551.36
605.341	55494.42
605.698	55545.04
606.056	55685.37
606.413	55592.72
606.771	55665.26
607.128	55777.12
607.485	55639.72
607.843	55702.77
608.2	55774.64
608.557	55938.7
608.914	55749.55
609.272	55934.86
609.629	55953.16
609.986	56100.5
610.343	55913.39
610.7	56089.2
611.057	55995.42
611.414	56001.75
611.771	56123.33
612.127	56158.81
612.484	56173.72
612.841	56279.93
613.198	56159.03
613.554	56115.19
613.911	56294.62
614.267	56352.47
614.624	56191.35
614.98	56290.33
615.337	56392.92
615.693	56342.3
616.05	56255.3
616.406	56425.24
616.762	56386.37
617.118	56361.06
617.475	56355.41
617.831	56474.5
618.187	56418.01
618.543	56458.01
618.899	56699.13
619.255	56565.8
619.611	56505.69
619.967	56597.44
620.323	56602.41
620.678	56605.57
621.034	56577.1
621.39	56526.03
621.746	56494.84
622.101	56783.42
622.457	56549.98
622.812	56605.12
623.168	56668.85
623.523	56630.21
623.879	56738.9
624.234	56507.5
624.589	56667.49
624.945	56659.13
625.3	56684.67
625.655	56660.94
626.01	56644.67
626.365	56702.97
626.72	56640.6
627.075	56541.62
627.43	56577.55
627.785	56444.45
628.14	56599.02
628.495	56649.64
628.85	56552.92
629.205	56498.68
629.559	56632.01
629.914	56439.25
630.269	56464.33
630.623	56433.6
630.978	56370.1
631.332	56469.98
631.687	56463.43
632.041	56417.33
632.396	56483.09
632.75	56291.01
633.104	56342.3
633.459	56178.47
633.813	56177.79
634.167	56187.96
634.521	56113.61
634.875	56252.36
635.229	56054.18
635.583	56049.88
635.937	56024.12
636.291	55916.78
636.645	55988.87
636.999	55899.38
637.352	55969.43
637.706	55797.91
638.06	55900.28
638.413	55851.02
638.767	55705.94
639.121	55717.46
639.474	55605.6
639.828	55656.9
640.181	55698.25
640.534	55663.68
640.888	55597.46
641.241	55472.27
641.594	55463.91
641.947	55505.49
642.301	55491.48
642.654	55465.49
643.007	55380.07
643.36	55389.56
643.713	55379.62
644.066	55394.53
644.419	55216.91
644.771	54993.64
645.124	54715
645.477	54772.85
645.83	54491.96
646.182	54441.34
646.535	54321.34
646.888	54343.94
647.24	54171.97
647.593	54418.06
647.945	54316.37
648.298	54178.52
648.65	54071.86
649.002	54001.12
649.355	54062.59
649.707	54016.26
650.059	54089.48
650.411	54390.94
650.763	54462.81
651.115	54824.83
651.467	54632.07
651.819	54677.71
652.171	54541.67
652.523	54568.34
652.875	54482.24
653.227	54352.07
653.578	54585.51
653.93	54434.78
654.282	54331.51
654.633	54247.67
654.985	54345.52
655.337	54280.89
655.688	54242.47
656.039	54375.12
656.391	54071.63
656.742	54142.81
657.094	54118.41
657.445	54272.3
657.796	54140.1
658.147	54090.84
658.498	54053.55
658.849	54163.38
659.2	54072.76
659.551	53961.12
659.902	54019.88
660.253	53940.11
660.604	54070.95
660.955	53888.81
661.306	53961.8
661.656	53949.15
662.007	53950.73
662.358	53926.32
662.708	53797.51
663.059	53830.73
663.409	53585.99
663.76	53835.93
664.11	53847.91
664.461	53905.98
664.811	53856.95
665.161	53701.47
665.511	53612.43
665.862	53682.03
666.212	53832.99
666.562	53805.2
666.912	53706.44
667.262	53626.22
667.612	53678.19
667.962	53659.66
668.312	53590.29
668.662	53671.19
669.011	53549.16
669.361	53506.45
669.711	53386
670.06	53522.27
670.41	53407.92
670.76	53383.06
671.109	53518.42
671.459	53416.73
671.808	53254.48
672.157	53303.74
672.507	53245.21
672.856	53141.94
673.205	53299.45
673.554	53379.67
673.904	53106.68
674.253	53328.82
674.602	53198.88
674.951	52743.08
675.3	52638.9
675.649	53104.65
675.998	53091.09
676.346	53033.24
676.695	53121.37
677.044	52875.5
677.393	53040.7
677.741	53003.41
678.09	52883.41
678.438	52853.81
678.787	52906.24
679.135	52849.74
679.484	52682.97
679.832	52779.46
680.181	52621.5
680.529	52613.59
680.877	52596.19
681.225	52544.21
681.573	52725.22
681.922	52498.79
682.27	52356.42
682.618	52350.32
682.966	52287.04
683.314	52391
683.661	52256.99
684.009	52158.23
684.357	51963.21
684.705	51959.59
685.053	51981.06
685.4	51967.28
685.748	51820.61
686.095	51737.91
686.443	51582.2
686.79	51654.29
687.138	51681.18
687.485	51631.24
687.832	51395.09
688.18	51553.96
688.527	51210.46
688.874	51223.34
689.221	51260.4
689.568	51158.49
689.915	51005.72
690.262	50897.25
690.609	50812.28
690.956	50760.76
691.303	50659.97
691.65	50475.79
691.997	50509.01
692.344	50274.21
692.69	50262.01
693.037	50224.05
693.383	49986.54
693.73	50121
694.077	49848.46
694.423	49862.93
694.769	49760.1
695.116	49577.96
695.462	49537.29
695.808	49481.69
696.155	49586.32
696.501	49128.93
696.847	49256.16
697.193	48872.67
697.539	49200.57
697.885	48758.55
698.231	48720.36
698.577	48764.65
698.923	48576.63
699.269	48434.04
699.614	48272.91
699.96	48153.37
700.306	48148.62
700.651	47962.19
700.997	47890.77
701.342	47905.01
701.688	47818.69
702.033	47648.97
702.379	47554.51
702.724	47552.7
703.069	47488.98
703.415	47065.26
703.76	47154.07
704.105	47199.72
704.45	47061.64
704.795	46723.12
705.14	46609.45
705.485	46618.27
705.83	46431.15
706.175	46557.48
706.52	46406.97
706.865	46267.77
707.209	46191.16
707.554	46022.35
707.899	46129.92
708.243	45826.2
708.588	45824.61
708.932	45503.27
709.277	45475.92
709.621	45532.64
709.966	45262.6
710.31	45446.09
710.654	44983.96
710.998	44967.01
711.342	45081.58
711.687	44959.55
712.031	44691.54
712.375	44495.61
712.719	44637.75
713.063	44584.87
713.407	44625.55
713.75	44392.34
714.094	44448.15
714.438	44129.07
714.782	44296.74
715.125	43999.58
715.469	44027.15
715.812	43849.3
716.156	43586.71
716.499	43612.02
716.843	43730.66
717.186	43487.5
717.53	43563.66
717.873	43601.4
718.216	43403.44
718.559	43183.78
718.902	42921.87
719.246	43090.67
719.589	43024.91
719.932	42862.21
720.275	42763
720.617	42795.99
720.96	42629.9
721.303	42758.48
721.646	42560.29
721.989	42234.88
722.331	42666.51
722.674	42323.92
723.016	42408.43
723.359	42243.24
723.701	42149.46
724.044	41886.86
724.386	41859.29
724.729	41994.88
725.071	41837.37
725.413	41881.67
725.755	41771.39
726.097	41546.08
726.439	41383.38
726.782	41501.56
727.124	41626.08
727.465	41295.02
727.807	41322.59
728.149	41161.46
728.491	41149.48
728.833	41144.51
729.175	40849.15
729.516	40967.79
729.858	40822.94
730.199	40869.26
730.541	40618.42
730.882	40628.59
731.224	40789.27
731.565	40489.16
731.906	40537.3
732.248	40552.44
732.589	40203.29
732.93	40221.82
733.271	40230.86
733.612	40199.68
733.953	40119.23
734.294	40022.73
734.635	39963.98
734.976	40008.5
735.317	39816.64
735.658	39719.46
735.999	39837.43
736.339	39486.25
736.68	39757.43
737.021	39405.35
737.361	39359.02
737.702	39545.23
738.042	39474.05
738.383	39226.37
738.723	39313.15
739.063	39145.47
739.404	39173.94
739.744	39173.94
740.084	38821.18
740.424	39128.75
740.764	38921.52
741.104	39084.45
741.444	38722.88
741.784	38693.28
742.124	38769.66
742.464	38578.7
742.804	38582.77
743.143	38382.55
743.483	38415.32
743.823	38297.58
744.162	38252.84
744.502	38303.46
744.841	38126.96
745.181	38161.31
745.52	38107.76
745.86	38030.24
746.199	37849.91
746.538	37852.39
746.877	37975.33
747.216	37839.74
747.556	37703.02
747.895	37764.71
748.234	37627.54
748.573	37409.69
748.911	37423.93
749.25	37400.88
749.589	37144.39
749.928	37204.28
750.267	37233.43
750.605	37190.94
750.944	36958.18
751.283	36844.96
751.621	36985.07
751.96	36744.85
752.298	36797.73
752.636	36610.17
752.975	36524.07
753.313	36458.53
753.651	36516.84
753.989	36286.79
754.327	36253.57
754.666	36045.21
755.004	36064.64
755.342	35990.75
755.679	35973.8
756.017	35718.21
756.355	35811.77
756.693	35741.94
757.031	35745.33
757.368	35492.23
757.706	35443.64
758.044	35238.23
758.381	35312.57
758.719	35073.94
759.056	35021.51
759.394	34992.81
759.731	34670.78
760.068	34791.01
760.405	34643.21
760.743	34465.14
761.08	34368.87
761.417	34371.36
761.754	34280.29
762.091	34176.78
762.428	34050.23
762.765	33820.64
763.102	34046.84
763.438	33789.45
763.775	33555.56
764.112	33501.77
764.449	33622.9
764.785	33234.66
765.122	33130.71
765.458	33012.3
765.795	32961.9
766.131	32918.74
766.467	32933.43
766.804	32703.38
767.14	32574.34
767.476	32525.53
767.812	32229.72
768.148	32315.82
768.485	32109.27
768.821	31871.31
769.157	31984.07
769.492	31909.05
769.828	31957.63
770.164	31566.46
770.5	31461.38
770.836	31463.41
771.171	31301.83
771.507	31224.32
771.842	30964.67
772.178	30778.68
772.513	30874.5
772.849	30728.97
773.184	30619.82
773.519	30479.03
773.855	30505.02
774.19	30456.43
774.525	30271.58
774.86	30187.74
775.195	30125.59
775.53	29913.62
775.865	29725.15
776.2	29669.56
776.535	29406.97
776.87	29440.41
777.205	29267.31
777.539	29131.72
777.874	29138.27
778.209	28936.7
778.543	28980.09
778.878	28690.38
779.212	28765.85
779.547	28615.8
779.881	28705.06
780.215	28394.79
780.55	28540.77
780.884	28272.53
781.218	28044.97
781.552	28099.66
781.886	28104.4
782.22	27803.39
782.554	27703.51
782.888	27521.82
783.222	27405.44
783.556	27354.14
783.889	27277.31
784.223	27003.41
784.557	27040.02
784.89	26962.29
785.224	26908.28
785.557	26680.03
785.891	26726.59
786.224	26582.63
786.558	26414.5
786.891	26310.1
787.224	26256.99
787.557	26104
787.891	26134.28
788.224	26058.81
788.557	26028.07
788.89	26014.06
789.223	25847.74
789.556	25633.73
789.888	25535.66
790.221	25454.98
790.554	25354.87
790.887	25403.46
791.219	25315.32
791.552	25141.54
791.884	25051.83
792.217	24862
792.549	24925.95
792.882	24705.4
793.214	24530.03
793.546	24671.5
793.879	24485.74
794.211	24333.88
794.543	24401.67
794.875	24337.72
795.207	24299.76
795.539	24113.77
795.871	24243.26
796.203	23860.9
796.535	23774.57
796.867	23829.49
797.198	23672.65
797.53	23765.99
797.862	23527.35
798.193	23650.06
798.525	23374.13
798.856	23372.78
799.188	23151.31
799.519	23053.69
799.85	22934.82
800.182	23094.14
800.513	22976.63
800.844	22826.35
801.175	22834.03
801.506	22824.09
801.837	22779.34
802.168	22726.24
802.499	22561.27
802.83	22490.09
803.161	22332.8
803.491	22372.12
803.822	22386.36
804.153	22178
804.483	22119.7
804.814	22020.95
805.145	21953.83
805.475	22024.56
805.805	21831.12
806.136	21885.36
806.466	21893.27
806.796	21801.29
807.126	21540.06
807.457	21537.57
807.787	21512.71
808.117	21398.14
808.447	21323.79
808.777	21391.13
809.107	21308.65
809.436	21224.81
809.766	21194.53
810.096	21088.09
810.426	21093.74
810.755	21147.98
811.085	20935.1
811.414	20931.03
811.744	20801.32
812.073	20693.75
812.403	20736.91
812.732	20588.44
813.061	20555.22
813.39	20416.69
813.719	20325.4
814.049	20397.49
814.378	20350.48
814.707	20181.45
815.036	20290.6
815.365	20105.06
815.693	19934.67
816.022	19988.01
816.351	19877.73
816.68	19842.92
817.008	19888.12
817.337	19662.59
817.665	19706.43
817.994	19691.97
818.322	19658.75
818.651	19578.98
818.979	19494.46
819.307	19652.2
819.636	19574.68
819.964	19432.09
820.292	19497.85
820.62	19440.9
820.948	19346.67
821.276	19404.52
821.604	19327.46
821.932	19369.04
822.259	19439.55
822.587	19265.76
822.915	19248.14
823.243	19459.88
823.57	19323.62
823.898	19290.17
824.225	19284.3
824.553	19233.68
824.88	19325.42
825.207	19284.75
825.535	19290.85
825.862	19285.65
826.189	19341.69
826.516	19316.16
826.843	19261.47
827.17	19270.74
827.497	19280.45
827.824	19412.65
828.151	19281.58
828.478	19231.19
828.805	19177.18
829.131	19163.85
829.458	19143.96
829.785	19118.65
830.111	19236.61
830.438	19257.63
830.764	19213.79
831.09	19153.68
831.417	19043.62
831.743	19208.82
832.069	19140.12
832.395	19093.57
832.722	19120.46
833.048	19086.33
833.374	19101.7
833.7	18942.16
834.026	19105.09
834.351	18952.1
834.677	18953
835.003	19008.82
835.329	19009.5
835.654	18882.95
835.98	18741.03
836.306	18896.28
836.631	18765.89
836.956	18898.99
837.282	18867.13
837.607	18776.06
837.932	18669.85
838.258	18698.77
838.583	18685.21
838.908	18453.58
839.233	18500.59
839.558	18587.14
839.883	18421.27
840.208	18417.88
840.533	18337.88
840.858	18376.97
841.182	18306.47
841.507	18309.86
841.832	18249.29
842.156	18264.66
842.481	18218.11
842.805	18127.26
843.13	18143.76
843.454	18147.38
843.778	17986.7
844.103	17995.52
844.427	17951.22
844.751	17889.3
845.075	17859.25
845.399	17844.11
845.723	17653.15
846.047	17712.59
846.371	17583.32
846.695	17560.05
847.019	17462.2
847.343	17372.93
847.666	17300.84
847.99	17139.72
848.313	17230.79
848.637	17108.53
848.96	17073.51
849.284	16997.58
849.607	16875.32
849.931	16894.75
850.254	16678.04
850.577	16671.71
850.9	16454.09
851.223	16466.74
851.546	16443.24
851.869	16296.58
852.192	16363.92
852.515	16236.69
852.838	16158.73
853.161	16170.48
853.483	16059.97
853.806	15997.15
854.129	15946.98
854.451	15945.85
854.774	15817.49
855.096	15836.02
855.419	15742.02
855.741	15719.87
856.063	15618.63
856.385	15675.35
856.708	15572.75
857.03	15476.71
857.352	15478.75
857.674	15375.02
857.996	15423.61
858.318	15279.65
858.64	15342.93
858.961	15349.71
859.283	15158.98
859.605	15179.54
859.926	15164.63
860.248	15079.66
860.57	15005.54
860.891	15010.74
861.212	14924.41
861.534	14929.38
861.855	14923.51
862.176	14860.68
862.498	14893.45
862.819	14865.43
863.14	14791.31
863.461	14740.46
863.782	14751.76
864.103	14773.68
864.424	14667.92
864.745	14660.46
865.065	14577.75
865.386	14649.16
865.707	14597.86
866.027	14574.59
866.348	14516.51
866.668	14499.56
866.989	14429.06
867.309	14367.59
867.63	14368.27
867.95	14388.38
868.27	14301.6
868.59	14338.66
868.91	14322.17
869.23	14236.74
869.55	14120.36
869.87	14230.19
870.19	14157.42
870.51	14192.68
870.83	14284.88
871.15	14066.81
871.469	14070.2
871.789	14083.98
872.109	14061.16
872.428	14056.18
872.748	14064.77
873.067	13967.37
873.386	13968.05
873.706	13927.83
874.025	13861.16
874.344	13949.07
874.663	13848.28
874.982	13829.52
875.301	13753.59
875.62	13758.34
875.939	13723.99
876.258	13711.33
876.577	13720.6
876.896	13709.98
877.214	13694.61
877.533	13615.74
877.852	13600.38
878.17	13599.7
878.489	13636.99
878.807	13609.19
879.125	13606.93
879.444	13446.26
879.762	13511.57
880.08	13415.75
880.398	13350.89
880.716	13425.01
881.034	13356.32
881.352	13363.55
881.67	13339.59
881.988	13307.96
882.306	13243.55
882.624	13269.09
882.941	13124.68
883.259	13135.53
883.577	13121.52
883.894	13062.09
884.212	13058.02
884.529	13059.83
884.846	13055.98
885.164	13086.49
885.481	12910.23
885.798	13005.82
886.115	12810.34
886.432	12844.24
886.75	12819.83
887.067	12831.58
887.383	12747.52
887.7	12762.21
888.017	12632.94
888.334	12688.31
888.651	12590.23
888.967	12583.91
889.284	12533.51
889.6	12527.41
889.917	12486.06
890.233	12539.61
890.55	12337.81
890.866	12410.58
891.182	12345.49
891.498	12339.62
891.815	12260.98
892.131	12231.83
892.447	12170.36
892.763	12166.74
893.079	12065.5
893.395	12073.19
893.71	12046.75
894.026	12061.89
894.342	12024.37
894.657	11976.24
894.973	11897.6
895.289	11817.82
895.604	11901.21
895.92	11802.68
896.235	11755.68
896.55	11691.27
896.865	11646.3
897.181	11616.93
897.496	11534.22
897.811	11542.13
898.126	11503.93
898.441	11415.58
898.756	11450.83
899.071	11286.99
899.386	11329.48
899.7	11275.69
900.015	11238.86
900.33	11087.45
900.644	11103.95
900.959	11232.98
901.273	11080.22
901.588	11059.43
901.902	11020.78
902.216	10915.25
902.531	10889.04
902.845	10890.84
903.159	10853.56
903.473	10787.12
903.787	10756.61
904.101	10656.73
904.415	10661.92
904.729	10587.35
905.042	10617.86
905.356	10518.2
905.67	10451.08
905.984	10510.74
906.297	10477.97
906.611	10408.82
906.924	10381.25
907.237	10342.38
907.551	10360.24
907.864	10225.1
908.177	10239.11
908.491	10201.82
908.804	10128.15
909.117	10033.92
909.43	10044.31
909.743	10000.25
910.056	9944.2
910.368	9891.32
910.681	9867.14
910.994	9852.9
911.307	9813.81
911.619	9728.61
911.932	9790.76
912.244	9677.32
912.557	9611.56
912.869	9627.15
913.181	9522.29
913.494	9500.37
913.806	9472.8
914.118	9435.97
914.43	9390.09
914.742	9400.94
915.054	9318.23
915.366	9199.81
915.678	9216.99
915.99	9227.61
916.302	9137.44
916.613	9037.33
916.925	9128.86
917.236	9094.51
917.548	9017.22
917.859	8965.02
918.171	8919.14
918.482	8862.2
918.794	8881.18
919.105	8875.98
919.416	8701.52
919.727	8750.79
920.038	8752.14
920.349	8624.24
920.66	8611.81
920.971	8656.78
921.282	8580.4
921.593	8453.39
921.903	8450
922.214	8399.16
922.525	8442.55
922.835	8328.88
923.146	8269.9
923.456	8311.7
923.767	8216.79
924.077	8223.34
924.387	8195.55
924.697	8131.37
925.008	8087.3
925.318	8099.05
925.628	8050.01
925.938	8016.57
926.248	7962.33
926.558	7890.47
926.867	7860.41
927.177	7862.22
927.487	7763.92
927.796	7796.24
928.106	7743.81
928.416	7734.09
928.725	7701.1
929.034	7619.07
929.344	7630.36
929.653	7648.89
929.962	7534.1
930.271	7514.89
930.581	7505.17
930.89	7476.24
931.199	7341.11
931.508	7345.63
931.817	7367.77
932.125	7350.37
932.434	7322.58
932.743	7200.32
933.051	7256.81
933.36	7182.47
933.669	7174.11
933.977	7151.96
934.286	7131.39
934.594	7117.84
934.902	7037.84
935.21	7020.66
935.519	6992.42
935.827	6933.89
936.135	6957.16
936.443	6858.18
936.751	6833.55
937.059	6834.23
937.367	6805.08
937.674	6805.08
937.982	6730.73
938.29	6681.24
938.597	6688.92
938.905	6589.26
939.213	6587.23
939.52	6539.09
939.827	6576.38
940.135	6523.5
940.442	6517.17
940.749	6449.38
941.056	6485.99
941.363	6391.3
941.67	6370.96
941.977	6301.59
942.284	6295.94
942.591	6308.82
942.898	6233.56
943.205	6171.87
943.511	6226.56
943.818	6185.43
944.125	6157.18
944.431	6104.53
944.738	6115.83
945.044	6108.14
945.35	6036.28
945.657	6007.36
945.963	5989.28
946.269	5975.94
946.575	5930.3
946.881	5900.69
947.187	5903.18
947.493	5803.52
947.799	5843.29
948.105	5820.02
948.41	5738.66
948.716	5773.69
949.022	5710.87
949.327	5737.31
949.633	5679.46
949.938	5634.26
950.244	5688.72
950.549	5584.54
950.854	5557.42
951.16	5566.24
951.465	5503.87
951.77	5443.08
952.075	5442.85
952.38	5480.82
952.685	5436.07
952.99	5380.25
953.294	5366.24
953.599	5332.12
953.904	5325.79
954.209	5338.67
954.513	5233.14
954.818	5218.68
955.122	5242.4
955.426	5138.23
955.731	5174.16
956.035	5140.03
956.339	5138.9
956.643	5149.3
956.948	5044.44
957.252	5022.98
957.556	5047.83
957.86	5029.75
958.163	5013.71
958.467	5013.03
958.771	5006.7
959.075	4941.62
959.378	4905.69
959.682	4944.11
959.985	4937.33
960.289	4844.9
960.592	4841.06
960.896	4808.29
961.199	4803.77
961.502	4773.49
961.805	4759.48
962.108	4700.27
962.411	4694.17
962.714	4700.05
963.017	4701.4
963.32	4612.59
963.623	4608.75
963.926	4624.12
964.228	4554.51
964.531	4563.1
964.833	4554.96
965.136	4479.26
965.438	4506.83
965.741	4470.45
966.043	4459.6
966.345	4418.92
966.648	4408.98
966.95	4436.55
967.252	4332.82
967.554	4333.95
967.856	4364.46
968.158	4288.31
968.46	4288.08
968.761	4303.9
969.063	4243.56
969.365	4211.92
969.666	4230.45
969.968	4189.32
970.269	4226.16
970.571	4187.74
970.872	4150.91
971.174	4120.85
971.475	4091.47
971.776	4050.12
972.077	4025.26
972.378	4072.49
972.679	4008.09
972.98	3999.5
973.281	4002.44
973.582	3965.38
973.883	3962.89
974.183	3940.52
974.484	3937.58
974.785	3900.07
975.085	3935.77
975.386	3880.41
975.686	3846.06
975.986	3861.2
976.287	3830.92
976.587	3752.5
976.887	3780.3
977.187	3792.5
977.487	3724.48
977.787	3712.28
978.087	3734.87
978.387	3741.2
978.687	3684.93
978.987	3657.14
979.286	3608.32
979.586	3662.56
979.885	3636.35
980.185	3618.04
980.484	3602
980.784	3580.75
981.083	3549.79
981.382	3512.96
981.682	3550.25
981.981	3521.77
982.28	3498.72
982.579	3465.05
982.878	3505.5
983.177	3432.06
983.475	3430.7
983.774	3446.52
984.073	3375.56
984.372	3366.75
984.67	3384.83
984.969	3350.7
985.267	3350.93
985.566	3340.31
985.864	3290.14
986.162	3283.13
986.461	3273.42
986.759	3275
987.057	3220.99
987.355	3214.66
987.653	3225.96
987.951	3225.06
988.249	3149.8
988.547	3146.87
988.844	3162.46
989.142	3121.33
989.44	3103.93
989.737	3085.17
990.035	3075
990.332	3073.42
990.63	3050.6
990.927	3028.23
991.224	3036.36
991.521	3019.41
991.819	3007.21
992.116	2967.66
992.413	2926.31
992.71	2905.52
993.006	2966.08
993.303	2933.76
993.6	2933.76
993.897	2920.88
994.193	2898.51
994.49	2852.64
994.787	2855.57
995.083	2821.45
995.379	2799.98
995.676	2794.33
995.972	2773.09
996.268	2810.15
996.565	2755.69
996.861	2754.79
997.157	2775.12
997.453	2734.45
997.749	2729.25
998.044	2692.19
998.34	2702.36
998.636	2687.22
998.932	2649.25
999.227	2639.31
999.523	2629.59
999.818	2588.91
1000.114	2610.61
1000.409	2594.11
1000.704	2547.11
1001	2572.19
1001.295	2525.19
1001.59	2520.67
1001.885	2516.15
1002.18	2482.25
1002.475	2488.8
1002.77	2466.88
1003.065	2465.08
1003.359	2456.94
1003.654	2449.71
1003.949	2404.29
1004.243	2397.73
1004.538	2408.58
1004.832	2347.79
1005.127	2359.09
1005.421	2304.4
1005.715	2348.02
1006.009	2328.58
1006.304	2324.06
1006.598	2282.03
1006.892	2293.33
1007.186	2227.79
1007.48	2250.62
1007.773	2247.23
1008.067	2225.53
1008.361	2204.07
1008.655	2215.82
1008.948	2184.86
1009.242	2179.66
1009.535	2165.65
1009.829	2130.17
1010.122	2144.86
1010.415	2138.31
1010.708	2100.11
1011.001	2121.81
1011.295	2068.93
1011.588	2060.57
1011.881	2046.56
1012.173	2028.03
1012.466	2049.72
1012.759	2041.13
1013.052	2008.82
1013.344	2005.2
1013.637	1983.51
1013.93	1972.89
1014.222	1949.16
1014.514	1958.65
1014.807	1930.63
1015.099	1934.92
1015.391	1902.15
1015.683	1917.07
1015.976	1875.04
1016.268	1870.52
1016.56	1873.23
1016.851	1833.23
1017.143	1851.31
1017.435	1832.55
1017.727	1793.91
1018.018	1793.46
1018.31	1793.91
1018.602	1771.76
1018.893	1776.05
1019.185	1761.14
1019.476	1760.46
1019.767	1729.73
1020.058	1732.44
1020.35	1695.83
1020.641	1677.98
1020.932	1691.09
1021.223	1685.44
1021.514	1683.63
1021.804	1639.11
1022.095	1635.04
1022.386	1623.97
1022.677	1603.86
1022.967	1597.53
1023.258	1587.81
1023.548	1602.27
1023.839	1588.94
1024.129	1574.48
1024.419	1542.84
1024.709	1534.93
1025	1541.03
1025.29	1508.72
1025.58	1494.71
1025.87	1508.94
1026.16	1481.15
1026.449	1470.3
1026.739	1459.23
1027.029	1451.77
1027.319	1467.59
1027.608	1448.38
1027.898	1423.75
1028.187	1416.74
1028.477	1395.27
1028.766	1428.49
1029.055	1405.9
1029.344	1401.38
1029.634	1406.35
1029.923	1367.7
1030.212	1344.88
1030.501	1308.95
1030.79	1324.77
1031.078	1290.87
1031.367	1319.57
1031.656	1339.68
1031.945	1295.62
1032.233	1301.04
1032.522	1283.41
1032.81	1272.11
1033.099	1268.95
1033.387	1214.71
1033.675	1235.96
1033.963	1235.5
1034.251	1223.3
1034.54	1225.79
1034.828	1230.31
1035.116	1215.39
1035.403	1205.67
1035.691	1205
1035.979	1157.77
1036.267	1178.33
1036.554	1159.57
1036.842	1171.1
1037.129	1155.96
1037.417	1131.33
1037.704	1140.82
1037.992	1111.21
1038.279	1105.11
1038.566	1120.25
1038.853	1120.25
1039.14	1120.25
