Data from white_poster_card_FLMS001491_00025.txt Node
Date: Wed Feb 08 11:51:17 GMT 2017
User: dcchb
Spectrometer: FLMS00149
Trigger mode: 0
Integration Time (sec): 2.000000E-2
Scans to average: 10
Electric dark correction enabled: true
Nonlinearity correction enabled: false
Boxcar width: 0
XAxis mode: Wavelengths
Number of Pixels in Spectrum: 2048
>>>>>Begin Spectral Data<<<<<
341.393	-7.97
341.776	-7.97
342.16	-7.97
342.543	-83.22
342.927	-76.66
343.31	-71.69
343.693	-72.14
344.077	-67.63
344.46	-48.42
344.843	-36.67
345.226	-45.48
345.61	-21.98
345.993	-38.47
346.376	5.14
346.759	-10
347.142	25.48
347.525	52.6
347.908	58.47
348.291	79.72
348.674	75.42
349.057	115.65
349.44	125.82
349.823	134.18
350.206	133.95
350.588	182.31
350.971	204.91
351.354	215.08
351.737	228.86
352.119	227.06
352.502	252.59
352.884	256.43
353.267	269.99
353.65	284.68
354.032	303.44
354.414	308.64
354.797	309.99
355.179	310.67
355.562	321.07
355.944	325.81
356.326	322.42
356.709	328.97
357.091	317.45
357.473	349.09
357.855	349.31
358.238	328.52
358.62	330.56
359.002	335.75
359.384	321.07
359.766	340.95
360.148	333.49
360.53	351.12
360.912	333.04
361.294	321.74
361.676	331.69
362.057	319.03
362.439	315.42
362.821	316.09
363.203	331.69
363.584	312.7
363.966	338.69
364.348	329.43
364.729	318.58
365.111	307.51
365.493	336.43
365.874	329.88
366.256	315.87
366.637	313.83
367.019	321.74
367.4	317.22
367.781	303.89
368.163	316.77
368.544	288.75
368.925	303.44
369.306	298.01
369.688	301.86
370.069	328.07
370.45	320.39
370.831	338.01
371.212	319.71
371.593	325.81
371.974	297.34
372.355	331.69
372.736	319.94
373.117	315.42
373.498	328.52
373.879	332.82
374.26	322.65
374.641	310.22
375.021	322.65
375.402	314.51
375.783	317.22
376.163	339.82
376.544	337.11
376.925	299.6
377.305	306.83
377.686	324.23
378.066	323.1
378.447	337.34
378.827	351.35
379.208	338.47
379.588	326.04
379.968	327.62
380.349	320.39
380.729	347.73
381.109	331.69
381.489	328.97
381.87	342.99
382.25	340.95
382.63	356.09
383.01	334.62
383.39	353.61
383.77	346.15
384.15	369.88
384.53	342.53
384.91	364.68
385.29	361.52
385.67	350.22
386.049	352.7
386.429	367.84
386.809	371.23
387.189	370.56
387.568	373.72
387.948	357.45
388.328	372.14
388.707	365.13
389.087	357.9
389.466	377.79
389.846	375.07
390.225	373.94
390.605	390.22
390.984	384.11
391.363	373.94
391.743	358.35
392.122	409.42
392.501	382.76
392.881	397.45
393.26	389.09
393.639	370.78
394.018	393.61
394.397	406.94
394.776	422.53
395.155	424.11
395.534	394.74
395.913	414.85
396.292	428.63
396.671	430.44
397.05	421.63
397.429	410.33
397.808	416.88
398.186	439.71
398.565	432.25
398.944	426.37
399.323	425.24
399.701	408.97
400.08	444.45
400.458	418.01
400.837	437.67
401.215	439.03
401.594	417.11
401.972	448.52
402.351	469.76
402.729	460.72
403.107	474.28
403.486	452.59
403.864	448.29
404.242	466.37
404.62	456.43
404.999	480.38
405.377	487.16
405.755	492.36
406.133	495.75
406.511	513.38
406.889	499.59
407.267	512.02
407.645	522.42
408.023	511.79
408.401	525.58
408.779	532.81
409.156	553.83
409.534	551.79
409.912	560.83
410.29	571.23
410.667	586.14
411.045	589.53
411.422	582.53
411.8	622.75
412.178	626.14
412.555	602.19
412.933	644.22
413.31	664.33
413.687	676.54
414.065	663.65
414.442	698.23
414.819	693.71
415.197	692.35
415.574	731.68
415.951	749.3
416.328	763.31
416.705	771
417.082	779.58
417.46	795.85
417.837	799.92
418.214	818
418.591	837.21
418.967	835.63
419.344	854.38
419.721	860.03
420.098	843.76
420.475	880.37
420.852	919.47
421.228	939.35
421.605	948.85
421.982	953.82
422.358	964.44
422.735	1015.96
423.111	972.57
423.488	1005.34
423.864	1039.01
424.241	1033.14
424.617	1031.33
424.994	1052.57
425.37	1082.4
425.746	1093.25
426.123	1092.34
426.499	1096.86
426.875	1119.24
427.251	1180.48
427.627	1168.05
428.003	1188.39
428.379	1217.54
428.756	1205.11
429.132	1234.49
429.507	1262.96
429.883	1268.38
430.259	1285.79
430.635	1277.42
431.011	1305.45
431.387	1360.59
431.763	1393.58
432.138	1344.99
432.514	1382.51
432.89	1407.14
433.265	1430.41
433.641	1445.78
434.016	1449.85
434.392	1490.53
434.767	1511.32
435.143	1497.98
435.518	1547.93
435.894	1556.29
436.269	1593.57
436.644	1594.48
437.02	1595.83
437.395	1610.3
437.77	1636.74
438.145	1674.48
438.52	1654.82
438.895	1676.28
439.271	1733.68
439.646	1739.78
440.021	1747.24
440.395	1789.95
440.77	1742.95
441.145	1779.33
441.52	1778.88
441.895	1805.09
442.27	1814.81
442.645	1847.13
443.019	1837.18
443.394	1864.53
443.769	1861.14
444.143	1885.32
444.518	1892.55
444.892	1864.3
445.267	1908.82
445.641	1906.79
446.016	1914.7
446.39	1932.55
446.764	1969.38
447.139	1943.17
447.513	1983.62
447.887	1997.63
448.262	1996.73
448.636	2028.14
449.01	2052.77
449.384	2066.33
449.758	2047.12
450.132	2080.57
450.506	2101.36
450.88	2117.4
451.254	2086.22
451.628	2163.95
452.002	2191.52
452.376	2172.32
452.75	2193.78
453.123	2234.01
453.497	2260.22
453.871	2272.65
454.244	2309.71
454.618	2344.06
454.992	2352.65
455.365	2348.36
455.739	2420.22
456.112	2454.34
456.486	2410.95
456.859	2479.65
457.232	2514.68
457.606	2517.84
457.979	2521.91
458.352	2603.04
458.725	2633.77
459.099	2646.88
459.472	2663.6
459.845	2721.91
460.218	2715.35
460.591	2758.06
460.964	2741.57
461.337	2825.18
461.71	2839.42
462.083	2901.79
462.456	2909.02
462.829	2929.36
463.201	2956.7
463.574	2974.1
463.947	3021.11
464.32	3079.18
464.692	3098.85
465.065	3128.22
465.438	3194.21
465.81	3215.45
466.183	3229.92
466.555	3338.84
466.928	3292.29
467.3	3355.11
467.672	3396.46
468.045	3485.05
468.417	3448.21
468.789	3512.17
469.161	3561.66
469.534	3604.82
469.906	3700.64
470.278	3710.35
470.65	3737.92
471.022	3786.06
471.394	3860.41
471.766	3883.23
472.138	3962.33
472.51	4034.19
472.882	4033.28
473.253	4111.93
473.625	4151.02
473.997	4240.28
474.369	4259.27
474.74	4301.75
475.112	4379.04
475.484	4415.19
475.855	4513.5
476.227	4588.98
476.598	4694.51
476.97	4726.15
477.341	4815.41
477.713	4927.5
478.084	4932.7
478.455	5012.24
478.827	5102.41
479.198	5252.23
479.569	5228.73
479.94	5416.07
480.311	5396.41
480.682	5492.45
481.053	5622.39
481.424	5722.28
481.795	5807.47
482.166	5863.29
482.537	5954.14
482.908	6078.2
483.279	6118.65
483.65	6257.41
484.021	6361.58
484.391	6452.88
484.762	6524.97
485.133	6557.74
485.503	6661.46
485.874	6786.88
486.244	6869.37
486.615	6940.1
486.985	7028.91
487.356	7153.2
487.726	7289.7
488.097	7428
488.467	7395.91
488.837	7612.17
489.207	7613.53
489.578	7789.12
489.948	7785.95
490.318	7973.97
490.688	7992.95
491.058	8160.18
491.428	8201.31
491.798	8289.9
492.168	8442.66
492.538	8405.82
492.908	8633.39
493.278	8766.72
493.648	8712.71
494.017	8827.96
494.387	8945.92
494.757	9024.11
495.126	9091.46
495.496	9079.03
495.866	9267.27
496.235	9304.56
496.605	9433.82
496.974	9458
497.344	9556.98
497.713	9587.04
498.082	9751.33
498.452	9824.54
498.821	9869.51
499.19	9903.41
499.559	9980.25
499.928	9997.87
500.298	10115.84
500.667	10125.55
501.036	10226.57
501.405	10365.32
501.774	10348.6
502.143	10502.49
502.512	10456.39
502.88	10631.53
503.249	10616.16
503.618	10750.62
503.987	10794.69
504.356	10834.69
504.724	10923.05
505.093	10984.97
505.462	11120.78
505.83	11129.59
506.199	11182.02
506.567	11374.56
506.936	11372.3
507.304	11520.77
507.672	11584.5
508.041	11599.64
508.409	11711.27
508.777	11802.8
509.145	11941.32
509.514	11936.8
509.882	12024.26
510.25	12098.38
510.618	12182.9
510.986	12219.28
511.354	12364.14
511.722	12540.18
512.09	12606.62
512.458	12610.46
512.826	12681.87
513.193	12805.93
513.561	12716.9
513.929	12977.68
514.297	13059.94
514.664	13165.02
515.032	13270.56
515.4	13423.55
515.767	13347.62
516.135	13566.14
516.502	13375.19
516.869	13708.51
517.237	13826.92
517.604	13777.21
517.972	14002.29
518.339	14083.87
518.706	14092.45
519.073	14187.37
519.44	14342.17
519.808	14386.68
520.175	14460.13
520.542	14634.13
520.909	14831.42
521.276	14796.84
521.643	14979.21
522.009	15097.17
522.376	15157.51
522.743	15313.67
523.11	15331.07
523.477	15629.59
523.843	15637.5
524.21	15756.37
524.577	16075
524.943	16058.96
525.31	16178.05
525.676	16294.43
526.043	16450.13
526.409	16543.46
526.776	16709.79
527.142	16689
527.508	16824.59
527.874	16988.88
528.241	17037.91
528.607	17189.1
528.973	17360.39
529.339	17291.69
529.705	17537.79
530.071	17672.7
530.437	17774.39
530.803	17901.39
531.169	17985.69
531.535	17966.7
531.901	18074.27
532.267	18194.72
532.632	18303.87
532.998	18345.9
533.364	18530.08
533.73	18516.29
534.095	18766.68
534.461	18741.37
534.826	18904.76
535.192	18852.56
535.557	18991.08
535.923	19088.03
536.288	19250.96
536.653	19270.62
537.019	19233.79
537.384	19368.25
537.749	19556.27
538.114	19497.74
538.479	19592.65
538.845	19787.67
539.21	19725.3
539.575	19782.7
539.94	19871.74
540.305	20084.16
540.67	19942.47
541.034	20100.21
541.399	20209.13
541.764	20212.75
542.129	20284.61
542.494	20440.76
542.858	20549.23
543.223	20550.36
543.587	20674.43
543.952	20630.59
544.316	20831.26
544.681	20783.35
545.045	20906.29
545.41	21060.86
545.774	21067.41
546.138	21100.86
546.503	21198.26
546.867	21223.79
547.231	21469.89
547.595	21444.58
547.959	21612.48
548.324	21504.91
548.688	21660.62
549.052	21723.44
549.416	21789.43
549.779	21764.79
550.143	21849.31
550.507	22048.4
550.871	22092.7
551.235	22111.45
551.599	22326.14
551.962	22341.95
552.326	22396.87
552.689	22522.29
553.053	22516.87
553.417	22586.02
553.78	22884.99
554.143	22749.85
554.507	22885.22
554.87	23103.52
555.234	23256.06
555.597	23141.93
555.96	23303.74
556.323	23435.49
556.686	23343.96
557.05	23535.37
557.413	23541.7
557.776	23731.07
558.139	23972.87
558.502	23922.93
558.865	24095.36
559.228	24132.19
559.59	24265.29
559.953	24416.25
560.316	24597.94
560.679	24547.55
561.041	24742.8
561.404	24868.22
561.767	25010.13
562.129	24952.73
562.492	25240.41
562.854	25290.8
563.217	25294.65
563.579	25383.68
563.941	25588.88
564.304	25724.92
564.666	25782.77
565.028	25808.3
565.39	25969.88
565.753	26135.53
566.115	26347.73
566.477	26391.79
566.839	26378.91
567.201	26619.58
567.563	26627.27
567.925	26936.18
568.287	26946.81
568.648	26967.14
569.01	27046.69
569.372	27276.97
569.734	27194.93
570.095	27427.7
570.457	27562.83
570.819	27597.41
571.18	27573.23
571.542	27764.64
571.903	27783.85
572.265	27965.31
572.626	28044.4
572.987	28099.32
573.349	28101.35
573.71	28265.64
574.071	28396.26
574.432	28480.32
574.794	28679.19
575.155	28614.56
575.516	28443.04
575.877	28665.4
576.238	28729.58
576.599	28783.82
576.96	28871.73
577.32	28746.53
577.681	29080.31
578.042	29045.06
578.403	29063.81
578.763	29170.48
579.124	29158.95
579.485	29288.89
579.845	29381.54
580.206	29230.14
580.566	29334.31
580.927	29326.18
581.287	29403.46
581.648	29317.36
582.008	29469.9
582.368	29492.28
582.728	29484.82
583.089	29553.52
583.449	29433.97
583.809	29629.67
584.169	29689.78
584.529	29483.46
584.889	29740.4
585.249	29553.29
585.609	29563.91
585.969	29724.13
586.329	29522.33
586.688	29829.89
587.048	29718.94
587.408	29489.34
587.768	29568.43
588.127	29557.36
588.487	29606.62
588.846	29709.67
589.206	29683.91
589.565	29690.24
589.925	29752.38
590.284	29670.8
590.643	29814.98
591.003	29779.05
591.362	29871.7
591.721	29756.68
592.08	29763
592.44	29832.61
592.799	29873.51
593.158	29808.43
593.517	29824.7
593.876	29953.51
594.235	29845.26
594.593	29880.51
594.952	29974.07
595.311	29861.76
595.67	29921.19
596.029	30071.7
596.387	30144.01
596.746	30182.43
597.104	29981.08
597.463	30099.49
597.822	30030.57
598.18	29956.22
598.538	29965.71
598.897	30060.17
599.255	29979.04
599.613	30344
599.972	30247.06
600.33	30223.1
600.688	30083.45
601.046	30295.42
601.404	30355.98
601.762	30340.84
602.12	30456.77
602.478	30538.12
602.836	30409.31
603.194	30327.96
603.552	30388.75
603.91	30325.47
604.268	30461.74
604.625	30391.46
604.983	30511.91
605.341	30367.28
605.698	30515.75
606.056	30593.94
606.413	30574.96
606.771	30708.51
607.128	30763.2
607.485	30540.16
607.843	30691.34
608.2	30730.43
608.557	30897.44
608.914	30806.37
609.272	31006.59
609.629	30947.6
609.986	31240.7
610.343	30967.72
610.7	31282.96
611.057	31030.99
611.414	31086.81
611.771	30988.73
612.127	31312.57
612.484	31171.1
612.841	31365.22
613.198	31186.47
613.554	31289.97
613.911	31374.26
614.267	31396.86
614.624	31488.16
614.98	31438.44
615.337	31607.7
615.693	31440.92
616.05	31534.71
616.406	31542.84
616.762	31523.86
617.118	31559.79
617.475	31535.39
617.831	31768.15
618.187	31609.51
618.543	31643.41
618.899	31769.5
619.255	31761.14
619.611	31756.4
619.967	31786.23
620.323	31921.14
620.678	31779.9
621.034	31627.13
621.39	31643.41
621.746	31803.85
622.101	32079.78
622.457	31753.46
622.812	31720.24
623.168	31931.08
623.523	31927.47
623.879	32047.91
624.234	31735.83
624.589	31872.33
624.945	31921.59
625.3	31852.89
625.655	31904.42
626.01	31863.51
626.365	31835.94
626.72	31746.91
627.075	31927.47
627.43	31855.38
627.785	31817.41
628.14	31722.5
628.495	31877.07
628.85	31708.94
629.205	31632.78
629.559	31773.12
629.914	31766.57
630.269	31657.64
630.623	31587.36
630.978	31646.57
631.332	31784.87
631.687	31734.25
632.041	31540.36
632.396	31571.99
632.75	31344.88
633.104	31610.41
633.459	31346.01
633.813	31534.71
634.167	31385.11
634.521	31292.91
634.875	31271.66
635.229	31321.61
635.583	31152.57
635.937	31136.53
636.291	31009.75
636.645	31124.1
636.999	31047.49
637.352	31113.7
637.706	30911.45
638.06	31035.51
638.413	30941.5
638.767	30871.67
639.121	30779.02
639.474	30688.85
639.828	30738.12
640.181	30822.18
640.534	30629.42
640.888	30612.02
641.241	30574.05
641.594	30692.92
641.947	30555.3
642.301	30456.77
642.654	30603.43
643.007	30558.91
643.36	30446.37
643.713	30329.09
644.066	30408.64
644.419	30356.21
644.771	30088.64
645.124	29815.2
645.477	29896.33
645.83	29510.81
646.182	29556.68
646.535	29336.12
646.888	29378.38
647.24	29260.64
647.593	29400.53
647.945	29362.11
648.298	29195.79
648.65	29136.8
649.002	29048.22
649.355	29095.9
649.707	29115.34
650.059	29137.03
650.411	29474.87
650.763	29564.82
651.115	29835.09
651.467	29831.48
651.819	29775.66
652.171	29651.37
652.523	29458.15
652.875	29564.82
653.227	29337.7
653.578	29556.91
653.93	29558.49
654.282	29449.34
654.633	29292.28
654.985	29455.89
655.337	29395.55
655.688	29379.06
656.039	29603.46
656.391	29163.7
656.742	29203.92
657.094	29271.04
657.445	29340.41
657.796	29264.48
658.147	29278.95
658.498	29170.48
658.849	29304.71
659.2	29148.56
659.551	29193.53
659.902	29196.69
660.253	29071.27
660.604	29171.38
660.955	28899.07
661.306	29077.37
661.656	28998.5
662.007	28900.88
662.358	28901.56
662.708	28834.89
663.059	28861.56
663.409	28770.71
663.76	29085.96
664.11	28915.79
664.461	28966.64
664.811	28879.86
665.161	28913.08
665.511	28754.44
665.862	28781.79
666.212	28806.87
666.562	28872.86
666.912	28773.65
667.262	28745.4
667.612	28737.27
667.962	28787.44
668.312	28682.13
668.662	28818.39
669.011	28624.95
669.361	28674.22
669.711	28670.38
670.06	28624.73
670.41	28570.94
670.76	28543.37
671.109	28671.51
671.459	28511.51
671.808	28527.1
672.157	28678.74
672.507	28341.8
672.856	28387.9
673.205	28350.16
673.554	28486.43
673.904	28325.53
674.253	28490.04
674.602	28373.43
674.951	27940.9
675.3	27896.61
675.649	28346.99
675.998	28387.9
676.346	28327.11
676.695	28424.73
677.044	28132.31
677.393	28211.86
677.741	28200.56
678.09	28199.65
678.438	28110.39
678.787	28098.41
679.135	28077.62
679.484	27908.81
679.832	28025.87
680.181	27859.32
680.529	27932.32
680.877	27878.98
681.225	27850.51
681.573	28005.53
681.922	27688.03
682.27	27602.83
682.618	27742.04
682.966	27533.68
683.314	27720.57
683.661	27548.15
684.009	27436.28
684.357	27445.1
684.705	27359.45
685.053	27321.26
685.4	27356.06
685.748	27205.56
686.095	27180.47
686.443	27040.14
686.79	26906.81
687.138	27170.75
687.485	27090.53
687.832	26937.09
688.18	27045.11
688.527	26835.85
688.874	26812.12
689.221	26716.98
689.568	26564.44
689.915	26537.1
690.262	26547.95
690.609	26505.69
690.956	26467.72
691.303	26331.91
691.65	26098.47
691.997	26202.87
692.344	25986.38
692.69	26119.71
693.037	25974.4
693.383	25782.54
693.73	25997.23
694.077	25725.82
694.423	25654.86
694.769	25647.4
695.116	25553.4
695.462	25580.29
695.808	25510.69
696.155	25454.87
696.501	25276.34
696.847	25321.76
697.193	25065.27
697.539	25194.08
697.885	25096.23
698.231	24957.03
698.577	24881.32
698.923	24945.28
699.269	24845.84
699.614	24675
699.96	24636.81
700.306	24634.32
700.651	24559.52
700.997	24372.64
701.342	24391.62
701.688	24395.69
702.033	24186.2
702.379	24166.09
702.724	24169.03
703.069	24178.29
703.415	23886.55
703.76	23957.28
704.105	23943.49
704.45	23880.45
704.795	23705.08
705.14	23711.86
705.485	23663.5
705.83	23600.9
706.175	23558.65
706.52	23487.24
706.865	23382.38
707.209	23377.63
707.554	23333.34
707.899	23376.96
708.243	23245.66
708.588	23186.9
708.932	22991.43
709.277	23012.45
709.621	22995.72
709.966	22787.14
710.31	22944.65
710.654	22758.44
710.998	22756.63
711.342	22765.22
711.687	22648.16
712.031	22567.26
712.375	22406.13
712.719	22566.81
713.063	22529.52
713.407	22587.15
713.75	22401.16
714.094	22361.39
714.438	22299.7
714.782	22366.14
715.125	22230.55
715.469	22288.62
715.812	22127.72
716.156	22045.47
716.499	21864.68
716.843	22036.43
717.186	21847.5
717.53	21913.04
717.873	21870.1
718.216	21807.28
718.559	21749.2
718.902	21642.31
719.246	21770.67
719.589	21577.68
719.932	21544.01
720.275	21582.2
720.617	21536.78
720.96	21497.01
721.303	21468.08
721.646	21457.01
721.989	21196.22
722.331	21473.96
722.674	21262.89
723.016	21261.98
723.359	21214.98
723.701	21238.03
724.044	21115.32
724.386	20955.32
724.729	21035.77
725.071	20992.84
725.413	21000.97
725.755	20914.65
726.097	20806.4
726.439	20854.08
726.782	20781.77
727.124	20794.2
727.465	20807.31
727.807	20676.01
728.149	20639.17
728.491	20614.54
728.833	20630.14
729.175	20530.25
729.516	20518.95
729.858	20481.66
730.199	20471.5
730.541	20436.69
730.882	20349.24
731.224	20475.79
731.565	20253.65
731.906	20285.74
732.248	20280.77
732.589	20252.52
732.93	20123.71
733.271	20182.46
733.612	20306.08
733.953	20237.6
734.294	20110.15
734.635	20030.15
734.976	20150.6
735.317	19962.81
735.658	20004.39
735.999	19963.94
736.339	19825.64
736.68	19959.64
737.021	19915.13
737.361	19712.19
737.702	19941.11
738.042	19815.47
738.383	19697.05
738.723	19802.59
739.063	19786.99
739.404	19759.2
739.744	19618.18
740.084	19475.36
740.424	19585.64
740.764	19483.95
741.104	19620.9
741.444	19399.66
741.784	19440.34
742.124	19389.04
742.464	19421.13
742.804	19265.43
743.143	19252.77
743.483	19314.24
743.823	19074.02
744.162	19052.55
744.502	19182.72
744.841	19037.64
745.181	19153.34
745.52	19068.14
745.86	19103.85
746.199	18991.76
746.538	18965.77
746.877	18998.09
747.216	18958.54
747.556	18829.96
747.895	18935.94
748.234	18869.96
748.573	18737.98
748.911	18711.54
749.25	18819.56
749.589	18629.96
749.928	18636.97
750.267	18639.45
750.605	18577.31
750.944	18457.54
751.283	18481.49
751.621	18512
751.96	18334.83
752.298	18356.75
752.636	18384.09
752.975	18253.25
753.313	18240.59
753.651	18276.3
753.989	18179.13
754.327	18153.59
754.666	18191.33
755.004	18139.35
755.342	18108.17
755.679	17992.24
756.017	17881.28
756.355	17895.74
756.693	17813.49
757.031	17891.9
757.368	17768.97
757.706	17728.06
758.044	17638.58
758.381	17615.3
758.719	17631.34
759.056	17591.12
759.394	17529.65
759.731	17482.42
760.068	17420.05
760.405	17224.12
760.743	17190.9
761.08	17374.63
761.417	17233.84
761.754	17170.79
762.091	17049.44
762.428	17031.81
762.765	16978.25
763.102	16957.46
763.438	16872.27
763.775	16878.6
764.112	16747.75
764.449	16803.34
764.785	16762.21
765.122	16521.99
765.458	16520.41
765.795	16539.62
766.131	16430.7
766.467	16469.11
766.804	16380.3
767.14	16338.27
767.476	16266.41
767.812	16244.04
768.148	16261.21
768.485	16137.6
768.821	16041.78
769.157	16001.1
769.492	16074.32
769.828	15891.5
770.164	15838.17
770.5	15741.22
770.836	15798.4
771.171	15704.16
771.507	15664.16
771.842	15496.71
772.178	15507.56
772.513	15541
772.849	15302.14
773.184	15391.86
773.519	15368.58
773.855	15288.36
774.19	15288.81
774.525	15113.9
774.86	15101.69
775.195	15092.2
775.53	15004.97
775.865	14884.07
776.2	14830.51
776.535	14748.71
776.87	14720.91
777.205	14663.29
777.539	14572.89
777.874	14570.86
778.209	14521.14
778.543	14472.11
778.878	14379.9
779.212	14417.87
779.547	14345.33
779.881	14313.47
780.215	14142.17
780.55	14273.01
780.884	14097.43
781.218	14087.48
781.552	14049.29
781.886	14063.08
782.22	13927.71
782.554	13931.33
782.888	13739.24
783.222	13790.54
783.556	13701.28
783.889	13632.13
784.223	13614.95
784.557	13577.89
784.89	13638
785.224	13515.07
785.557	13414.51
785.891	13422.87
786.224	13315.07
786.558	13381.96
786.891	13219.26
787.224	13166.6
787.557	13177
787.891	13009.32
788.224	13082.54
788.557	13049.54
788.89	13058.13
789.223	12947.4
789.556	12923.22
789.888	12821.3
790.221	12819.27
790.554	12730.68
790.887	12759.38
791.219	12707.86
791.552	12657.01
791.884	12554.64
792.217	12592.61
792.549	12471.03
792.882	12442.78
793.214	12340.86
793.546	12398.94
793.879	12274.87
794.211	12209.11
794.543	12315.78
794.875	12260.19
795.207	12264.71
795.539	12113.98
795.871	12212.05
796.203	12027.2
796.535	11937.26
796.867	11945.62
797.198	11805.73
797.53	11868.78
797.862	11810.71
798.193	11854.55
798.525	11692.52
798.856	11779.52
799.188	11586.53
799.519	11598.28
799.85	11598.06
800.182	11481
800.513	11596.02
800.844	11414.11
801.175	11551.5
801.506	11445.29
801.837	11333.88
802.168	11407.78
802.499	11351.51
802.83	11253.66
803.161	11267.67
803.491	11213.43
803.822	11217.73
804.153	11151.97
804.483	11032.87
804.814	11083.27
805.145	10994.23
805.475	11038.3
805.805	10984.97
806.136	11044.62
806.466	10913.55
806.796	10913.78
807.126	10807.12
807.457	10811.64
807.787	10810.51
808.117	10795.59
808.447	10716.05
808.777	10776.84
809.107	10746.1
809.436	10707.46
809.766	10638.08
810.096	10647.12
810.426	10568.71
810.755	10594.24
811.085	10551.3
811.414	10531.64
811.744	10433.79
812.073	10408.03
812.403	10371.65
812.732	10302.95
813.061	10384.53
813.39	10326.68
813.719	10334.59
814.049	10259.33
814.378	10273.8
814.707	10179.79
815.036	10175.27
815.365	10196.06
815.693	10075.84
816.022	10068.15
816.351	10061.83
816.68	9970.3
817.008	10073.8
817.337	9977.99
817.665	9855.96
817.994	9928.27
818.322	9973.92
818.651	9901.6
818.979	9894.82
819.307	9908.38
819.636	9858.22
819.964	9782.51
820.292	9836.07
820.62	9788.39
820.948	9763.3
821.276	9820.7
821.604	9772.79
821.932	9734.6
822.259	9776.86
822.587	9725.79
822.915	9658.45
823.243	9770.53
823.57	9775.51
823.898	9656.41
824.225	9624.32
824.553	9678.56
824.88	9705
825.207	9717.65
825.535	9625.91
825.862	9728.05
826.189	9667.49
826.516	9703.19
826.843	9730.76
827.17	9717.88
827.497	9742.96
827.824	9693.47
828.151	9748.61
828.478	9727.15
828.805	9735.05
829.131	9690.31
829.458	9695.51
829.785	9595.17
830.111	9709.74
830.438	9698.67
830.764	9711.33
831.09	9701.16
831.417	9611.22
831.743	9650.99
832.069	9684.89
832.395	9568.73
832.722	9649.18
833.048	9707.71
833.374	9596.08
833.7	9606.92
834.026	9603.76
834.351	9643.31
834.677	9531.9
835.003	9605.34
835.329	9635.4
835.654	9586.58
835.98	9558.56
836.306	9591.1
836.631	9530.99
836.956	9549.75
837.282	9473.14
837.607	9398.57
837.932	9472.69
838.258	9438.79
838.583	9500.03
838.908	9436.76
839.233	9366.02
839.558	9385.46
839.883	9353.37
840.208	9321.96
840.533	9305.69
840.858	9380.26
841.182	9286.93
841.507	9243.77
841.832	9251.23
842.156	9227.05
842.481	9274.5
842.805	9213.71
843.13	9169.19
843.454	9186.59
843.778	9124.22
844.103	9114.51
844.427	9098.01
844.751	9066.82
845.075	8959.03
845.399	9014.4
845.723	8987.5
846.047	8973.04
846.371	8989.09
846.695	8933.27
847.019	8821.63
847.343	8806.27
847.666	8722.2
847.99	8701.41
848.313	8691.92
848.637	8669.55
848.96	8600.17
849.284	8636.33
849.607	8600.85
849.931	8526.27
850.254	8529.89
850.577	8429.33
850.9	8389.78
851.223	8356.33
851.546	8341.87
851.869	8257.81
852.192	8349.55
852.515	8295.77
852.838	8221.42
853.161	8229.78
853.483	8126.74
853.806	8216.68
854.129	8115.44
854.451	8058.71
854.774	8041.31
855.096	7991.6
855.419	8047.19
855.741	8018.94
856.063	7970.81
856.385	7939.17
856.708	7918.38
857.03	7917.25
857.352	7869.79
857.674	7861.66
857.996	7794.09
858.318	7787.76
858.64	7689.91
858.961	7761.55
859.283	7724.49
859.605	7681.1
859.926	7627.54
860.248	7654.88
860.57	7627.31
860.891	7648.78
861.212	7613.75
861.534	7600.87
861.855	7489.92
862.176	7568.11
862.498	7618.5
862.819	7524.94
863.14	7527.43
863.461	7527.88
863.782	7458.96
864.103	7477.04
864.424	7399.3
864.745	7466.19
865.065	7410.14
865.386	7403.36
865.707	7358.85
866.027	7399.07
866.348	7334.44
866.668	7416.47
866.989	7400.65
867.309	7296.47
867.63	7332.18
867.95	7302.35
868.27	7313.65
868.59	7210.38
868.91	7285.4
869.23	7278.4
869.55	7263.03
869.87	7247.44
870.19	7159.98
870.51	7208.57
870.83	7244.5
871.15	7168.34
871.469	7188.23
871.789	7208.34
872.109	7152.75
872.428	7121.56
872.748	7123.15
873.067	7144.84
873.386	7161.11
873.706	7138.51
874.025	7053.54
874.344	7117.04
874.663	7109.59
874.982	7056.71
875.301	7050.15
875.62	7044.5
875.939	6991.62
876.258	6990.49
876.577	6917.5
876.896	6982.36
877.214	7005.41
877.533	6986.2
877.852	6916.6
878.17	6923.38
878.489	6878.41
878.807	6940.33
879.125	6908.91
879.444	6869.14
879.762	6871.4
880.08	6874.11
880.398	6837.05
880.716	6829.59
881.034	6824.62
881.352	6777.84
881.67	6774.45
881.988	6825.53
882.306	6795.25
882.624	6742.37
882.941	6755.02
883.259	6709.82
883.577	6682.25
883.894	6677.96
884.212	6647.9
884.529	6627.57
884.846	6642.71
885.164	6632.31
885.481	6582.14
885.798	6572.2
886.115	6527.68
886.432	6520.68
886.75	6617.4
887.067	6581.01
887.383	6467.57
887.7	6484.97
888.017	6461.92
888.334	6511.41
888.651	6465.31
888.967	6467.12
889.284	6389.15
889.6	6396.16
889.917	6337.86
890.233	6372.66
890.55	6341.02
890.866	6353
891.182	6284.52
891.498	6321.59
891.815	6266.9
892.131	6288.82
892.447	6260.8
892.763	6215.37
893.079	6209.27
893.395	6190.06
893.71	6187.35
894.026	6128.14
894.342	6095.83
894.657	6111.87
894.973	6084.08
895.289	6063.51
895.604	6088.15
895.92	5977.41
896.235	6017.64
896.55	5984.87
896.865	5925.66
897.181	5989.62
897.496	5914.82
897.811	5899.68
898.126	5887.7
898.441	5868.26
898.756	5934.93
899.071	5843.18
899.386	5849.06
899.7	5786.91
900.015	5767.02
900.33	5736.97
900.644	5727.25
900.959	5704.88
901.273	5727.02
901.588	5654.94
901.902	5581.49
902.216	5628.04
902.531	5657.42
902.845	5593.47
903.159	5526.35
903.473	5595.5
903.787	5582.85
904.101	5486.35
904.415	5499.01
904.729	5462.62
905.042	5427.37
905.356	5430.31
905.67	5400.48
905.984	5424.21
906.297	5373.14
906.611	5341.5
906.924	5371.78
907.237	5324.55
907.551	5287.49
907.864	5262.4
908.177	5303.31
908.491	5223.31
908.804	5238.68
909.117	5239.13
909.43	5190.09
909.743	5128.17
910.056	5161.84
910.368	5119.36
910.681	5060.38
910.994	5065.8
911.307	5029.64
911.619	5031.68
911.932	5013.82
912.244	4970.21
912.557	4977.21
912.869	4967.95
913.181	4936.54
913.494	4936.08
913.806	4947.61
914.118	4864.67
914.43	4846.14
914.742	4812.92
915.054	4800.27
915.366	4833.71
915.678	4762.98
915.99	4781.74
916.302	4747.62
916.613	4755.3
916.925	4698.58
917.236	4740.84
917.548	4662.87
917.859	4615.64
918.171	4593.95
918.482	4614.74
918.794	4574.74
919.105	4619.71
919.416	4579.48
919.727	4545.13
920.038	4518.47
920.349	4504.68
920.66	4501.97
920.971	4508.75
921.282	4453.16
921.593	4421.52
921.903	4399.6
922.214	4371.58
922.525	4352.6
922.835	4337
923.146	4338.13
923.456	4321.64
923.767	4290
924.077	4339.26
924.387	4256.33
924.697	4265.82
925.008	4273.28
925.318	4217.01
925.628	4185.37
925.938	4194.64
926.248	4161.64
926.558	4136.56
926.867	4144.92
927.177	4136.11
927.487	4058.37
927.796	4121.19
928.106	4074.86
928.416	4079.38
928.725	4028.54
929.034	4024.92
929.344	4030.8
929.653	4007.75
929.962	3981.76
930.271	3933.63
930.581	3975.88
930.89	3901.54
931.199	3878.03
931.508	3937.69
931.817	3857.02
932.125	3859.28
932.434	3892.27
932.743	3846.17
933.051	3767.75
933.36	3826.28
933.669	3772.95
933.977	3751.03
934.286	3777.47
934.594	3792.61
934.902	3722.11
935.21	3735.66
935.519	3697.02
935.827	3714.87
936.135	3685.5
936.443	3612.96
936.751	3614.09
937.059	3632.39
937.367	3591.04
937.674	3600.98
937.982	3570.02
938.29	3570.25
938.597	3570.25
938.905	3496.57
939.213	3483.92
939.52	3495.44
939.827	3495.22
940.135	3469.23
940.442	3432.62
940.749	3448.89
941.056	3432.62
941.363	3454.09
941.67	3433.07
941.977	3390.81
942.284	3370.93
942.591	3387.43
942.898	3347.2
943.205	3323.25
943.511	3331.38
943.818	3318.05
944.125	3343.36
944.431	3293.42
944.738	3255.45
945.044	3284.38
945.35	3245.51
945.657	3229.92
945.963	3165.06
946.269	3204.15
946.575	3222.01
946.881	3190.14
947.187	3146.98
947.493	3160.76
947.799	3147.88
948.105	3121.9
948.41	3119.86
948.716	3145.4
949.022	3043.03
949.327	3082.35
949.633	3019.3
949.938	3009.81
950.244	3019.98
950.549	2998.51
950.854	2986.76
951.16	2970.71
951.465	2983.59
951.77	2980.88
952.075	2948.11
952.38	2929.81
952.685	2911.05
952.99	2879.64
953.294	2911.73
953.599	2886.42
953.904	2873.77
954.209	2887.33
954.513	2880.09
954.818	2881
955.122	2824.05
955.426	2819.98
955.731	2790.15
956.035	2742.02
956.339	2807.55
956.643	2769.36
956.948	2750.61
957.252	2765.97
957.556	2745.63
957.86	2751.51
958.163	2731.62
958.467	2701.79
958.771	2725.75
959.075	2671.06
959.378	2675.81
959.682	2681.68
959.985	2662.02
960.289	2614.79
960.592	2625.41
960.896	2636.71
961.199	2618.18
961.502	2622.25
961.805	2617.73
962.108	2578.41
962.411	2566.66
962.714	2547.45
963.017	2521.23
963.32	2529.59
963.623	2519.65
963.926	2516.04
964.228	2488.69
964.531	2511.06
964.833	2493.44
965.136	2454.12
965.438	2471.74
965.741	2470.84
966.043	2437.62
966.345	2452.53
966.648	2416.6
966.95	2432.87
967.252	2429.03
967.554	2379.09
967.856	2387.9
968.158	2362.82
968.46	2358.75
968.761	2351.52
969.063	2358.3
969.365	2348.58
969.666	2334.57
969.968	2326.66
970.269	2311.07
970.571	2319.2
970.872	2327.79
971.174	2298.19
971.475	2273.78
971.776	2270.84
972.077	2273.33
972.378	2242.14
972.679	2220.22
972.98	2228.36
973.281	2191.07
973.582	2236.49
973.883	2204.18
974.183	2200.11
974.484	2162.82
974.785	2165.54
975.085	2160.34
975.386	2141.58
975.686	2167.12
975.986	2159.66
976.287	2164.18
976.587	2138.19
976.887	2096.61
977.187	2102.49
977.487	2110.4
977.787	2092.77
978.087	2071.53
978.387	2082.6
978.687	2048.7
978.987	2008.03
979.286	2017.52
979.586	2032.66
979.885	2008.48
980.185	2031.08
980.484	1994.24
980.784	1988.14
981.083	2005.77
981.382	1971.19
981.682	1994.02
981.981	1950.17
982.28	1953.11
982.579	1933.23
982.878	1967.8
983.177	1942.04
983.475	1943.17
983.774	1915.6
984.073	1899.78
984.372	1911.08
984.67	1881.7
984.969	1859.56
985.267	1842.38
985.566	1916.96
985.864	1853
986.162	1860.91
986.461	1832.21
986.759	1855.26
987.057	1820.46
987.355	1818.65
987.653	1799.22
987.951	1806
988.249	1796.51
988.547	1791.08
988.844	1796.51
989.142	1770.52
989.44	1776.62
989.737	1775.94
990.035	1785.66
990.332	1742.5
990.63	1759.67
990.927	1735.94
991.224	1694.36
991.521	1709.28
991.819	1718.77
992.116	1701.14
992.413	1717.19
992.71	1682.61
993.006	1701.82
993.303	1659.56
993.6	1667.02
993.897	1685.32
994.193	1665.89
994.49	1658.2
994.787	1623.4
995.083	1635.61
995.379	1627.02
995.676	1638.09
995.972	1622.95
996.268	1620.47
996.565	1581.6
996.861	1573.91
997.157	1584.08
997.453	1564.65
997.749	1585.66
998.044	1539.11
998.34	1545.21
998.636	1524.42
998.932	1528.26
999.227	1512.22
999.523	1518.32
999.818	1515.61
1000.114	1507.02
1000.409	1522.39
1000.704	1481.94
1001	1460.47
1001.295	1482.39
1001.59	1493.24
1001.885	1494.59
1002.18	1461.83
1002.475	1460.24
1002.77	1441.04
1003.065	1435.84
1003.359	1436.06
1003.654	1405.78
1003.949	1418.44
1004.243	1399.68
1004.538	1376.86
1004.832	1399.23
1005.127	1364.2
1005.421	1379.79
1005.715	1368.95
1006.009	1374.14
1006.304	1359
1006.598	1343.86
1006.892	1365.33
1007.186	1328.95
1007.48	1307.93
1007.773	1291.89
1008.067	1312.9
1008.361	1317.2
1008.655	1310.87
1008.948	1295.73
1009.242	1293.24
1009.535	1263.87
1009.829	1275.62
1010.122	1285.33
1010.415	1284.2
1010.708	1277.42
1011.001	1255.5
1011.295	1242.17
1011.588	1243.07
1011.881	1232.23
1012.173	1252.34
1012.466	1213.47
1012.759	1194.94
1013.052	1209.18
1013.344	1196.97
1013.637	1173.02
1013.93	1198.33
1014.222	1173.02
1014.514	1173.92
1014.807	1162.62
1015.099	1153.36
1015.391	1165.11
1015.683	1138.44
1015.976	1160.14
1016.268	1137.77
1016.56	1104.77
1016.851	1114.94
1017.143	1124.89
1017.435	1112.68
1017.727	1102.74
1018.018	1116.3
1018.31	1107.49
1018.602	1080.37
1018.893	1081.27
1019.185	1091.21
1019.476	1054.61
1019.767	1072.23
1020.058	1055.51
1020.35	1059.8
1020.641	1042.63
1020.932	1045.34
1021.223	1034.49
1021.514	1018
1021.804	1006.7
1022.095	1042.85
1022.386	992.46
1022.677	989.07
1022.967	989.07
1023.258	1014.61
1023.548	970.54
1023.839	952.01
1024.129	987.94
1024.419	976.19
1024.709	976.87
1025	959.24
1025.29	941.61
1025.58	930.09
1025.87	950.43
1026.16	930.09
1026.449	922.41
1026.739	927.15
1027.029	926.7
1027.319	928.05
1027.608	917.43
1027.898	898.68
1028.187	921.73
1028.477	881.5
1028.766	894.16
1029.055	875.4
1029.344	869.53
1029.634	880.82
1029.923	888.96
1030.212	864.55
1030.501	859.13
1030.79	864.33
1031.078	856.42
1031.367	864.33
1031.656	831.79
1031.945	829.53
1032.233	817.32
1032.522	839.92
1032.81	842.41
1033.099	812.35
1033.387	826.36
1033.675	830.43
1033.963	785.23
1034.251	799.02
1034.54	797.21
1034.828	782.52
1035.116	790.43
1035.403	774.84
1035.691	788.85
1035.979	790.66
1036.267	784.1
1036.554	758.79
1036.842	766.93
1037.129	755.4
1037.417	759.25
1037.704	757.66
1037.992	756.53
1038.279	749.08
1038.566	748.4
1038.853	748.4
1039.14	748.4
