Data from whiteboard_FLMS001491_00047.txt Node
Date: Wed Feb 08 11:26:40 GMT 2017
User: dcchb
Spectrometer: FLMS00149
Trigger mode: 0
Integration Time (sec): 2.000000E-2
Scans to average: 10
Electric dark correction enabled: true
Nonlinearity correction enabled: false
Boxcar width: 0
XAxis mode: Wavelengths
Number of Pixels in Spectrum: 2048
>>>>>Begin Spectral Data<<<<<
341.393	1
341.776	1
342.16	1
342.543	-47.36
342.927	-54.14
343.31	-85.77
343.693	-70.18
344.077	-60.24
344.46	-55.27
344.843	-54.36
345.226	-43.06
345.61	-38.54
345.993	-21.6
346.376	22.7
346.759	4.17
347.142	27.67
347.525	30.61
347.908	57.27
348.291	76.93
348.674	102.02
349.057	107.67
349.44	120.55
349.823	133.2
350.206	166.2
350.588	215.23
350.971	240.54
351.354	253.88
351.737	289.81
352.119	262.01
352.502	315.34
352.884	309.47
353.267	303.82
353.65	306.98
354.032	325.06
354.414	348.34
354.797	333.42
355.179	351.05
355.562	342.69
355.944	349.24
356.326	355.57
356.709	372.07
357.091	360.77
357.473	372.29
357.855	360.09
358.238	364.38
358.62	374.55
359.002	387.21
359.384	367.77
359.766	381.56
360.148	363.03
360.53	391.28
360.912	384.72
361.294	376.81
361.676	373.65
362.057	383.14
362.439	383.14
362.821	354.67
363.203	372.74
363.584	368.22
363.966	369.58
364.348	386.98
364.729	364.38
365.111	382.01
365.493	363.71
365.874	353.99
366.256	365.96
366.637	370.26
367.019	367.09
367.4	371.61
367.781	373.2
368.163	371.84
368.544	367.77
368.925	390.15
369.306	377.94
369.688	359.64
370.069	356.7
370.45	388.11
370.831	375.23
371.212	383.37
371.593	385.17
371.974	373.87
372.355	363.48
372.736	397.15
373.117	369.58
373.498	392.18
373.879	401.22
374.26	392.4
374.641	376.81
375.021	383.59
375.402	381.56
375.783	399.86
376.163	403.03
376.544	412.97
376.925	413.42
377.305	413.42
377.686	431.95
378.066	390.6
378.447	407.32
378.827	407.55
379.208	437.83
379.588	413.65
379.968	429.24
380.349	427.21
380.729	434.89
381.109	430.6
381.489	449.13
381.87	453.19
382.25	435.79
382.63	455.45
383.01	465.62
383.39	453.42
383.77	466.53
384.15	451.61
384.53	460.2
384.91	479.41
385.29	485.51
385.67	490.03
386.049	506.75
386.429	473.08
386.809	499.29
387.189	499.52
387.568	507.43
387.948	509.46
388.328	509.92
388.707	492.52
389.087	543.36
389.466	536.13
389.846	540.42
390.225	526.41
390.605	530.48
390.984	533.87
391.363	560.76
391.743	577.26
392.122	586.98
392.501	573.19
392.881	574.1
393.26	617.71
393.639	597.6
394.018	607.09
394.397	633.98
394.776	612.74
395.155	634.88
395.534	626.52
395.913	650.93
396.292	671.04
396.671	673.98
397.05	696.58
397.429	677.14
397.808	729.12
398.186	720.98
398.565	704.04
398.944	709.91
399.323	729.8
399.701	738.16
400.08	777.25
400.458	772.73
400.837	778.16
401.215	804.6
401.594	786.52
401.972	817.25
402.351	844.82
402.729	836.69
403.107	859.51
403.486	861.77
403.864	878.49
404.242	913.75
404.62	922.56
404.999	942.9
405.377	955.55
405.755	987.42
406.133	975.44
406.511	988.1
406.889	1022.67
407.267	1039.85
407.645	1073.29
408.023	1085.95
408.401	1085.27
408.779	1113.29
409.156	1143.8
409.534	1120.3
409.912	1190.35
410.29	1208.43
410.667	1226.28
411.045	1242.55
411.422	1309.22
411.8	1309.67
412.178	1341.76
412.555	1354.19
412.933	1363.45
413.31	1400.06
413.687	1434.86
414.065	1442.09
414.442	1472.6
414.819	1514.18
415.197	1523.22
415.574	1576.78
415.951	1559.61
416.328	1588.76
416.705	1611.58
417.082	1617.01
417.46	1650.68
417.837	1668.53
418.214	1667.17
418.591	1695.87
418.967	1745.82
419.344	1760.28
419.721	1791.69
420.098	1777
420.475	1819.03
420.852	1818.58
421.228	1848.19
421.605	1835.08
421.982	1896.77
422.358	1931.35
422.735	1978.13
423.111	1946.94
423.488	1989.43
423.864	2025.13
424.241	2028.29
424.617	2098.12
424.994	2090.44
425.37	2129.76
425.746	2125.69
426.123	2173.6
426.499	2168.63
426.875	2226.03
427.251	2331.34
427.627	2317.78
428.003	2364.78
428.379	2399.58
428.756	2410.88
429.132	2447.72
429.507	2524.55
429.883	2515.96
430.259	2552.35
430.635	2602.06
431.011	2605.91
431.387	2666.7
431.763	2692.68
432.138	2699.24
432.514	2791.89
432.89	2821.95
433.265	2834.6
433.641	2908.27
434.016	2903.98
434.392	2957.76
434.767	3041.83
435.143	3033.69
435.518	3077.53
435.894	3138.55
436.269	3188.72
436.644	3222.61
437.02	3238.43
437.395	3262.61
437.77	3318.66
438.145	3378.32
438.52	3410.86
438.895	3446.56
439.271	3459.89
439.646	3583.28
440.021	3560.01
440.395	3635.94
440.77	3603.62
441.145	3617.18
441.52	3718.19
441.895	3727.68
442.27	3786.89
442.645	3790.96
443.019	3849.72
443.394	3827.34
443.769	3862.14
444.143	3865.31
444.518	3945.31
444.892	3921.8
445.267	3979.2
445.641	4048.58
446.016	4057.17
446.39	4087.45
446.764	4071.4
447.139	4082.25
447.513	4158.41
447.887	4199.99
448.262	4181.23
448.636	4211.29
449.01	4286.09
449.384	4281.79
449.758	4390.49
450.132	4426.88
450.506	4459.42
450.88	4443.37
451.254	4498.51
451.628	4538.96
452.002	4629.36
452.376	4663.25
452.75	4718.17
453.123	4775.57
453.497	4878.61
453.871	4918.16
454.244	5052.85
454.618	5074.99
454.992	5182.11
455.365	5166.74
455.739	5308.43
456.112	5351.6
456.486	5440.41
456.859	5472.05
457.232	5588.43
457.606	5538.71
457.979	5615.09
458.352	5755.65
458.725	5839.95
459.099	5879.27
459.472	6013.27
459.845	6046.49
460.218	6121.29
460.591	6195.42
460.964	6214.85
461.337	6414.17
461.71	6427.27
462.083	6529.42
462.456	6545.69
462.829	6538.91
463.201	6695.06
463.574	6744.33
463.947	6897.77
464.32	7041.72
464.692	7022.06
465.065	7066.58
465.438	7164.66
465.81	7315.84
466.183	7383.18
466.555	7574.14
466.928	7636.73
467.3	7673.8
467.672	7763.06
468.045	8044.18
468.417	8053.9
468.789	8098.42
469.161	8241.92
469.534	8406.66
469.906	8537.73
470.278	8673.32
470.65	8788.57
471.022	8983.82
471.394	9113.76
471.766	9252.06
472.138	9364.37
472.51	9538.83
472.882	9724.36
473.253	9843.68
473.625	9924.81
473.997	10174.75
474.369	10270.79
474.74	10352.82
475.112	10620.38
475.484	10757.33
475.855	10967.95
476.227	11050.43
476.598	11395.05
476.97	11414.04
477.341	11680.92
477.713	11863.52
478.084	11858.32
478.455	12244.97
478.827	12344.18
479.198	12708.92
479.569	12736.26
479.94	13061.68
480.311	13158.17
480.682	13509.57
481.053	13773.3
481.424	14053.74
481.795	14157.92
482.166	14316.33
482.537	14465.71
482.908	14872.48
483.279	14941.63
483.65	15256.87
484.021	15587.94
484.391	15727.82
484.762	15907.03
485.133	16086.46
485.503	16343.17
485.874	16798.08
486.244	16911.29
486.615	17241.23
486.985	17499.07
487.356	17830.59
487.726	18044.82
488.097	18419.28
488.467	18489.1
488.837	18936.55
489.207	19144.68
489.578	19503.54
489.948	19672.12
490.318	19965.9
490.688	20035.96
491.058	20439.79
491.428	20776.73
491.798	20845.43
492.168	21215.81
492.538	21345.75
492.908	21673.43
493.278	21764.5
493.648	21983.48
494.017	22287.2
494.387	22433.41
494.757	22688.77
495.126	22855.09
495.496	22949.55
495.866	22986.61
496.235	23279.03
496.605	23508.18
496.974	23666.37
497.344	23914.05
497.713	23946.81
498.082	24132.57
498.452	24323.08
498.821	24525.1
499.19	24487.82
499.559	24889.39
499.928	24930.06
500.298	25088.7
500.667	25274.91
501.036	25401.46
501.405	25466.55
501.774	25603.95
502.143	25809.59
502.512	26098.4
502.88	26191.27
503.249	26284.83
503.618	26586.07
503.987	26609.57
504.356	26898.37
504.724	27146.5
505.093	27239.16
505.462	27395.99
505.83	27611.8
506.199	27920.95
506.567	28370.88
506.936	28334.04
507.304	28715.73
507.672	28866.68
508.041	29147.36
508.409	29336.05
508.777	29670.73
509.145	29813.1
509.514	29997.95
509.882	30181.9
510.25	30342.35
510.618	30544.38
510.986	30709.57
511.354	31204.93
511.722	31404.47
512.09	31630.68
512.458	31604.01
512.826	31987.96
513.193	32086.49
513.561	32244.22
513.929	32576.64
514.297	32748.84
514.664	32917.65
515.032	33088.95
515.4	33347.7
515.767	33375.94
516.135	33527.58
516.502	33435.83
516.869	34032.2
517.237	34121.24
517.604	34055.93
517.972	34507.21
518.339	34666.31
518.706	34752.63
519.073	34988.33
519.44	35259.51
519.808	35503.8
520.175	35522.33
520.542	35864.47
520.909	36136.55
521.276	36148.53
521.643	36571.57
522.009	36778.11
522.376	37099.46
522.743	37298.55
523.11	37829.39
523.477	37977.41
523.843	38305.98
524.21	38604.96
524.577	38842.92
524.943	39138.96
525.31	39421.66
525.676	39764.03
526.043	40119.72
526.409	40371.92
526.776	40713.38
527.142	40931.23
527.508	41162.63
527.874	41526.24
528.241	41662.51
528.607	41869.51
528.973	42407.57
529.339	42330.06
529.705	42782.02
530.071	43108.34
530.437	43315.57
530.803	43497.49
531.169	43675.79
531.535	43933.18
531.901	44053.63
532.267	44329.33
532.632	44645.25
532.998	44867.17
533.364	45045.69
533.73	45060.61
534.095	45354.84
534.461	45554.83
534.826	45750.53
535.192	45907.82
535.557	46128.83
535.923	46292.44
536.288	46395.26
536.653	46558.42
537.019	46421.03
537.384	46599.1
537.749	46870.73
538.114	46838.42
538.479	46902.59
538.845	46976.49
539.21	47030.5
539.575	47176.94
539.94	47209.48
540.305	47477.27
540.67	47388.01
541.034	47594.78
541.399	47701.44
541.764	47832.97
542.129	47917.93
542.494	48046.52
542.858	48148.66
543.223	48182.11
543.587	48428.66
543.952	48504.59
544.316	48599.72
544.681	48553.17
545.045	48823.9
545.41	48985.03
545.774	49160.39
546.138	49106.38
546.503	49268.63
546.867	49402.19
547.231	49723.09
547.595	49713.14
547.959	49810.54
548.324	49906.81
548.688	50111.32
549.052	50303.18
549.416	50342.73
549.779	50443.74
550.143	50582.27
550.507	50892.55
550.871	50987.01
551.235	50992.88
551.599	51377.05
551.962	51392.42
552.326	51584.73
552.689	51673.09
553.053	51663.15
553.417	51865.18
553.78	52275.11
554.143	52135.23
554.507	52275.11
554.87	52382.9
555.234	52803
555.597	52711.71
555.96	52802.55
556.323	52906.05
556.686	52923.45
557.05	53210.45
557.413	53272.14
557.776	53350.79
558.139	53489.99
558.502	53517.56
558.865	53626.26
559.228	53733.6
559.59	53922.75
559.953	53955.29
560.316	54207.71
560.679	54142.4
561.041	54332.23
561.404	54408.39
561.767	54549.17
562.129	54458.1
562.492	54751.65
562.854	54765.89
563.217	54781.26
563.579	54827.13
563.941	55031.65
564.304	55117.75
564.666	55209.72
565.028	55210.62
565.39	55268.25
565.753	55422.6
566.115	55516.61
566.477	55591.41
566.839	55650.84
567.201	55795.69
567.563	55833.43
567.925	55999.98
568.287	56022.58
568.648	56062.35
569.01	56225.51
569.372	56345.28
569.734	56268.45
570.095	56541.21
570.457	56521.32
570.819	56615.33
571.18	56663.92
571.542	56840.19
571.903	56896.23
572.265	56975.1
572.626	57084.02
572.987	57237.46
573.349	57210.35
573.71	57388.87
574.071	57448.53
574.432	57464.35
574.794	57660.5
575.155	57626.38
575.516	57645.36
575.877	57785.47
576.238	57789.31
576.599	57945.02
576.96	57941.17
577.32	58031.12
577.681	58085.35
578.042	58214.84
578.403	58291.22
578.763	58313.37
579.124	58378.45
579.485	58427.72
579.845	58596.75
580.206	58530.76
580.566	58544.77
580.927	58577.54
581.287	58711.55
581.648	58578.22
582.008	58729.85
582.368	58705.45
582.728	58784.99
583.089	58731.89
583.449	58746.35
583.809	58762.62
584.169	58823.64
584.529	58720.81
584.889	58927.59
585.249	58718.1
585.609	58775.73
585.969	58853.47
586.329	58716.07
586.688	58820.02
587.048	58783.19
587.408	58731.21
587.768	58664.32
588.127	58648.05
588.487	58601.04
588.846	58747.25
589.206	58513.36
589.565	58593.36
589.925	58692.79
590.284	58580.93
590.643	58648.27
591.003	58596.75
591.362	58665
591.721	58602.17
592.08	58568.05
592.44	58638.33
592.799	58565.34
593.158	58547.49
593.517	58516.3
593.876	58614.15
594.235	58510.42
594.593	58489.41
594.952	58543.42
595.311	58451.22
595.67	58470.2
596.029	58589.74
596.387	58630.87
596.746	58649.18
597.104	58533.25
597.463	58517.88
597.822	58727.37
598.18	58635.62
598.538	58581.38
598.897	58772.56
599.255	58537.77
599.613	58993.8
599.972	58773.02
600.33	58799
600.688	58810.98
601.046	58899.57
601.404	58992.9
601.762	58874.94
602.12	59078.77
602.478	59127.36
602.836	59166.68
603.194	59034.93
603.552	59089.84
603.91	59059.56
604.268	59187.02
604.625	59180.46
604.983	59259.11
605.341	59152.44
605.698	59340.91
606.056	59334.81
606.413	59294.13
606.771	59477.41
607.128	59483.96
607.485	59450.06
607.843	59481.92
608.2	59666.33
608.557	59670.62
608.914	59595.82
609.272	59741.35
609.629	59787.23
609.986	59859.54
610.343	59729.38
610.7	59957.62
611.057	59876.94
611.414	59847.56
611.771	59897.73
612.127	59935.47
612.484	59904.74
612.841	59989.71
613.198	59907.9
613.554	59984.06
613.911	60075.58
614.267	60044.4
614.624	59939.31
614.98	60050.95
615.337	60045.53
615.693	60022.48
616.05	60013.66
616.406	60136.37
616.762	60013.44
617.118	60034.68
617.475	59941.12
617.831	60032.64
618.187	59963.04
618.543	60029.25
618.899	60123.04
619.255	60066.54
619.611	60016.83
619.967	60076.94
620.323	60072.42
620.678	59988.35
621.034	59918.98
621.39	59853.67
621.746	59839.43
622.101	60115.58
622.457	59861.12
622.812	59851.41
623.168	59869.94
623.523	59893.67
623.879	59998.3
624.234	59779.77
624.589	59848.02
624.945	59862.25
625.3	59864.29
625.655	59904.74
626.01	59841.46
626.365	59877.39
626.72	59786.1
627.075	59796.04
627.43	59743.39
627.785	59740
628.14	59734.12
628.495	59716.49
628.85	59652.99
629.205	59663.16
629.559	59784.97
629.914	59699.32
630.269	59700.45
630.623	59702.71
630.978	59620
631.332	59786.55
631.687	59804.63
632.041	59734.8
632.396	59678.53
632.75	59615.71
633.104	59646.44
633.459	59631.3
633.813	59552.43
634.167	59573.67
634.521	59625.88
634.875	59705.87
635.229	59641.24
635.583	59543.84
635.937	59569.15
636.291	59599.21
636.645	59611.41
636.999	59520.79
637.352	59602.83
637.706	59516.05
638.06	59671.98
638.413	59583.62
638.767	59446.9
639.121	59582.49
639.474	59382.27
639.828	59409.16
640.181	59465.65
640.534	59424.98
640.888	59467.69
641.241	59324.87
641.594	59420.91
641.947	59453
642.301	59354.47
642.654	59326.22
643.007	59311.31
643.36	59314.92
643.713	59232.67
644.066	59233.34
644.419	59118.77
644.771	58972.56
645.124	58834.26
645.477	58724.88
645.83	58496.41
646.182	58420.03
646.535	58258.91
646.888	58299.58
647.24	58077.89
647.593	58204.9
647.945	58030.89
648.298	57979.37
648.65	57983.43
649.002	57811.69
649.355	57983.66
649.707	57899.82
650.059	57966.26
650.411	58237.44
650.763	58225.69
651.115	58398.34
651.467	58240.83
651.819	58199.47
652.171	58165.35
652.523	58035.86
652.875	58041.51
653.227	57910.21
653.578	58166.48
653.93	58022.75
654.282	57855.75
654.633	57829.31
654.985	57846.71
655.337	57873.15
655.688	57763.78
656.039	57923.55
656.391	57575.53
656.742	57657.79
657.094	57672.48
657.445	57776.66
657.796	57623.44
658.147	57535.54
658.498	57513.61
658.849	57594.97
659.2	57517.46
659.551	57500.51
659.902	57559.94
660.253	57537.34
660.604	57501.64
660.955	57405.82
661.306	57442.66
661.656	57428.87
662.007	57463.67
662.358	57503.22
662.708	57454.63
663.059	57436.1
663.409	57311.59
663.76	57539.38
664.11	57425.26
664.461	57501.19
664.811	57462.32
665.161	57463.9
665.511	57345.48
665.862	57453.5
666.212	57555.65
666.562	57456.67
666.912	57453.05
667.262	57421.41
667.612	57445.14
667.962	57434.97
668.312	57351.59
668.662	57510.9
669.011	57463.22
669.361	57341.42
669.711	57415.09
670.06	57377.57
670.41	57398.82
670.76	57365.37
671.109	57408.31
671.459	57326.28
671.808	57303
672.157	57325.37
672.507	57192.49
672.856	57194.75
673.205	57309.55
673.554	57328.99
673.904	57270.46
674.253	57326.95
674.602	57275.43
674.951	56811.71
675.3	56755.44
675.649	57179.16
675.998	57190.23
676.346	57131.93
676.695	57258.48
677.044	57059.62
677.393	57140.74
677.741	57164.02
678.09	57058.03
678.438	57010.58
678.787	57053.06
679.135	56996.79
679.484	56813.52
679.832	56886.96
680.181	56742.11
680.529	56849
680.877	56729
681.225	56715.9
681.573	56847.19
681.922	56592.28
682.27	56532.62
682.618	56532.85
682.966	56472.96
683.314	56438.39
683.661	56353.19
684.009	56215.12
684.357	56137.15
684.705	56097.15
685.053	56133.54
685.4	56012.19
685.748	55868.69
686.095	55846.77
686.443	55760.67
686.79	55651.29
687.138	55721.12
687.485	55651.29
687.832	55567.23
688.18	55574
688.527	55402.71
688.874	55388.02
689.221	55276.84
689.568	55135.15
689.915	55049.27
690.262	54966.56
690.609	54941.48
690.956	54906.9
691.303	54735.16
691.65	54554.82
691.997	54597.31
692.344	54353.25
692.69	54404.77
693.037	54355.96
693.383	54148.51
693.73	54147.15
694.077	53951.9
694.423	53970.21
694.769	53823.77
695.116	53798.91
695.462	53798.01
695.808	53607.95
696.155	53660.61
696.501	53359.83
696.847	53311.92
697.193	53112.83
697.539	53163.67
697.885	53027.63
698.231	52925.49
698.577	52907.18
698.923	52847.52
699.269	52742.44
699.614	52637.36
699.96	52549.68
700.306	52505.38
700.651	52344.49
700.997	52310.59
701.342	52273.53
701.688	52306.07
702.033	52102.46
702.379	52148.11
702.724	52001.67
703.069	52065.62
703.415	51804.61
703.76	51762.81
704.105	51726.87
704.45	51628.12
704.795	51601.91
705.14	51480.78
705.485	51473.55
705.83	51336.83
706.175	51409.14
706.52	51306.55
706.865	51149.49
707.209	51192.43
707.554	51121.01
707.899	51275.81
708.243	51004.86
708.588	51020.23
708.932	50842.15
709.277	50775.71
709.621	50817.07
709.966	50665.21
710.31	50728.48
710.654	50444.2
710.998	50479.68
711.342	50415.72
711.687	50337.08
712.031	50142.74
712.375	50106.35
712.719	50112
713.063	50126.69
713.407	50254.37
713.75	49914.94
714.094	49927.6
714.438	49737.32
714.782	49732.35
715.125	49582.75
715.469	49821.39
715.812	49459.59
716.156	49326.71
716.499	49329.65
716.843	49395.41
717.186	49141.63
717.53	49218.92
717.873	49194.06
718.216	49067.74
718.559	48831.13
718.902	48839.49
719.246	48676.33
719.589	48742.09
719.932	48487.64
720.275	48459.39
720.617	48450.58
720.96	48318.6
721.303	48352.73
721.646	48231.37
721.989	48043.13
722.331	48044.03
722.674	47896.69
723.016	47955.45
723.359	47750.93
723.701	47708
724.044	47440.66
724.386	47164.96
724.729	47355.01
725.071	47100.78
725.413	47194.56
725.755	47030.5
726.097	46832.77
726.439	46613.34
726.782	46651.98
727.124	46726.1
727.465	46531.98
727.807	46424.64
728.149	46317.98
728.491	46214.93
728.833	46291.76
729.175	46082.5
729.516	45874.37
729.858	45752.12
730.199	45699.01
730.541	45698.33
730.882	45570.2
731.224	45615.85
731.565	45291.11
731.906	45349.64
732.248	45294.28
732.589	44982.42
732.93	44955.98
733.271	44953.49
733.612	45046.6
733.953	44903.32
734.294	44594.86
734.635	44632.15
734.976	44666.04
735.317	44437.35
735.658	44438.7
735.999	44354.41
736.339	44199.61
736.68	44242.1
737.021	44089.11
737.361	43993.07
737.702	44192.61
738.042	43879.85
738.383	43809.34
738.723	43872.84
739.063	43673.07
739.404	43765.28
739.744	43592.4
740.084	43521.21
740.424	43572.29
740.764	43279.86
741.104	43595.34
741.444	43257.49
741.784	43059.98
742.124	43167.33
742.464	43142.92
742.804	43059.08
743.143	43050.27
743.483	43130.49
743.823	42880.78
744.162	42800.33
744.502	42859.54
744.841	42716.72
745.181	42797.84
745.52	42601.46
745.86	42731.4
746.199	42721.01
746.538	42538.42
746.877	42622.03
747.216	42501.35
747.556	42403.96
747.895	42472.2
748.234	42382.94
748.573	42320.34
748.911	42196.73
749.25	42207.12
749.589	42018.43
749.928	42167.35
750.267	42198.76
750.605	42007.13
750.944	41838.32
751.283	41763.75
751.621	41880.13
751.96	41684.2
752.298	41570.08
752.636	41611.43
752.975	41473.81
753.313	41300.48
753.651	41695.73
753.989	41339.8
754.327	41240.14
754.666	41003.31
755.004	41200.6
755.342	41070.88
755.679	40979.81
756.017	40737.56
756.355	40897.78
756.693	40790.89
757.031	40735.3
757.368	40609.2
757.706	40562.87
758.044	40502.99
758.381	40412.6
758.719	40200.4
759.056	40161.75
759.394	39973.29
759.731	39847.86
760.068	39747.98
760.405	39644.03
760.743	39627.31
761.08	39569
761.417	39219.18
761.754	39251.72
762.091	39060.31
762.428	38830.26
762.765	38861.68
763.102	38950.49
763.438	38638.4
763.775	38466.88
764.112	38429.82
764.449	38429.37
764.785	38185.08
765.122	37875.94
765.458	37771.76
765.795	37689.05
766.131	37563.86
766.467	37416.97
766.804	37359.57
767.14	37174.71
767.476	37103.53
767.812	36840.49
768.148	36940.6
768.485	36679.81
768.821	36371.12
769.157	36206.6
769.492	36173.84
769.828	36178.81
770.164	35719.84
770.5	35760.51
770.836	35580.41
771.171	35480.52
771.507	35443.23
771.842	35029.46
772.178	34951.72
772.513	34987.88
772.849	34643.26
773.184	34445.07
773.519	34400.78
773.855	34235.13
774.19	34150.16
774.525	33991.52
774.86	33915.82
775.195	33854.35
775.53	33671.98
775.865	33475.15
776.2	33188.15
776.535	32941.61
776.87	33012.79
777.205	32805.79
777.539	32669.97
777.874	32729.86
778.209	32340.49
778.543	32299.59
778.878	32103.21
779.212	31985.25
779.547	31869.09
779.881	31990.44
780.215	31690.34
780.55	31708.64
780.884	31473.17
781.218	31405.83
781.552	31393.4
781.886	31127.19
782.22	31022.79
782.554	30899.4
782.888	30535.34
783.222	30668.67
783.556	30484.27
783.889	30319.3
784.223	30189.14
784.557	30144.39
784.89	30091.51
785.224	29914.79
785.557	29690.39
785.891	29681.8
786.224	29591.86
786.558	29632.31
786.891	29176.96
787.224	29204.98
787.557	29129.95
787.891	29204.75
788.224	28977.19
788.557	29067.13
788.89	28888.6
789.223	28804.09
789.556	28619.69
789.888	28620.36
790.221	28512.57
790.554	28273.93
790.887	28310.99
791.219	28221.28
791.552	28135.4
791.884	28153.48
792.217	28007.5
792.549	27833.94
792.882	27755.08
793.214	27684.12
793.546	27708.07
793.879	27445.93
794.211	27313.28
794.543	27503.56
794.875	27328.42
795.207	27560.73
795.539	27167.75
795.871	27289.32
796.203	27050.01
796.535	26909.67
796.867	26886.17
797.198	26836.68
797.53	26893.4
797.862	26703.58
798.193	26796.91
798.525	26547.88
798.856	26535.22
799.188	26273.08
799.519	26208.22
799.85	26130.49
800.182	26222.91
800.513	26124.38
800.844	25911.06
801.175	26027.89
801.506	25958.06
801.837	25897.95
802.168	25796.93
802.499	25770.04
802.83	25558.3
803.161	25568.92
803.491	25570.5
803.822	25493.21
804.153	25338.19
804.483	25222.49
804.814	25174.58
805.145	25080.12
805.475	25189.04
805.805	25054.58
806.136	24992.66
806.466	24986.11
806.796	24843.97
807.126	24774.36
807.457	24623.18
807.787	24680.35
808.117	24633.8
808.447	24472.45
808.777	24516.97
809.107	24403.98
809.436	24231.78
809.766	24287.82
810.096	24139.8
810.426	24034.04
810.755	24035.85
811.085	23880.15
811.414	23950.43
811.744	23716.09
812.073	23702.53
812.403	23720.61
812.732	23459.82
813.061	23422.99
813.39	23153.16
813.719	23202.2
814.049	23424.12
814.378	23192.71
814.707	23136.21
815.036	23128.08
815.365	22996.1
815.693	22860.29
816.022	22829.1
816.351	22669.11
816.68	22468.89
817.008	22748.88
817.337	22365.84
817.665	22369
817.994	22499.17
818.322	22327.87
818.651	22193.41
818.979	22138.95
819.307	22163.58
819.636	22051.72
819.964	21859.86
820.292	21932.86
820.62	21931.95
820.948	21834.1
821.276	22000.65
821.604	21839.3
821.932	21929.01
822.259	21747.32
822.587	21780.77
822.915	21652.64
823.243	21638.17
823.57	21520.66
823.898	21645.63
824.225	21557.72
824.553	21486.54
824.88	21524.05
825.207	21601.11
825.535	21504.17
825.862	21515.24
826.189	21396.6
826.516	21562.24
826.843	21603.82
827.17	21666.2
827.497	21538.29
827.824	21456.71
828.151	21455.81
828.478	21378.97
828.805	21374
829.131	21308.92
829.458	21272.53
829.785	21339.88
830.111	21169.49
830.438	21459.65
830.764	21205.19
831.09	21234.57
831.417	21172.42
831.743	21250.39
832.069	21145.31
832.395	21038.64
832.722	21150.73
833.048	21034.35
833.374	21124.29
833.7	20908.25
834.026	21081.58
834.351	21000.9
834.677	21018.76
835.003	21132.88
835.329	21052.88
835.654	20928.14
835.98	20902.6
836.306	20852.88
836.631	20722.49
836.956	20877.97
837.282	20792.55
837.607	20619.67
837.932	20660.35
838.258	20609.73
838.583	20586
838.908	20511.65
839.233	20574.25
839.558	20443.86
839.883	20411.54
840.208	20384.42
840.533	20422.39
840.858	20393.01
841.182	20320.24
841.507	20316.85
841.832	20181.04
842.156	20147.59
842.481	20216.97
842.805	20191.88
843.13	20092
843.454	20072.57
843.778	20054.26
844.103	19859.24
844.427	19990.31
844.751	20004.32
845.075	19915.28
845.399	19853.81
845.723	19723.65
846.047	19795.74
846.371	19583.54
846.695	19586.25
847.019	19373.83
847.343	19333.83
847.666	19256.32
847.99	19134.96
848.313	19224
848.637	18985.14
848.96	19017
849.284	19079.82
849.607	18921.64
849.931	18828.08
850.254	18742.66
850.577	18724.35
850.9	18590.57
851.223	18425.38
851.546	18536.56
851.869	18401.2
852.192	18432.16
852.515	18273.97
852.838	18264.03
853.161	18291.82
853.483	18022.22
853.806	17940.42
854.129	18022
854.451	17927.54
854.774	17976.12
855.096	17916.69
855.419	17795.34
855.741	17864.49
856.063	17692.29
856.385	17758.28
856.708	17583.14
857.03	17694.1
857.352	17461.33
857.674	17584.95
857.996	17542.01
858.318	17361.45
858.64	17441.67
858.961	17391.73
859.283	17312.19
859.605	17218.18
859.926	17327.78
860.248	17231.96
860.57	17119.2
860.891	17173.88
861.212	17012.08
861.534	17017.73
861.855	16951.97
862.176	16990.84
862.498	16950.39
862.819	16949.71
863.14	16932.76
863.461	16920.78
863.782	16761.92
864.103	16824.52
864.424	16691.64
864.745	16776.61
865.065	16770.96
865.386	16652.77
865.707	16657.29
866.027	16709.04
866.348	16692.54
866.668	16653.9
866.989	16527.35
867.309	16333.91
867.63	16395.15
867.95	16318.54
868.27	16363.74
868.59	16262.95
868.91	16190.41
869.23	16174.14
869.55	16224.76
869.87	16234.7
870.19	16180.69
870.51	16166.68
870.83	16130.97
871.15	16012.11
871.469	16036.29
871.789	16031.54
872.109	15935.27
872.428	15965.78
872.748	15974.82
873.067	15968.04
873.386	15906.12
873.706	15935.27
874.025	15698.67
874.344	15705.67
874.663	15735.5
874.982	15613.25
875.301	15642.63
875.62	15559.24
875.939	15528.96
876.258	15455.29
876.577	15422.74
876.896	15421.16
877.214	15285.8
877.533	15319.24
877.852	15245.12
878.17	15259.36
878.489	15347.72
878.807	15146.82
879.125	15178.46
879.444	15131
879.762	15062.53
880.08	15111.34
880.398	15005.35
880.716	15023.66
881.034	14908.18
881.352	14945.47
881.67	14825.92
881.988	14871.57
882.306	14736.66
882.624	14686.72
882.941	14613.73
883.259	14520.17
883.577	14602.2
883.894	14495.76
884.212	14423.22
884.529	14455.31
884.846	14408.08
885.164	14322.66
885.481	14281.31
885.798	14242.66
886.115	14100.97
886.432	14182.1
886.75	14091.25
887.067	14121.08
887.383	14013.29
887.7	14112.72
888.017	14036.57
888.334	13941.65
888.651	13888.77
888.967	13782.34
889.284	13764.26
889.6	13686.07
889.917	13687.65
890.233	13649.91
890.55	13556.8
890.866	13530.59
891.182	13475.68
891.498	13423.47
891.815	13406.3
892.131	13279.52
892.447	13282.91
892.763	13221.45
893.079	13098.29
893.395	13085.18
893.71	13181.22
894.026	13073.43
894.342	12997.95
894.657	13035.01
894.973	12931.28
895.289	12990.27
895.604	12894.45
895.92	12822.13
896.235	12777.39
896.55	12773.77
896.865	12779.2
897.181	12693.55
897.496	12629.37
897.811	12610.61
898.126	12472.31
898.441	12462.14
898.756	12456.72
899.071	12423.73
899.386	12395.25
899.7	12330.62
900.015	12301.7
900.33	12180.34
900.644	12167.46
900.959	12143.51
901.273	12070.74
901.588	12083.17
901.902	11916.4
902.216	11912.55
902.531	11856.96
902.845	11841.37
903.159	11838.88
903.473	11827.13
903.787	11716.85
904.101	11691.32
904.415	11699.45
904.729	11641.37
905.042	11563.41
905.356	11543.3
905.67	11477.99
905.984	11539.91
906.297	11438.89
906.611	11353.47
906.924	11329.97
907.237	11355.05
907.551	11339.46
907.864	11263.98
908.177	11287.26
908.491	11218.56
908.804	11172.01
909.117	11116.64
909.43	11056.76
909.743	11038
910.056	11011.79
910.368	10956.65
910.681	10967.72
910.994	10901.28
911.307	10882.3
911.619	10756.88
911.932	10789.87
912.244	10725.92
912.557	10751.23
912.869	10667.39
913.181	10666.03
913.494	10656.77
913.806	10483.67
914.118	10555.53
914.43	10480.73
914.742	10454.51
915.054	10477.11
915.366	10498.13
915.678	10389.66
915.99	10307.4
916.302	10303.1
916.613	10205.71
916.925	10266.95
917.236	10245.93
917.548	10166.39
917.859	10239.6
918.171	10084.13
918.482	10085.48
918.794	10015.88
919.105	10057.24
919.416	9910.12
919.727	9964.13
920.038	9907.86
920.349	9811.82
920.66	9846.39
920.971	9841.42
921.282	9709.9
921.593	9680.07
921.903	9726.17
922.214	9675.1
922.525	9680.97
922.835	9616.8
923.146	9531.37
923.456	9510.36
923.767	9433.75
924.077	9489.79
924.387	9429.91
924.697	9324.83
925.008	9317.82
925.318	9284.83
925.628	9266.3
925.938	9233.53
926.248	9136.58
926.558	9050.48
926.867	9064.49
927.177	9004.83
927.487	9053.65
927.796	8944.5
928.106	8845.29
928.416	8847.78
928.725	8796.25
929.034	8781.79
929.344	8746.08
929.653	8747.89
929.962	8623.6
930.271	8642.81
930.581	8549.93
930.89	8475.36
931.199	8464.06
931.508	8463.61
931.817	8437.17
932.125	8405.3
932.434	8390.16
932.743	8338.64
933.051	8259.77
933.36	8254.57
933.669	8157.17
933.977	8168.7
934.286	8115.14
934.594	8088.25
934.902	8070.85
935.21	8039.89
935.519	7930.74
935.827	7915.14
936.135	7887.8
936.443	7776.62
936.751	7860.68
937.059	7807.58
937.367	7730.07
937.674	7699.33
937.982	7728.03
938.29	7653.68
938.597	7663.85
938.905	7520.35
939.213	7497.53
939.52	7481.94
939.827	7501.82
940.135	7362.62
940.442	7365.55
940.749	7416.18
941.056	7308.61
941.363	7236.74
941.67	7272
941.977	7182.51
942.284	7123.75
942.591	7120.14
942.898	7067.71
943.205	7037.2
943.511	6968.28
943.818	7038.33
944.125	6966.7
944.431	6959.01
944.738	6882.18
945.044	6889.41
945.35	6747.72
945.657	6826.36
945.963	6747.72
946.269	6693.93
946.575	6667.04
946.881	6626.14
947.187	6602.64
947.493	6587.27
947.799	6511.34
948.105	6550.44
948.41	6487.61
948.716	6398.12
949.022	6408.52
949.327	6377.33
949.633	6366.94
949.938	6284
950.244	6265.24
950.549	6234.51
950.854	6150.45
951.16	6151.12
951.465	6113.16
951.77	6074.52
952.075	5996.55
952.38	6039.94
952.685	6006.95
952.99	5895.54
953.294	5901.19
953.599	5888.31
953.904	5867.52
954.209	5758.82
954.513	5821.87
954.818	5762.89
955.122	5743
955.426	5719.5
955.731	5624.36
956.035	5614.41
956.339	5638.82
956.643	5587.97
956.948	5538.94
957.252	5529.45
957.556	5526.06
957.86	5473.18
958.163	5442.89
958.467	5431.37
958.771	5413.74
959.075	5376.23
959.378	5326.74
959.682	5355.21
959.985	5264.14
960.289	5226.85
960.592	5223.46
960.896	5254.2
961.199	5190.92
961.502	5159.51
961.805	5132.62
962.108	5098.95
962.411	4997.26
962.714	5007.65
963.017	5035.67
963.32	5035.22
963.623	4961.78
963.926	4970.36
964.228	4932.85
964.531	4929.01
964.833	4918.16
965.136	4853.98
965.438	4844.94
965.741	4820.54
966.043	4806.07
966.345	4771.27
966.648	4758.84
966.95	4742.12
967.252	4711.61
967.554	4689.24
967.856	4621.22
968.158	4635.68
968.46	4607.89
968.761	4605.4
969.063	4542.35
969.365	4523.6
969.666	4523.82
969.968	4491.28
970.269	4501.45
970.571	4490.6
970.872	4473.43
971.174	4401.11
971.475	4425.52
971.776	4415.58
972.077	4386.42
972.378	4389.59
972.679	4383.26
972.98	4338.52
973.281	4300.78
973.582	4325.18
973.883	4310.49
974.183	4228.69
974.484	4273.66
974.785	4222.36
975.085	4216.94
975.386	4203.83
975.686	4183.72
975.986	4143.04
976.287	4144.85
976.587	4096.26
976.887	4133.78
977.187	4111.86
977.487	4086.09
977.787	4069.14
978.087	4081.35
978.387	4026.21
978.687	4027.34
978.987	4046.32
979.286	3952.31
979.586	3992.31
979.885	3957.73
980.185	3976.72
980.484	3955.7
980.784	3916.15
981.083	3882.93
981.382	3912.31
981.682	3891.97
981.981	3820.34
982.28	3848.81
982.579	3758.42
982.878	3842.48
983.177	3835.7
983.475	3841.58
983.774	3806.1
984.073	3778.76
984.372	3741.92
984.67	3777.85
984.969	3769.27
985.267	3750.73
985.566	3706.89
985.864	3692.43
986.162	3682.04
986.461	3620.79
986.759	3599.1
987.057	3547.58
987.355	3580.12
987.653	3572.66
987.951	3584.19
988.249	3566.78
988.547	3573.11
988.844	3518.88
989.142	3558.65
989.44	3532.21
989.737	3522.72
990.035	3492.89
990.332	3467.35
990.63	3466.67
990.927	3439.33
991.224	3467.8
991.521	3423.29
991.819	3397.3
992.116	3374.02
992.413	3356.85
992.71	3346.9
993.006	3351.2
993.303	3338.99
993.6	3342.61
993.897	3317.07
994.193	3302.38
994.49	3286.79
994.787	3266.23
995.083	3247.02
995.379	3213.8
995.676	3192.33
995.972	3197.53
996.268	3181.26
996.565	3159.56
996.861	3174.48
997.157	3110.98
997.453	3117.53
997.749	3136.74
998.044	3100.58
998.34	3057.19
998.636	3026.23
998.932	3065.78
999.227	3034.37
999.523	2998.21
999.818	3010.42
1000.114	2947.14
1000.409	2969.29
1000.704	2941.04
1001	2942.17
1001.295	2915.05
1001.59	2906.92
1001.885	2886.12
1002.18	2849.52
1002.475	2852.23
1002.77	2847.48
1003.065	2819.69
1003.359	2811.32
1003.654	2789.86
1003.949	2814.94
1004.243	2722.97
1004.538	2714.15
1004.832	2706.69
1005.127	2706.69
1005.421	2716.41
1005.715	2671.44
1006.009	2659.92
1006.304	2650.2
1006.598	2653.14
1006.892	2605.23
1007.186	2589.18
1007.48	2600.26
1007.773	2575.85
1008.067	2559.81
1008.361	2511.22
1008.655	2527.94
1008.948	2508.51
1009.242	2483.42
1009.535	2496.76
1009.829	2485.23
1010.122	2471.22
1010.415	2468.96
1010.708	2431.9
1011.001	2393.48
1011.295	2407.04
1011.588	2395.06
1011.881	2372.01
1012.173	2346.7
1012.466	2362.75
1012.759	2357.33
1013.052	2362.3
1013.344	2352.58
1013.637	2282.98
1013.93	2271.68
1014.222	2263.09
1014.514	2271.23
1014.807	2241.85
1015.099	2212.02
1015.391	2216.31
1015.683	2199.14
1015.976	2159.59
1016.268	2153.04
1016.56	2159.14
1016.851	2129.08
1017.143	2069.65
1017.435	2096.31
1017.727	2056.54
1018.018	2060.38
1018.31	2048.18
1018.602	2026.94
1018.893	2004.79
1019.185	1990.33
1019.476	1997.56
1019.767	1962.76
1020.058	1926.15
1020.35	1931.57
1020.641	1914.62
1020.932	1906.04
1021.223	1924.12
1021.514	1891.57
1021.804	1851.58
1022.095	1809.99
1022.386	1832.37
1022.677	1828.3
1022.967	1825.36
1023.258	1762.54
1023.548	1793.72
1023.839	1745.14
1024.129	1770.67
1024.419	1736.78
1024.709	1728.19
1025	1746.72
1025.29	1706.27
1025.58	1669.21
1025.87	1682.31
1026.16	1641.64
1026.449	1638.93
1026.739	1654.74
1027.029	1598.02
1027.319	1614.29
1027.608	1586.27
1027.898	1590.11
1028.187	1601.64
1028.477	1553.73
1028.766	1547.18
1029.055	1528.42
1029.344	1537.69
1029.634	1508.08
1029.923	1469.66
1030.212	1477.35
1030.501	1443.22
1030.79	1459.5
1031.078	1433.51
1031.367	1431.02
1031.656	1412.27
1031.945	1380.63
1032.233	1396.9
1032.522	1383.57
1032.81	1390.8
1033.099	1358.71
1033.387	1365.26
1033.675	1373.85
1033.963	1347.18
1034.251	1336.33
1034.54	1299.95
1034.828	1323
1035.116	1330.69
1035.403	1293.62
1035.691	1271.7
1035.979	1268.54
1036.267	1255.21
1036.554	1252.27
1036.842	1259.05
1037.129	1224.25
1037.417	1250.69
1037.704	1207.75
1037.992	1240.97
1038.279	1199.62
1038.566	1186.73
1038.853	1186.73
1039.14	1186.73
