Data from whiteboard_FLMS001491_00057.txt Node
Date: Wed Feb 08 11:27:06 GMT 2017
User: dcchb
Spectrometer: FLMS00149
Trigger mode: 0
Integration Time (sec): 2.000000E-2
Scans to average: 10
Electric dark correction enabled: true
Nonlinearity correction enabled: false
Boxcar width: 0
XAxis mode: Wavelengths
Number of Pixels in Spectrum: 2048
>>>>>Begin Spectral Data<<<<<
341.393	-23.57
341.776	-23.57
342.16	-23.57
342.543	-66.96
342.927	-83.23
343.31	-70.8
343.693	-77.58
344.077	-72.39
344.46	-54.76
344.843	-48.2
345.226	-45.27
345.61	-25.61
345.993	-6.4
346.376	0.38
346.759	-0.07
347.142	33.6
347.525	33.37
347.908	58.46
348.291	72.02
348.674	100.72
349.057	102.53
349.44	128.29
349.823	154.5
350.206	178.91
350.588	210.32
350.971	225.46
351.354	251.45
351.737	267.04
352.119	280.83
352.502	290.09
352.884	279.47
353.267	300.03
353.65	329.41
354.032	321.5
354.414	327.38
354.797	334.38
355.179	345.46
355.562	347.26
355.944	361.5
356.326	358.11
356.709	366.47
357.091	354.72
357.473	365.8
357.855	368.06
358.238	363.31
358.62	363.76
359.002	366.7
359.384	364.67
359.766	353.14
360.148	379.81
360.53	386.59
360.912	363.08
361.294	359.02
361.676	378.9
362.057	387.26
362.439	366.47
362.821	370.32
363.203	375.06
363.584	360.15
363.966	378.22
364.348	356.53
364.729	360.15
365.111	372.12
365.493	342.07
365.874	353.37
366.256	337.77
366.637	335.74
367.019	363.54
367.4	355.63
367.781	372.35
368.163	362.18
368.544	339.36
368.925	348.17
369.306	388.62
369.688	373.25
370.069	388.62
370.45	353.59
370.831	368.96
371.212	352.91
371.593	343.88
371.974	356.53
372.355	349.52
372.736	368.73
373.117	362.41
373.498	384.78
373.879	362.86
374.26	368.73
374.641	356.53
375.021	359.69
375.402	394.72
375.783	377.09
376.163	378.22
376.544	403.53
376.925	394.04
377.305	382.97
377.686	369.41
378.066	397.66
378.447	393.82
378.827	380.26
379.208	388.39
379.588	395.85
379.968	410.54
380.349	425
380.729	413.25
381.109	413.93
381.489	435.17
381.87	413.48
382.25	426.58
382.63	412.57
383.01	426.36
383.39	450.99
383.77	442.63
384.15	430.43
384.53	451.44
384.91	444.89
385.29	436.75
385.67	466.58
386.049	463.42
386.429	452.35
386.809	468.62
387.189	468.17
387.568	476.08
387.948	498.67
388.328	476.75
388.707	496.64
389.087	505.9
389.466	496.41
389.846	510.88
390.225	509.07
390.605	520.14
390.984	530.08
391.363	515.4
391.743	536.41
392.122	528.5
392.501	527.37
392.881	546.36
393.26	556.75
393.639	568.5
394.018	579.58
394.397	578.45
394.776	566.47
395.155	603.08
395.534	598.56
395.913	617.54
396.292	622.51
396.671	614.15
397.05	654.6
397.429	653.47
397.808	654.6
398.186	674.49
398.565	657.54
398.944	671.32
399.323	669.06
399.701	683.75
400.08	711.78
400.458	726.01
400.837	732.79
401.215	721.27
401.594	750.42
401.972	770.53
402.351	790.64
402.729	784.09
403.107	806.46
403.486	836.97
403.864	820.47
404.242	833.81
404.62	860.02
404.999	864.31
405.377	878.55
405.755	918.55
406.133	919.91
406.511	949.51
406.889	957.19
407.267	975.72
407.645	992.9
408.023	996.06
408.401	1046.46
408.779	1036.29
409.156	1082.16
409.534	1084.65
409.912	1118.09
410.29	1134.59
410.667	1147.7
411.045	1170.75
411.422	1204.64
411.8	1224.53
412.178	1255.26
412.555	1284.64
412.933	1260.46
413.31	1322.83
413.687	1316.5
414.065	1347.01
414.442	1400.12
414.819	1381.14
415.197	1392.66
415.574	1445.09
415.951	1477.4
416.328	1486.9
416.705	1496.61
417.082	1505.43
417.46	1532.32
417.837	1558.53
418.214	1566.89
418.591	1596.27
418.967	1605.08
419.344	1635.37
419.721	1647.34
420.098	1663.61
420.475	1660
420.852	1699.77
421.228	1720.34
421.605	1765.08
421.982	1776.83
422.358	1796.27
422.735	1825.87
423.111	1819.99
423.488	1904.51
423.864	1870.84
424.241	1883.27
424.617	1901.12
424.994	1919.88
425.37	1954.68
425.746	1982.48
426.123	2016.15
426.499	2035.58
426.875	2066.99
427.251	2110.61
427.627	2151.06
428.003	2163.94
428.379	2191.28
428.756	2196.26
429.132	2263.37
429.507	2311.51
429.883	2332.75
430.259	2400.54
430.635	2408
431.011	2396.02
431.387	2490.03
431.763	2513.54
432.138	2497.72
432.514	2541.78
432.89	2578.62
433.265	2637.83
433.641	2650.71
434.016	2712.17
434.392	2742
434.767	2737.94
435.143	2820.65
435.518	2850.02
435.894	2870.59
436.269	2909.01
436.644	2986.74
437.02	3000.98
437.395	2998.27
437.77	3013.64
438.145	3099.51
438.52	3104.71
438.895	3198.72
439.271	3188.09
439.646	3254.08
440.021	3247.53
440.395	3273.06
440.77	3274.65
441.145	3306.96
441.52	3427.64
441.895	3406.39
442.27	3456.34
442.645	3426.05
443.019	3453.4
443.394	3488.65
443.769	3526.62
444.143	3507.86
444.518	3619.5
444.892	3578.37
445.267	3598.25
445.641	3693.17
446.016	3685.93
446.39	3687.52
446.764	3771.81
447.139	3725.26
447.513	3794.63
447.887	3868.08
448.262	3803.67
448.636	3855.65
449.01	3924.12
449.384	3980.16
449.758	3993.5
450.132	4061.52
450.506	4093.16
450.88	4117.11
451.254	4117.34
451.628	4172.7
452.002	4255.86
452.376	4265.81
452.75	4336.31
453.123	4343.09
453.497	4419.7
453.871	4479.36
454.244	4583.31
454.618	4580.37
454.992	4673.25
455.365	4657.43
455.739	4749.64
456.112	4833.7
456.486	4885
456.859	4940.82
457.232	5024.88
457.606	5030.08
457.979	5087.71
458.352	5195.27
458.725	5287.02
459.099	5287.25
459.472	5440.46
459.845	5442.05
460.218	5528.37
460.591	5600.91
460.964	5612.44
461.337	5736.73
461.71	5830.06
462.083	5905.54
462.456	5941.24
462.829	5939.43
463.201	6096.94
463.574	6084.74
463.947	6168.58
464.32	6278.63
464.692	6372.42
465.065	6457.61
465.438	6555.69
465.81	6691.73
466.183	6703.48
466.555	6868.9
466.928	6897.6
467.3	6869.13
467.672	7041.33
468.045	7244.94
468.417	7217.14
468.789	7296.46
469.161	7430.24
469.534	7507.08
469.906	7708.2
470.278	7767.63
470.65	7891.02
471.022	8008.31
471.394	8153.16
471.766	8242.65
472.138	8339.15
472.51	8499.59
472.882	8670.66
473.253	8725.8
473.625	8881.96
473.997	9105.9
474.369	9132.34
474.74	9265.67
475.112	9435.84
475.484	9599.45
475.855	9728.26
476.227	9814.13
476.598	10117.18
476.97	10213.22
477.341	10417.73
477.713	10588.35
478.084	10685.75
478.455	10929.59
478.827	11118.51
479.198	11407.99
479.569	11380.87
479.94	11718.49
480.311	11838.71
480.682	12126.84
481.053	12338.14
481.424	12540.39
481.795	12701.06
482.166	12908.52
482.537	13020.38
482.908	13345.12
483.279	13470.31
483.65	13720.92
484.021	13979.9
484.391	14179.9
484.762	14209.5
485.133	14436.16
485.503	14632.99
485.874	14927.22
486.244	15131.51
486.615	15495.79
486.985	15524.04
487.356	15907.31
487.726	16053.52
488.097	16336.9
488.467	16340.74
488.837	16786.61
489.207	16951.35
489.578	17158.57
489.948	17364.22
490.318	17621.61
490.688	17702.06
491.058	18019.34
491.428	18298.66
491.798	18459.56
492.168	18857.96
492.538	18889.83
492.908	19107.22
493.278	19344.73
493.648	19418.4
494.017	19636.48
494.387	19840.99
494.757	20086.63
495.126	20288.89
495.496	20328.21
495.866	20429.67
496.235	20772.49
496.605	20913.73
496.974	21083.67
497.344	21206.83
497.713	21327.96
498.082	21573.6
498.452	21797.77
498.821	21703.54
499.19	21925
499.559	22138.56
499.928	22264.2
500.298	22489.06
500.667	22751.42
501.036	22678.66
501.405	22968.37
501.774	22928.82
502.143	23168.13
502.512	23215.14
502.88	23573.77
503.249	23491.52
503.618	23650.38
503.987	23810.38
504.356	24117.71
504.724	24137.83
505.093	24257.82
505.462	24356.35
505.83	24560.87
506.199	24885.15
506.567	25206.27
506.936	25075.88
507.304	25464.8
507.672	25568.07
508.041	25635.64
508.409	25892.58
508.777	26062.07
509.145	26313.81
509.514	26403.08
509.882	26591.09
510.25	26599.46
510.618	26830.86
510.986	27013.91
511.354	27291.19
511.722	27519.21
512.09	27843.94
512.458	27851.63
512.826	28001.68
513.193	28277.6
513.561	28362.12
513.929	28664.49
514.297	28918.94
514.664	29055.66
515.032	29314.64
515.4	29434.41
515.767	29597.12
516.135	29833.5
516.502	29647.74
516.869	30329.98
517.237	30306.25
517.604	30268.74
517.972	30730.19
518.339	30990.75
518.706	31066.01
519.073	31296.51
519.44	31575.37
519.808	31944.85
520.175	31923.84
520.542	32396.37
520.909	32490.15
521.276	32484.72
521.643	32805.62
522.009	33066.86
522.376	33282.67
522.743	33486.28
523.11	33868.19
523.477	34163.78
523.843	34215.53
524.21	34629.08
524.577	34944.55
524.943	35020.25
525.31	35274.48
525.676	35527.13
526.043	35713.57
526.409	35861.81
526.776	36422.47
527.142	36392.64
527.508	36654.11
527.874	36918.51
528.241	37023.59
528.607	37200.08
528.973	37639.39
529.339	37638.71
529.705	38018.59
530.071	38242.54
530.437	38380.16
530.803	38605.92
531.169	38887.49
531.535	38877.33
531.901	39066.25
532.267	39166.58
532.632	39522.73
532.998	39584.65
533.364	39870.52
533.73	39872.78
534.095	40283.62
534.461	40438.41
534.826	40446.32
535.192	40665.3
535.557	41092.63
535.923	40983.48
536.288	41244.04
536.653	41371.04
537.019	41351.16
537.384	41531.94
537.749	41913.86
538.114	41961.99
538.479	42090.8
538.845	42309.1
539.21	42335.09
539.575	42503.22
539.94	42559.04
540.305	42981.17
540.67	43003.09
541.034	43229.98
541.399	43276.31
541.764	43559.69
542.129	43718.78
542.494	43680.36
542.858	44005.1
543.223	44100.69
543.587	44407.12
543.952	44268.37
544.316	44561.7
544.681	44515.82
545.045	44836.94
545.41	44999.88
545.774	45043.26
546.138	45289.81
546.503	45473.76
546.867	45383.82
547.231	45813.64
547.595	45738.61
547.959	45898.38
548.324	45890.93
548.688	46031.26
549.052	46223.12
549.416	46200.3
549.779	46322.55
550.143	46492.04
550.507	46681.19
550.871	46756.89
551.235	46768.42
551.599	47032.37
551.962	46949.43
552.326	47164.34
552.689	47488.62
553.053	47257.9
553.417	47366.14
553.78	47877.99
554.143	47708.05
554.507	47990.31
554.87	47980.36
555.234	48397.3
555.597	48190.3
555.96	48440.92
556.323	48590.74
556.686	48623.96
557.05	48817.85
557.413	48883.39
557.776	49024.86
558.139	49259.2
558.502	49311.18
558.865	49404.73
559.228	49617.38
559.59	49675.46
559.953	49800.2
560.316	50208.78
560.679	50297.14
561.041	50455.78
561.404	50590.01
561.767	50892.83
562.129	50746.17
562.492	51132.14
562.854	51094.86
563.217	51162.88
563.579	51380.05
563.941	51541.63
564.304	51659.59
564.666	51935.06
565.028	51980.03
565.39	52115.4
565.753	52325.79
566.115	52325.11
566.477	52485.55
566.839	52670.86
567.201	52893.23
567.563	52849.16
567.925	53062.49
568.287	53061.81
568.648	53186.1
569.01	53356.94
569.372	53515.58
569.734	53435.36
570.095	53637.62
570.457	53801.68
570.819	53810.94
571.18	53881.45
571.542	54140.2
571.903	54160.54
572.265	54306.75
572.626	54340.65
572.987	54396.69
573.349	54476.46
573.71	54634.2
574.071	54613.41
574.432	54789
574.794	54935.66
575.155	54876.23
575.516	54945.15
575.877	55058.59
576.238	55088.65
576.599	55223.56
576.96	55136.33
577.32	55291.58
577.681	55289.1
578.042	55298.81
578.403	55336.33
578.763	55407.29
579.124	55418.36
579.485	55466.95
579.845	55605.92
580.206	55497.23
580.566	55562.54
580.927	55598.69
581.287	55660.16
581.648	55566.6
582.008	55702.19
582.368	55660.61
582.728	55723.66
583.089	55623.1
583.449	55620.39
583.809	55688.86
584.169	55766.6
584.529	55680.73
584.889	55791.46
585.249	55698.8
585.609	55621.52
585.969	55862.64
586.329	55744
586.688	55732.48
587.048	55600.5
587.408	55705.13
587.768	55619.94
588.127	55616.77
588.487	55583.33
588.846	55771.57
589.206	55593.72
589.565	55529.32
589.925	55709.2
590.284	55695.64
590.643	55675.08
591.003	55803.66
591.362	55749.88
591.721	55770.21
592.08	55674.17
592.44	55812.47
592.799	55730.89
593.158	55702.87
593.517	55756.66
593.876	55814.73
594.235	55768.86
594.593	55779.03
594.952	55842.98
595.311	55754.4
595.67	55848.4
596.029	56004.33
596.387	55995.07
596.746	56023.09
597.104	55933.37
597.463	55960.72
597.822	56161.16
598.18	55979.7
598.538	56063.31
598.897	56200.49
599.255	55991.68
599.613	56441.61
599.972	56232.35
600.33	56372.46
600.688	56192.35
601.046	56311.9
601.404	56450.65
601.762	56378.79
602.12	56598.67
602.478	56473.25
602.836	56442.51
603.194	56383.98
603.552	56496.3
603.91	56423.3
604.268	56486.81
604.625	56492.23
604.983	56594.6
605.341	56453.59
605.698	56598.89
606.056	56676.63
606.413	56625.79
606.771	56669.17
607.128	56713.69
607.485	56700.36
607.843	56690.64
608.2	56831.66
608.557	56871.88
608.914	56842.73
609.272	56887.93
609.629	56899
609.986	57074.81
610.343	56912.78
610.7	57046.57
611.057	56965.66
611.414	56901.48
611.771	57007.02
612.127	57046.34
612.484	57045.21
612.841	57085.89
613.198	56976.28
613.554	57041.14
613.911	57152.1
614.267	57107.58
614.624	57073.46
614.98	57164.53
615.337	57119.78
615.693	57111.87
616.05	57088.15
616.406	57264.19
616.762	57128.6
617.118	57096.96
617.475	57042.05
617.831	57152.55
618.187	57145.55
618.543	57147.13
618.899	57364.07
619.255	57298.76
619.611	57237.52
619.967	57268.71
620.323	57370.17
620.678	57228.48
621.034	57171.31
621.39	57147.81
621.746	57090.63
622.101	57357.29
622.457	57158.43
622.812	57186
623.168	57205.2
623.523	57155.04
623.879	57288.37
624.234	57104.19
624.589	57219.22
624.945	57181.02
625.3	57187.8
625.655	57225.54
626.01	57130.86
626.365	57203.62
626.72	57186.67
627.075	57157.3
627.43	57075.04
627.785	57068.26
628.14	57112.55
628.495	57178.54
628.85	57029.16
629.205	56917.3
629.559	57186.22
629.914	57059.45
630.269	57030.07
630.623	56976.96
630.978	56908.04
631.332	57031.42
631.687	57005.66
632.041	56899.9
632.396	56993.23
632.75	56935.16
633.104	56906
633.459	56889.28
633.813	56846.34
634.167	56907.36
634.521	56882.05
634.875	56881.37
635.229	56891.31
635.583	56782.17
635.937	56809.28
636.291	56758.66
636.645	56791.43
636.999	56764.99
637.352	56901.94
637.706	56728.38
638.06	56860.58
638.413	56705.78
638.767	56697.65
639.121	56733.8
639.474	56497.65
639.828	56543.98
640.181	56571.32
640.534	56574.71
640.888	56509.4
641.241	56497.88
641.594	56496.3
641.947	56555.28
642.301	56408.84
642.654	56431.21
643.007	56486.35
643.36	56438.22
643.713	56390.99
644.066	56474.15
644.419	56226.93
644.771	56100.15
645.124	55816.31
645.477	55779.48
645.83	55524.12
646.182	55459.26
646.535	55303.33
646.888	55351.92
647.24	55246.61
647.593	55374.74
647.945	55276.44
648.298	55198.7
648.65	55065.37
649.002	54987.64
649.355	55095.2
649.707	55068.99
650.059	55177.69
650.411	55461.97
650.763	55474.85
651.115	55684.79
651.467	55585.36
651.819	55544.68
652.171	55480.73
652.523	55444.12
652.875	55394.41
653.227	55279.38
653.578	55464.91
653.93	55380.17
654.282	55243
654.633	55153.73
654.985	55237.57
655.337	55171.81
655.688	55075.09
656.039	55165.03
656.391	54952.38
656.742	55026.28
657.094	55005.49
657.445	55098.14
657.796	55019.73
658.147	54935.66
658.498	54926.39
658.849	54986.51
659.2	54949.45
659.551	54744.03
659.902	54941.54
660.253	54835.78
660.604	54817.25
660.955	54664.03
661.306	54806.62
661.656	54694.31
662.007	54690.69
662.358	54678.04
662.708	54665.38
663.059	54657.7
663.409	54474.88
663.76	54692.5
664.11	54639.62
664.461	54556.24
664.811	54555.78
665.161	54589
665.511	54551.49
665.862	54539.74
666.212	54468.1
666.562	54478.72
666.912	54466.97
667.262	54475.11
667.612	54382
667.962	54429.01
668.312	54328.44
668.662	54458.16
669.011	54437.59
669.361	54363.25
669.711	54266.98
670.06	54276.69
670.41	54237.6
670.76	54081.22
671.109	54191.27
671.459	54131.39
671.808	54155.34
672.157	54105.17
672.507	53946.76
672.856	53939.3
673.205	53977.95
673.554	54015.91
673.904	54008.68
674.253	54110.6
674.602	54033.31
674.951	53564.85
675.3	53467.45
675.649	53833.99
675.998	53755.13
676.346	53841.9
676.695	53872.41
677.044	53633.32
677.393	53801.9
677.741	53833.54
678.09	53683.94
678.438	53656.37
678.787	53752.64
679.135	53643.26
679.484	53509.48
679.832	53684.17
680.181	53443.72
680.529	53525.3
680.877	53462.7
681.225	53442.14
681.573	53581.12
681.922	53213.22
682.27	53288.25
682.618	53285.76
682.966	53193.56
683.314	53243.28
683.661	53225.2
684.009	53078.08
684.357	52973.9
684.705	52995.37
685.053	53119.66
685.4	53050.74
685.748	52818.88
686.095	52949.95
686.443	52859.56
686.79	52753.34
687.138	52787.24
687.485	52822.27
687.832	52697.53
688.18	52698.66
688.527	52502.96
688.874	52481.04
689.221	52429.96
689.568	52444.65
689.915	52352.68
690.262	52222.06
690.609	52252.34
690.956	52093.25
691.303	52032.46
691.65	51842.86
691.997	51784.78
692.344	51600.61
692.69	51712.02
693.037	51655.52
693.383	51270.22
693.73	51387.28
694.077	51146.16
694.423	51164.69
694.769	51057.12
695.116	50955.2
695.462	50887.86
695.808	50767.86
696.155	50806.5
696.501	50497.58
696.847	50562.44
697.193	50195.22
697.539	50446.96
697.885	50123.36
698.231	49926.98
698.577	49867.09
698.923	49814.44
699.269	49670.94
699.614	49349.37
699.96	49294.68
700.306	49324.51
700.651	49040
700.997	48868.25
701.342	48873.9
701.688	48586.22
702.033	48530.86
702.379	48508.26
702.724	48335.61
703.069	48420.13
703.415	47935.84
703.76	47875.73
704.105	47793.25
704.45	47736.75
704.795	47485.91
705.14	47374.05
705.485	47311.91
705.83	47185.81
706.175	47218.12
706.52	47045.7
706.865	46881.18
707.209	46766.84
707.554	46738.59
707.899	46772.71
708.243	46567.07
708.588	46450.91
708.932	46202.56
709.277	46254.08
709.621	46202.33
709.966	45914.2
710.31	45919.4
710.654	45742.46
710.998	45786.52
711.342	45661.33
711.687	45543.59
712.031	45385.63
712.375	45186.31
712.719	45372.97
713.063	45308.12
713.407	45180.66
713.75	45005.3
714.094	44904.51
714.438	44782.48
714.782	44937.73
715.125	44629.04
715.469	44850.73
715.812	44555.14
716.156	44455.94
716.499	44431.98
716.843	44385.88
717.186	44166.9
717.53	44283.96
717.873	44233.12
718.216	44128.26
718.559	44031.54
718.902	43712.68
719.246	43847.36
719.589	43796.29
719.932	43638.56
720.275	43628.39
720.617	43642.4
720.96	43605.34
721.303	43452.57
721.646	43561.27
721.989	43342.97
722.331	43349.52
722.674	43313.37
723.016	43239.02
723.359	43241.05
723.701	43156.76
724.044	43024.56
724.386	42848.29
724.729	42997.44
725.071	42739.82
725.413	42700.28
725.755	42646.27
726.097	42637.23
726.439	42450.11
726.782	42530.11
727.124	42775.98
727.465	42302.55
727.807	42259.38
728.149	42235.88
728.491	42065.94
728.833	42125.38
729.175	41971.03
729.516	41947.08
729.858	41963.12
730.199	42004.02
730.541	41879.96
730.882	41796.34
731.224	41714.31
731.565	41515.9
731.906	41624.15
732.248	41483.36
732.589	41326.75
732.93	41388.45
733.271	41300.54
733.612	41378.28
733.953	41297.6
734.294	41077.72
734.635	41076.82
734.976	41206.3
735.317	40915.01
735.658	40866.65
735.999	40883.15
736.339	40653.55
736.68	40886.09
737.021	40619.43
737.361	40439.54
737.702	40641.12
738.042	40597.05
738.383	40449.94
738.723	40507.79
739.063	40222.83
739.404	40276.38
739.744	40132.66
740.084	40056.96
740.424	40080.01
740.764	40011.76
741.104	39972.21
741.444	39786.91
741.784	39676.63
742.124	39797.3
742.464	39640.02
742.804	39552.79
743.143	39477.76
743.483	39662.62
743.823	39322.96
744.162	39270.76
744.502	39189.63
744.841	39215.4
745.181	39054.72
745.52	38886.82
745.86	39028.96
746.199	39081.84
746.538	38818.8
746.877	38966.59
747.216	38792.13
747.556	38685.47
747.895	38559.59
748.234	38399.15
748.573	38325.48
748.911	38194.86
749.25	38296.55
749.589	38153.95
749.928	38084.8
750.267	38050.45
750.605	37978.14
750.944	37889.1
751.283	37705.38
751.621	37756.22
751.96	37534.54
752.298	37359.85
752.636	37337.7
752.975	37135.68
753.313	36905.85
753.651	37163.25
753.989	36870.6
754.327	36769.58
754.666	36660.21
755.004	36548.12
755.342	36629.25
755.679	36463.38
756.017	36082.37
756.355	36279.65
756.693	36191.52
757.031	36259.54
757.368	35814.81
757.706	35797.63
758.044	35650.97
758.381	35600.8
758.719	35521.93
759.056	35529.84
759.394	35315.38
759.731	35069.97
760.068	34926.47
760.405	34861.16
760.743	34805.12
761.08	34878.56
761.417	34622.07
761.754	34475.63
762.091	34359.25
762.428	34249.65
762.765	34127.17
763.102	34194.06
763.438	33945.48
763.775	33819.38
764.112	33832.94
764.449	33811.92
764.785	33593.4
765.122	33465.49
765.458	33179.4
765.795	33250.81
766.131	33157.02
766.467	33013.75
766.804	32706.19
767.14	32576.7
767.476	32647.66
767.812	32544.61
768.148	32499.41
768.485	32345.75
768.821	32224.17
769.157	32139.65
769.492	32062.82
769.828	32017.62
770.164	31663.73
770.5	31607.01
770.836	31647.91
771.171	31496.5
771.507	31287.69
771.842	31152.78
772.178	31149.84
772.513	30962.28
772.849	30901.04
773.184	30840.7
773.519	30714.38
773.855	30717.09
774.19	30471.9
774.525	30399.13
774.86	30528.84
775.195	30387.6
775.53	30288.85
775.865	30188.06
776.2	29945.81
776.535	29806.6
776.87	29787.17
777.205	29651.13
777.539	29526.84
777.874	29637.79
778.209	29295.88
778.543	29256.56
778.878	29077.36
779.212	29050.69
779.547	28959.17
779.881	28936.57
780.215	28834.43
780.55	28808.66
780.884	28579.74
781.218	28666.29
781.552	28589.46
781.886	28347.88
782.22	28287.77
782.554	28372.74
782.888	27974.34
783.222	28001.45
783.556	27690.27
783.889	27822.93
784.223	27610.95
784.557	27612.31
784.89	27518.75
785.224	27407.34
785.557	27307.23
785.891	27262.04
786.224	27216.39
786.558	27124.87
786.891	26806
787.224	26732.11
787.557	26592.45
787.891	26710.19
788.224	26707.25
788.557	26649.17
788.89	26417.77
789.223	26345
789.556	26013.93
789.888	26152.69
790.221	25939.36
790.554	25840.38
790.887	25744.34
791.219	25635.87
791.552	25730.78
791.884	25584.57
792.217	25507.51
792.549	25503.21
792.882	25201.53
793.214	25067.29
793.546	25167.4
793.879	25034.98
794.211	24982.78
794.543	25096.9
794.875	24878.82
795.207	24985.04
795.539	24691.26
795.871	24814.42
796.203	24514.99
796.535	24515.67
796.867	24345.28
797.198	24360.64
797.53	24261.66
797.862	24134.44
798.193	24197.03
798.525	23856.25
798.856	23918.62
799.188	23715.69
799.519	23628.69
799.85	23515.02
800.182	23504.62
800.513	23528.35
800.844	23242.71
801.175	23346.89
801.506	23272.54
801.837	23197.51
802.168	22986.67
802.499	22911.42
802.83	22893.11
803.161	22720.46
803.491	22757.3
803.822	22698.77
804.153	22581.48
804.483	22427.14
804.814	22348.27
805.145	22260.81
805.475	22256.07
805.805	22159.8
806.136	22256.75
806.466	22149.4
806.796	22163.64
807.126	21970.88
807.457	21889.52
807.787	21852.91
808.117	21749.19
808.447	21713.26
808.777	21605.69
809.107	21683.88
809.436	21587.61
809.766	21572.7
810.096	21458.12
810.426	21405.02
810.755	21309.2
811.085	21190.78
811.414	21124.12
811.744	20933.39
812.073	21057.23
812.403	20914.41
812.732	20689.33
813.061	20743.34
813.39	20688.65
813.719	20552.16
814.049	20714.64
814.378	20632.83
814.707	20586.96
815.036	20416.34
815.365	20360.3
815.693	20153.52
816.022	20088.89
816.351	20059.74
816.68	19935.22
817.008	20004.83
817.337	19976.13
817.665	19758.05
817.994	19876.47
818.322	19704.04
818.651	19659.3
818.979	19509.25
819.307	19657.94
819.636	19536.14
819.964	19296.6
820.292	19375.47
820.62	19469.02
820.948	19262.93
821.276	19371.4
821.604	19355.58
821.932	19396.48
822.259	19332.3
822.587	19281.23
822.915	19186.77
823.243	19233.55
823.57	19021.35
823.898	19156.04
824.225	19101.35
824.553	19024.97
824.88	19104.51
825.207	19045.3
825.535	19013.21
825.862	19055.47
826.189	18961.92
826.516	19094.57
826.843	19145.41
827.17	19125.08
827.497	19171.4
827.824	19092.53
828.151	19072.65
828.478	19008.7
828.805	19038.98
829.131	18989.49
829.458	18912.65
829.785	18838.98
830.111	18917.4
830.438	19024.29
830.764	18957.17
831.09	18919.66
831.417	18828.59
831.743	18851.41
832.069	18803.05
832.395	18801.69
832.722	18774.58
833.048	18735.03
833.374	18763.96
833.7	18732.09
834.026	18793.11
834.351	18794.01
834.677	18728.93
835.003	18726.67
835.329	18735.26
835.654	18699.1
835.98	18621.59
836.306	18663.85
836.631	18664.52
836.956	18709.72
837.282	18535.26
837.607	18568.93
837.932	18621.13
838.258	18524.64
838.583	18547.69
838.908	18436.05
839.233	18480.35
839.558	18444.87
839.883	18415.72
840.208	18357.19
840.533	18406.9
840.858	18437.86
841.182	18482.38
841.507	18318.77
841.832	18257.08
842.156	18186.12
842.481	18225.44
842.805	18201.03
843.13	18131.2
843.454	18149.51
843.778	18054.82
844.103	18084.88
844.427	18032.22
844.751	18064.31
845.075	17955.62
845.399	17903.41
845.723	17777.09
846.047	17824.77
846.371	17786.58
846.695	17725.79
847.019	17541.62
847.343	17564.44
847.666	17432.69
847.99	17327.38
848.313	17366.7
848.637	17199.48
848.96	17298.91
849.284	17274.73
849.607	17192.47
849.931	16999.26
850.254	16801.52
850.577	16818.47
850.9	16742.77
851.223	16787.96
851.546	16702.54
851.869	16629.1
852.192	16649.89
852.515	16525.14
852.838	16418.25
853.161	16458.93
853.483	16377.13
853.806	16216.23
854.129	16266.39
854.451	16185.94
854.774	16046.29
855.096	16119.28
855.419	15961.77
855.741	16059.62
856.063	15853.52
856.385	15854.65
856.708	15747.54
857.03	15855.33
857.352	15829.57
857.674	15776.01
857.996	15740.76
858.318	15604.04
858.64	15560.88
858.961	15555.9
859.283	15462.35
859.605	15384.61
859.926	15441.56
860.248	15364.72
860.57	15343.03
860.891	15299.87
861.212	15210.38
861.534	15166.99
861.855	15117.27
862.176	15132.41
862.498	15174.22
862.819	15185.74
863.14	14911.18
863.461	14977.61
863.782	14867.11
864.103	14907.56
864.424	14848.58
864.745	14964.51
865.065	14866.21
865.386	14823.95
865.707	14750.73
866.027	14772.42
866.348	14736.94
866.668	14697.85
866.989	14634.57
867.309	14544.18
867.63	14566.33
867.95	14544.86
868.27	14459.44
868.59	14377.18
868.91	14334.02
869.23	14412.88
869.55	14374.69
869.87	14411.08
870.19	14308.48
870.51	14401.36
870.83	14254.47
871.15	14155.49
871.469	14285.43
871.789	14241.59
872.109	14202.72
872.428	14129.5
872.748	14206.56
873.067	14051.76
873.386	14005.66
873.706	14089.05
874.025	13931.77
874.344	13947.36
874.663	13957.98
874.982	13954.14
875.301	13918.43
875.62	13873.69
875.939	13861.03
876.258	13819.68
876.577	13771.54
876.896	13754.82
877.214	13708.95
877.533	13683.19
877.852	13640.47
878.17	13674.37
878.489	13628.72
878.807	13582.62
879.125	13563.19
879.444	13633.02
879.762	13531.1
880.08	13533.58
880.398	13344.66
880.716	13452.68
881.034	13371.1
881.352	13329.75
881.67	13282.29
881.988	13358.9
882.306	13171.56
882.624	13155.52
882.941	13106.48
883.259	13096.31
883.577	13144.44
883.894	12970.44
884.212	13115.06
884.529	13022.64
884.846	12989.87
885.164	12924.11
885.481	12914.62
885.798	12897.22
886.115	12772.93
886.432	12789.42
886.75	12713.72
887.067	12684.57
887.383	12626.04
887.7	12716.21
888.017	12672.82
888.334	12553.27
888.651	12631.01
888.967	12537
889.284	12471.47
889.6	12413.39
889.917	12362.77
890.233	12410.22
890.55	12324.8
890.866	12271.7
891.182	12313.5
891.498	12225.82
891.815	12086.39
892.131	12118.25
892.447	12027.18
892.763	11947.64
893.079	11981.31
893.395	11934.08
893.71	11885.72
894.026	11881.88
894.342	11860.18
894.657	11785.16
894.973	11743.35
895.289	11711.26
895.604	11702.9
895.92	11580.42
896.235	11560.76
896.55	11528.89
896.865	11496.8
897.181	11446.63
897.496	11450.93
897.811	11339.97
898.126	11285.96
898.441	11213.19
898.756	11244.83
899.071	11176.58
899.386	11144.27
899.7	11012.97
900.015	10980.88
900.33	10862.47
900.644	10910.83
900.959	10801.45
901.273	10845.52
901.588	10770.04
901.902	10784.5
902.216	10754.67
902.531	10716.48
902.845	10685.98
903.159	10621.57
903.473	10584.96
903.787	10565.53
904.101	10480.33
904.415	10515.59
904.729	10431.75
905.042	10358.3
905.356	10368.02
905.67	10300
905.984	10276.27
906.297	10209.6
906.611	10197.63
906.924	10119.44
907.237	10074.01
907.551	10001.47
907.864	10004.19
908.177	9952.44
908.491	9922.15
908.804	9894.58
909.117	9845.55
909.43	9754.02
909.743	9666.57
910.056	9688.04
910.368	9661.14
910.681	9639.68
910.994	9596.29
911.307	9653.23
911.619	9527.36
911.932	9509.74
912.244	9448.49
912.557	9391.09
912.869	9372.56
913.181	9363.98
913.494	9369.4
913.806	9264.32
914.118	9272.45
914.43	9129.18
914.742	9166.24
915.054	9168.95
915.366	9143.42
915.678	9048.96
915.99	9067.04
916.302	8973.7
916.613	8979.81
916.925	8923.31
917.236	8940.94
917.548	8855.52
917.859	8822.3
918.171	8750.66
918.482	8704.56
918.794	8626.82
919.105	8700.27
919.416	8638.12
919.727	8584.34
920.038	8561.96
920.349	8521.74
920.66	8477.67
920.971	8517.9
921.282	8478.58
921.593	8397.9
921.903	8386.6
922.214	8306.83
922.525	8342.08
922.835	8304.57
923.146	8227.28
923.456	8273.61
923.767	8239.26
924.077	8182.99
924.387	8205.36
924.697	8130.56
925.008	8113.61
925.318	8095.99
925.628	8059.15
925.938	8074.97
926.248	8002.88
926.558	7942.77
926.867	7945.48
927.177	7848.08
927.487	7827.97
927.796	7830.91
928.106	7803.79
928.416	7751.82
928.725	7773.51
929.034	7731.25
929.344	7717.92
929.653	7726.05
929.962	7644.02
930.271	7617.13
930.581	7598.6
930.89	7574.42
931.199	7568.09
931.508	7534.42
931.817	7534.87
932.125	7555.89
932.434	7426.63
932.743	7416.91
933.051	7376.01
933.36	7335.56
933.669	7293.52
933.977	7262.34
934.286	7216.01
934.594	7246.07
934.902	7178.5
935.21	7140.76
935.519	7146.86
935.827	7150.25
936.135	7039.29
936.443	6943.02
936.751	6975.57
937.059	6965.62
937.367	6903.7
937.674	6891.95
937.982	6921.1
938.29	6895.12
938.597	6847.43
938.905	6734.22
939.213	6799.07
939.52	6763.14
939.827	6736.48
940.135	6686.99
940.442	6597.72
940.749	6672.97
941.056	6630.49
941.363	6549.36
941.67	6556.37
941.977	6486.31
942.284	6407.22
942.591	6463.26
942.898	6459.19
943.205	6432.3
943.511	6392.3
943.818	6369.03
944.125	6261.46
944.431	6284.96
944.738	6246.77
945.044	6244.28
945.35	6228.24
945.657	6128.81
945.963	6177.62
946.269	6143.27
946.575	6103.27
946.881	6068.92
947.187	6051.75
947.493	5968.81
947.799	5996.16
948.105	5912.09
948.41	5873.67
948.716	5898.98
949.022	5935.37
949.327	5822.6
949.633	5751.19
949.938	5827.8
950.244	5776.05
950.549	5698.54
950.854	5642.27
951.16	5669.61
951.465	5651.53
951.77	5614.7
952.075	5568.82
952.38	5515.26
952.685	5547.58
952.99	5466.9
953.294	5417.41
953.599	5402.95
953.904	5450.41
954.209	5359.11
954.513	5375.61
954.818	5221.49
955.122	5255.61
955.426	5267.59
955.731	5249.73
956.035	5231.88
956.339	5169.51
956.643	5188.04
956.948	5113.92
957.252	5141.72
957.556	5113.69
957.86	5092.9
958.163	5069.63
958.467	5050.19
958.771	5037.54
959.075	4988.95
959.378	4975.39
959.682	4907.6
959.985	4870.99
960.289	4866.24
960.592	4831.67
960.896	4783.53
961.199	4776.98
961.502	4747.15
961.805	4774.95
962.108	4760.93
962.411	4706.47
962.714	4688.85
963.017	4656.98
963.32	4622.41
963.623	4595.97
963.926	4604.33
964.228	4529.75
964.531	4549.19
964.833	4484.56
965.136	4445.24
965.438	4415.41
965.741	4403.2
966.043	4353.49
966.345	4366.59
966.648	4290.44
966.95	4312.81
967.252	4267.84
967.554	4340.83
967.856	4279.36
968.158	4260.16
968.46	4169.31
968.761	4209.31
969.063	4172.02
969.365	4134.74
969.666	4173.83
969.968	4137.67
970.269	4124.34
970.571	4129.76
970.872	4053.16
971.174	4026.26
971.475	3998.92
971.776	3999.37
972.077	3990.78
972.378	3963.67
972.679	3960.5
972.98	3931.13
973.281	3911.46
973.582	3868.75
973.883	3878.92
974.183	3854.97
974.484	3845.7
974.785	3833.05
975.085	3812.48
975.386	3793.28
975.686	3751.24
975.986	3738.36
976.287	3708.53
976.587	3738.14
976.887	3720.51
977.187	3655.65
977.487	3696.56
977.787	3626.95
978.087	3622.66
978.387	3627.4
978.687	3626.27
978.987	3606.61
979.286	3566.84
979.586	3540.63
979.885	3514.19
980.185	3510.8
980.484	3460.86
980.784	3457.01
981.083	3430.35
981.382	3433.74
981.682	3425.38
981.981	3407.75
982.28	3403.23
982.579	3328.2
982.878	3369.11
983.177	3354.42
983.475	3349.67
983.774	3316.9
984.073	3309.22
984.372	3287.98
984.67	3287.98
984.969	3284.36
985.267	3261.54
985.566	3216.79
985.864	3202.56
986.162	3191.48
986.461	3147.19
986.759	3183.12
987.057	3105.61
987.355	3091.6
987.653	3109
987.951	3106.29
988.249	3079.17
988.547	3072.84
988.844	3078.94
989.142	3044.82
989.44	3036.01
989.737	3023.58
990.035	2995.78
990.332	2960.53
990.63	2979.74
990.927	2929.34
991.224	2927.76
991.521	2892.96
991.819	2936.58
992.116	2916.69
992.413	2907.88
992.71	2912.4
993.006	2871.27
993.303	2836.01
993.6	2849.57
993.897	2854.54
994.193	2806.18
994.49	2822.23
994.787	2799.18
995.083	2771.83
995.379	2753.08
995.676	2761.44
995.972	2720.08
996.268	2747.2
996.565	2705.62
996.861	2695
997.157	2666.98
997.453	2687.77
997.749	2685.73
998.044	2657.49
998.34	2633.53
998.636	2627.43
998.932	2590.6
999.227	2635.11
999.523	2612.06
999.818	2571.16
1000.114	2540.43
1000.409	2560.31
1000.704	2539.52
1001	2532.97
1001.295	2480.99
1001.59	2474.44
1001.885	2486.19
1002.18	2464.72
1002.475	2457.49
1002.77	2458.62
1003.065	2409.13
1003.359	2437.61
1003.654	2422.69
1003.949	2358.96
1004.243	2371.62
1004.538	2339.3
1004.832	2370.04
1005.127	2331.17
1005.421	2342.47
1005.715	2338.17
1006.009	2295.01
1006.304	2269.25
1006.598	2306.54
1006.892	2273.99
1007.186	2238.06
1007.48	2255.92
1007.773	2225.63
1008.067	2190.61
1008.361	2202.58
1008.655	2160.32
1008.948	2161
1009.242	2194.67
1009.535	2132.75
1009.829	2148.12
1010.122	2117.61
1010.415	2095.69
1010.708	2079.42
1011.001	2104.05
1011.295	2078.29
1011.588	2083.72
1011.881	2021.57
1012.173	2068.8
1012.466	2050.5
1012.759	2009.82
1013.052	2015.7
1013.344	1975.24
1013.637	1996.71
1013.93	1961.91
1014.222	1960.56
1014.514	1948.35
1014.807	1948.35
1015.099	1944.06
1015.391	1909.71
1015.683	1912.42
1015.976	1907.22
1016.268	1868.58
1016.56	1867.68
1016.851	1871.97
1017.143	1840.78
1017.435	1848.47
1017.727	1819.32
1018.018	1822.03
1018.31	1807.57
1018.602	1755.82
1018.893	1771.86
1019.185	1766.66
1019.476	1775.02
1019.767	1768.24
1020.058	1744.52
1020.35	1740.9
1020.641	1723.5
1020.932	1696.16
1021.223	1703.39
1021.514	1702.26
1021.804	1667.46
1022.095	1672.43
1022.386	1653.9
1022.677	1674.91
1022.967	1631.52
1023.258	1632.43
1023.548	1588.36
1023.839	1597.85
1024.129	1596.95
1024.419	1586.55
1024.709	1553.56
1025	1553.11
1025.29	1560.11
1025.58	1539.1
1025.87	1512.88
1026.16	1517.18
1026.449	1520.34
1026.739	1506.56
1027.029	1504.07
1027.319	1484.64
1027.608	1483.28
1027.898	1479.66
1028.187	1469.04
1028.477	1445.99
1028.766	1423.17
1029.055	1412.55
1029.344	1417.97
1029.634	1417.97
1029.923	1387.24
1030.212	1379.55
1030.501	1384.53
1030.79	1372.1
1031.078	1362.61
1031.367	1332.78
1031.656	1339.33
1031.945	1327.8
1032.233	1311.99
1032.522	1302.95
1032.81	1298.65
1033.099	1310.63
1033.387	1317.41
1033.675	1289.84
1033.963	1257.07
1034.251	1259.56
1034.54	1239.9
1034.828	1244.87
1035.116	1225.66
1035.403	1239.67
1035.691	1224.76
1035.979	1208.71
1036.267	1196.73
1036.554	1194.47
1036.842	1214.81
1037.129	1191.99
1037.417	1174.36
1037.704	1147.24
1037.992	1156.28
1038.279	1126.68
1038.566	1153.8
1038.853	1153.8
1039.14	1153.8
