Data from White_paper_FLMS001491_088.txt Node
Date: Tue Feb 07 10:35:41 GMT 2017
User: dcchb
Spectrometer: FLMS00149
Trigger mode: 0
Integration Time (sec): 2.000000E-2
Scans to average: 10
Electric dark correction enabled: true
Nonlinearity correction enabled: false
Boxcar width: 0
XAxis mode: Wavelengths
Number of Pixels in Spectrum: 2048
>>>>>Begin Spectral Data<<<<<
341.393	7.51
341.776	7.51
342.16	7.51
342.543	-53.95
342.927	-62.99
343.31	-79.26
343.693	-62.09
344.077	-70
344.46	-57.34
344.843	-44.01
345.226	-42.88
345.61	-46.27
345.993	-9.89
346.376	8.64
346.759	24.01
347.142	30.56
347.525	48.87
347.908	38.25
348.291	78.25
348.674	82.99
349.057	100.17
349.44	115.08
349.823	132.71
350.206	171.8
350.588	233.95
350.971	238.47
351.354	261.07
351.737	261.97
352.119	271.46
352.502	286.6
352.884	306.94
353.267	322.99
353.65	308.52
354.032	333.61
354.414	347.17
354.797	347.39
355.179	347.62
355.562	364.34
355.944	342.87
356.326	387.39
356.709	372.48
357.091	383.78
357.473	352.36
357.855	375.19
358.238	392.59
358.62	373.83
359.002	360.5
359.384	376.32
359.766	397.79
360.148	393.04
360.53	374.51
360.912	358.01
361.294	390.55
361.676	369.54
362.057	364.79
362.439	402.53
362.821	372.48
363.203	353.72
363.584	366.37
363.966	374.06
364.348	365.92
364.729	362.76
365.111	378.58
365.493	358.92
365.874	353.04
366.256	353.72
366.637	386.94
367.019	356.21
367.4	347.17
367.781	377.22
368.163	374.51
368.544	375.41
368.925	367.73
369.306	361.4
369.688	367.5
370.069	362.31
370.45	342.87
370.831	364.79
371.212	358.47
371.593	389.65
371.974	368.18
372.355	373.83
372.736	383.1
373.117	397.56
373.498	352.36
373.879	380.61
374.26	376.09
374.641	374.51
375.021	379.48
375.402	380.84
375.783	390.1
376.163	388.75
376.544	416.32
376.925	394.17
377.305	396.2
377.686	405.7
378.066	417.22
378.447	406.15
378.827	414.28
379.208	412.02
379.588	415.86
379.968	413.15
380.349	415.86
380.729	412.02
381.109	410.89
381.489	446.37
381.87	411.8
382.25	411.8
382.63	417.67
383.01	442.3
383.39	425.81
383.77	442.53
384.15	408.63
384.53	452.02
384.91	439.82
385.29	454.51
385.67	429.88
386.049	469.2
386.429	476.65
386.809	442.3
387.189	478.91
387.568	482.3
387.948	484.56
388.328	480.95
388.707	479.59
389.087	482.3
389.466	478.01
389.846	485.92
390.225	492.7
390.605	511.91
390.984	509.42
391.363	503.09
391.743	518.23
392.122	522.3
392.501	521.17
392.881	539.93
393.26	545.35
393.639	551.45
394.018	559.36
394.397	565.69
394.776	559.36
395.155	576.31
395.534	579.93
395.913	587.16
396.292	557.78
396.671	599.81
397.05	595.07
397.429	604.56
397.808	580.83
398.186	619.48
398.565	616.76
398.944	622.19
399.323	608.18
399.701	667.84
400.08	661.51
400.458	657.21
400.837	676.87
401.215	660.15
401.594	666.93
401.972	691.79
402.351	692.24
402.729	698.12
403.107	705.12
403.486	701.96
403.864	730.43
404.242	732.24
404.62	746.48
404.999	795.29
405.377	777.89
405.755	801.39
406.133	801.17
406.511	814.72
406.889	833.25
407.267	872.8
407.645	882.52
408.023	908.73
408.401	922.29
408.779	943.76
409.156	972.91
409.534	958
409.912	1001.61
410.29	1043.42
410.667	1022.63
411.045	1056.98
411.422	1119.58
411.8	1115.06
412.178	1132.23
412.555	1159.57
412.933	1181.04
413.31	1233.02
413.687	1276.18
414.065	1282.28
414.442	1322.28
414.819	1329.74
415.197	1331.55
415.574	1375.84
415.951	1426.69
416.328	1452.45
416.705	1452.67
417.082	1500.58
417.46	1516.17
417.837	1578.55
418.214	1587.13
418.591	1605.66
418.967	1611.99
419.344	1670.52
419.721	1718.88
420.098	1709.84
420.475	1717.53
420.852	1747.81
421.228	1789.16
421.605	1820.35
421.982	1840.23
422.358	1852.44
422.735	1871.65
423.111	1895.6
423.488	1942.38
423.864	1981.93
424.241	2008.14
424.617	2028.48
424.994	2034.58
425.37	2051.53
425.746	2071.64
426.123	2096.72
426.499	2128.36
426.875	2154.35
427.251	2218.08
427.627	2263.05
428.003	2274.35
428.379	2303.72
428.756	2331.07
429.132	2373.55
429.507	2428.02
429.883	2435.25
430.259	2479.99
430.635	2490.61
431.011	2557.28
431.387	2611.06
431.763	2650.61
432.138	2621.68
432.514	2709.82
432.89	2738.97
433.265	2788.68
433.641	2843.6
434.016	2845.63
434.392	2917.95
434.767	3002.69
435.143	2977.83
435.518	3020.09
435.894	3060.09
436.269	3106.87
436.644	3119.07
437.02	3197.71
437.395	3165.62
437.77	3249.91
438.145	3317.48
438.52	3340.53
438.895	3378.5
439.271	3333.53
439.646	3465.5
440.021	3478.61
440.395	3522.22
440.77	3488.78
441.145	3520.42
441.52	3586.4
441.895	3596.12
442.27	3654.88
442.645	3668.43
443.019	3705.95
443.394	3672.73
443.769	3742.1
444.143	3737.59
444.518	3783.91
444.892	3769.67
445.267	3794.76
445.641	3835.21
446.016	3853.06
446.39	3887.64
446.764	3904.36
447.139	3935.32
447.513	3977.81
447.887	3945.26
448.262	3986.84
448.636	4057.8
449.01	4037.92
449.384	4117.46
449.758	4172.83
450.132	4202.43
450.506	4204.69
450.88	4244.46
451.254	4237.91
451.628	4338.93
452.002	4339.6
452.376	4368.08
452.75	4431.35
453.123	4471.58
453.497	4566.72
453.871	4534.63
454.244	4672.93
454.618	4687.84
454.992	4763.1
455.365	4739.59
455.739	4848.74
456.112	4913.37
456.486	4957.89
456.859	4985.91
457.232	5124.67
457.606	5099.36
457.979	5174.61
458.352	5283.76
458.725	5352.01
459.099	5353.59
459.472	5482.4
459.845	5481.27
460.218	5547.93
460.591	5659.79
460.964	5600.81
461.337	5799
461.71	5895.04
462.083	5968.71
462.456	5955.61
462.829	6005.55
463.201	6097.07
463.574	6144.53
463.947	6217.97
464.32	6380.91
464.692	6398.76
465.065	6453.67
465.438	6547.23
465.81	6616.15
466.183	6709.94
466.555	6801.91
466.928	6948.35
467.3	6871.06
467.672	7038.06
468.045	7156.25
468.417	7185.63
468.789	7245.97
469.161	7411.84
469.534	7539.29
469.906	7664.94
470.278	7738.84
470.65	7839.4
471.022	7984.03
471.394	8106.28
471.766	8105.83
472.138	8284.81
472.51	8483.22
472.882	8563.45
473.253	8651.13
473.625	8833.04
473.997	8930.67
474.369	8930.67
474.74	9136.54
475.112	9307.16
475.484	9512.57
475.855	9620.14
476.227	9722.51
476.598	9909.63
476.97	10049.28
477.341	10208.15
477.713	10398.43
478.084	10464.19
478.455	10763.62
478.827	10855.59
479.198	11176.03
479.569	11199.99
479.94	11566.31
480.311	11620.99
480.682	11849.46
481.053	12144.82
481.424	12289
481.795	12475.43
482.166	12592.27
482.537	12797.91
482.908	13011.69
483.279	13208.97
483.65	13444.22
484.021	13643.77
484.391	13731.45
484.762	13987.03
485.133	14097.31
485.503	14179.12
485.874	14562.39
486.244	14677.86
486.615	14952.66
486.985	15121.01
487.356	15424.96
487.726	15561.68
488.097	15777.27
488.467	15804.39
488.837	16252.06
489.207	16409.34
489.578	16648.43
489.948	16874.42
490.318	16939.05
490.688	16995.09
491.058	17327.06
491.428	17605.92
491.798	17791.45
492.168	18064.67
492.538	18120.48
492.908	18269.63
493.278	18553.69
493.648	18602.96
494.017	18830.97
494.387	19025.54
494.757	19176.95
495.126	19363.39
495.496	19458.3
495.866	19647
496.235	19821.23
496.605	19909.14
496.974	19999.53
497.344	20206.98
497.713	20310.93
498.082	20487.88
498.452	20629.34
498.821	20754.09
499.19	20921.54
499.559	21035.89
499.928	21129.22
500.298	21401.3
500.667	21507.29
501.036	21451.47
501.405	21814.85
501.774	21779.37
502.143	22006.48
502.512	22038.12
502.88	22304.33
503.249	22318.79
503.618	22577.09
503.987	22566.47
504.356	22789.74
504.724	22877.2
505.093	23006.23
505.462	23135.72
505.83	23337.52
506.199	23437.18
506.567	23825.87
506.936	23760.79
507.304	24120.1
507.672	24182.92
508.041	24211.17
508.409	24415.23
508.777	24641.44
509.145	24761.21
509.514	24837.14
509.882	24980.42
510.25	25087.98
510.618	25313.06
510.986	25400.52
511.354	25624.02
511.722	25883.67
512.09	26087.28
512.458	26100.84
512.826	26358.46
513.193	26454.73
513.561	26584.67
513.929	26696.3
514.297	27046.58
514.664	27108.72
515.032	27371.54
515.4	27529.5
515.767	27630.29
516.135	27706.9
516.502	27707.12
516.869	28219.88
517.237	28231.86
517.604	28223.5
517.972	28647.21
518.339	28702.8
518.706	28924.72
519.073	29022.12
519.44	29194.09
519.808	29561.77
520.175	29447.42
520.542	29744.59
520.909	29941.87
521.276	30075.42
521.643	30395.64
522.009	30577.33
522.376	30793.82
522.743	31077.21
523.11	31320.59
523.477	31449.63
523.843	31702.05
524.21	31954.7
524.577	32130.51
524.943	32323.27
525.31	32536.6
525.676	32808.69
526.043	33071.73
526.409	33118.06
526.776	33377.71
527.142	33453.64
527.508	33786.96
527.874	34031.7
528.241	34052.72
528.607	34380.85
528.973	34704.91
529.339	34702.87
529.705	34997.1
530.071	35291.56
530.437	35352.35
530.803	35639.57
531.169	35697.65
531.535	35815.39
531.901	36014.93
532.267	36190.52
532.632	36319.1
532.998	36517.51
533.364	36663.05
533.73	36623.73
534.095	37042.47
534.461	37264.61
534.826	37387.32
535.192	37566.75
535.557	37871.38
535.923	37749.8
536.288	38051.03
536.653	38264.59
537.019	38024.82
537.384	38251.71
537.749	38615.09
538.114	38585.03
538.479	38735.54
538.845	38879.49
539.21	38779.15
539.575	39227.05
539.94	39126.71
540.305	39470.66
540.67	39390.66
541.034	39672.01
541.399	39895.96
541.764	39799.91
542.129	40042.39
542.494	40235.16
542.858	40294.14
543.223	40484.19
543.587	40677.86
543.952	40457.07
544.316	40858.64
544.681	40811.41
545.045	41063.84
545.41	41209.59
545.774	41318.29
546.138	41364.84
546.503	41434
546.867	41538.17
547.231	41999.4
547.595	42016.58
547.959	42067.88
548.324	42154.2
548.688	42308.32
549.052	42487.07
549.416	42526.62
549.779	42641.65
550.143	42723
550.507	43037.12
550.871	43187.62
551.235	43141.97
551.599	43390.55
551.962	43587.16
552.326	43669.42
552.689	43964.1
553.053	43739.47
553.417	43816.31
553.78	44491.99
554.143	44139.23
554.507	44441.37
554.87	44493.8
555.234	44898.08
555.597	44795.94
555.96	44988.48
556.323	45195.7
556.686	45165.87
557.05	45572.64
557.413	45520.89
557.776	45693.77
558.139	45990.49
558.502	45958.62
558.865	46056.92
559.228	46296.01
559.59	46351.15
559.953	46545.95
560.316	46949.56
560.679	46857.81
561.041	47053.06
561.404	47299.83
561.767	47574.62
562.129	47351.58
562.492	47851.68
562.854	47873.37
563.217	47941.62
563.579	48128.51
563.941	48274.04
564.304	48546.58
564.666	48641.94
565.028	48774.37
565.39	49000.35
565.753	49157.86
566.115	49207.35
566.477	49439.66
566.839	49514.69
567.201	49694.34
567.563	49798.97
567.925	49933.88
568.287	50018.85
568.648	50203.71
569.01	50348.79
569.372	50542.23
569.734	50476.7
570.095	50651.38
570.457	50845.5
570.819	50973.41
571.18	51016.12
571.542	51206.39
571.903	51222.66
572.265	51318.03
572.626	51503.11
572.987	51555.99
573.349	51733.16
573.71	51832.37
574.071	51824
574.432	52065.81
574.794	52207.95
575.155	52182.19
575.516	52123.21
575.877	52301.51
576.238	52341.05
576.599	52403.2
576.96	52584.21
577.32	52585.57
577.681	52653.81
578.042	52768.39
578.403	52817.42
578.763	52796.18
579.124	52842.73
579.485	53040.92
579.845	53113.69
580.206	53033.46
580.566	53075.27
580.927	53118.66
581.287	53297.64
581.648	53196.4
582.008	53293.34
582.368	53309.16
582.728	53335.38
583.089	53315.72
583.449	53422.15
583.809	53497.18
584.169	53530.85
584.529	53435.94
584.889	53674.58
585.249	53521.59
585.609	53464.87
585.969	53661.47
586.329	53498.54
586.688	53666.67
587.048	53677.29
587.408	53626.67
587.768	53721.58
588.127	53807.23
588.487	53736.27
588.846	53861.47
589.206	53665.09
589.565	53837.96
589.925	53908.7
590.284	53767.68
590.643	53809.26
591.003	53893.78
591.362	54011.52
591.721	54023.72
592.08	53991.63
592.44	54087.22
592.799	54009.94
593.158	53967.45
593.517	54020.11
593.876	54143.94
594.235	54049.03
594.593	54086.77
594.952	54180.55
595.311	54105.75
595.67	54211.51
596.029	54306.43
596.387	54371.96
596.746	54409.47
597.104	54330.83
597.463	54300.32
597.822	54461
598.18	54284.05
598.538	54239.99
598.897	54466.65
599.255	54143.72
599.613	54642.24
599.972	54488.12
600.33	54564.95
600.688	54386.88
601.046	54470.49
601.404	54661.67
601.762	54623.7
602.12	54703.25
602.478	54651.27
602.836	54678.62
603.194	54543.71
603.552	54723.36
603.91	54605.63
604.268	54756.81
604.625	54662.8
604.983	54778.96
605.341	54629.13
605.698	54816.47
606.056	54855.11
606.413	54802.23
606.771	54941.89
607.128	54967.2
607.485	54778.96
607.843	54805.85
608.2	55101.66
608.557	55140.98
608.914	54993.19
609.272	55147.76
609.629	55174.88
609.986	55280.18
610.343	55163.13
610.7	55261.43
611.057	55257.59
611.414	55179.62
611.771	55336.91
612.127	55347.75
612.484	55347.08
612.841	55435.89
613.198	55311.6
613.554	55350.24
613.911	55529.9
614.267	55485.83
614.624	55478.37
614.98	55478.15
615.337	55560.63
615.693	55543.23
616.05	55537.58
616.406	55682.89
616.762	55680.85
617.118	55574.41
617.475	55604.7
617.831	55733.05
618.187	55727.63
618.543	55612.15
618.899	55871.81
619.255	55833.62
619.611	55780.96
619.967	55913.16
620.323	55943.44
620.678	55740.29
621.034	55798.59
621.39	55761.08
621.746	55744.35
622.101	56099.37
622.457	55814.18
622.812	55904.12
623.168	55923.11
623.523	55910.45
623.879	55971.01
624.234	55723.79
624.589	55864.35
624.945	55956.1
625.3	55956.78
625.655	55909.09
626.01	56015.98
626.365	55953.84
626.72	55875.42
627.075	55930.79
627.43	55906.38
627.785	55865.25
628.14	55935.99
628.495	55985.7
628.85	55924.46
629.205	55805.59
629.559	56077
629.914	55919.49
630.269	55967.4
630.623	55820.51
630.978	55839.27
631.332	55933.28
631.687	56007.4
632.041	55863.67
632.396	55954.97
632.75	55813.05
633.104	55804.24
633.459	55716.78
633.813	55666.84
634.167	55789.32
634.521	55712.49
634.875	55764.01
635.229	55718.59
635.583	55640.63
635.937	55647.41
636.291	55512.27
636.645	55625.94
636.999	55519.05
637.352	55679.72
637.706	55526.96
638.06	55576.67
638.413	55580.52
638.767	55465.26
639.121	55532.61
639.474	55336.45
639.828	55417.13
640.181	55448.77
640.534	55491.7
640.888	55383.46
641.241	55359.28
641.594	55347.3
641.947	55364.7
642.301	55297.59
642.654	55334.42
643.007	55283.12
643.36	55385.94
643.713	55308.21
644.066	55394.31
644.419	55154.76
644.771	55005.84
645.124	54766.53
645.477	54804.27
645.83	54520.2
646.182	54477.27
646.535	54540.54
646.888	54481.34
647.24	54309.36
647.593	54521.56
647.945	54466.42
648.298	54318.63
648.65	54237.27
649.002	54248.8
649.355	54337.61
649.707	54276.14
650.059	54459.64
650.411	54802.23
650.763	54781.89
651.115	55031.38
651.467	54919.97
651.819	54871.61
652.171	54946.86
652.523	54853.08
652.875	54839.97
653.227	54788.67
653.578	54891.27
653.93	54883.36
654.282	54715.91
654.633	54644.72
654.985	54728.11
655.337	54802.46
655.688	54741.44
656.039	54789.12
656.391	54589.58
656.742	54594.33
657.094	54554.33
657.445	54741.89
657.796	54646.3
658.147	54664.61
658.498	54562.92
658.849	54605.85
659.2	54599.3
659.551	54541.45
659.902	54598.62
660.253	54537.15
660.604	54550.26
660.955	54399.76
661.306	54564.05
661.656	54529.02
662.007	54498.74
662.358	54464.61
662.708	54422.13
663.059	54481.34
663.409	54254.68
663.76	54554.78
664.11	54431.85
664.461	54467.78
664.811	54453.31
665.161	54428.68
665.511	54329.25
665.862	54346.88
666.212	54421
666.562	54503.93
666.912	54374.22
667.262	54351.17
667.612	54337.84
667.962	54341.68
668.312	54353.88
668.662	54422.35
669.011	54337.16
669.361	54269.59
669.711	54281.34
670.06	54266.43
670.41	54178.07
670.76	54115.24
671.109	54208.35
671.459	54128.8
671.808	54081.8
672.157	54110.27
672.507	54000.44
672.856	53934.68
673.205	53998.18
673.554	54026.66
673.904	54014.23
674.253	54130.16
674.602	53991.41
674.951	53529.5
675.3	53322.04
675.649	53831.18
675.998	53785.08
676.346	53837.96
676.695	53940.56
677.044	53627.12
677.393	53730.4
677.741	53773.56
678.09	53638.87
678.438	53558.87
678.787	53645.65
679.135	53678.42
679.484	53324.98
679.832	53569.04
680.181	53297.86
680.529	53359.11
680.877	53367.47
681.225	53297.86
681.573	53497.63
681.922	53231.88
682.27	53172.67
682.618	53175.61
682.966	53103.97
683.314	53075.27
683.661	52943.75
684.009	52819.91
684.357	52748.27
684.705	52754.83
685.053	52709.86
685.4	52634.15
685.748	52604.55
686.095	52520.26
686.443	52390.32
686.79	52255.41
687.138	52436.19
687.485	52357.55
687.832	52136.31
688.18	52138.8
688.527	52000.72
688.874	51962.76
689.221	51962.53
689.568	51813.61
689.915	51715.53
690.262	51786.27
690.609	51588.98
690.956	51546.27
691.303	51448.87
691.65	51276.9
691.997	51323.9
692.344	51029
692.69	51108.77
693.037	51061.31
693.383	50815.9
693.73	51050.47
694.077	50659.97
694.423	50669.01
694.769	50611.38
695.116	50443.02
695.462	50532.06
695.808	50317.15
696.155	50288
696.501	50054.11
696.847	50166.2
697.193	49876.94
697.539	50091.17
697.885	49737.73
698.231	49525.31
698.577	49685.08
698.923	49577.51
699.269	49418.87
699.614	49203.06
699.96	49241.93
700.306	49145.2
700.651	48959.45
700.997	48797.42
701.342	48855.04
701.688	48723.07
702.033	48645.78
702.379	48564.2
702.724	48589.29
703.069	48441.04
703.415	48044.22
703.76	48181.61
704.105	48093.26
704.45	48034.73
704.795	47744.79
705.14	47640.61
705.485	47700.27
705.83	47612.59
706.175	47738.46
706.52	47362.88
706.865	47286.04
707.209	47275.65
707.554	47107.97
707.899	47236.33
708.243	46947.3
708.588	46919.05
708.932	46746.17
709.277	46727.64
709.621	46705.27
709.966	46477.48
710.31	46637.7
710.654	46133.76
710.998	46252.4
711.342	46248.56
711.687	46218.95
712.031	45971.5
712.375	45813.09
712.719	45910.71
713.063	45951.16
713.407	46000.65
713.75	45587.11
714.094	45626.88
714.438	45439.77
714.782	45482.02
715.125	45223.5
715.469	45331.52
715.812	45141.47
716.156	45001.13
716.499	45078.19
716.843	45053.56
717.186	44776.96
717.53	44895.6
717.873	45027.35
718.216	44830.06
718.559	44607.47
718.902	44400.92
719.246	44485.67
719.589	44451.32
719.932	44191.44
720.275	44079.58
720.617	44143.3
720.96	44041.61
721.303	44123.42
721.646	43892.24
721.989	43811.11
722.331	43962.29
722.674	43702.41
723.016	43797.32
723.359	43735.86
723.701	43614.95
724.044	43446.6
724.386	43268.98
724.729	43438.69
725.071	43291.8
725.413	43334.28
725.755	43351.68
726.097	43116.21
726.439	42908.98
726.782	42998.93
727.124	43095.87
727.465	42871.25
727.807	42701.31
728.149	42727.52
728.491	42604.13
728.833	42661.76
729.175	42512.39
729.516	42426.29
729.858	42358.26
730.199	42447.53
730.541	42260.19
730.882	42272.62
731.224	42341.54
731.565	41989.69
731.906	42003.7
732.248	42029.46
732.589	41918.05
732.93	41687.55
733.271	41913.53
733.612	41884.15
733.953	41850.48
734.294	41588.57
734.635	41539.98
734.976	41624.27
735.317	41427.67
735.658	41355.58
735.999	41426.99
736.339	41178.18
736.68	41403.04
737.021	41124.85
737.361	41052.54
737.702	41187.67
738.042	41185.87
738.383	40966.66
738.723	41076.04
739.063	40897.06
739.404	40966.89
739.744	40902.48
740.084	40690.96
740.424	40761.47
740.764	40632.21
741.104	40790.62
741.444	40477.64
741.784	40523.51
742.124	40516.51
742.464	40417.07
742.804	40227.93
743.143	40223.86
743.483	40351.09
743.823	40130.3
744.162	40133.46
744.502	40183.86
744.841	39940.48
745.181	40144.99
745.52	40038.55
745.86	39935.05
746.199	39879.91
746.538	39756.53
746.877	39872.91
747.216	39773.7
747.556	39601.5
747.895	39654.61
748.234	39461.84
748.573	39505.01
748.911	39285.58
749.25	39327.38
749.589	39067.05
749.928	39256.65
750.267	39348.4
750.605	39040.39
750.944	39064.57
751.283	38794.74
751.621	39027.05
751.96	38711.13
752.298	38652.37
752.636	38808.98
752.975	38578.48
753.313	38354.53
753.651	38559.49
753.989	38401.08
754.327	38279.73
754.666	38064.37
755.004	38188.66
755.342	38122.67
755.679	38046.74
756.017	37774.88
756.355	37891.04
756.693	37866.63
757.031	37731.72
757.368	37577.15
757.706	37458.05
758.044	37352.52
758.381	37509.8
758.719	37303.26
759.056	37124.05
759.394	37148.68
759.731	36996.37
760.068	36833.44
760.405	36777.39
760.743	36554.8
761.08	36585.08
761.417	36463.28
761.754	36440.68
762.091	36326.78
762.428	36176.05
762.765	35884.76
763.102	36076.62
763.438	35895.61
763.775	35785.78
764.112	35732.9
764.449	35654.26
764.785	35443.19
765.122	35291.56
765.458	35344.44
765.795	35282.07
766.131	35255.17
766.467	34926.6
766.804	34755.53
767.14	34624
767.476	34783.55
767.812	34367.97
768.148	34680.5
768.485	34317.8
768.821	34189.67
769.157	34080.97
769.492	34075.09
769.828	33900.63
770.164	33746.74
770.5	33602.79
770.836	33585.61
771.171	33454.32
771.507	33327.99
771.842	33139.3
772.178	33226.98
772.513	33093.42
772.849	32889.14
773.184	32865.63
773.519	32651.85
773.855	32542.93
774.19	32450.05
774.525	32326.89
774.86	32238.3
775.195	32169.61
775.53	32185.2
775.865	32015.49
776.2	31638.09
776.535	31490.3
776.87	31483.3
777.205	31405.33
777.539	31286.47
777.874	31382.51
778.209	30963.54
778.543	30972.12
778.878	30823.43
779.212	30780.26
779.547	30648.52
779.881	30653.49
780.215	30490.1
780.55	30510.44
780.884	30325.81
781.218	30148.19
781.552	30153.84
781.886	29973.28
782.22	29876.56
782.554	29767.41
782.888	29497.13
783.222	29425.05
783.556	29281.32
783.889	29232.73
784.223	29001.78
784.557	29023.25
784.89	29072.96
785.224	28884.49
785.557	28737.38
785.891	28622.13
786.224	28493.54
786.558	28592.75
786.891	28247.68
787.224	28151.41
787.557	28213.33
787.891	28248.81
788.224	27931.3
788.557	28027.79
788.89	27763.17
789.223	27805.2
789.556	27466.23
789.888	27595.94
790.221	27388.26
790.554	27281.37
790.887	27434.36
791.219	27219.91
791.552	27081.83
791.884	27008.39
792.217	26797.09
792.549	26755.96
792.882	26532.24
793.214	26522.3
793.546	26483.65
793.879	26510.77
794.211	26202.31
794.543	26389.65
794.875	26299.93
795.207	26156.66
795.539	26114.4
795.871	25974.97
796.203	25890
796.535	25677.8
796.867	25725.48
797.198	25555.77
797.53	25541.08
797.862	25445.49
798.193	25301.99
798.525	25214.31
798.856	25185.83
799.188	25003.24
799.519	24865.84
799.85	24812.74
800.182	24813.42
800.513	24824.04
800.844	24605.96
801.175	24678.28
801.506	24568.22
801.837	24417.27
802.168	24413.43
802.499	24325.97
802.83	24182.25
803.161	24150.16
803.491	24121.23
803.822	24128.01
804.153	23980.67
804.483	23839.43
804.814	23722.82
805.145	23674.01
805.475	23780.22
805.805	23568.02
806.136	23440.34
806.466	23621.81
806.796	23591.53
807.126	23330.52
807.457	23337.97
807.787	23374.36
808.117	23163.74
808.447	23004.88
808.777	23112.9
809.107	22948.15
809.436	22839.91
809.766	22833.58
810.096	22812.34
810.426	22671.55
810.755	22838.1
811.085	22608.05
811.414	22586.81
811.744	22408.05
812.073	22418.9
812.403	22404.44
812.732	22340.49
813.061	22289.19
813.39	22154.73
813.719	22055.52
814.049	22205.8
814.378	22089.65
814.707	21932.36
815.036	21986.37
815.365	21848.3
815.693	21726.72
816.022	21751.8
816.351	21646.27
816.68	21421.64
817.008	21635.42
817.337	21355.43
817.665	21355.43
817.994	21415.76
818.322	21382.77
818.651	21256.9
818.979	21165.15
819.307	21200.4
819.636	21203.57
819.964	21023.23
820.292	21034.31
820.62	21074.76
820.948	21018.26
821.276	21087.41
821.604	21000.41
821.932	20983.91
822.259	21052.16
822.587	20746.4
822.915	20894.65
823.243	20905.95
823.57	20906.4
823.898	20947.08
824.225	20874.08
824.553	20797.7
824.88	20966.28
825.207	20853.07
825.535	20899.85
825.862	20880.19
826.189	20765.61
826.516	20891.26
826.843	20911.82
827.17	20778.49
827.497	20893.52
827.824	20931.71
828.151	20990.01
828.478	20784.14
828.805	20895.33
829.131	20830.92
829.458	20880.19
829.785	20676.8
830.111	20747.08
830.438	20795.44
830.764	20817.36
831.09	20877.93
831.417	20703.69
831.743	20701.43
832.069	20827.98
832.395	20617.37
832.722	20659.63
833.048	20632.73
833.374	20624.6
833.7	20514.55
834.026	20503.7
834.351	20654.43
834.677	20636.12
835.003	20626.18
835.329	20611.72
835.654	20570.14
835.98	20380.09
836.306	20457.6
836.631	20413.08
836.956	20369.69
837.282	20442.91
837.607	20249.47
837.932	20315.68
838.258	20267.55
838.583	20245.17
838.908	20051.51
839.233	20178.96
839.558	20096.48
839.883	20036.14
840.208	19913.88
840.533	20014.22
840.858	19977.61
841.182	20047.44
841.507	19878.18
841.832	19732.19
842.156	19735.81
842.481	19762.25
842.805	19724.06
843.13	19714.34
843.454	19660.78
843.778	19495.59
844.103	19408.13
844.427	19459.43
844.751	19478.64
845.075	19444.52
845.399	19451.97
845.723	19200.46
846.047	19231.19
846.371	19030.74
846.695	19028.03
847.019	18956.17
847.343	18930.63
847.666	18791.2
847.99	18694.71
848.313	18634.59
848.637	18593.69
848.96	18580.58
849.284	18508.04
849.607	18282.51
849.931	18326.58
850.254	18186.7
850.577	18117.55
850.9	18013.14
851.223	17990.09
851.546	17972.01
851.869	17726.6
852.192	17896.54
852.515	17605.47
852.838	17548.07
853.161	17563.21
853.483	17495.87
853.806	17443.67
854.129	17434.17
854.451	17243.9
854.774	17218.81
855.096	17188.31
855.419	17166.84
855.741	17145.59
856.063	17009.78
856.385	17015.88
856.708	16825.38
857.03	16847.75
857.352	16788.09
857.674	16751.93
857.996	16587.19
858.318	16686.85
858.64	16674.19
858.961	16581.09
859.283	16577.02
859.605	16436.01
859.926	16426.97
860.248	16380.64
860.57	16305.16
860.891	16313.98
861.212	16248.67
861.534	16285.28
861.855	16198.5
862.176	16224.94
862.498	16170.03
862.819	16120.54
863.14	16124.15
863.461	16015.68
863.782	15977.49
864.103	15944.04
864.424	15901.79
864.745	15987.43
865.065	15842.35
865.386	15861.11
865.707	15848
866.027	15787.21
866.348	15850.26
866.668	15782.01
866.989	15644.62
867.309	15568.01
867.63	15549.93
867.95	15623.83
868.27	15476.03
868.59	15518.07
868.91	15511.51
869.23	15506.54
869.55	15433.55
869.87	15485.75
870.19	15453.44
870.51	15426.54
870.83	15383.61
871.15	15259.32
871.469	15380.22
871.789	15334.57
872.109	15223.39
872.428	15216.61
872.748	15287.79
873.067	15203.5
873.386	15219.77
873.706	15007.8
874.025	15094.8
874.344	15094.8
874.663	15134.12
874.982	15119.43
875.301	15033.79
875.62	14960.57
875.939	14874.24
876.258	14959.66
876.577	14845.09
876.896	14815.71
877.214	14838.08
877.533	14825.43
877.852	14804.86
878.17	14762.15
878.489	14778.88
878.807	14754.47
879.125	14671.31
879.444	14658.88
879.762	14637.41
880.08	14635.38
880.398	14537.3
880.716	14612.55
881.034	14533.46
881.352	14575.04
881.67	14489.17
881.988	14532.56
882.306	14471.31
882.624	14359.68
882.941	14318.32
883.259	14252.56
883.577	14181.38
883.894	14218.89
884.212	14181.6
884.529	14159.68
884.846	14162.17
885.164	14060.03
885.481	14079.01
885.798	14111.78
886.115	14001.72
886.432	14062.06
886.75	13923.98
887.067	13893.48
887.383	13853.48
887.7	13880.6
888.017	13797.21
888.334	13822.52
888.651	13735.51
888.967	13718.79
889.284	13654.84
889.6	13621.39
889.917	13522.19
890.233	13587.72
890.55	13519.7
890.866	13445.8
891.182	13442.64
891.498	13409.2
891.815	13333.49
892.131	13337.78
892.447	13306.37
892.763	13176.21
893.079	13200.39
893.395	13054.63
893.71	13211.01
894.026	13074.06
894.342	12995.87
894.657	12914.29
894.973	12932.37
895.289	12957.91
895.604	12984.8
895.92	12759.04
896.235	12742.09
896.55	12759.04
896.865	12753.39
897.181	12691.7
897.496	12601.99
897.811	12607.41
898.126	12578.48
898.441	12477.02
898.756	12458.49
899.071	12363.8
899.386	12363.12
899.7	12234.54
900.015	12253.97
900.33	12201.54
900.644	12078.61
900.959	12077.93
901.273	12041.55
901.588	12047.65
901.902	11924.26
902.216	11943.92
902.531	11878.39
902.845	11857.37
903.159	11770.59
903.473	11632.29
903.787	11628.23
904.101	11652.63
904.415	11621.45
904.729	11614.44
905.042	11558.17
905.356	11452.86
905.67	11410.83
905.984	11407.89
906.297	11356.37
906.611	11274.79
906.924	11261.46
907.237	11290.16
907.551	11193.21
907.864	11176.26
908.177	11101.46
908.491	11008.58
908.804	11001.58
909.117	10956.83
909.43	10877.51
909.743	10874.12
910.056	10859.43
910.368	10784.41
910.681	10707.35
910.994	10712.32
911.307	10581.7
911.619	10589.16
911.932	10554.58
912.244	10453.79
912.557	10411.53
912.869	10375.38
913.181	10407.92
913.494	10400.91
913.806	10257.19
914.118	10271.88
914.43	10206.34
914.742	10200.47
915.054	10132.67
915.366	10092.45
915.678	10055.84
915.99	10034.82
916.302	9933.13
916.613	9871.66
916.925	9858.33
917.236	9862.62
917.548	9808.39
917.859	9711.89
918.171	9716.86
918.482	9654.04
918.794	9685.9
919.105	9616.75
919.416	9543.99
919.727	9483.2
920.038	9446.59
920.349	9387.38
920.66	9408.62
920.971	9348.74
921.282	9314.61
921.593	9202.07
921.903	9205.01
922.214	9126.37
922.525	9145.35
922.835	9136.99
923.146	9005.47
923.456	8958.47
923.767	8961.63
924.077	8936.54
924.387	8946.04
924.697	8861.97
925.008	8774.97
925.318	8848.64
925.628	8748.3
925.938	8737.45
926.248	8640.73
926.558	8610
926.867	8649.77
927.177	8528.19
927.487	8532.94
927.796	8435.09
928.106	8373.85
928.416	8427.18
928.725	8380.18
929.034	8294.53
929.344	8349.22
929.653	8246.62
929.962	8136.79
930.271	8143.57
930.581	8089.11
930.89	8082.56
931.199	8079.39
931.508	7974.54
931.817	7990.35
932.125	7969.11
932.434	7956.91
932.743	7889.79
933.051	7894.76
933.36	7831.49
933.669	7742.45
933.977	7698.16
934.286	7695.67
934.594	7713.98
934.902	7631.04
935.21	7587.88
935.519	7578.16
935.827	7577.71
936.135	7523.93
936.443	7476.02
936.751	7396.25
937.059	7426.53
937.367	7362.12
937.674	7350.15
937.982	7346.53
938.29	7302.01
938.597	7286.42
938.905	7184.73
939.213	7218.17
939.52	7165.07
939.827	7104.05
940.135	7074.67
940.442	7040.1
940.749	7043.71
941.056	7001.45
941.363	6911.74
941.67	6921.91
941.977	6823.38
942.284	6879.88
942.591	6816.37
942.898	6795.81
943.205	6836.71
943.511	6745.64
943.818	6692.31
944.125	6669.49
944.431	6625.64
944.738	6616.15
945.044	6556.04
945.35	6539.77
945.657	6512.2
945.963	6439.21
946.269	6446.89
946.575	6492.09
946.881	6449.15
947.187	6381.36
947.493	6356.95
947.799	6359.44
948.105	6259.55
948.41	6252.1
948.716	6265.43
949.022	6209.61
949.327	6167.58
949.633	6158.76
949.938	6187.01
950.244	6113.34
950.549	6052.1
950.854	6091.87
951.16	6010.29
951.465	6005.77
951.77	5948.15
952.075	5906.57
952.38	5927.36
952.685	5862.05
952.99	5881.48
953.294	5864.31
953.599	5766.46
953.904	5737.53
954.209	5771.43
954.513	5728.27
954.818	5685.33
955.122	5632.68
955.426	5624.54
955.731	5557.88
956.035	5556.29
956.339	5599.68
956.643	5569.85
956.948	5490.31
957.252	5521.04
957.556	5458.9
957.86	5445.56
958.163	5450.76
958.467	5380.48
958.771	5330.54
959.075	5386.13
959.378	5279.92
959.682	5332.8
959.985	5277.21
960.289	5286.25
960.592	5206.25
960.896	5175.51
961.199	5156.98
961.502	5140.26
961.805	5131.45
962.108	5081.5
962.411	5104.78
962.714	5050.09
963.017	5044.22
963.32	5084.22
963.623	4979.59
963.926	4968.74
964.228	4950.89
964.531	4909.53
964.833	4909.76
965.136	4826.6
965.438	4871.34
965.741	4823.21
966.043	4772.36
966.345	4793.38
966.648	4745.02
966.95	4750.89
967.252	4723.32
967.554	4736.43
967.856	4693.94
968.158	4658.24
968.46	4662.53
968.761	4622.08
969.063	4552.71
969.365	4573.72
969.666	4537.79
969.968	4571.24
970.269	4508.64
970.571	4464.8
970.872	4449.43
971.174	4426.83
971.475	4491.69
971.776	4441.75
972.077	4394.97
972.378	4378.7
972.679	4422.31
972.98	4339.83
973.281	4320.17
973.582	4323.11
973.883	4267.74
974.183	4253.73
974.484	4270
974.785	4209.89
975.085	4245.82
975.386	4204.92
975.686	4153.62
975.986	4144.58
976.287	4158.14
976.587	4105.49
976.887	4093.73
977.187	4103.9
977.487	4107.52
977.787	4039.05
978.087	4038.82
978.387	3963.57
978.687	3982.78
978.987	3912.04
979.286	3965.38
979.586	3966.73
979.885	3905.04
980.185	3849.45
980.484	3879.73
980.784	3827.98
981.083	3842.67
981.382	3791.37
981.682	3783.46
981.981	3770.13
982.28	3773.97
982.579	3722.22
982.878	3760.41
983.177	3703.01
983.475	3693.52
983.774	3640.86
984.073	3632.05
984.372	3642.67
984.67	3656.68
984.969	3593.18
985.267	3608.55
985.566	3605.39
985.864	3553.64
986.162	3567.42
986.461	3527.65
986.759	3500.53
987.057	3499.63
987.355	3480.19
987.653	3502.56
987.951	3435.45
988.249	3392.51
988.547	3382.57
988.844	3426.86
989.142	3364.94
989.44	3378.95
989.737	3339.4
990.035	3372.62
990.332	3317.03
990.63	3286.98
990.927	3262.8
991.224	3243.59
991.521	3241.78
991.819	3230.25
992.116	3246.52
992.413	3185.06
992.71	3166.3
993.006	3178.96
993.303	3172.85
993.6	3129.69
993.897	3106.64
994.193	3083.37
994.49	3122.01
994.787	3078.17
995.083	3043.59
995.379	3028.45
995.676	3040.65
995.972	3001.33
996.268	2974.44
996.565	2994.55
996.861	2956.14
997.157	2947.1
997.453	2915.46
997.749	2892.18
998.044	2876.14
998.34	2859.87
998.636	2866.42
998.932	2864.61
999.227	2800.43
999.523	2859.19
999.818	2818.29
1000.114	2785.75
1000.409	2796.14
1000.704	2783.03
1001	2757.72
1001.295	2726.09
1001.59	2724.73
1001.885	2659.2
1002.18	2664.62
1002.475	2659.42
1002.77	2674.34
1003.065	2623.49
1003.359	2661.91
1003.654	2623.26
1003.949	2602.25
1004.243	2578.97
1004.538	2577.39
1004.832	2524.96
1005.127	2531.74
1005.421	2544.17
1005.715	2483.61
1006.009	2496.49
1006.304	2478.64
1006.598	2451.52
1006.892	2476.83
1007.186	2436.83
1007.48	2423.27
1007.773	2416.04
1008.067	2399.32
1008.361	2380.78
1008.655	2350.96
1008.948	2369.71
1009.242	2355.7
1009.535	2331.07
1009.829	2291.97
1010.122	2294.91
1010.415	2295.36
1010.708	2250.39
1011.001	2248.58
1011.295	2251.97
1011.588	2213.78
1011.881	2208.81
1012.173	2177.17
1012.466	2195.93
1012.759	2173.78
1013.052	2164.29
1013.344	2152.32
1013.637	2110.74
1013.93	2117.97
1014.222	2086.78
1014.514	2081.58
1014.807	2109.61
1015.099	2058.53
1015.391	2035.26
1015.683	2033
1015.976	2016.5
1016.268	2002.49
1016.56	2000.46
1016.851	1987.57
1017.143	1960.91
1017.435	1995.03
1017.727	1947.35
1018.018	1960
1018.31	1913
1018.602	1918.65
1018.893	1908.25
1019.185	1887.01
1019.476	1912.32
1019.767	1834.58
1020.058	1853.12
1020.35	1808.82
1020.641	1833.45
1020.932	1826.45
1021.223	1804.3
1021.514	1793.91
1021.804	1782.61
1022.095	1767.24
1022.386	1742.61
1022.677	1724.3
1022.967	1698.32
1023.258	1710.52
1023.548	1719.11
1023.839	1679.33
1024.129	1683.4
1024.419	1648.6
1024.709	1677.75
1025	1645.21
1025.29	1630.3
1025.58	1593.23
1025.87	1591.2
1026.16	1582.16
1026.449	1594.36
1026.739	1587.13
1027.029	1588.72
1027.319	1524.76
1027.608	1537.87
1027.898	1530.41
1028.187	1522.05
1028.477	1556.85
1028.766	1506.46
1029.055	1478.66
1029.344	1477.53
1029.634	1454.71
1029.923	1465.33
1030.212	1437.53
1030.501	1436.18
1030.79	1423.07
1031.078	1428.72
1031.367	1407.03
1031.656	1387.59
1031.945	1395.95
1032.233	1388.49
1032.522	1372.22
1032.81	1355.5
1033.099	1336.74
1033.387	1356.41
1033.675	1315.5
1033.963	1305.56
1034.251	1299.23
1034.54	1286.58
1034.828	1296.07
1035.116	1275.73
1035.403	1269.85
1035.691	1247.93
1035.979	1275.5
1036.267	1262.85
1036.554	1245.67
1036.842	1224.21
1037.129	1226.69
1037.417	1203.64
1037.704	1210.87
1037.992	1198.22
1038.279	1206.8
1038.566	1194.38
1038.853	1194.38
1039.14	1194.38
