Data from White_paper_FLMS001491_094.txt Node
Date: Tue Feb 07 10:35:49 GMT 2017
User: dcchb
Spectrometer: FLMS00149
Trigger mode: 0
Integration Time (sec): 2.000000E-2
Scans to average: 10
Electric dark correction enabled: true
Nonlinearity correction enabled: false
Boxcar width: 0
XAxis mode: Wavelengths
Number of Pixels in Spectrum: 2048
>>>>>Begin Spectral Data<<<<<
341.393	-38.18
341.776	-38.18
342.16	-38.18
342.543	-62.36
342.927	-48.12
343.31	-84.96
343.693	-75.01
344.077	-75.46
344.46	-27.56
344.843	-63.71
345.226	-55.13
345.61	-24.17
345.993	-9.03
346.376	-4.96
346.759	-10.16
347.142	26.68
347.525	47.92
347.908	71.2
348.291	73.91
348.674	85.44
349.057	124.98
349.44	135.15
349.823	148.48
350.206	167.69
350.588	219.9
350.971	227.13
351.354	245.43
351.737	256.5
352.119	257.18
352.502	289.05
352.884	287.92
353.267	301.93
353.65	311.87
354.032	335.15
354.414	344.86
354.797	326.79
355.179	327.24
355.562	347.58
355.944	351.19
356.326	331.76
356.709	378.54
357.091	391.87
357.473	363.85
357.855	364.98
358.238	350.51
358.62	381.7
359.002	374.02
359.384	361.59
359.766	372.89
360.148	353
360.53	344.64
360.912	381.7
361.294	374.02
361.676	366.56
362.057	371.3
362.439	363.62
362.821	362.49
363.203	362.94
363.584	361.81
363.966	356.16
364.348	365.2
364.729	361.59
365.111	374.02
365.493	344.41
365.874	342.6
366.256	345.32
366.637	355.94
367.019	347.8
367.4	355.71
367.781	340.57
368.163	357.29
368.544	375.82
368.925	376.28
369.306	368.14
369.688	336.95
370.069	363.17
370.45	344.41
370.831	361.13
371.212	362.94
371.593	341.02
371.974	352.55
372.355	380.12
372.736	355.26
373.117	362.72
373.498	387.12
373.879	363.85
374.26	365.65
374.641	358.65
375.021	370.4
375.402	368.14
375.783	381.47
376.163	370.63
376.544	383.73
376.925	395.71
377.305	380.57
377.686	373.79
378.066	390.96
378.447	377.86
378.827	411.53
379.208	384.86
379.588	410.62
379.968	400.23
380.349	400.91
380.729	407.24
381.109	412.43
381.489	389.38
381.87	410.17
382.25	414.47
382.63	418.76
383.01	434.35
383.39	419.21
383.77	418.76
384.15	423.73
384.53	424.18
384.91	428.25
385.29	437.29
385.67	445.65
386.049	457.4
386.429	450.4
386.809	429.83
387.189	445.43
387.568	431.87
387.948	477.97
388.328	418.08
388.707	466.22
389.087	458.08
389.466	485.88
389.846	469.83
390.225	496.95
390.605	504.18
390.984	502.15
391.363	485.65
391.743	513.22
392.122	508.02
392.501	501.02
392.881	512.54
393.26	511.64
393.639	520.23
394.018	502.37
394.397	529.04
394.776	529.27
395.155	534.24
395.534	552.54
395.913	533.79
396.292	539.43
396.671	550.28
397.05	578.98
397.429	583.95
397.808	587.12
398.186	576.27
398.565	602.48
398.944	586.89
399.323	603.61
399.701	603.84
400.08	607.46
400.458	615.59
400.837	621.47
401.215	613.11
401.594	637.29
401.972	668.25
402.351	661.47
402.729	659.21
403.107	673.44
403.486	676.83
403.864	697.85
404.242	696.49
404.62	730.16
404.999	735.36
405.377	741.69
405.755	741.46
406.133	769.03
406.511	802.7
406.889	812.2
407.267	820.11
407.645	843.16
408.023	877.73
408.401	890.61
408.779	908.69
409.156	906.2
409.534	941.23
409.912	955.02
410.29	961.57
410.667	965.86
411.045	1003.15
411.422	1036.6
411.8	1047.67
412.178	1087.22
412.555	1136.26
412.933	1143.03
413.31	1181.9
413.687	1225.74
414.065	1209.93
414.442	1241.34
414.819	1279.98
415.197	1306.42
415.574	1334.67
415.951	1379.64
416.328	1382.58
416.705	1399.75
417.082	1435.46
417.46	1482.01
417.837	1494.21
418.214	1524.72
418.591	1526.53
418.967	1567.2
419.344	1610.14
419.721	1624.83
420.098	1613.53
420.475	1642
420.852	1659.41
421.228	1722
421.605	1746.18
421.982	1739.63
422.358	1786.18
422.735	1765.17
423.111	1830.93
423.488	1871.38
423.864	1885.39
424.241	1904.82
424.617	1919.74
424.994	1952.51
425.37	1936.46
425.746	1961.54
426.123	2031.6
426.499	2003.8
426.875	2065.72
427.251	2116.34
427.627	2157.7
428.003	2146.17
428.379	2204.48
428.756	2239.28
429.132	2297.13
429.507	2282.44
429.883	2317.02
430.259	2376.22
430.635	2396.34
431.011	2438.37
431.387	2476.79
431.763	2523.56
432.138	2496.67
432.514	2614.86
432.89	2607.86
433.265	2684.01
433.641	2641.3
434.016	2717.91
434.392	2761.07
434.767	2834.29
435.143	2820.5
435.518	2880.16
435.894	2876.1
436.269	2965.81
436.644	3009.2
437.02	3018.01
437.395	3095.53
437.77	3070.44
438.145	3172.81
438.52	3188.18
438.895	3187.73
439.271	3198.8
439.646	3317.22
440.021	3286.93
440.395	3288.52
440.77	3302.3
441.145	3363.32
441.52	3411.68
441.895	3403.09
442.27	3463.65
442.645	3465.91
443.019	3508.17
443.394	3508.62
443.769	3559.47
444.143	3512.46
444.518	3616.87
444.892	3604.67
445.267	3629.3
445.641	3669.97
446.016	3668.39
446.39	3737.99
446.764	3743.64
447.139	3732.12
447.513	3777.77
447.887	3771.44
448.262	3774.15
448.636	3811.21
449.01	3862.51
449.384	3910.42
449.758	3926.01
450.132	3954.26
450.506	3961.49
450.88	4001.26
451.254	4057.08
451.628	4090.98
452.002	4116.97
452.376	4144.31
452.75	4207.59
453.123	4228.6
453.497	4283.07
453.871	4327.81
454.244	4422.95
454.618	4435.83
454.992	4488.94
455.365	4494.81
455.739	4593.34
456.112	4674.02
456.486	4704.07
456.859	4740.68
457.232	4852.99
457.606	4871.98
457.979	4902.94
458.352	5052.99
458.725	5078.3
459.099	5059.09
459.472	5197.39
459.845	5235.36
460.218	5291.17
460.591	5357.16
460.964	5358.97
461.337	5479.19
461.71	5547.89
462.083	5655.01
462.456	5679.86
462.829	5671.28
463.201	5775.91
463.574	5813.65
463.947	5908.79
464.32	5960.31
464.692	6058.61
465.065	6117.82
465.438	6193.75
465.81	6326.4
466.183	6344.25
466.555	6477.81
466.928	6532.05
467.3	6546.06
467.672	6614.3
468.045	6813.62
468.417	6807.29
468.789	6879.16
469.161	7009.32
469.534	7131.13
469.906	7292.03
470.278	7295.64
470.65	7412.25
471.022	7554.17
471.394	7652.92
471.766	7814.05
472.138	7780.37
472.51	8086.13
472.882	8111.89
473.253	8255.39
473.625	8356.18
473.997	8482.73
474.369	8484.76
474.74	8715.94
475.112	8863.51
475.484	8916.62
475.855	9084.07
476.227	9194.35
476.598	9511.18
476.97	9600.21
477.341	9697.84
477.713	9877.04
478.084	9935.35
478.455	10309.12
478.827	10279.97
479.198	10564.26
479.569	10558.15
479.94	10909.56
480.311	10948.65
480.682	11238.36
481.053	11560.39
481.424	11670.22
481.795	11740.5
482.166	11957.89
482.537	12103.88
482.908	12348.62
483.279	12465.45
483.65	12639.91
484.021	12963.97
484.391	13035.15
484.762	13145.21
485.133	13391.75
485.503	13527.79
485.874	13741.8
486.244	13923.49
486.615	14197.83
486.985	14323.03
487.356	14541.78
487.726	14684.83
488.097	14955.55
488.467	15093.63
488.837	15357.8
489.207	15622.2
489.578	15733.16
489.948	15922.31
490.318	16053.15
490.688	16178.8
491.058	16384.89
491.428	16612.91
491.798	16837.09
492.168	17112.56
492.538	17170.86
492.908	17355.94
493.278	17513.9
493.648	17581.02
494.017	17764.97
494.387	17979.88
494.757	18166.54
495.126	18262.58
495.496	18307.78
495.866	18549.36
496.235	18745.96
496.605	18821.21
496.974	18955.45
497.344	19105.95
497.713	19304.82
498.082	19310.69
498.452	19697.8
498.821	19627.07
499.19	19736.22
499.559	19954.52
499.928	20070.22
500.298	20212.82
500.667	20380.27
501.036	20407.16
501.405	20629.08
501.774	20677.21
502.143	20883.08
502.512	20971.21
502.88	21105.67
503.249	21203.07
503.618	21194.26
503.987	21462.05
504.356	21623.63
504.724	21594.93
505.093	21809.38
505.462	21911.98
505.83	21985.88
506.199	22236.72
506.567	22501.34
506.936	22628.57
507.304	22753.09
507.672	22878.96
508.041	22993.53
508.409	23147.65
508.777	23341.77
509.145	23422.9
509.514	23546.97
509.882	23659.05
510.25	23784.25
510.618	23761.65
510.986	24004.35
511.354	24282.31
511.722	24425.36
512.09	24684.34
512.458	24721.85
512.826	24856.54
513.193	25131.78
513.561	25216.07
513.929	25416.75
514.297	25531.32
514.664	25744.87
515.032	25902.61
515.4	25969.73
515.767	26224.64
516.135	26307.35
516.502	26195.94
516.869	26767.22
517.237	26827.33
517.604	26724.96
517.972	27121.11
518.339	27277.26
518.706	27242.24
519.073	27443.81
519.44	27494.43
519.808	27908.66
520.175	27910.47
520.542	28416.67
520.909	28373.96
521.276	28430.45
521.643	28851.91
522.009	28957.22
522.376	29147.27
522.743	29286.48
523.11	29554.49
523.477	29817.08
523.843	30074.48
524.21	30383.17
524.577	30577.52
524.943	30655.25
525.31	30916.49
525.676	31128.46
526.043	31279.64
526.409	31420.43
526.776	31788.33
527.142	31982.45
527.508	31909.46
527.874	32312.61
528.241	32393.51
528.607	32619.95
528.973	32920.05
529.339	32872.6
529.705	33190.1
530.071	33546.48
530.437	33600.03
530.803	33791.89
531.169	33947.82
531.535	33921.83
531.901	34108.27
532.267	34522.27
532.632	34504.64
532.998	34699.21
533.364	34841.13
533.73	35125.87
534.095	35345.3
534.461	35261.46
534.826	35689.47
535.192	35620.77
535.557	35882.01
535.923	35907.32
536.288	36095.56
536.653	36186.18
537.019	36148.22
537.384	36402.22
537.749	36553.86
538.114	36773.28
538.479	36711.14
538.845	36926.73
539.21	36957.23
539.575	37161.97
539.94	37082.43
540.305	37549.76
540.67	37386.38
541.034	37611
541.399	37870.88
541.764	37909.75
542.129	38053.48
542.494	38283.3
542.858	38414.37
543.223	38574.14
543.587	38538.66
543.952	38618.66
544.316	38855.72
544.681	38789.05
545.045	39078.31
545.41	39295.48
545.774	39242.15
546.138	39523.49
546.503	39439.66
546.867	39595.81
547.231	40019.75
547.595	39928.23
547.959	40102.24
548.324	40195.57
548.688	40338.61
549.052	40375.22
549.416	40421.32
549.779	40562.11
550.143	40716.68
550.507	40928.88
550.871	41177.46
551.235	41064.25
551.599	41480.51
551.962	41396.89
552.326	41571.8
552.689	41975.41
553.053	41638.24
553.417	41776.99
553.78	42218.79
554.143	42059.02
554.507	42353.7
554.87	42467.82
555.234	42899.68
555.597	42644.77
555.96	42879.56
556.323	43111.65
556.686	43080.01
557.05	43351.19
557.413	43494.69
557.776	43536.27
558.139	43867.11
558.502	43990.27
558.865	44126.99
559.228	44287.21
559.59	44432.97
559.953	44475
560.316	44924.03
560.679	44919.51
561.041	45076.34
561.404	45329.44
561.767	45549.78
562.129	45386.39
562.492	45885.36
562.854	45832.93
563.217	45877.23
563.579	45972.14
563.941	46421.84
564.304	46458.45
564.666	46692.57
565.028	46822.06
565.39	46806.24
565.753	47172.33
566.115	47273.12
566.477	47367.13
566.839	47527.8
567.201	47749.95
567.563	47688.93
567.925	48083.72
568.287	48189.48
568.648	48188.8
569.01	48338.4
569.372	48598.51
569.734	48663.82
570.095	48813.19
570.457	49007.54
570.819	49012.28
571.18	49182.45
571.542	49345.16
571.903	49397.13
572.265	49505.61
572.626	49624.92
572.987	49707.41
573.349	49867.4
573.71	49949.66
574.071	50113.05
574.432	50242.31
574.794	50458.12
575.155	50381.06
575.516	50255.42
575.877	50444.79
576.238	50650.66
576.599	50730.88
576.96	50765.91
577.32	50886.81
577.681	50916.64
578.042	51136.97
578.403	51040.93
578.763	51096.52
579.124	51144.43
579.485	51339.68
579.845	51433.92
580.206	51397.53
580.566	51463.07
580.927	51501.71
581.287	51645.44
581.648	51517.53
582.008	51669.39
582.368	51612.44
582.728	51795.71
583.089	51716.17
583.449	51735.15
583.809	51706.9
584.169	51892.21
584.529	51812.44
584.889	52053.11
585.249	51857.41
585.609	51869.84
585.969	51902.83
586.329	51987.8
586.688	51996.84
587.048	52036.84
587.408	52008.14
587.768	52037.74
588.127	52075.93
588.487	51978.31
588.846	52214.69
589.206	52069.38
589.565	52085.2
589.925	52198.42
590.284	52193.9
590.643	52219.43
591.003	52251.07
591.362	52398.86
591.721	52279.09
592.08	52344.63
592.44	52415.81
592.799	52396.83
593.158	52356.15
593.517	52348.02
593.876	52491.97
594.235	52397.05
594.593	52426.21
594.952	52503.27
595.311	52435.25
595.67	52627.56
596.029	52645.64
596.387	52773.32
596.746	52843.14
597.104	52661.45
597.463	52717.05
597.822	52806.31
598.18	52645.18
598.538	52645.86
598.897	52882.92
599.255	52644.28
599.613	53074.32
599.972	52823.03
600.33	52886.99
600.688	52807.89
601.046	52994.1
601.404	53086.08
601.762	52983.25
602.12	53155.45
602.478	53176.02
602.836	53159.75
603.194	52961.11
603.552	53093.53
603.91	53057.15
604.268	53232.06
604.625	53110.93
604.983	53179.63
605.341	53050.6
605.698	53298.27
606.056	53345.05
606.413	53229.57
606.771	53346.18
607.128	53412.4
607.485	53281.33
607.843	53357.03
608.2	53516.8
608.557	53563.58
608.914	53480.42
609.272	53613.29
609.629	53615.78
609.986	53642.45
610.343	53569.23
610.7	53866.39
611.057	53707.98
611.414	53728.09
611.771	53840.86
612.127	53868.2
612.484	53840.18
612.841	53898.26
613.198	53778.26
613.554	53797.7
613.911	54065.94
614.267	53983.23
614.624	53966.05
614.98	53999.5
615.337	54239.27
615.693	54088.99
616.05	53957.01
616.406	54166.95
616.762	54057.8
617.118	54071.59
617.475	54114.52
617.831	54214.86
618.187	54180.06
618.543	54263.22
618.899	54354.29
619.255	54363.56
619.611	54256.89
619.967	54464.34
620.323	54439.26
620.678	54300.51
621.034	54216.89
621.39	54275.65
621.746	54247.18
622.101	54549.31
622.457	54237.01
622.812	54368.3
623.168	54422.31
623.523	54436.55
623.879	54401.75
624.234	54342.54
624.589	54478.13
624.945	54483.78
625.3	54464.12
625.655	54486.49
626.01	54494.4
626.365	54524.23
626.72	54488.75
627.075	54411.69
627.43	54452.37
627.785	54382.54
628.14	54471.12
628.495	54477.9
628.85	54437.68
629.205	54411.24
629.559	54552.25
629.914	54398.81
630.269	54505.93
630.623	54391.35
630.978	54270.23
631.332	54496.43
631.687	54456.89
632.041	54443.1
632.396	54429.77
632.75	54235.65
633.104	54417.57
633.459	54212.15
633.813	54223.45
634.167	54254.41
634.521	54303.67
634.875	54222.77
635.229	54183.9
635.583	54113.39
635.937	54133.96
636.291	54083.34
636.645	54115.2
636.999	54051.7
637.352	54140.29
637.706	53971.48
638.06	54046.28
638.413	53938.93
638.767	53973.96
639.121	53954.3
639.474	53806.06
639.828	53852.38
640.181	53950.91
640.534	53903
640.888	53838.82
641.241	53671.6
641.594	53823.23
641.947	53920.4
642.301	53784.14
642.654	53860.97
643.007	53738.26
643.36	53768.54
643.713	53768.32
644.066	53861.87
644.419	53664.14
644.771	53456.69
645.124	53175.57
645.477	53202.68
645.83	52937.38
646.182	52810.15
646.535	52790.72
646.888	52839.53
647.24	52635.01
647.593	52832.98
647.945	52849.02
648.298	52626.2
648.65	52584.85
649.002	52492.19
649.355	52708.91
649.707	52697.61
650.059	52737.61
650.411	53075.45
650.763	53172.85
651.115	53466.4
651.467	53380.31
651.819	53384.6
652.171	53283.58
652.523	53214.21
652.875	53288.78
653.227	53119.52
653.578	53350.93
653.93	53268.44
654.282	53175.34
654.633	53078.17
654.985	53128.79
655.337	53120.65
655.688	53060.31
656.039	53141.44
656.391	52950.94
656.742	52974.67
657.094	53059.86
657.445	53162.68
657.796	53043.59
658.147	52944.61
658.498	52985.06
658.849	53110.71
659.2	52999.52
659.551	52885.18
659.902	52998.17
660.253	52939.87
660.604	52986.64
660.955	52829.81
661.306	52917.27
661.656	52841.56
662.007	52863.93
662.358	52944.38
662.708	52836.59
663.059	52869.58
663.409	52707.55
663.76	52911.17
664.11	52893.76
664.461	52922.24
664.811	52906.42
665.161	52879.75
665.511	52581
665.862	52694.22
666.212	52804.5
666.562	52804.28
666.912	52731.96
667.262	52696.03
667.612	52611.51
667.962	52726.76
668.312	52713.43
668.662	52778.97
669.011	52653.09
669.361	52542.36
669.711	52497.39
670.06	52588.46
670.41	52493.1
670.76	52381.69
671.109	52595.69
671.459	52489.93
671.808	52432.31
672.157	52514.34
672.507	52233.44
672.856	52195.25
673.205	52287.9
673.554	52383.5
673.904	52220.79
674.253	52449.71
674.602	52313.44
674.951	51849.95
675.3	51560.01
675.649	52204.07
675.998	52185.53
676.346	52098.76
676.695	52208.36
677.044	51964.98
677.393	52020.79
677.741	52036.16
678.09	51945.77
678.438	51911.87
678.787	51903.73
679.135	51893.34
679.484	51652.44
679.832	51776.28
680.181	51517.98
680.529	51680.24
680.877	51520.02
681.225	51442.73
681.573	51679.33
681.922	51369.06
682.27	51265.11
682.618	51351.66
682.966	51215.62
683.314	51251.55
683.661	51125.68
684.009	50879.13
684.357	50915.06
684.705	50878.68
685.053	50954.83
685.4	50772.92
685.748	50656.54
686.095	50654.95
686.443	50522.08
686.79	50458.35
687.138	50541.06
687.485	50485.47
687.832	50328.86
688.18	50440.5
688.527	50202.54
688.874	50036.89
689.221	50087.28
689.568	49947.63
689.915	49837.8
690.262	49811.59
690.609	49833.96
690.956	49647.52
691.303	49595.09
691.65	49331.37
691.997	49402.33
692.344	49160.98
692.69	49113.07
693.037	49230.13
693.383	48829.69
693.73	48804.83
694.077	48650.49
694.423	48758.28
694.769	48645.06
695.116	48403.26
695.462	48458.18
695.808	48322.13
696.155	48351.29
696.501	48123.95
696.847	48028.36
697.193	47904.74
697.539	47905.42
697.885	47585.66
698.231	47434.02
698.577	47549.05
698.923	47408.49
699.269	47306.79
699.614	47086.91
699.96	46927.37
700.306	47087.14
700.651	46834.94
700.997	46796.07
701.342	46619.81
701.688	46597.88
702.033	46511.33
702.379	46470.43
702.724	46238.35
703.069	46409.19
703.415	45977.34
703.76	46058.92
704.105	46037.9
704.45	45845.59
704.795	45587.52
705.14	45604.01
705.485	45537.57
705.83	45403.79
706.175	45279.05
706.52	45226.4
706.865	45072.95
707.209	45016.46
707.554	44930.58
707.899	45000.41
708.243	44714.54
708.588	44812.17
708.932	44508.22
709.277	44540.99
709.621	44592.74
709.966	44306.42
710.31	44366.98
710.654	43928.8
710.998	43966.77
711.342	44049.03
711.687	43995.92
712.031	43701.24
712.375	43672.99
712.719	43691.97
713.063	43562.03
713.407	43792.53
713.75	43407.69
714.094	43410.17
714.438	43135.6
714.782	43339.89
715.125	43167.47
715.469	43222.61
715.812	42863.07
716.156	42728.38
716.499	42711.21
716.843	42771.32
717.186	42500.82
717.53	42809.06
717.873	42715.73
718.216	42633.47
718.559	42387.83
718.902	42151.9
719.246	42256.3
719.589	42000.49
719.932	42033.26
720.275	41942.64
720.617	42039.13
720.96	41776.32
721.303	41820.38
721.646	41843.89
721.989	41619.03
722.331	41739.93
722.674	41644.12
723.016	41730.22
723.359	41504.91
723.701	41627.17
724.044	41092.04
724.386	40929.56
724.729	41217.24
725.071	41206.39
725.413	41054.3
725.755	41141.76
726.097	40838.71
726.439	40745.84
726.782	40735.44
727.124	40952.61
727.465	40759.39
727.807	40571.15
728.149	40603.01
728.491	40399.18
728.833	40544.71
729.175	40404.38
729.516	40351.95
729.858	40207.77
730.199	40264.27
730.541	40201.89
730.882	40025.18
731.224	40142.91
731.565	39931.17
731.906	39922.58
732.248	39985.86
732.589	39805.97
732.93	39608.92
733.271	39725.52
733.612	39797.61
733.953	39559.88
734.294	39614.34
734.635	39448.02
734.976	39504.51
735.317	39251.19
735.658	39334.8
735.999	39364.4
736.339	39043.73
736.68	39319.43
737.021	39049.61
737.361	38956.05
737.702	39153.79
738.042	38860.91
738.383	38816.17
738.723	39047.8
739.063	38884.87
739.404	38924.64
739.744	38644.65
740.084	38705.44
740.424	38684.19
740.764	38605.55
741.104	38637.87
741.444	38347.71
741.784	38494.82
742.124	38428.16
742.464	38298.89
742.804	38345.45
743.143	38175.96
743.483	38096.64
743.823	38094.83
744.162	38024.78
744.502	38196.3
744.841	37941.16
745.181	38031.78
745.52	37931.45
745.86	37808.51
746.199	37940.49
746.538	37805.12
746.877	37803.77
747.216	37691.23
747.556	37578.69
747.895	37497.33
748.234	37396.32
748.573	37361.97
748.911	37293.72
749.25	37328.3
749.589	37089.66
749.928	37195.42
750.267	37212.37
750.605	36975.31
750.944	36910.46
751.283	36792.49
751.621	36980.51
751.96	36660.52
752.298	36689.22
752.636	36730.12
752.975	36556.34
753.313	36378.04
753.651	36504.37
753.989	36332.84
754.327	36274.99
754.666	36069.35
755.004	36301.88
755.342	36169.01
755.679	36063.92
756.017	35753.88
756.355	35940.09
756.693	35728.57
757.031	35785.06
757.368	35545.07
757.706	35566.31
758.044	35416.94
758.381	35488.57
758.719	35284.51
759.056	35288.35
759.394	35219.88
759.731	35056.95
760.068	34967.23
760.405	34796.61
760.743	34725.2
761.08	34741.47
761.417	34552.55
761.754	34404.99
762.091	34361.82
762.428	34301.71
762.765	34067.14
763.102	34067.37
763.438	34055.84
763.775	33829.41
764.112	33978.33
764.449	33768.17
764.785	33534.05
765.122	33447.27
765.458	33274.85
765.795	33299.93
766.131	33318.23
766.467	33138.8
766.804	32977
767.14	32811.13
767.476	32835.53
767.812	32661.53
768.148	32712.37
768.485	32490.23
768.821	32278.94
769.157	32260.63
769.492	32248.21
769.828	32170.47
770.164	31905.84
770.5	31793.75
770.836	31835.11
771.171	31649.35
771.507	31546.76
771.842	31278.97
772.178	31377.49
772.513	31221.79
772.849	31147.9
773.184	31014.79
773.519	30992.42
773.855	30866.1
774.19	30663.84
774.525	30661.81
774.86	30596.27
775.195	30540.68
775.53	30405.77
775.865	30184.53
776.2	29988.15
776.535	29848.95
776.87	29884.65
777.205	29780.02
777.539	29614.6
777.874	29669.06
778.209	29473.59
778.543	29323.76
778.878	29056.65
779.212	29185.91
779.547	29015.07
779.881	29071.79
780.215	28733.27
780.55	28856.43
780.884	28656.21
781.218	28601.07
781.552	28559.49
781.886	28450.11
782.22	28270.01
782.554	28173.06
782.888	27981.88
783.222	27885.83
783.556	27780.75
783.889	27813.97
784.223	27464.83
784.557	27532.17
784.89	27518.16
785.224	27230.48
785.557	27195.68
785.891	27153.88
786.224	27059.19
786.558	27123.14
786.891	26797.5
787.224	26710.95
787.557	26681.57
787.891	26556.15
788.224	26472.76
788.557	26453.78
788.89	26456.72
789.223	26295.82
789.556	26146.9
789.888	26120.01
790.221	25928.82
790.554	25905.32
790.887	25809.05
791.219	25647.02
791.552	25678.21
791.884	25397.76
792.217	25441.83
792.549	25337.88
792.882	25218.56
793.214	25184.44
793.546	25106.7
793.879	25038.68
794.211	24931.11
794.543	24965.91
794.875	24749.19
795.207	24841.85
795.539	24642.98
795.871	24696.77
796.203	24397.56
796.535	24310.11
796.867	24266.95
797.198	24269.21
797.53	24235.31
797.862	24047.07
798.193	23981.76
798.525	23857.69
798.856	24013.62
799.188	23513.07
799.519	23572.28
799.85	23554.65
800.182	23515.1
800.513	23516.46
800.844	23120.99
801.175	23379.74
801.506	23338.38
801.837	23163.47
802.168	23155.79
802.499	22993.53
802.83	22948.34
803.161	22913.76
803.491	22884.38
803.822	22848
804.153	22619.98
804.483	22564.84
804.814	22486.43
805.145	22491.4
805.475	22467.22
805.805	22375.7
806.136	22393.55
806.466	22277.39
806.796	22231.52
807.126	21999.21
807.457	21951.75
807.787	22043.95
808.117	21887.57
808.447	21828.82
808.777	21981.36
809.107	21734.58
809.436	21645.32
809.766	21598.99
810.096	21602.61
810.426	21485.32
810.755	21474.03
811.085	21386.57
811.414	21489.17
811.744	21144.32
812.073	21234.71
812.403	21129.18
812.732	21110.87
813.061	21026.35
813.39	20877.88
813.719	20905.23
814.049	20947.71
814.378	20933.48
814.707	20820.48
815.036	20723.54
815.365	20639.47
815.693	20501.62
816.022	20531.68
816.351	20384.34
816.68	20340.27
817.008	20386.82
817.337	20229.99
817.665	20158.13
817.994	20249.65
818.322	20224.57
818.651	20129.43
818.979	19983.44
819.307	20085.81
819.636	20000.62
819.964	19862.09
820.292	19897.8
820.62	19959.26
820.948	19821.87
821.276	19914.97
821.604	19775.31
821.932	19888.08
822.259	19897.34
822.587	19879.04
822.915	19742.55
823.243	19858.25
823.57	19711.81
823.898	19686.73
824.225	19736.67
824.553	19657.12
824.88	19734.18
825.207	19776.9
825.535	19768.99
825.862	19704.13
826.189	19693.51
826.516	19854.86
826.843	19847.18
827.17	19798.59
827.497	19766.27
827.824	19697.8
828.151	19820.96
828.478	19697.12
828.805	19806.05
829.131	19550.46
829.458	19774.86
829.785	19568.54
830.111	19679.5
830.438	19737.57
830.764	19808.76
831.09	19741.64
831.417	19586.84
831.743	19678.14
832.069	19619.84
832.395	19505.49
832.722	19657.12
833.048	19501.65
833.374	19601.08
833.7	19455.77
834.026	19498.48
834.351	19446.06
834.677	19530.8
835.003	19545.04
835.329	19387.3
835.654	19486.96
835.98	19289.68
836.306	19268.43
836.631	19277.25
836.956	19299.17
837.282	19286.96
837.607	19262.11
837.932	19194.76
838.258	19178.04
838.583	19047.42
838.908	19008.78
839.233	19039.74
839.558	19065.73
839.883	18924.94
840.208	18960.65
840.533	18922.23
840.858	18892.4
841.182	18782.35
841.507	18799.97
841.832	18731.27
842.156	18794.1
842.481	18766.98
842.805	18675.68
843.13	18669.35
843.454	18577.6
843.778	18510.71
844.103	18553.2
844.427	18319.08
844.751	18452.18
845.075	18345.75
845.399	18297.39
845.723	18189.82
846.047	18278.18
846.371	18091.29
846.695	18084.74
847.019	17904.85
847.343	17813.78
847.666	17727.23
847.99	17747.34
848.313	17658.53
848.637	17531.08
848.96	17555.48
849.284	17503.73
849.607	17342.38
849.931	17291.76
850.254	17178.77
850.577	17061.26
850.9	17023.75
851.223	16897.2
851.546	16906.69
851.869	16885.67
852.192	16993.01
852.515	16800.02
852.838	16565.23
853.161	16638.45
853.483	16508.96
853.806	16472.58
854.129	16524.78
854.451	16391.45
854.774	16378.79
855.096	16329.3
855.419	16219.02
855.741	16252.69
856.063	16102.87
856.385	16043.21
856.708	15994.4
857.03	15964.11
857.352	15976.54
857.674	15849.54
857.996	15832.37
858.318	15722.09
858.64	15713.95
858.961	15717.79
859.283	15564.35
859.605	15546.27
859.926	15643.9
860.248	15507.63
860.57	15497.01
860.891	15483.9
861.212	15421.3
861.534	15383.56
861.855	15305.6
862.176	15374.75
862.498	15268.99
862.819	15276.9
863.14	15209.56
863.461	15147.64
863.782	15112.16
864.103	15132.27
864.424	15007.76
864.745	15096.79
865.065	14997.36
865.386	14928.44
865.707	14924.82
866.027	15059.28
866.348	14896.35
866.668	14923.46
866.989	14837.36
867.309	14817.03
867.63	14830.81
867.95	14763.47
868.27	14749.46
868.59	14763.92
868.91	14657.48
869.23	14660.42
869.55	14551.27
869.87	14703.13
870.19	14598.73
870.51	14640.31
870.83	14549.01
871.15	14402.8
871.469	14428.79
871.789	14523.47
872.109	14497.94
872.428	14408.9
872.748	14390.82
873.067	14430.82
873.386	14409.58
873.706	14390.14
874.025	14367.55
874.344	14212.75
874.663	14322.35
874.982	14215.91
875.301	14233.09
875.62	14189.92
875.939	14176.59
876.258	14078.74
876.577	14052.3
876.896	14030.38
877.214	13993.09
877.533	13986.99
877.852	13999.65
878.17	13956.94
878.489	13989.7
878.807	13940.66
879.125	13911.29
879.444	13962.58
879.762	13823.15
880.08	13849.82
880.398	13703.38
880.716	13847.56
881.034	13771.86
881.352	13764.85
881.67	13679.65
881.988	13669.49
882.306	13683.72
882.624	13563.05
882.941	13505.65
883.259	13459.77
883.577	13488.25
883.894	13519.88
884.212	13452.99
884.529	13405.99
884.846	13426.1
885.164	13380.45
885.481	13254.35
885.798	13250.51
886.115	13289.61
886.432	13225.88
886.75	13190.63
887.067	13153.11
887.383	13096.39
887.7	13067.24
888.017	13024.08
888.334	13064.08
888.651	12999.22
888.967	12876.29
889.284	12894.36
889.6	12842.61
889.917	12700.92
890.233	12762.39
890.55	12793.12
890.866	12841.03
891.182	12710.19
891.498	12640.59
891.815	12615.95
892.131	12531.89
892.447	12551.32
892.763	12463.19
893.079	12487.82
893.395	12371.21
893.71	12465.9
894.026	12400.14
894.342	12307.71
894.657	12201.73
894.973	12182.97
895.289	12260.71
895.604	12151.33
895.92	12012.81
896.235	12076.76
896.55	12080.83
896.865	11982.07
897.181	11952.24
897.496	11966.48
897.811	11839.25
898.126	11848.52
898.441	11820.95
898.756	11684.23
899.071	11712.47
899.386	11714.73
899.7	11591.12
900.015	11504.57
900.33	11455.31
900.644	11448.3
900.959	11489.43
901.273	11377.12
901.588	11388.42
901.902	11315.2
902.216	11286.95
902.531	11249.66
902.845	11174.18
903.159	11089.89
903.473	11096.22
903.787	11048.76
904.101	10922.89
904.415	11015.32
904.729	10952.49
905.042	10914.3
905.356	10888.32
905.67	10853.06
905.984	10801.09
906.297	10802.44
906.611	10765.38
906.924	10628.44
907.237	10624.82
907.551	10595.89
907.864	10515.22
908.177	10489.23
908.491	10461.43
908.804	10446.07
909.117	10335.79
909.43	10314.32
909.743	10241.55
910.056	10265.51
910.368	10232.74
910.681	10101.67
910.994	10084.04
911.307	10052.18
911.619	9976.7
911.932	10053.99
912.244	9927.89
912.557	9854.67
912.869	9883.37
913.181	9842.92
913.494	9800.89
913.806	9722.24
914.118	9725.41
914.43	9657.16
914.742	9625.75
915.054	9606.54
915.366	9548.92
915.678	9503.04
915.99	9449.03
916.302	9411.07
916.613	9320.67
916.925	9339.66
917.236	9260.56
917.548	9248.36
917.859	9290.39
918.171	9130.85
918.482	9100.57
918.794	9114.12
919.105	9049.27
919.416	9002.72
919.727	9004.3
920.038	9000.91
920.349	8890.63
920.66	8893.11
920.971	8850.85
921.282	8880.23
921.593	8720.91
921.903	8655.61
922.214	8712.33
922.525	8615.15
922.835	8591.65
923.146	8561.14
923.456	8529.73
923.767	8508.26
924.077	8479.34
924.387	8407.48
924.697	8376.74
925.008	8359.57
925.318	8365.44
925.628	8374.94
925.938	8224.66
926.248	8191.21
926.558	8121.83
926.867	8119.12
927.177	8060.37
927.487	8053.59
927.796	7968.62
928.106	7982.18
928.416	8002.52
928.725	7929.3
929.034	7842.75
929.344	7899.02
929.653	7784.44
929.962	7779.47
930.271	7756.19
930.581	7713.48
930.89	7644.56
931.199	7602.75
931.508	7560.49
931.817	7627.38
932.125	7525.24
932.434	7493.15
932.743	7447.28
933.051	7365.92
933.36	7390.55
933.669	7334.28
933.977	7373.61
934.286	7305.58
934.594	7232.37
934.902	7228.75
935.21	7165.02
935.519	7164.12
935.827	7105.14
936.135	7064.69
936.443	7040.51
936.751	7009.55
937.059	7046.61
937.367	6947.63
937.674	6982.2
937.982	6932.94
938.29	6851.13
938.597	6901.08
938.905	6820.4
939.213	6799.84
939.52	6719.16
939.827	6754.41
940.135	6729.33
940.442	6669.67
940.749	6647.52
941.056	6671.03
941.363	6591.71
941.67	6595.32
941.977	6511.03
942.284	6455.44
942.591	6450.24
942.898	6469.9
943.205	6422.22
943.511	6438.94
943.818	6378.15
944.125	6345.84
944.431	6250.47
944.738	6272.62
945.044	6257.25
945.35	6221.09
945.657	6191.49
945.963	6123.02
946.269	6129.8
946.575	6142.23
946.881	6073.98
947.187	6068.33
947.493	5993.75
947.799	6018.84
948.105	5953.53
948.41	5889.35
948.716	5897.26
949.022	5867.66
949.327	5842.57
949.633	5838.5
949.938	5767.32
950.244	5798.73
950.549	5691.62
950.854	5673.54
951.16	5733.2
951.465	5635.35
951.77	5633.76
952.075	5603.48
952.38	5559.42
952.685	5620.66
952.99	5557.83
953.294	5558.74
953.599	5464.96
953.904	5430.38
954.209	5463.15
954.513	5417.27
954.818	5440.32
955.122	5394.67
955.426	5381.57
955.731	5344.51
956.035	5285.98
956.339	5305.19
956.643	5319.65
956.948	5264.06
957.252	5186.32
957.556	5191.52
957.86	5165.08
958.163	5130.95
958.467	5148.35
958.771	5084.17
959.075	5080.56
959.378	5031.29
959.682	5069.26
959.985	4990.39
960.289	5012.09
960.592	4964.86
960.896	4942.94
961.199	4953.78
961.502	4872.2
961.805	4887.34
962.108	4874.46
962.411	4826.55
962.714	4763.05
963.017	4815.71
963.32	4826.1
963.623	4747.23
963.926	4743.39
964.228	4715.6
964.531	4728.03
964.833	4716.95
965.136	4622.04
965.438	4641.7
965.741	4598.09
966.043	4533.68
966.345	4593.79
966.648	4528.48
966.95	4531.65
967.252	4486.22
967.554	4488.94
967.856	4532.78
968.158	4372.33
968.46	4431.08
968.761	4402.84
969.063	4381.37
969.365	4338.88
969.666	4340.24
969.968	4322.61
970.269	4264.76
970.571	4292.78
970.872	4257.76
971.174	4239.22
971.475	4211.2
971.776	4192.9
972.077	4165.78
972.378	4188.38
972.679	4158.77
972.98	4158.1
973.281	4059.57
973.582	4102.73
973.883	4072.68
974.183	3983.41
974.484	4038.1
974.785	3989.97
975.085	3981.38
975.386	3932.79
975.686	3952.9
975.986	3914.94
976.287	3920.59
976.587	3914.94
976.887	3890.99
977.187	3890.99
977.487	3877.65
977.787	3865.45
978.087	3775.96
978.387	3777.32
978.687	3826.13
978.987	3773.25
979.286	3699.58
979.586	3717.43
979.885	3725.57
980.185	3688.05
980.484	3674.49
980.784	3643.53
981.083	3627.04
981.382	3631.11
981.682	3613.7
981.981	3602.63
982.28	3553.82
982.579	3561.5
982.878	3549.3
983.177	3537.55
983.475	3580.03
983.774	3483.54
984.073	3514.27
984.372	3465.46
984.67	3436.99
984.969	3443.99
985.267	3448.96
985.566	3408.74
985.864	3352.69
986.162	3356.54
986.461	3357.89
986.759	3351.56
987.057	3306.14
987.355	3310.89
987.653	3280.83
987.951	3293.03
988.249	3241.06
988.547	3273.6
988.844	3231.57
989.142	3210.1
989.44	3212.59
989.737	3172.36
990.035	3156.99
990.332	3151.34
990.63	3162.19
990.927	3105.7
991.224	3128.07
991.521	3091.23
991.819	3054.62
992.116	3082.64
992.413	3058.01
992.71	3026.6
993.006	3035.64
993.303	2977.79
993.6	2945.7
993.897	3036.77
994.193	2959.26
994.49	2925.59
994.787	2933.5
995.083	2929.65
995.379	2852.37
995.676	2892.82
995.972	2828.41
996.268	2890.79
996.565	2820.05
996.861	2822.76
997.157	2771.24
997.453	2786.61
997.749	2733.73
998.044	2710.9
998.34	2743.44
998.636	2726.04
998.932	2723.78
999.227	2671.13
999.523	2665.71
999.818	2684.46
1000.114	2613.28
1000.409	2639.72
1000.704	2653.05
1001	2685.82
1001.295	2587.29
1001.59	2592.71
1001.885	2597.91
1002.18	2550.91
1002.475	2550.91
1002.77	2561.75
1003.065	2521.08
1003.359	2522.66
1003.654	2462.1
1003.949	2465.94
1004.243	2476.33
1004.538	2429.1
1004.832	2414.64
1005.127	2390.01
1005.421	2385.71
1005.715	2366.51
1006.009	2366.73
1006.304	2346.62
1006.598	2336.68
1006.892	2299.39
1007.186	2331.48
1007.48	2290.35
1007.773	2275.21
1008.067	2239.28
1008.361	2275.43
1008.655	2261.88
1008.948	2232.05
1009.242	2229.11
1009.535	2212.84
1009.829	2195.44
1010.122	2203.12
1010.415	2155.44
1010.708	2154.31
1011.001	2118.38
1011.295	2130.81
1011.588	2133.74
1011.881	2128.32
1012.173	2085.61
1012.466	2067.08
1012.759	2079.73
1013.052	2081.32
1013.344	2032.05
1013.637	2019.17
1013.93	2017.36
1014.222	2014.65
1014.514	2029.79
1014.807	1989.57
1015.099	1957.7
1015.391	1948.44
1015.683	1942.34
1015.976	1938.27
1016.268	1925.84
1016.56	1891.26
1016.851	1910.02
1017.143	1901.89
1017.435	1903.47
1017.727	1855.11
1018.018	1853.75
1018.31	1842.23
1018.602	1801.1
1018.893	1809.01
1019.185	1798.61
1019.476	1814.88
1019.767	1781.89
1020.058	1791.15
1020.35	1747.54
1020.641	1691.95
1020.932	1690.14
1021.223	1708.67
1021.514	1700.76
1021.804	1669.57
1022.095	1725.39
1022.386	1693.53
1022.677	1654.21
1022.967	1619.86
1023.258	1626.86
1023.548	1631.61
1023.839	1609.92
1024.129	1619.63
1024.419	1592.97
1024.709	1575.79
1025	1566.75
1025.29	1550.71
1025.58	1532.86
1025.87	1522.01
1026.16	1547.09
1026.449	1495.34
1026.739	1492.4
1027.029	1498.28
1027.319	1490.82
1027.608	1493.31
1027.898	1460.99
1028.187	1446.08
1028.477	1434.1
1028.766	1441.33
1029.055	1430.03
1029.344	1413.08
1029.634	1412.63
1029.923	1387.55
1030.212	1397.49
1030.501	1397.49
1030.79	1353.88
1031.078	1334.44
1031.367	1334.67
1031.656	1338.51
1031.945	1324.27
1032.233	1309.81
1032.522	1304.84
1032.81	1329.24
1033.099	1296.03
1033.387	1289.47
1033.675	1287.66
1033.963	1269.13
1034.251	1267.55
1034.54	1289.92
1034.828	1226.65
1035.116	1227.33
1035.403	1211.06
1035.691	1230.04
1035.979	1228.23
1036.267	1204.5
1036.554	1211.96
1036.842	1174.45
1037.129	1194.33
1037.417	1150.94
1037.704	1159.31
1037.992	1159.76
1038.279	1149.14
1038.566	1146.65
1038.853	1146.65
1039.14	1146.65
