Data from White_paper_FLMS001491_050.txt Node
Date: Tue Feb 07 10:35:09 GMT 2017
User: dcchb
Spectrometer: FLMS00149
Trigger mode: 0
Integration Time (sec): 2.000000E-2
Scans to average: 10
Electric dark correction enabled: true
Nonlinearity correction enabled: false
Boxcar width: 0
XAxis mode: Wavelengths
Number of Pixels in Spectrum: 2048
>>>>>Begin Spectral Data<<<<<
341.393	-13.73
341.776	-13.73
342.16	-13.73
342.543	-53.95
342.927	-73.16
343.31	-82.2
343.693	-56.67
344.077	-72.26
344.46	-58.7
344.843	-55.08
345.226	-32.94
345.61	-17.57
345.993	-17.12
346.376	-3.11
346.759	8.42
347.142	27.17
347.525	14.52
347.908	61.98
348.291	77.12
348.674	88.87
349.057	117.57
349.44	111.47
349.823	137
350.206	167.06
350.588	216.1
350.971	226.94
351.354	250.9
351.737	258.13
352.119	264
352.502	290.22
352.884	301.07
353.267	305.81
353.65	307.85
354.032	326.83
354.414	338.13
354.797	348.52
355.179	347.84
355.562	361.18
355.944	362.98
356.326	372.7
356.709	358.24
357.091	354.62
357.473	372.93
357.855	358.92
358.238	368.63
358.62	397.56
359.002	376.32
359.384	364.79
359.766	362.76
360.148	381.52
360.53	366.6
360.912	370.67
361.294	347.17
361.676	368.63
362.057	392.81
362.439	357.56
362.821	356.88
363.203	364.34
363.584	385.36
363.966	380.61
364.348	360.27
364.729	349.88
365.111	355.98
365.493	346.04
365.874	365.02
366.256	351.46
366.637	340.39
367.019	362.31
367.4	356.43
367.781	357.34
368.163	367.05
368.544	351.01
368.925	367.5
369.306	368.63
369.688	370.22
370.069	362.76
370.45	372.02
370.831	350.33
371.212	360.72
371.593	342.65
371.974	369.09
372.355	360.95
372.736	389.2
373.117	351.46
373.498	374.96
373.879	362.31
374.26	382.65
374.641	366.15
375.021	381.29
375.402	379.71
375.783	376.54
376.163	388.52
376.544	407.05
376.925	393.72
377.305	374.51
377.686	378.58
378.066	404.79
378.447	403.44
378.827	401.63
379.208	386.49
379.588	419.25
379.968	388.29
380.349	409.76
380.729	394.4
381.109	420.38
381.489	404.57
381.87	410.44
382.25	399.37
382.63	426.71
383.01	418.8
383.39	413.15
383.77	415.19
384.15	420.84
384.53	430.78
384.91	421.06
385.29	436.2
385.67	425.36
386.049	434.85
386.429	459.03
386.809	446.6
387.189	466.03
387.568	475.75
387.948	458.35
388.328	474.39
388.707	463.1
389.087	471.46
389.466	475.07
389.846	508.29
390.225	476.65
390.605	478.91
390.984	495.86
391.363	494.73
391.743	487.95
392.122	530.89
392.501	512.36
392.881	522.08
393.26	529.76
393.639	547.39
394.018	541.51
394.397	541.29
394.776	526.82
395.155	569.53
395.534	558.23
395.913	560.04
396.292	586.26
396.671	562.08
397.05	586.71
397.429	582.19
397.808	582.87
398.186	598.46
398.565	598.68
398.944	585.58
399.323	588.29
399.701	616.54
400.08	624.22
400.458	658.8
400.837	630.55
401.215	654.28
401.594	652.92
401.972	678.68
402.351	684.33
402.729	687.27
403.107	707.61
403.486	731.79
403.864	712.58
404.242	712.58
404.62	723.65
404.999	748.29
405.377	759.36
405.755	744.44
406.133	802.75
406.511	815.85
406.889	808.4
407.267	849.75
407.645	870.77
408.023	885.68
408.401	908.28
408.779	922.07
409.156	937.43
409.534	952.12
409.912	960.03
410.29	1028.96
410.667	1025.79
411.045	1046.36
411.422	1073.02
411.8	1099.69
412.178	1128.16
412.555	1154.38
412.933	1196.41
413.31	1209.52
413.687	1240.02
414.065	1267.82
414.442	1299.23
414.819	1312.11
415.197	1349.85
415.574	1420.58
415.951	1389.17
416.328	1410.19
416.705	1426.69
417.082	1479.57
417.46	1476.4
417.837	1538.55
418.214	1561.6
418.591	1584.42
418.967	1604.99
419.344	1624.42
419.721	1663.97
420.098	1661.26
420.475	1693.12
420.852	1723.85
421.228	1724.3
421.605	1765.89
421.982	1795.04
422.358	1830.06
422.735	1869.16
423.111	1890.85
423.488	1931.53
423.864	1947.35
424.241	1949.16
424.617	2017.86
424.994	2011.98
425.37	2030.29
425.746	2016.5
426.123	2069.83
426.499	2084.75
426.875	2142.37
427.251	2183.05
427.627	2211.52
428.003	2259.88
428.379	2294.91
428.756	2325.42
429.132	2360.45
429.507	2381.69
429.883	2425.76
430.259	2464.85
430.635	2476.38
431.011	2528.58
431.387	2586.2
431.763	2629.37
432.138	2627.78
432.514	2691.51
432.89	2697.84
433.265	2771.51
433.641	2796.14
434.016	2823.03
434.392	2864.16
434.767	2954.33
435.143	2895.57
435.518	2989.58
435.894	3029.81
436.269	3071.16
436.644	3089.01
437.02	3149.8
437.395	3145.51
437.77	3208.11
438.145	3282.23
438.52	3305.28
438.895	3326.75
439.271	3317.71
439.646	3371.49
440.021	3392.28
440.395	3444.26
440.77	3400.65
441.145	3499.4
441.52	3560.64
441.895	3532.84
442.27	3584.6
442.645	3578.72
443.019	3623.01
443.394	3634.99
443.769	3669.34
444.143	3655.55
444.518	3714.08
444.892	3717.92
445.267	3758.38
445.641	3811.26
446.016	3819.84
446.39	3838.6
446.764	3855.55
447.139	3923.8
447.513	3927.41
447.887	3959.95
448.262	3941.65
448.636	3970.12
449.01	4042.66
449.384	4061.42
449.758	4053.06
450.132	4110.91
450.506	4163.34
450.88	4191.58
451.254	4215.76
451.628	4206.27
452.002	4304.8
452.376	4292.82
452.75	4327.17
453.123	4388.87
453.497	4436.32
453.871	4502.54
454.244	4565.13
454.618	4622.08
454.992	4672.48
455.365	4629.99
455.739	4811
456.112	4849.65
456.486	4837.22
456.859	4934.84
457.232	5050.32
457.606	4961.73
457.979	5091.67
458.352	5170.54
458.725	5219.58
459.099	5280.6
459.472	5444.43
459.845	5423.19
460.218	5471.78
460.591	5523.75
460.964	5542.28
461.337	5648.72
461.71	5726.23
462.083	5878.32
462.456	5849.85
462.829	5881.48
463.201	6031.99
463.574	6007.36
463.947	6058.65
464.32	6268.37
464.692	6289.83
465.065	6329.83
465.438	6423.84
465.81	6514.91
466.183	6580.22
466.555	6736.6
466.928	6735.92
467.3	6768.69
467.672	6855.47
468.045	7121.9
468.417	7052.07
468.789	7110.6
469.161	7243.93
469.534	7381.33
469.906	7538.39
470.278	7572.51
470.65	7703.81
471.022	7828.33
471.394	7972.73
471.766	7995.1
472.138	8134.53
472.51	8306.73
472.882	8454.52
473.253	8548.98
473.625	8628.08
473.997	8828.75
474.369	8819.71
474.74	8956.66
475.112	9191.23
475.484	9306.03
475.855	9457.43
476.227	9557.32
476.598	9786.92
476.97	9894.26
477.341	10191.43
477.713	10193.91
478.084	10277.07
478.455	10595.94
478.827	10690.62
479.198	10981.24
479.569	11070.27
479.94	11280.89
480.311	11397.04
480.682	11614.21
481.053	11896.01
481.424	12046.75
481.795	12199.96
482.166	12405.61
482.537	12533.51
482.908	12733.73
483.279	12942.09
483.65	13166.72
484.021	13444.67
484.391	13565.35
484.762	13623.2
485.133	13781.16
485.503	14004.21
485.874	14223.19
486.244	14316.52
486.615	14635.6
486.985	14795.15
487.356	15119.21
487.726	15236.49
488.097	15595.13
488.467	15624.5
488.837	15885.06
489.207	16078.73
489.578	16304.03
489.948	16467.42
490.318	16658.83
490.688	16725.49
491.058	16962.32
491.428	17204.58
491.798	17359.15
492.168	17789.42
492.538	17808.85
492.908	17917.33
493.278	18139.01
493.648	18240.03
494.017	18447.26
494.387	18619.91
494.757	18789.62
495.126	19051.53
495.496	19153.9
495.866	19180.34
496.235	19409.72
496.605	19576.04
496.974	19598.19
497.344	19922.7
497.713	19956.82
498.082	20118.17
498.452	20259.64
498.821	20410.59
499.19	20496.69
499.559	20628.44
499.928	20768.78
500.298	20881.77
500.667	21116.79
501.036	21084.25
501.405	21382.32
501.774	21403.79
502.143	21578.02
502.512	21703.89
502.88	21943.43
503.249	21989.08
503.618	22071.11
503.987	22227.04
504.356	22269.53
504.724	22539.58
505.093	22640.14
505.462	22622.74
505.83	22923.07
506.199	23054.59
506.567	23371.42
506.936	23308.37
507.304	23590.62
507.672	23736.83
508.041	23811.18
508.409	23889.15
508.777	24163.71
509.145	24314.45
509.514	24308.34
509.882	24537.72
510.25	24490.03
510.618	24576.81
510.986	24946.29
511.354	25095.22
511.722	25304.02
512.09	25511.48
512.458	25501.98
512.826	25811.13
513.193	25930.22
513.561	26013.61
513.929	26261.29
514.297	26473.48
514.664	26688.85
515.032	26740.37
515.4	26966.13
515.767	26938.33
516.135	27244.76
516.502	27082.51
516.869	27501.93
517.237	27588.26
517.604	27640.69
517.972	27945.76
518.339	28197.96
518.706	28196.38
519.073	28365.86
519.44	28587.33
519.808	28811.05
520.175	28945.51
520.542	29411.71
520.909	29404.93
521.276	29339.17
521.643	29834.75
522.009	29872.72
522.376	30219.37
522.743	30391.12
523.11	30779.36
523.477	30953.82
523.843	31141.84
524.21	31402.62
524.577	31510.41
524.943	31724.42
525.31	31940.01
525.676	32145.2
526.043	32203.05
526.409	32442.14
526.776	32760.1
527.142	32980.21
527.508	33106.76
527.874	33324.83
528.241	33476.01
528.607	33600.08
528.973	33996
529.339	33977.47
529.705	34289.78
530.071	34577.23
530.437	34652.48
530.803	34915.75
531.169	35229.86
531.535	35218.11
531.901	35327.94
532.267	35335.17
532.632	35661.72
532.998	35736.07
533.364	36029.39
533.73	36024.65
534.095	36429.38
534.461	36539.21
534.826	36572.43
535.192	36856.71
535.557	37044.28
535.923	37028.46
536.288	37309.81
536.653	37413.99
537.019	37448.56
537.384	37641.78
537.749	37736.01
538.114	37961.09
538.479	37870.47
538.845	38227.3
539.21	38252.16
539.575	38391.14
539.94	38440.18
540.305	38750.22
540.67	38595.43
541.034	38911.12
541.399	39138.01
541.764	39161.06
542.129	39285.8
542.494	39468.4
542.858	39652.8
543.223	39703.65
543.587	39923.3
543.952	39881.95
544.316	39926.01
544.681	40093.92
545.045	40213.01
545.41	40512.21
545.774	40430.86
546.138	40634.92
546.503	40782.71
546.867	40885.76
547.231	41308.35
547.595	41147.9
547.959	41374.79
548.324	41384.28
548.688	41453.43
549.052	41624.72
549.416	41776.13
549.779	41947.65
550.143	41959.18
550.507	42203.69
550.871	42553.06
551.235	42432.61
551.599	42691.14
551.962	42859.04
552.326	42954.86
552.689	43190.56
553.053	42989.43
553.417	43278.47
553.78	43499.25
554.143	43516.43
554.507	43666.48
554.87	43795.29
555.234	44085.68
555.597	43943.31
555.96	44139.46
556.323	44379
556.686	44441.83
557.05	44591.88
557.413	44788.94
557.776	44885.43
558.139	45089.49
558.502	45296.04
558.865	45383.5
559.228	45583.72
559.59	45707.56
559.953	45838.85
560.316	46155
560.679	46236.13
561.041	46420.3
561.404	46487.87
561.767	46859.39
562.129	46623.46
562.492	47180.96
562.854	47085.82
563.217	47102.77
563.579	47304.35
563.941	47515.42
564.304	47657.11
564.666	48072.92
565.028	48020.04
565.39	48245.12
565.753	48374.6
566.115	48490.53
566.477	48717.42
566.839	48810.52
567.201	49051.65
567.563	48985.66
567.925	49357.18
568.287	49386.78
568.648	49487.34
569.01	49651.86
569.372	49942.02
569.734	49797.17
570.095	50107.44
570.457	50065.41
570.819	50198.51
571.18	50334.33
571.542	50442.57
571.903	50603.7
572.265	50772.73
572.626	50779.51
572.987	50852.28
573.349	51064.93
573.71	51137.92
574.071	51290.91
574.432	51359.16
574.794	51571.36
575.155	51524.35
575.516	51447.97
575.877	51554.18
576.238	51736.32
576.599	51864
576.96	51815.19
577.32	51894.51
577.681	51985.36
578.042	52109.87
578.403	52162.3
578.763	52210.21
579.124	52268.51
579.485	52427.38
579.845	52530.88
580.206	52390.09
580.566	52498.34
580.927	52569.07
581.287	52722.51
581.648	52532.91
582.008	52745.11
582.368	52729.52
582.728	52831.21
583.089	52845.45
583.449	52794.37
583.809	52937.42
584.169	52871.43
584.529	52923.18
584.889	53129.28
585.249	52931.55
585.609	52918.21
585.969	53044.09
586.329	53010.41
586.688	53108.04
587.048	53114.59
587.408	53094.93
587.768	53101.26
588.127	53028.72
588.487	53010.19
588.846	53253.57
589.206	53079.11
589.565	53113.01
589.925	53267.13
590.284	53037.53
590.643	53247.92
591.003	53421.02
591.362	53420.35
591.721	53382.61
592.08	53314.59
592.44	53418.31
592.799	53400.46
593.158	53362.72
593.517	53508.71
593.876	53417.63
594.235	53410.4
594.593	53417.41
594.952	53557.97
595.311	53431.42
595.67	53597.74
596.029	53715.71
596.387	53658.98
596.746	53746.89
597.104	53583.96
597.463	53573.11
597.822	53837.28
598.18	53590.96
598.538	53750.73
598.897	53772.43
599.255	53653.34
599.613	54056.94
599.972	53872.76
600.33	53924.29
600.688	53798.64
601.046	53988.47
601.404	54075.92
601.762	53993.21
602.12	54132.19
602.478	54071.86
602.836	54067.56
603.194	53992.54
603.552	54113.44
603.91	53939.88
604.268	54118.63
604.625	54129.71
604.983	54180.55
605.341	54165.41
605.698	54183.94
606.056	54322.92
606.413	54224.17
606.771	54420.55
607.128	54381.45
607.485	54294.45
607.843	54359.76
608.2	54412.41
608.557	54516.82
608.914	54393.65
609.272	54578.28
609.629	54662.8
609.986	54647.21
610.343	54575.34
610.7	54770.82
611.057	54707.32
611.414	54702.35
611.771	54781.21
612.127	54845.62
612.484	54806.3
612.841	54899.18
613.198	54809.24
613.554	54876.35
613.911	54946.41
614.267	54927.43
614.624	54938.5
614.98	55005.39
615.337	55070.02
615.693	55008.55
616.05	55005.84
616.406	55147.08
616.762	55027.31
617.118	55073.86
617.475	55078.38
617.831	55086.97
618.187	55139.17
618.543	55138.95
618.899	55268.66
619.255	55198.15
619.611	55303.91
619.967	55244.71
620.323	55330.58
620.678	55288.55
621.034	55178.04
621.39	55195.44
621.746	55244.48
622.101	55545.04
622.457	55247.64
622.812	55312.73
623.168	55392.72
623.523	55336.91
623.879	55455.32
624.234	55289.68
624.589	55325.38
624.945	55379.17
625.3	55437.24
625.655	55371.26
626.01	55473.63
626.365	55429.11
626.72	55361.76
627.075	55328.09
627.43	55286.29
627.785	55299.85
628.14	55369.9
628.495	55466.17
628.85	55369.22
629.205	55287.64
629.559	55551.36
629.914	55247.42
630.269	55350.69
630.623	55239.28
630.978	55261.88
631.332	55434.76
631.687	55457.36
632.041	55289
632.396	55348.43
632.75	55212.84
633.104	55319.51
633.459	55116.57
633.813	55204.93
634.167	55202.22
634.521	55227.98
634.875	55204.48
635.229	55198.61
635.583	55034.54
635.937	55031.15
636.291	55013.3
636.645	55097.14
636.999	54994.32
637.352	55090.81
637.706	54942.11
638.06	55051.04
638.413	54943.92
638.767	54857.37
639.121	54968.1
639.474	54773.08
639.828	54921.55
640.181	54901.21
640.534	54897.6
640.888	54803.36
641.241	54702.8
641.594	54757.71
641.947	54881.55
642.301	54714.32
642.654	54789.12
643.007	54781.44
643.36	54737.15
643.713	54697.6
644.066	54810.37
644.419	54610.37
644.771	54398.4
645.124	54219.87
645.477	54120.67
645.83	53958.64
646.182	53910.5
646.535	53823.05
646.888	53875.48
647.24	53674.13
647.593	53929.49
647.945	53818.3
648.298	53673
648.65	53683.39
649.002	53616.73
649.355	53739.43
649.707	53637.52
650.059	53811.75
650.411	54113.66
650.763	54220.78
651.115	54421.45
651.467	54409.25
651.819	54309.14
652.171	54288.57
652.523	54242.25
652.875	54288.57
653.227	54121.8
653.578	54385.07
653.93	54252.87
654.282	54054.45
654.633	54044.29
654.985	54167.22
655.337	54058.07
655.688	54199.99
656.039	54261
656.391	53929.71
656.742	54027.56
657.094	53949.37
657.445	54088.8
657.796	54079.76
658.147	54066.43
658.498	53905.76
658.849	54078.18
659.2	54019.43
659.551	53944.63
659.902	54012.2
660.253	53958.64
660.604	53973.55
660.955	53764.07
661.306	53947.56
661.656	53862.14
662.007	53922.25
662.358	53860.79
662.708	53863.27
663.059	53870.28
663.409	53610.62
663.76	53800.45
664.11	53802.48
664.461	53852.88
664.811	53847
665.161	53841.8
665.511	53757.06
665.862	53761.35
666.212	53750.51
666.562	53827.12
666.912	53729.27
667.262	53701.24
667.612	53643.39
667.962	53693.33
668.312	53710.28
668.662	53763.16
669.011	53692.88
669.361	53557.29
669.711	53591.42
670.06	53564.3
670.41	53469.16
670.76	53378.54
671.109	53513.9
671.459	53411.99
671.808	53367.24
672.157	53518.2
672.507	53250.63
672.856	53328.82
673.205	53347.35
673.554	53398.2
673.904	53181.93
674.253	53449.5
674.602	53313
674.951	52839.8
675.3	52699.01
675.649	53160.01
675.998	53217.19
676.346	53113.24
676.695	53261.03
677.044	53032.56
677.393	53007.48
677.741	53091.77
678.09	53048.15
678.438	52958.21
678.787	52962.96
679.135	52943.98
679.484	52708.73
679.832	52896.52
680.181	52593.93
680.529	52739.46
680.877	52678.45
681.225	52604.55
681.573	52722.29
681.922	52506.7
682.27	52406.14
682.618	52448.39
682.966	52372.69
683.314	52412.01
683.661	52307.38
684.009	52233.94
684.357	52159.36
684.705	52105.13
685.053	52005.02
685.4	51959.59
685.748	51808.19
686.095	51743.33
686.443	51660.62
686.79	51584.01
687.138	51617.68
687.485	51628.08
687.832	51494.97
688.18	51497.01
688.527	51323.68
688.874	51240.07
689.221	51219.5
689.568	51064.02
689.915	51040.97
690.262	51032.84
690.609	50864.93
690.956	50699.29
691.303	50620.19
691.65	50625.17
691.997	50602.12
692.344	50328.45
692.69	50390.82
693.037	50356.25
693.383	50026.76
693.73	50089.59
694.077	49957.39
694.423	49880.78
694.769	49887.11
695.116	49693.21
695.462	49684.17
695.808	49466.78
696.155	49712.42
696.501	49251.19
696.847	49486.66
697.193	49139.33
697.539	49146.11
697.885	48920.35
698.231	48775.95
698.577	48826.8
698.923	48908.6
699.269	48561.27
699.614	48304.78
699.96	48362.85
700.306	48323.08
700.651	48264.55
700.997	48118.79
701.342	48093.03
701.688	47945.69
702.033	47800.83
702.379	47687.39
702.724	47679.03
703.069	47840.15
703.415	47269.77
703.76	47328.3
704.105	47331.69
704.45	47083.56
704.795	47017.58
705.14	46782.33
705.485	46830.01
705.83	46699.85
706.175	46683.8
706.52	46546.63
706.865	46449.91
707.209	46446.74
707.554	46391.38
707.899	46289.01
708.243	46124.95
708.588	46163.81
708.932	45724.05
709.277	45680.89
709.621	45864.84
709.966	45562.93
710.31	45706.88
710.654	45451.06
710.998	45512.98
711.342	45574
711.687	45386.43
712.031	45092.66
712.375	45031.41
712.719	45144.86
713.063	44924.52
713.407	45104.86
713.75	44783.96
714.094	44868.48
714.438	44649.73
714.782	44796.39
715.125	44564.53
715.469	44526.8
715.812	44286.8
716.156	44143.3
716.499	44179.23
716.843	44146.92
717.186	43826.47
717.53	44063.3
717.873	44013.59
718.216	43957.54
718.559	43708.06
718.902	43396.43
719.246	43578.57
719.589	43410.44
719.932	43328.41
720.275	43407.5
720.617	43219.71
720.96	43192.82
721.303	43087.06
721.646	43105.82
721.989	42896.56
722.331	42989.89
722.674	42948.76
723.016	42886.16
723.359	42817.24
723.701	42842.77
724.044	42508.77
724.386	42419.96
724.729	42704.92
725.071	42471.48
725.413	42436
725.755	42340.64
726.097	42130.47
726.439	41939.52
726.782	42019.06
727.124	42139.74
727.465	41973.87
727.807	42002.79
728.149	41826.3
728.491	41681.22
728.833	41846.64
729.175	41653.65
729.516	41673.31
729.858	41609.81
730.199	41620.88
730.541	41452.07
730.882	41400.55
731.224	41499.3
731.565	41203.94
731.906	41197.17
732.248	41256.37
732.589	41017.96
732.93	41024.74
733.271	40931.86
733.612	40997.17
733.953	40922.14
734.294	40798.76
734.635	40653.68
734.976	40728.48
735.317	40637.18
735.658	40553.34
735.999	40442.16
736.339	40397.41
736.68	40591.98
737.021	40404.64
737.361	40231.32
737.702	40578.65
738.042	40234.25
738.383	40177.08
738.723	40225.89
739.063	40000.36
739.404	40213.69
739.744	40004.2
740.084	39874.04
740.424	39874.04
740.764	39821.38
741.104	39834.49
741.444	39738.67
741.784	39548.17
742.124	39700.71
742.464	39634.04
742.804	39555.4
743.143	39505.01
743.483	39436.08
743.823	39237.67
744.162	39112.02
744.502	39429.53
744.841	39107.5
745.181	39387.27
745.52	38999.26
745.86	39129.42
746.199	39032.93
746.538	38962.42
746.877	39020.05
747.216	38915.42
747.556	38900.5
747.895	38933.04
748.234	38688.08
748.573	38680.85
748.911	38590.91
749.25	38612.6
749.589	38344.36
749.928	38472.04
750.267	38433.4
750.605	38305.94
750.944	38210.13
751.283	38009
751.621	38144.82
751.96	37903.01
752.298	37851.72
752.636	38066.4
752.975	37839.97
753.313	37684.72
753.651	37780.31
753.989	37542.8
754.327	37438.62
754.666	37313.88
755.004	37368.11
755.342	37370.6
755.679	37215.35
756.017	37063.04
756.355	37108.23
756.693	37128.12
757.031	37027.11
757.368	36876.83
757.706	36704.85
758.044	36676.61
758.381	36600.45
758.719	36415.37
759.056	36603.16
759.394	36469.83
759.731	36188.94
760.068	36073.91
760.405	35908.94
760.743	35706.91
761.08	35943.07
761.417	35798.66
761.754	35615.17
762.091	35399.35
762.428	35464.66
762.765	35179.92
763.102	35358.22
763.438	35110.55
763.775	34996.42
764.112	35001.62
764.449	34976.54
764.785	34852.02
765.122	34584.23
765.458	34530.9
765.795	34294.07
766.131	34525.48
766.467	34387.63
766.804	34095.88
767.14	33800.75
767.476	33887.53
767.812	33809.79
768.148	33760.75
768.485	33637.36
768.821	33462.23
769.157	33499.74
769.492	33227.21
769.828	33426.52
770.164	32996.7
770.5	32969.59
770.836	32976.59
771.171	32754
771.507	32582.7
771.842	32338.42
772.178	32495.25
772.513	32290.51
772.849	32293.44
773.184	32102.49
773.519	32015.49
773.855	31860.01
774.19	31923.51
774.525	31582.28
774.86	31570.98
775.195	31637.19
775.53	31384.77
775.865	31306.58
776.2	31091.22
776.535	30770.55
776.87	30814.84
777.205	30768.06
777.539	30600.83
777.874	30761.73
778.209	30411.23
778.543	30425.02
778.878	30113.16
779.212	30232.93
779.547	29943.9
779.881	30105.25
780.215	29898.71
780.55	29883.56
780.884	29639.73
781.218	29634.53
781.552	29608.77
781.886	29439.96
782.22	29172.4
782.554	29209.46
782.888	28980.99
783.222	28880.2
783.556	28558.4
783.889	28783.93
784.223	28392.53
784.557	28430.5
784.89	28476.37
785.224	28284.74
785.557	28121.58
785.891	28128.13
786.224	27912.54
786.558	27905.54
786.891	27751.87
787.224	27653.34
787.557	27597.3
787.891	27552.55
788.224	27541.93
788.557	27381.26
788.89	27304.2
789.223	27332.67
789.556	27060.36
789.888	27117.76
790.221	26882.74
790.554	26738.56
790.887	26757.09
791.219	26725.68
791.552	26490.21
791.884	26415.18
792.217	26282.53
792.549	26223.32
792.882	26043.44
793.214	25968.41
793.546	25901.52
793.879	25934.29
794.211	25769.1
794.543	25827.4
794.875	25616.56
795.207	25728.19
795.539	25429.67
795.871	25530.68
796.203	25332.95
796.535	25074.65
796.867	25047.08
797.198	25085.72
797.53	25022
797.862	24934.54
798.193	24908.78
798.525	24680.31
798.856	24732.74
799.188	24542.46
799.519	24509.02
799.85	24214.34
800.182	24344.05
800.513	24306.76
800.844	24087.11
801.175	24180.44
801.506	24149.93
801.837	23870.62
802.168	23932.53
802.499	23855.93
802.83	23650.06
803.161	23705.65
803.491	23633.11
803.822	23565.76
804.153	23448.93
804.483	23347.69
804.814	23164.87
805.145	23183.18
805.475	23183.85
805.805	23109.05
806.136	23153.12
806.466	23146.79
806.796	23063.4
807.126	22841.49
807.457	22885.33
807.787	22934.37
808.117	22560.59
808.447	22693.25
808.777	22669.29
809.107	22505.68
809.436	22411.9
809.766	22477.43
810.096	22230.43
810.426	22199.25
810.755	22236.76
811.085	22184.56
811.414	22128.29
811.744	21982.08
812.073	21962.42
812.403	21875.64
812.732	21805.81
813.061	21792.7
813.39	21636.32
813.719	21543.9
814.049	21752.25
814.378	21588.42
814.707	21541.41
815.036	21530.11
815.365	21397.69
815.693	21205.37
816.022	21190.23
816.351	21127.41
816.68	21037.47
817.008	21087.19
817.337	20906.63
817.665	20860.75
817.994	21019.39
818.322	20947.53
818.651	20785.95
818.979	20627.54
819.307	20758.15
819.636	20716.8
819.964	20542.79
820.292	20603.13
820.62	20579.18
820.948	20627.54
821.276	20561.55
821.604	20576.24
821.932	20590.48
822.259	20482
822.587	20395.45
822.915	20426.86
823.243	20528.33
823.57	20507.09
823.898	20491.04
824.225	20437.03
824.553	20431.38
824.88	20446.52
825.207	20542.79
825.535	20440.87
825.862	20469.8
826.189	20397.26
826.516	20476.81
826.843	20638.61
827.17	20390.71
827.497	20501.21
827.824	20512.29
828.151	20478.39
828.478	20415.34
828.805	20444.94
829.131	20318.62
829.458	20335.79
829.785	20300.54
830.111	20409.92
830.438	20415.56
830.764	20352.06
831.09	20411.27
831.417	20326.75
831.743	20284.95
832.069	20317.04
832.395	20247.66
832.722	20173.99
833.048	20125.4
833.374	20191.16
833.7	20202.69
834.026	20086.08
834.351	20177.38
834.677	20188
835.003	20170.6
835.329	20114.78
835.654	20125.18
835.98	19978.29
836.306	20006.99
836.631	19858.07
836.956	19973.99
837.282	19906.88
837.607	19901.23
837.932	19785.3
838.258	19864.39
838.583	19819.87
838.908	19708.69
839.233	19693.32
839.558	19715.7
839.883	19617.85
840.208	19523.16
840.533	19520
840.858	19554.57
841.182	19536.72
841.507	19527.9
841.832	19390.51
842.156	19347.34
842.481	19346.21
842.805	19340.11
843.13	19199.78
843.454	19112.1
843.778	19194.13
844.103	19090.85
844.427	19029.84
844.751	19014.02
845.075	19025.32
845.399	18925.21
845.723	18855.61
846.047	18743.29
846.371	18660.58
846.695	18664.2
847.019	18579
847.343	18460.36
847.666	18302.85
847.99	18254.49
848.313	18199.8
848.637	18138.11
848.96	18186.24
849.284	18029.86
849.607	17888.85
849.931	17871.45
850.254	17838.91
850.577	17800.27
850.9	17511.46
851.223	17606.83
851.546	17464
851.869	17312.37
852.192	17445.02
852.515	17256.33
852.838	17139.72
853.161	17235.76
853.483	17131.58
853.806	17108.08
854.129	16939.05
854.451	16989.89
854.774	16906.05
855.096	16870.57
855.419	16817.47
855.741	16815.21
856.063	16678.49
856.385	16562.33
856.708	16542.67
857.03	16504.26
857.352	16478.04
857.674	16444.37
857.996	16324.37
858.318	16264.26
858.64	16214.32
858.961	16290.93
859.283	16143.81
859.605	16017.94
859.926	16099.52
860.248	16157.37
860.57	16052.97
860.891	15929.58
861.212	15918.96
861.534	15843.03
861.855	15937.72
862.176	15870.15
862.498	15829.02
862.819	15798.06
863.14	15729.36
863.461	15773.88
863.782	15699.53
864.103	15732.3
864.424	15506.77
864.745	15565.97
865.065	15544.05
865.386	15478.07
865.707	15454.11
866.027	15445.53
866.348	15438.97
866.668	15416.37
866.989	15377.05
867.309	15319.43
867.63	15275.36
867.95	15226.77
868.27	15236.04
868.59	15236.04
868.91	15149.49
869.23	15130.05
869.55	15056.38
869.87	15200.56
870.19	15133.9
870.51	15167.12
870.83	15133.67
871.15	14977.97
871.469	14999.89
871.789	15013.67
872.109	14991.53
872.428	14873.56
872.748	14902.94
873.067	14942.04
873.386	14919.21
873.706	14973.45
874.025	14838.76
874.344	14711.31
874.663	14768.03
874.982	14789.05
875.301	14696.39
875.62	14637.86
875.939	14688.94
876.258	14605.1
876.577	14549.05
876.896	14587.24
877.214	14544.98
877.533	14508.6
877.852	14492.33
878.17	14499.56
878.489	14457.53
878.807	14460.92
879.125	14441.71
879.444	14419.34
879.762	14324.2
880.08	14269.74
880.398	14228.38
880.716	14204.88
881.034	14224.99
881.352	14240.13
881.67	14137.76
881.988	14126.24
882.306	14100.48
882.624	14086.47
882.941	14065.9
883.259	13977.99
883.577	13868.39
883.894	13924.21
884.212	13929.18
884.529	13833.59
884.846	13805.34
885.164	13815.51
885.481	13755.63
885.798	13723.76
886.115	13651.22
886.432	13773.48
886.75	13628.85
887.067	13627.04
887.383	13518.57
887.7	13596.54
888.017	13444.67
888.334	13418.46
888.651	13447.16
888.967	13449.87
889.284	13310.89
889.6	13318.35
889.917	13186.38
890.233	13282.42
890.55	13175.08
890.866	13171.91
891.182	13130.56
891.498	13072.71
891.815	13001.3
892.131	13015.53
892.447	12949.09
892.763	12940.96
893.079	12843.33
893.395	12839.72
893.71	12764.47
894.026	12765.14
894.342	12741.42
894.657	12667.52
894.973	12581.19
895.289	12605.6
895.604	12572.61
895.92	12564.92
896.235	12369.9
896.55	12430.92
896.865	12442.22
897.181	12328.77
897.496	12388.88
897.811	12303.01
898.126	12195.89
898.441	12283.35
898.756	12170.81
899.071	12061.89
899.386	12129.23
899.7	12082.22
900.015	12039.97
900.33	11882.68
900.644	11931.27
900.959	11909.35
901.273	11803.36
901.588	11712.52
901.902	11688.79
902.216	11632.52
902.531	11663.48
902.845	11569.02
903.159	11514.56
903.473	11521.34
903.787	11428.23
904.101	11347.55
904.415	11324.05
904.729	11310.49
905.042	11241.34
905.356	11268.23
905.67	11182.81
905.984	11141.23
906.297	11118.86
906.611	10988.24
906.924	11020.56
907.237	10984.85
907.551	10943.95
907.864	10876.61
908.177	10883.61
908.491	10841.81
908.804	10777.17
909.117	10694.46
909.43	10586.67
909.743	10653.79
910.056	10584.18
910.368	10473.68
910.681	10521.59
910.994	10498.09
911.307	10440.69
911.619	10307.81
911.932	10361.37
912.244	10253.57
912.557	10119.34
912.869	10174.93
913.181	10172.22
913.494	10101.71
913.806	10030.98
914.118	10071.43
914.43	9923.86
914.742	9982.84
915.054	9802.28
915.366	9836.18
915.678	9811.32
915.99	9792.57
916.302	9733.81
916.613	9646.81
916.925	9668.5
917.236	9644.1
917.548	9594.61
917.859	9564.32
918.171	9489.07
918.482	9401.84
918.794	9424.22
919.105	9375.63
919.416	9329.08
919.727	9283.2
920.038	9345.35
920.349	9135.64
920.66	9129.99
920.971	9140.61
921.282	9090.21
921.593	9032.81
921.903	8941.97
922.214	8937.22
922.525	8930.67
922.835	8884.12
923.146	8800.05
923.456	8785.36
923.767	8738.58
924.077	8725.02
924.387	8738.13
924.697	8646.83
925.008	8662.43
925.318	8565.03
925.628	8616.33
925.938	8505.14
926.248	8472.6
926.558	8421.53
926.867	8380.4
927.177	8358.25
927.487	8298.14
927.796	8205.94
928.106	8260.4
928.416	8223.12
928.725	8204.81
929.034	8123.91
929.344	8111.48
929.653	8082.56
929.962	8032.61
930.271	8005.04
930.581	7970.02
930.89	7914.88
931.199	7861.77
931.508	7829
931.817	7846.86
932.125	7825.84
932.434	7717.59
932.743	7612.06
933.051	7655.22
933.36	7686.18
933.669	7631.49
933.977	7566.41
934.286	7565.06
934.594	7537.49
934.902	7517.37
935.21	7485.06
935.519	7446.41
935.827	7336.81
936.135	7345.85
936.443	7315.34
936.751	7278.96
937.059	7268.79
937.367	7214.33
937.674	7207.32
937.982	7173.65
938.29	7156.48
938.597	7110.6
938.905	7028.35
939.213	6992.19
939.52	6954.22
939.827	6989.48
940.135	6905.86
940.442	6866.32
940.749	6867.45
941.056	6875.81
941.363	6780.44
941.67	6773.44
941.977	6702.25
942.284	6668.13
942.591	6684.85
942.898	6630.84
943.205	6698.64
943.511	6621.35
943.818	6584.97
944.125	6493.22
944.431	6518.08
944.738	6512.65
945.044	6390.4
945.35	6420.23
945.657	6372.54
945.963	6372.09
946.269	6331.19
946.575	6335.71
946.881	6253.9
947.187	6234.24
947.493	6243.06
947.799	6220.23
948.105	6115.15
948.41	6106.11
948.716	6111.08
949.022	6071.54
949.327	6055.94
949.633	6018.43
949.938	6043.51
950.244	6008.26
950.549	5958.54
950.854	5922.84
951.16	5927.36
951.465	5868.38
951.77	5823.41
952.075	5829.28
952.38	5809.62
952.685	5761.03
952.99	5704.31
953.294	5729.85
953.599	5673.81
953.904	5670.64
954.209	5622.51
954.513	5635.39
954.818	5581.6
955.122	5576.41
955.426	5559.01
955.731	5485.79
956.035	5439.01
956.339	5433.59
956.643	5419.12
956.948	5414.83
957.252	5393.59
957.556	5364.44
957.86	5359.46
958.163	5353.81
958.467	5253.7
958.771	5279.92
959.075	5209.86
959.378	5198.11
959.682	5211.9
959.985	5228.17
960.289	5148.4
960.592	5112.46
960.896	5102.07
961.199	5040.38
961.502	5016.87
961.805	5018.23
962.108	5027.27
962.411	4926.93
962.714	4957.21
963.017	4908.18
963.32	4902.3
963.623	4921.28
963.926	4935.75
964.228	4852.36
964.531	4879.25
964.833	4841.51
965.136	4752.93
965.438	4744.79
965.741	4766.71
966.043	4706.83
966.345	4708.86
966.648	4712.47
966.95	4674.28
967.252	4629.09
967.554	4595.19
967.856	4639.48
968.158	4554.74
968.46	4565.59
968.761	4529.65
969.063	4540.05
969.365	4548.64
969.666	4451.69
969.968	4415.99
970.269	4424.12
970.571	4398.13
970.872	4401.52
971.174	4331.24
971.475	4359.49
971.776	4328.08
972.077	4275.88
972.378	4281.3
972.679	4310
972.98	4285.82
973.281	4248.08
973.582	4218.25
973.883	4179.61
974.183	4192.71
974.484	4127.86
974.785	4145.26
975.085	4174.18
975.386	4120.17
975.686	4091.02
975.986	4071.14
976.287	4025.49
976.587	3980.74
976.887	4014.19
977.187	3975.32
977.487	3972.83
977.787	4013.28
978.087	3900.74
978.387	3924.25
978.687	3922.44
978.987	3878.37
979.286	3804.7
979.586	3843.57
979.885	3843.8
980.185	3780.3
980.484	3793.4
980.784	3737.59
981.083	3726.51
981.382	3715.21
981.682	3776.23
981.981	3709.79
982.28	3684.48
982.579	3637.02
982.878	3632.73
983.177	3603.13
983.475	3621.2
983.774	3620.3
984.073	3550.47
984.372	3577.82
984.67	3566.52
984.969	3542.34
985.267	3502.79
985.566	3518.38
985.864	3469.57
986.162	3470.02
986.461	3450.14
986.759	3412.4
987.057	3447.2
987.355	3430.02
987.653	3406.52
987.951	3353.64
988.249	3366.07
988.547	3365.84
988.844	3338.73
989.142	3326.52
989.44	3282.46
989.737	3280.42
990.035	3262.34
990.332	3257.6
990.63	3244.94
990.927	3242.91
991.224	3203.59
991.521	3172.4
991.819	3171.5
992.116	3161.78
992.413	3149.35
992.71	3095.34
993.006	3118.62
993.303	3093.53
993.6	3093.53
993.897	3040.2
994.193	3043.59
994.49	3016.47
994.787	2996.36
995.083	3009.24
995.379	2937.38
995.676	2948.91
995.972	2933.54
996.268	2922.47
996.565	2902.58
996.861	2910.26
997.157	2892.86
997.453	2873.2
997.749	2848.12
998.044	2837.27
998.34	2826.2
998.636	2817.84
998.932	2841.56
999.227	2765.86
999.523	2751.85
999.818	2775.8
1000.114	2756.59
1000.409	2721.11
1000.704	2715.24
1001	2648.8
1001.295	2657.61
1001.59	2610.16
1001.885	2655.35
1002.18	2612.42
1002.475	2618.97
1002.77	2578.07
1003.065	2577.39
1003.359	2605.41
1003.654	2552.53
1003.949	2533.78
1004.243	2561.57
1004.538	2509.82
1004.832	2511.18
1005.127	2507.56
1005.421	2490.61
1005.715	2444.06
1006.009	2495.36
1006.304	2414.23
1006.598	2391.63
1006.892	2384.17
1007.186	2380.56
1007.48	2375.36
1007.773	2340.56
1008.067	2341.01
1008.361	2322.03
1008.655	2300.56
1008.948	2308.47
1009.242	2277.06
1009.535	2262.82
1009.829	2267.57
1010.122	2218.98
1010.415	2243.39
1010.708	2192.09
1011.001	2200.45
1011.295	2183.5
1011.588	2184.63
1011.881	2139.44
1012.173	2119.55
1012.466	2179.89
1012.759	2131.07
1013.052	2103.05
1013.344	2109.83
1013.637	2097.4
1013.93	2075.93
1014.222	2034.58
1014.514	2050.85
1014.807	2045.65
1015.099	2031.42
1015.391	1998.2
1015.683	2005.2
1015.976	1979.44
1016.268	2017.4
1016.56	1947.8
1016.851	1931.31
1017.143	1932.66
1017.435	1909.61
1017.727	1928.82
1018.018	1889.95
1018.31	1898.76
1018.602	1886.33
1018.893	1868.26
1019.185	1814.02
1019.476	1815.83
1019.767	1843.62
1020.058	1818.09
1020.35	1791.2
1020.641	1792.33
1020.932	1759.56
1021.223	1768.6
1021.514	1778.99
1021.804	1723.63
1022.095	1738.99
1022.386	1715.72
1022.677	1686.11
1022.967	1684.53
1023.258	1708.71
1023.548	1660.35
1023.839	1654.48
1024.129	1630.97
1024.419	1652.22
1024.709	1630.75
1025	1593.69
1025.29	1610.41
1025.58	1590.75
1025.87	1597.3
1026.16	1584.42
1026.449	1541.71
1026.739	1555.95
1027.029	1496.29
1027.319	1525.67
1027.608	1523.18
1027.898	1496.74
1028.187	1480.02
1028.477	1484.54
1028.766	1468.04
1029.055	1450.41
1029.344	1442.05
1029.634	1428.04
1029.923	1432.34
1030.212	1427.14
1030.501	1404.31
1030.79	1382.62
1031.078	1410.87
1031.367	1380.13
1031.656	1361.15
1031.945	1380.59
1032.233	1347.37
1032.522	1359.79
1032.81	1316.86
1033.099	1328.16
1033.387	1284.09
1033.675	1308.72
1033.963	1294.71
1034.251	1285.9
1034.54	1251.55
1034.828	1251.32
1035.116	1259.01
1035.403	1240.02
1035.691	1225.79
1035.979	1225.11
1036.267	1215.84
1036.554	1237.54
1036.842	1202.96
1037.129	1196.41
1037.417	1209.97
1037.704	1170.87
1037.992	1165
1038.279	1163.42
1038.566	1161.83
1038.853	1161.83
1039.14	1161.83
