Data from whiteboard_FLMS001491_00002.txt Node
Date: Wed Feb 08 11:24:54 GMT 2017
User: dcchb
Spectrometer: FLMS00149
Trigger mode: 0
Integration Time (sec): 2.000000E-2
Scans to average: 10
Electric dark correction enabled: true
Nonlinearity correction enabled: false
Boxcar width: 0
XAxis mode: Wavelengths
Number of Pixels in Spectrum: 2048
>>>>>Begin Spectral Data<<<<<
341.393	-6.44
341.776	-6.44
342.16	-6.44
342.543	-73.78
342.927	-84.18
343.31	-68.59
343.693	-85.53
344.077	-64.07
344.46	-55.48
344.843	-63.39
345.226	-34.46
345.61	-21.81
345.993	-16.16
346.376	2.82
346.759	8.93
347.142	44.41
347.525	47.12
347.908	50.06
348.291	77.17
348.674	80.11
349.057	98.87
349.44	133.22
349.823	151.3
350.206	183.84
350.588	240.33
350.971	218.64
351.354	255.02
351.737	294.34
352.119	283.27
352.502	299.31
352.884	278.75
353.267	325.3
353.65	321.91
354.032	342.25
354.414	326.43
354.797	364.4
355.179	361.46
355.562	347.45
355.944	383.15
356.326	387.22
356.709	389.71
357.091	379.09
357.473	402.14
357.855	382.7
358.238	387
358.62	406.2
359.002	394.9
359.384	376.83
359.766	398.29
360.148	387.45
360.53	376.83
360.912	383.15
361.294	391.52
361.676	370.95
362.057	372.31
362.439	391.97
362.821	382.48
363.203	365.98
363.584	382.48
363.966	368.01
364.348	358.07
364.729	378.63
365.111	380.22
365.493	371.85
365.874	373.66
366.256	394.68
366.637	374.79
367.019	377.28
367.4	374.57
367.781	376.15
368.163	380.22
368.544	401.46
368.925	383.15
369.306	359.88
369.688	372.31
370.069	380.89
370.45	381.8
370.831	394.9
371.212	392.42
371.593	400.78
371.974	376.83
372.355	392.65
372.736	386.54
373.117	397.84
373.498	388.13
373.879	364.4
374.26	401.68
374.641	397.16
375.021	379.31
375.402	403.49
375.783	422.25
376.163	440.55
376.544	410.05
376.925	417.28
377.305	416.83
377.686	423.38
378.066	429.48
378.447	436.49
378.827	438.97
379.208	424.73
379.588	424.51
379.968	448.24
380.349	464.51
380.729	448.46
381.109	446.65
381.489	478.74
381.87	429.71
382.25	467.67
382.63	477.84
383.01	457.73
383.39	442.36
383.77	448.24
384.15	471.96
384.53	508.57
384.91	501.79
385.29	465.41
385.67	491.85
386.049	526.65
386.429	509.7
386.809	514
387.189	522.13
387.568	526.2
387.948	537.05
388.328	547.9
388.707	533.66
389.087	536.37
389.466	554.67
389.846	557.84
390.225	564.17
390.605	561.45
390.984	563.49
391.363	583.37
391.743	586.99
392.122	581.34
392.501	611.17
392.881	600.78
393.26	617.95
393.639	623.83
394.018	633.99
394.397	641.23
394.776	664.28
395.155	667.89
395.534	649.81
395.913	652.3
396.292	672.41
396.671	685.07
397.05	685.74
397.429	692.07
397.808	704.5
398.186	738.62
398.565	730.04
398.944	729.36
399.323	749.02
399.701	725.97
400.08	765.29
400.458	756.25
400.837	776.59
401.215	791.5
401.594	816.14
401.972	806.65
402.351	816.81
402.729	857.49
403.107	864.27
403.486	862.69
403.864	878.51
404.242	916.25
404.62	898.39
404.999	939.52
405.377	951.73
405.755	944.72
406.133	960.31
406.511	995.57
406.889	1004.15
407.267	1014.55
407.645	1037.15
408.023	1048.45
408.401	1071.72
408.779	1091.84
409.156	1093.19
409.534	1133.42
409.912	1141.78
410.29	1186.97
410.667	1207.99
411.045	1233.53
411.422	1230.36
411.8	1241.66
412.178	1255.67
412.555	1296.12
412.933	1325.05
413.31	1350.36
413.687	1389
414.065	1387.65
414.442	1377.93
414.819	1435.78
415.197	1443.69
415.574	1475.1
415.951	1485.5
416.328	1495.44
416.705	1512.84
417.082	1525.27
417.46	1554.2
417.837	1610.01
418.214	1619.05
418.591	1642.56
418.967	1636.45
419.344	1664.48
419.721	1690.24
420.098	1692.72
420.475	1709.67
420.852	1740.18
421.228	1768.65
421.605	1760.97
421.982	1798.48
422.358	1820.63
422.735	1846.17
423.111	1855.43
423.488	1885.04
423.864	1876
424.241	1938.82
424.617	1977.46
424.994	1959.84
425.37	1995.77
425.746	2033.73
426.123	2059.49
426.499	2091.36
426.875	2110.34
427.251	2147.85
427.627	2172.26
428.003	2179.04
428.379	2239.6
428.756	2271.47
429.132	2310.56
429.507	2312.59
429.883	2354.4
430.259	2416.55
430.635	2389.43
431.011	2456.09
431.387	2531.8
431.763	2564.57
432.138	2571.57
432.514	2601.63
432.89	2642.76
433.265	2705.58
433.641	2717.1
434.016	2772.92
434.392	2834.84
434.767	2845.69
435.143	2835.29
435.518	2899.92
435.894	2954.84
436.269	2972.92
436.644	3042.52
437.02	3059.47
437.395	3084.55
437.77	3082.52
438.145	3135.85
438.52	3199.12
438.895	3213.36
439.271	3262.63
439.646	3284.77
440.021	3344.21
440.395	3379.91
440.77	3343.3
441.145	3420.36
441.52	3456.75
441.895	3463.98
442.27	3535.61
442.645	3560.02
443.019	3600.92
443.394	3524.77
443.769	3661.26
444.143	3623.97
444.518	3716.63
444.892	3664.2
445.267	3704.42
445.641	3755.72
446.016	3807.47
446.39	3839.79
446.764	3848.6
447.139	3844.53
447.513	3934.92
447.887	3908.71
448.262	3924.98
448.636	3964.3
449.01	4052.89
449.384	4065.99
449.758	4180.12
450.132	4184.64
450.506	4178.31
450.88	4207.01
451.254	4219.44
451.628	4275.03
452.002	4359.09
452.376	4392.54
452.75	4439.32
453.123	4460.56
453.497	4573.78
453.871	4569.03
454.244	4654.23
454.618	4722.7
454.992	4806.31
455.365	4811.06
455.739	4935.12
456.112	4949.36
456.486	5043.82
456.859	5080.88
457.232	5215.12
457.606	5172.63
457.979	5252.4
458.352	5376.24
458.725	5432.29
459.099	5470.7
459.472	5605.62
459.845	5672.51
460.218	5758.15
460.591	5732.62
460.964	5773.07
461.337	5932.16
461.71	6061.65
462.083	6132.61
462.456	6117.92
462.829	6167.63
463.201	6273.62
463.574	6300.29
463.947	6378.93
464.32	6577.12
464.692	6622.99
465.065	6677.9
465.438	6755.87
465.81	6872.02
466.183	6933.72
466.555	7120.38
466.928	7157.89
467.3	7081.28
467.672	7246.93
468.045	7475.62
468.417	7520.14
468.789	7606.01
469.161	7662.74
469.534	7813.92
469.906	7990.19
470.278	8087.58
470.65	8143.85
471.022	8276.05
471.394	8458.87
471.766	8596.05
472.138	8673.33
472.51	8865.42
472.882	8956.94
473.253	9160.55
473.625	9257.27
473.997	9480.77
474.369	9495.23
474.74	9623.81
475.112	9747.2
475.484	9992.62
475.855	10180.41
476.227	10227.87
476.598	10586.73
476.97	10568.42
477.341	10901.75
477.713	11103.78
478.084	11148.07
478.455	11515.97
478.827	11522.3
479.198	11895.39
479.569	11942.4
479.94	12296.74
480.311	12343.52
480.682	12708.03
481.053	12940.79
481.424	13185.08
481.795	13294.9
482.166	13501
482.537	13559.53
482.908	13935.79
483.279	14081.55
483.65	14317.48
484.021	14667.75
484.391	14760.85
484.762	14941.64
485.133	15129.21
485.503	15316.55
485.874	15637.89
486.244	15825.69
486.615	16088.5
486.985	16319.91
487.356	16592.22
487.726	16712.44
488.097	17125.99
488.467	17210.51
488.837	17546.54
489.207	17803.71
489.578	18122.35
489.948	18261.78
490.318	18589
490.688	18566.86
491.058	18925.04
491.428	19130.46
491.798	19287.06
492.168	19845.92
492.538	19927.5
492.908	20163.88
493.278	20421.04
493.648	20404.1
494.017	20768.38
494.387	20964.76
494.757	21080.91
495.126	21348.93
495.496	21378.76
495.866	21698.07
496.235	21824.17
496.605	22084.73
496.974	22221.9
497.344	22498.05
497.713	22574.89
498.082	22774.66
498.452	22981.66
498.821	23110.92
499.19	23117.7
499.559	23422.55
499.928	23668.19
500.298	23716.55
500.667	23909.09
501.036	23897.11
501.405	24148.18
501.774	24220.49
502.143	24384.56
502.512	24496.42
502.88	24667.49
503.249	24808.5
503.618	24934.82
503.987	25078.32
504.356	25238.32
504.724	25393.12
505.093	25639.44
505.462	25760.57
505.83	25964.63
506.199	26171.85
506.567	26443.49
506.936	26343.6
507.304	26715.12
507.672	26953.53
508.041	27046.86
508.409	27333.41
508.777	27538.82
509.145	27718.71
509.514	27708.54
509.882	28144.68
510.25	28209.99
510.618	28443.66
510.986	28579.93
511.354	28998.9
511.722	29196.86
512.09	29461.71
512.458	29517.75
512.826	29803.85
513.193	29965.88
513.561	30141.24
513.929	30414.68
514.297	30647.22
514.664	30767.44
515.032	31017.6
515.4	31324.26
515.767	31423.47
516.135	31543.01
516.502	31503.69
516.869	32187.06
517.237	32284.91
517.604	32220.96
517.972	32688.07
518.339	32800.83
518.706	32845.8
519.073	33138
519.44	33363.3
519.808	33579.8
520.175	33635.16
520.542	34065.88
520.909	34127.8
521.276	34172.32
521.643	34560.11
522.009	34803.27
522.376	35011.17
522.743	35224.5
523.11	35527.99
523.477	35904.03
523.843	35981.54
524.21	36404.58
524.577	36619.94
524.943	36870.1
525.31	36872.82
525.676	37320.94
526.043	37583.31
526.409	37626.24
526.776	38260.8
527.142	38272.1
527.508	38432.1
527.874	38814.23
528.241	38962.93
528.607	39243.37
528.973	39593.65
529.339	39482.46
529.705	40032.05
530.071	40351.14
530.437	40531.7
530.803	40819.15
531.169	41056.66
531.535	41071.12
531.901	41366.03
532.267	41610.32
532.632	41842.4
532.998	41958.11
533.364	42255.05
533.73	42420.47
534.095	42809.61
534.461	42922.6
534.826	43031.75
535.192	43243.5
535.557	43560.78
535.923	43505.86
536.288	43861.11
536.653	44049.8
537.019	44055
537.384	44365.95
537.749	44270.81
538.114	44471.94
538.479	44657.02
538.845	44841.42
539.21	44739.05
539.575	45009.1
539.94	45130.45
540.305	45358.24
540.67	45477.34
541.034	45478.01
541.399	45866.48
541.764	45762.3
542.129	45766.82
542.494	45879.36
542.858	46153.48
543.223	46070.09
543.587	46330.42
543.952	46096.75
544.316	46448.16
544.681	46310.53
545.045	46583.52
545.41	46830.75
545.774	46782.84
546.138	46883.4
546.503	47060.34
546.867	46990.52
547.231	47354.12
547.595	47331.07
547.959	47390.05
548.324	47382.14
548.688	47682.7
549.052	47714.34
549.416	47980.77
549.779	47915.24
550.143	47965.63
550.507	48406.98
550.871	48496.01
551.235	48581.21
551.599	48819.85
551.962	48971.03
552.326	48933.52
552.689	49248.31
553.053	49104.58
553.417	49267.52
553.78	49800.16
554.143	49630.45
554.507	49917.67
554.87	49997.44
555.234	50390.65
555.597	50191.11
555.96	50535.06
556.323	50629.97
556.686	50623.19
557.05	50998.55
557.413	51098.43
557.776	51226.34
558.139	51486.44
558.502	51474.24
558.865	51653.67
559.228	51923.49
559.59	52044.39
559.953	52100.66
560.316	52428.11
560.679	52452.75
561.041	52667.2
561.404	52784.49
561.767	52897.48
562.129	52719.18
562.492	53259.73
562.854	53134.08
563.217	53187.19
563.579	53303.8
563.941	53534.98
564.304	53556.22
564.666	53744.46
565.028	53719.83
565.39	53766.38
565.753	53937.23
566.115	54054.74
566.477	54081.4
566.839	54187.16
567.201	54362.3
567.563	54363.88
567.925	54468.96
568.287	54554.16
568.648	54646.81
569.01	54708.28
569.372	54877.31
569.734	54722.06
570.095	54919.12
570.457	55049.06
570.819	55131.32
571.18	55065.78
571.542	55288.6
571.903	55237.76
572.265	55364.98
572.626	55495.38
572.987	55542.83
573.349	55644.53
573.71	55665.99
574.071	55764.75
574.432	55872.32
574.794	55969.04
575.155	56071.41
575.516	55979.88
575.877	56160.44
576.238	56206.09
576.599	56328.8
576.96	56292.87
577.32	56394.34
577.681	56479.98
578.042	56566.31
578.403	56572.86
578.763	56657.61
579.124	56692.86
579.485	56783.93
579.845	56868.67
580.206	56847.21
580.566	56855.57
580.927	56904.15
581.287	57104.6
581.648	56960.42
582.008	57190.7
582.368	57119.29
582.728	57130.81
583.089	57200.87
583.449	57183.92
583.809	57190.93
584.169	57285.16
584.529	57201.55
584.889	57423.01
585.249	57206.74
585.609	57240.64
585.969	57403.12
586.329	57271.15
586.688	57385.5
587.048	57363.35
587.408	57264.82
587.768	57261.66
588.127	57271.38
588.487	57213.52
588.846	57480.64
589.206	57224.82
589.565	57245.84
589.925	57364.71
590.284	57266.4
590.643	57293.3
591.003	57345.95
591.362	57537.36
591.721	57324.93
592.08	57378.94
592.44	57413.52
592.799	57380.3
593.158	57335.55
593.517	57359.51
593.876	57332.62
594.235	57246.97
594.593	57397.47
594.952	57387.76
595.311	57198.84
595.67	57266.18
596.029	57453.97
596.387	57464.36
596.746	57448.55
597.104	57278.83
597.463	57271.83
597.822	57476.12
598.18	57285.61
598.538	57311.37
598.897	57501.88
599.255	57218.95
599.613	57633.17
599.972	57477.7
600.33	57468.21
600.688	57394.31
601.046	57545.94
601.404	57627.07
601.762	57604.02
602.12	57711.36
602.478	57677.47
602.836	57690.57
603.194	57497.36
603.552	57646.51
603.91	57558.37
604.268	57683.57
604.625	57627.98
604.983	57757.24
605.341	57617.36
605.698	57755.2
606.056	57819.84
606.413	57799.72
606.771	57916.1
607.128	57916.33
607.485	57855.54
607.843	57901.42
608.2	58048.3
608.557	58077.68
608.914	58046.27
609.272	58193.84
609.629	58195.42
609.986	58303.89
610.343	58129.66
610.7	58301.86
611.057	58341.63
611.414	58333.49
611.771	58413.94
612.127	58415.98
612.484	58483.32
612.841	58517.22
613.198	58450.55
613.554	58458.69
613.911	58590.66
614.267	58601.51
614.624	58591.34
614.98	58601.06
615.337	58689.19
615.693	58668.4
616.05	58592.7
616.406	58794.05
616.762	58633.6
617.118	58650.55
617.475	58691.45
617.831	58768.06
618.187	58770.32
618.543	58756.99
618.899	58930.99
619.255	58839.02
619.611	58760.38
619.967	58904.33
620.323	58866.81
620.678	58824.78
621.034	58772.35
621.39	58768.29
621.746	58694.61
622.101	59045.57
622.457	58733.48
622.812	58784.33
623.168	58865.68
623.523	58806.7
623.879	58855.06
624.234	58685.35
624.589	58840.37
624.945	58844.44
625.3	58869.3
625.655	58742.52
626.01	58710.66
626.365	58734.61
626.72	58702.75
627.075	58705.24
627.43	58663.43
627.785	58633.37
628.14	58703.2
628.495	58732.13
628.85	58602.64
629.205	58575.52
629.559	58687.16
629.914	58541.85
630.269	58561.96
630.623	58528.74
630.978	58525.35
631.332	58589.98
631.687	58548.63
632.041	58508.18
632.396	58531.91
632.75	58409.88
633.104	58452.14
633.459	58319.94
633.813	58307.96
634.167	58239.71
634.521	58288.07
634.875	58209.88
635.229	58259.37
635.583	58062.77
635.937	58140.05
636.291	58075.65
636.645	58127.62
636.999	58010.79
637.352	58083.11
637.706	58007.18
638.06	58073.84
638.413	58036.1
638.767	57980.51
639.121	58003.33
639.474	57964.01
639.828	57933.73
640.181	57913.62
640.534	58002.88
640.888	57805.82
641.241	57744.81
641.594	57783.45
641.947	57817.58
642.301	57684.92
642.654	57763.34
643.007	57794.3
643.36	57740.97
643.713	57667.75
644.066	57829.1
644.419	57531.71
644.771	57499.39
645.124	57220.3
645.477	57256.01
645.83	57016.47
646.182	56993.64
646.535	56849.01
646.888	56825.96
647.24	56682.46
647.593	56851.5
647.945	56766.53
648.298	56613.99
648.65	56515.92
649.002	56530.6
649.355	56629.13
649.707	56638.4
650.059	56760.65
650.411	57061.66
650.763	57094.66
651.115	57277.93
651.467	57128.55
651.819	57159.51
652.171	57009.46
652.523	57006.52
652.875	57009.01
653.227	56922.68
653.578	57059.86
653.93	57069.35
654.282	56762.01
654.633	56826.19
654.985	56898.05
655.337	56889.92
655.688	56771.95
656.039	56868.22
656.391	56687.44
656.742	56685.85
657.094	56698.74
657.445	56777.15
657.796	56684.95
658.147	56637.95
658.498	56564.05
658.849	56685.18
659.2	56488.8
659.551	56524.73
659.902	56551.17
660.253	56487.44
660.604	56522.69
660.955	56285.86
661.306	56446.76
661.656	56310.5
662.007	56344.85
662.358	56316.6
662.708	56376.71
663.059	56258.75
663.409	56116.38
663.76	56299.42
664.11	56268.69
664.461	56279.31
664.811	56250.61
665.161	56143.72
665.511	56193.66
665.862	56193.89
666.212	56263.94
666.562	56184.85
666.912	56133.1
667.262	56074.8
667.612	56098.52
667.962	56173.33
668.312	56028.47
668.662	56150.28
669.011	55951.86
669.361	56081.8
669.711	56088.13
670.06	56000.22
670.41	56021.69
670.76	55942.14
671.109	56035.02
671.459	55913.45
671.808	55948.7
672.157	55961.58
672.507	55731.3
672.856	55761.36
673.205	55906.89
673.554	56000.9
673.904	55886.33
674.253	55983.27
674.602	55781.7
674.951	55485.21
675.3	55364.31
675.649	55736.73
675.998	55747.8
676.346	55677.75
676.695	55810.4
677.044	55594.81
677.393	55610.4
677.741	55761.13
678.09	55661.7
678.438	55601.14
678.787	55620.12
679.135	55600.91
679.484	55309.39
679.832	55548.03
680.181	55327.7
680.529	55381.26
680.877	55343.97
681.225	55279.11
681.573	55457.64
681.922	55188.49
682.27	55153.69
682.618	55174.71
682.966	55089.29
683.314	55050.87
683.661	54950.76
684.009	54809.52
684.357	54782.63
684.705	54774.72
685.053	54741.95
685.4	54654.27
685.748	54517.32
686.095	54487.72
686.443	54478.45
686.79	54381.96
687.138	54408.17
687.485	54351.23
687.832	54203.43
688.18	54264.22
688.527	53986.94
688.874	54078.24
689.221	53963.67
689.568	53893.16
689.915	53719.83
690.262	53750.79
690.609	53698.14
690.956	53547.63
691.303	53571.59
691.65	53424.02
691.997	53451.81
692.344	53185.61
692.69	53181.54
693.037	53115.78
693.383	52923.02
693.73	53082.56
694.077	52836.46
694.423	52785.62
694.769	52716.24
695.116	52695.22
695.462	52715.79
695.808	52511.73
696.155	52539.07
696.501	52295.46
696.847	52276.48
697.193	52008.69
697.539	52124.17
697.885	51971.4
698.231	51869.48
698.577	51762.14
698.923	51714.91
699.269	51638.08
699.614	51402.38
699.96	51432.66
700.306	51403.06
700.651	51192.44
700.997	51158.77
701.342	51034.93
701.688	50981.15
702.033	50925.55
702.379	50915.84
702.724	50811.88
703.069	50882.39
703.415	50415.51
703.76	50538.45
704.105	50464.55
704.45	50484.66
704.795	50235.18
705.14	50214.61
705.485	50102.07
705.83	49854.4
706.175	49975.07
706.52	49902.98
706.865	49684
707.209	49708.86
707.554	49637.23
707.899	49665.47
708.243	49419.38
708.588	49393.84
708.932	49111.59
709.277	49067.75
709.621	49058.94
709.966	48923.57
710.31	48925.38
710.654	48628.89
710.998	48668.44
711.342	48632.28
711.687	48547.99
712.031	48315
712.375	48162.24
712.719	48169.02
713.063	48081.56
713.407	48176.93
713.75	47939.42
714.094	47936.48
714.438	47855.8
714.782	47789.82
715.125	47590.95
715.469	47835.01
715.812	47482.71
716.156	47460.56
716.499	47394.12
716.843	47373.1
717.186	46999.33
717.53	47160.68
717.873	47070.74
718.216	47019.44
718.559	46708.94
718.902	46517.76
719.246	46719.11
719.589	46534.26
719.932	46388.72
720.275	46370.87
720.617	46369.06
720.96	46180.59
721.303	46142.4
721.646	46243.19
721.989	46042.74
722.331	46079.13
722.674	46042.74
723.016	45953.48
723.359	45878.23
723.701	45900.83
724.044	45611.57
724.386	45378.81
724.729	45603.89
725.071	45338.13
725.413	45299.03
725.755	45239.6
726.097	45226.04
726.439	45035.76
726.782	45149.66
727.124	45225.59
727.465	44889.78
727.807	44963.9
728.149	44743.8
728.491	44727.98
728.833	44785.38
729.175	44652.5
729.516	44432.17
729.858	44346.29
730.199	44399.4
730.541	44329.34
730.882	44373.18
731.224	44385.16
731.565	44113.76
731.906	43969.8
732.248	44124.38
732.589	43738.4
732.93	43395.58
733.271	43572.53
733.612	43566.2
733.953	43565.52
734.294	43566.65
734.635	43299.99
734.976	43383.61
735.317	43320.33
735.658	43229.48
735.999	43202.82
736.339	43188.36
736.68	43107.45
737.021	43096.83
737.361	42844.64
737.702	43035.59
738.042	42810.74
738.383	42681.02
738.723	42735.71
739.063	42513.12
739.404	42638.54
739.744	42449.39
740.084	42382.28
740.424	42416.62
740.764	42154.71
741.104	42313.35
741.444	42152
741.784	42010.99
742.124	41915.17
742.464	41971.44
742.804	41857.77
743.143	41789.52
743.483	41908.39
743.823	41594.73
744.162	41494.39
744.502	41528.06
744.841	41289.42
745.181	41467.27
745.52	41363.77
745.86	41248.07
746.199	41096.89
746.538	41176.88
746.877	41250.78
747.216	41171.46
747.556	40942.77
747.895	40914.07
748.234	40846.72
748.573	40646.73
748.911	40607.41
749.25	40545.71
749.589	40365.83
749.928	40444.25
750.267	40599.5
750.605	40422.33
750.944	40339.39
751.283	40136.23
751.621	40139.85
751.96	39826.86
752.298	39740.99
752.636	39768.33
752.975	39677.26
753.313	39592.74
753.651	39672.29
753.989	39448.12
754.327	39441.11
754.666	39150.5
755.004	39274.33
755.342	39112.98
755.679	39025.08
756.017	38942.14
756.355	38920.67
756.693	38837.74
757.031	38869.15
757.368	38573.34
757.706	38585.54
758.044	38448.59
758.381	38435.94
758.719	38283.17
759.056	38240.24
759.394	38179.22
759.731	37941.71
760.068	37912.56
760.405	37767.03
760.743	37522.52
761.08	37702.17
761.417	37393.25
761.754	37366.36
762.091	37310.32
762.428	37058.12
762.765	36944
763.102	37104.22
763.438	36853.61
763.775	36710.11
764.112	36560.06
764.449	36612.94
764.785	36442.09
765.122	36292.27
765.458	36258.14
765.795	36019.73
766.131	36051.82
766.467	35785.61
766.804	35778.38
767.14	35558.95
767.476	35656.35
767.812	35362.57
768.148	35384.49
768.485	35148.57
768.821	35072.86
769.157	34835.81
769.492	34902.47
769.828	34815.47
770.164	34381.58
770.5	34346.55
770.836	34372.54
771.171	34237.86
771.507	34114.7
771.842	33860.92
772.178	33882.84
772.513	33707.7
772.849	33698.44
773.184	33454.6
773.519	33394.72
773.855	33189.75
774.19	33124.44
774.525	32937.55
774.86	33043.99
775.195	32782.3
775.53	32708.63
775.865	32549.77
776.2	32268.87
776.535	32109.33
776.87	32193.16
777.205	31989.33
777.539	31867.98
777.874	31881.08
778.209	31643.35
778.543	31472.96
778.878	31336.92
779.212	31431.38
779.547	31126.53
779.881	31135.57
780.215	30909.13
780.55	30976.02
780.884	30733.77
781.218	30692.64
781.552	30565.64
781.886	30372.2
782.22	30248.81
782.554	30079.1
782.888	29922.49
783.222	29597.53
783.556	29585.1
783.889	29651.08
784.223	29458.55
784.557	29364.31
784.89	29296.74
785.224	29214.71
785.557	29082.74
785.891	28887.26
786.224	28746.25
786.558	28790.54
786.891	28604.56
787.224	28449.53
787.557	28491.12
787.891	28452.47
788.224	28352.14
788.557	28271.69
788.89	27988.76
789.223	28084.12
789.556	27817.91
789.888	27775.65
790.221	27728.88
790.554	27489.79
790.887	27610.91
791.219	27431.71
791.552	27165.05
791.884	27230.58
792.217	26983.58
792.549	26986.52
792.882	26659.53
793.214	26669.02
793.546	26659.3
793.879	26605.06
794.211	26401.68
794.543	26493.88
794.875	26342.47
795.207	26408.01
795.539	26269.7
795.871	26154
796.203	25869.94
796.535	25787.23
796.867	25683.28
797.198	25626.11
797.53	25652.55
797.862	25431.99
798.193	25540.68
798.525	25331.42
798.856	25377.07
799.188	25079.23
799.519	24985.67
799.85	24765.79
800.182	24920.14
800.513	24923.53
800.844	24713.36
801.175	24693.7
801.506	24693.7
801.837	24567.83
802.168	24587.26
802.499	24446.7
802.83	24444.44
803.161	24389.3
803.491	24296.42
803.822	24346.59
804.153	24207.39
804.483	23937.11
804.814	23871.8
805.145	23867.28
805.475	23799.94
805.805	23761.3
806.136	23608.98
806.466	23692.82
806.796	23666.61
807.126	23471.59
807.457	23510.23
807.787	23498.7
808.117	23336.67
808.447	23271.14
808.777	23391.59
809.107	23335.32
809.436	23129.45
809.766	23202.21
810.096	23073.63
810.426	23030.24
810.755	23076.57
811.085	22945.95
811.414	22815.33
811.744	22773.98
812.073	22682.45
812.403	22734.43
812.732	22615.56
813.061	22665.73
813.39	22511.16
813.719	22493.76
814.049	22565.4
814.378	22438.62
814.707	22313.42
815.036	22412.18
815.365	22218.29
815.693	21945.52
816.022	22019.2
816.351	21971.29
816.68	21836.37
817.008	22006.99
817.337	21697.4
817.665	21689.49
817.994	21751.18
818.322	21811.06
818.651	21551.64
818.979	21500.56
819.307	21574.91
819.636	21452.43
819.964	21393
820.292	21429.83
820.62	21307.35
820.948	21248.82
821.276	21395.48
821.604	21330.63
821.932	21308.25
822.259	21342.15
822.587	21253.34
822.915	21142.38
823.243	21233
823.57	21189.61
823.898	21237.52
824.225	21156.39
824.553	21009.96
824.88	21059.67
825.207	21163.17
825.535	21203.62
825.862	21193.45
826.189	21039.56
826.516	21177.86
826.843	21129.95
827.17	21241.36
827.497	21169.95
827.824	21155.94
828.151	21254.02
828.478	21103.51
828.805	21198.65
829.131	21058.54
829.458	21168.14
829.785	20857.19
830.111	20903.29
830.438	21017.41
830.764	20924.99
831.09	21082.95
831.417	20850.64
831.743	20945.1
832.069	20939.22
832.395	20810.19
832.722	20897.64
833.048	20781.71
833.374	20725.44
833.7	20644.77
834.026	20663.98
834.351	20706.01
834.677	20614.71
835.003	20697.87
835.329	20666.01
835.654	20529.97
835.98	20527.48
836.306	20527.48
836.631	20412.46
836.956	20463.3
837.282	20417.2
837.607	20266.25
837.932	20253.82
838.258	20208.85
838.583	20135.4
838.908	20082.3
839.233	20038.68
839.558	20027.16
839.883	20015.18
840.208	19928.63
840.533	19946.26
840.858	19949.42
841.182	19899.7
841.507	19836.2
841.832	19743.77
842.156	19723.66
842.481	19614.96
842.805	19570.22
843.13	19626.04
843.454	19571.58
843.778	19488.64
844.103	19473.27
844.427	19451.58
844.751	19440.96
845.075	19335.65
845.399	19214.3
845.723	19189.66
846.047	19145.37
846.371	19072.15
846.695	18998.94
847.019	18811.82
847.343	18841.65
847.666	18624.93
847.99	18648.21
848.313	18453.64
848.637	18488.67
848.96	18440.53
849.284	18242.8
849.607	18253.19
849.931	18173.42
850.254	18177.04
850.577	18017.94
850.9	17869.02
851.223	17871.06
851.546	17842.81
851.869	17742.47
852.192	17826.08
852.515	17584.06
852.838	17534.79
853.161	17556.94
853.483	17392.2
853.806	17344.97
854.129	17351.3
854.451	17297.51
854.774	17160.79
855.096	17143.84
855.419	17049.61
855.741	17102.49
856.063	17041.47
856.385	16957.41
856.708	16957.18
857.03	16909.72
857.352	16875.15
857.674	16861.59
857.996	16610.3
858.318	16690.07
858.64	16658.66
858.961	16710.41
859.283	16560.13
859.605	16452.56
859.926	16481.49
860.248	16466.12
860.57	16441.71
860.891	16449.17
861.212	16372.79
861.534	16292.57
861.855	16288.05
862.176	16231.32
862.498	16299.8
862.819	16376.86
863.14	16256.41
863.461	16066.81
863.782	16088.28
864.103	16088.73
864.424	15953.37
864.745	16063.87
865.065	16014.16
865.386	15856.42
865.707	15900.03
866.027	15912.01
866.348	15930.54
866.668	15895.51
866.989	15845.12
867.309	15688.97
867.63	15671.79
867.95	15678.34
868.27	15719.47
868.59	15660.49
868.91	15672.02
869.23	15645.58
869.55	15625.69
869.87	15638.57
870.19	15606.48
870.51	15685.58
870.83	15660.27
871.15	15544.34
871.469	15542.08
871.789	15602.19
872.109	15576.43
872.428	15382.31
872.748	15514.73
873.067	15496.88
873.386	15478.35
873.706	15390.67
874.025	15302.54
874.344	15329.43
874.663	15378.01
874.982	15345.47
875.301	15299.15
875.62	15228.41
875.939	15180.5
876.258	15168.53
876.577	15137.57
876.896	15087.85
877.214	15040.17
877.533	15120.62
877.852	15117.68
878.17	15098.02
878.489	15068.19
878.807	14954.3
879.125	14956.33
879.444	14887.86
879.762	14790.68
880.08	14745.71
880.398	14692.61
880.716	14684.47
881.034	14709.1
881.352	14596.79
881.67	14681.08
881.988	14565.83
882.306	14598.83
882.624	14564.02
882.941	14509.34
883.259	14476.79
883.577	14399.96
883.894	14400.86
884.212	14334.88
884.529	14284.94
884.846	14242.68
885.164	14244.48
885.481	14243.13
885.798	14205.84
886.115	14096.47
886.432	14043.36
886.75	13958.39
887.067	13995.9
887.383	13905.96
887.7	13894.66
888.017	13831.39
888.334	13882.91
888.651	13874.1
888.967	13773.08
889.284	13678.4
889.6	13644.73
889.917	13559.76
890.233	13620.77
890.55	13538.06
890.866	13554.78
891.182	13527.21
891.498	13413.55
891.815	13385.3
892.131	13343.26
892.447	13279.31
892.763	13305.53
893.079	13199.31
893.395	13193.66
893.71	13174
894.026	13140.11
894.342	13025.53
894.657	12938.76
894.973	12913.9
895.289	12894.46
895.604	12957.96
895.92	12757.52
896.235	12752.32
896.55	12703.06
896.865	12668.48
897.181	12588.26
897.496	12612.44
897.811	12579.9
898.126	12605.21
898.441	12483.4
898.756	12463.29
899.071	12404.98
899.386	12346.68
899.7	12246.12
900.015	12231.66
900.33	12137.65
900.644	12126.57
900.959	12193.46
901.273	12077.31
901.588	12046.8
901.902	11893.59
902.216	11891.1
902.531	11836.19
902.845	11810.65
903.159	11733.14
903.473	11780.82
903.787	11696.3
904.101	11573.82
904.415	11613.37
904.729	11531.79
905.042	11424.9
905.356	11506.25
905.67	11373.6
905.984	11424.22
906.297	11350.77
906.611	11223.77
906.924	11273.04
907.237	11185.81
907.551	11157.33
907.864	11082.76
908.177	11066.94
908.491	11080.5
908.804	10885.7
909.117	10940.16
909.43	10881.41
909.743	10746.95
910.056	10763.67
910.368	10702.2
910.681	10653.17
910.994	10573.85
911.307	10515.54
911.619	10473.74
911.932	10514.64
912.244	10462.44
912.557	10445.71
912.869	10356.9
913.181	10287.53
913.494	10295.89
913.806	10234.87
914.118	10192.16
914.43	10103.58
914.742	10129.34
915.054	10110.36
915.366	10078.27
915.678	10024.93
915.99	10042.79
916.302	9918.5
916.613	9920.98
916.925	9851.61
917.236	9911.72
917.548	9745.85
917.859	9843.24
918.171	9751.95
918.482	9670.59
918.794	9706.75
919.105	9693.87
919.416	9564.83
919.727	9557.6
920.038	9549.92
920.349	9478.73
920.66	9431.05
920.971	9397.61
921.282	9449.36
921.593	9333.65
921.903	9275.58
922.214	9223.15
922.525	9177.95
922.835	9114.45
923.146	9112.19
923.456	9089.37
923.767	9116.48
924.077	9082.13
924.387	9032.19
924.697	8924.17
925.008	8942.25
925.318	8875.36
925.628	8905.87
925.938	8828.36
926.248	8734.57
926.558	8771.18
926.867	8711.3
927.177	8611.86
927.487	8575.03
927.796	8522.6
928.106	8537.97
928.416	8529.61
928.725	8451.64
929.034	8393.56
929.344	8416.16
929.653	8345.2
929.962	8311.31
930.271	8264.53
930.581	8206
930.89	8182.04
931.199	8084.87
931.508	8095.72
931.817	8076.74
932.125	8013.24
932.434	7994.48
932.743	7905.67
933.051	7871.09
933.36	7902.05
933.669	7850.53
933.977	7809.17
934.286	7884.88
934.594	7770.76
934.902	7730.53
935.21	7704.32
935.519	7696.86
935.827	7561.5
936.135	7555.85
936.443	7524.89
936.751	7471.33
937.059	7458
937.367	7492.12
937.674	7415.29
937.982	7374.38
938.29	7380.03
938.597	7350.2
938.905	7316.08
939.213	7165.8
939.52	7203.54
939.827	7326.02
940.135	7207.61
940.442	7137.33
940.749	7105.24
941.056	7123.77
941.363	7063.43
941.67	7083.99
941.977	6999.7
942.284	6976.2
942.591	6974.17
942.898	6857.79
943.205	6923.32
943.511	6808.97
943.818	6846.03
944.125	6734.85
944.431	6779.82
944.738	6775.75
945.044	6714.74
945.35	6707.06
945.657	6662.31
945.963	6682.2
946.269	6642.2
946.575	6598.13
946.881	6532.82
947.187	6541.86
947.493	6528.75
947.799	6481.3
948.105	6452.82
948.41	6429.1
948.716	6420.28
949.022	6374.86
949.327	6395.65
949.633	6317.01
949.938	6358.59
950.244	6294.18
950.549	6278.14
950.854	6199.05
951.16	6251.25
951.465	6217.8
951.77	6164.02
952.075	6096
952.38	6133.06
952.685	6077.47
952.99	5969.67
953.294	6034.98
953.599	5959.73
953.904	5909.79
954.209	5956.57
954.513	5950.47
954.818	5926.06
955.122	5846.74
955.426	5802.67
955.731	5783.01
956.035	5711.38
956.339	5796.12
956.643	5741.2
956.948	5645.16
957.252	5640.87
957.556	5671.6
957.86	5602.9
958.163	5538.05
958.467	5554.77
958.771	5524.49
959.075	5514.54
959.378	5420.54
959.682	5488.78
959.985	5441.1
960.289	5386.64
960.592	5323.36
960.896	5309.8
961.199	5232.07
961.502	5283.36
961.805	5230.03
962.108	5202.01
962.411	5163.82
962.714	5161.11
963.017	5197.72
963.32	5144.38
963.623	5104.16
963.926	5081.56
964.228	5033.88
964.531	5013.31
964.833	4983.94
965.136	4945.97
965.438	4983.48
965.741	4956.59
966.043	4894.22
966.345	4925.41
966.648	4853.32
966.95	4867.1
967.252	4847.22
967.554	4808.57
967.856	4801.57
968.158	4768.35
968.46	4760.21
968.761	4766.99
969.063	4659.43
969.365	4632.76
969.666	4620.56
969.968	4596.38
970.269	4645.19
970.571	4590.95
970.872	4597.05
971.174	4522.71
971.475	4562.93
971.776	4535.59
972.077	4447.68
972.378	4482.71
972.679	4474.57
972.98	4455.59
973.281	4442.48
973.582	4383.95
973.883	4384.4
974.183	4371.75
974.484	4345.99
974.785	4319.55
975.085	4298.53
975.386	4293.33
975.686	4255.14
975.986	4261.02
976.287	4279.55
976.587	4262.15
976.887	4180.34
977.187	4184.86
977.487	4204.75
977.787	4123.62
978.087	4119.1
978.387	4097.86
978.687	4081.59
978.987	4021.25
979.286	4027.35
979.586	4028.03
979.885	4014.7
980.185	3990.52
980.484	3962.04
980.784	3952.1
981.083	3897.64
981.382	3901.48
981.682	3913.91
981.981	3916.39
982.28	3896.96
982.579	3863.29
982.878	3818.32
983.177	3794.82
983.475	3782.61
983.774	3763.18
984.073	3748.04
984.372	3670.07
984.67	3712.56
984.969	3675.5
985.267	3610.19
985.566	3613.13
985.864	3589.4
986.162	3596.4
986.461	3533.58
986.759	3534.03
987.057	3511.21
987.355	3480.7
987.653	3487.48
987.951	3447.03
988.249	3435.5
988.547	3435.05
988.844	3422.62
989.142	3373.36
989.44	3355.28
989.737	3340.36
990.035	3360.48
990.332	3330.42
990.63	3314.38
990.927	3272.12
991.224	3245
991.521	3243.87
991.819	3225.34
992.116	3202.97
992.413	3179.69
992.71	3201.84
993.006	3187.15
993.303	3162.52
993.6	3164.32
993.897	3137.88
994.193	3121.61
994.49	3087.26
994.787	3093.59
995.083	3051.11
995.379	3070.99
995.676	3008.85
995.972	3031.45
996.268	2995.97
996.565	2992.58
996.861	2990.99
997.157	2983.09
997.453	2918.45
997.749	2965.23
998.044	2907.38
998.34	2916.19
998.636	2863.54
998.932	2848.17
999.227	2873.03
999.523	2855.86
999.818	2830.1
1000.114	2869.42
1000.409	2815.63
1000.704	2811.79
1001	2817.21
1001.295	2806.59
1001.59	2817.44
1001.885	2753.71
1002.18	2718.23
1002.475	2720.49
1002.77	2754.62
1003.065	2680.04
1003.359	2704.67
1003.654	2703.77
1003.949	2654.28
1004.243	2704.9
1004.538	2629.65
1004.832	2613.15
1005.127	2639.82
1005.421	2623.55
1005.715	2560.05
1006.009	2620.38
1006.304	2602.3
1006.598	2561.63
1006.892	2527.28
1007.186	2496.32
1007.48	2546.94
1007.773	2503.32
1008.067	2465.58
1008.361	2466.04
1008.655	2432.14
1008.948	2448.86
1009.242	2439.14
1009.535	2412.7
1009.829	2397.11
1010.122	2392.82
1010.415	2396.66
1010.708	2339.49
1011.001	2352.82
1011.295	2345.14
1011.588	2339.26
1011.881	2320.96
1012.173	2312.37
1012.466	2268.3
1012.759	2289.09
1013.052	2271.24
1013.344	2253.39
1013.637	2237.34
1013.93	2217.91
1014.222	2239.38
1014.514	2209.09
1014.807	2183.78
1015.099	2139.72
1015.391	2142.2
1015.683	2139.27
1015.976	2117.8
1016.268	2111.7
1016.56	2082.32
1016.851	2114.86
1017.143	2059.27
1017.435	2066.5
1017.727	2017.91
1018.018	2015.88
1018.31	2019.04
1018.602	1971.59
1018.893	1967.74
1019.185	1969.78
1019.476	1956.9
1019.767	1940.17
1020.058	1906.96
1020.35	1910.35
1020.641	1885.04
1020.932	1850.46
1021.223	1836.9
1021.514	1880.74
1021.804	1832.61
1022.095	1809.78
1022.386	1815.66
1022.677	1793.51
1022.967	1783.79
1023.258	1779.95
1023.548	1763
1023.839	1751.71
1024.129	1752.38
1024.419	1716.45
1024.709	1721.88
1025	1715.77
1025.29	1676.45
1025.58	1667.19
1025.87	1661.99
1026.16	1659.5
1026.449	1676.23
1026.739	1640.52
1027.029	1641.43
1027.319	1616.12
1027.608	1607.75
1027.898	1576.57
1028.187	1589.22
1028.477	1566.85
1028.766	1572.73
1029.055	1543.12
1029.344	1539.51
1029.634	1540.19
1029.923	1543.58
1030.212	1508.55
1030.501	1501.32
1030.79	1489.57
1031.078	1518.49
1031.367	1500.41
1031.656	1482.56
1031.945	1440.3
1032.233	1454.31
1032.522	1452.73
1032.81	1435.33
1033.099	1448.21
1033.387	1411.38
1033.675	1416.35
1033.963	1407.53
1034.251	1397.14
1034.54	1387.65
1034.828	1360.08
1035.116	1372.28
1035.403	1363.47
1035.691	1332.06
1035.979	1341.77
1036.267	1315.11
1036.554	1334.77
1036.842	1311.94
1037.129	1320.76
1037.417	1273.07
1037.704	1262.68
1037.992	1267.42
1038.279	1255
1038.566	1245.5
1038.853	1245.5
1039.14	1245.5
