Data from whiteboard_FLMS001491_00053.txt Node
Date: Wed Feb 08 11:27:05 GMT 2017
User: dcchb
Spectrometer: FLMS00149
Trigger mode: 0
Integration Time (sec): 2.000000E-2
Scans to average: 10
Electric dark correction enabled: true
Nonlinearity correction enabled: false
Boxcar width: 0
XAxis mode: Wavelengths
Number of Pixels in Spectrum: 2048
>>>>>Begin Spectral Data<<<<<
341.393	-3.55
341.776	-3.55
342.16	-3.55
342.543	-45.8
342.927	-62.98
343.31	-80.38
343.693	-67.72
344.077	-62.07
344.46	-48.29
344.843	-61.85
345.226	-53.49
345.61	-34.5
345.993	-17.1
346.376	14.31
346.759	-5.13
347.142	38.26
347.525	43.91
347.908	73.74
348.291	79.16
348.674	80.52
349.057	100.63
349.44	116.9
349.823	149.22
350.206	166.17
350.588	225.38
350.971	233.06
351.354	242.32
351.737	250.91
352.119	270.12
352.502	279.39
352.884	314.19
353.267	316.45
353.65	307.86
354.032	323.45
354.414	336.78
354.797	325.03
355.179	335.43
355.562	348.31
355.944	357.8
356.326	358.25
356.709	365.03
357.091	362.55
357.473	383.56
357.855	341.08
358.238	354.41
358.62	388.31
359.002	361.64
359.384	374.07
359.766	368.2
360.148	372.26
360.53	362.09
360.912	363.45
361.294	375.65
361.676	378.14
362.057	377.91
362.439	372.72
362.821	357.58
363.203	371.59
363.584	364.58
363.966	362.77
364.348	377.24
364.729	360.51
365.111	354.86
365.493	355.99
365.874	361.64
366.256	350.34
366.637	363
367.019	360.06
367.4	365.48
367.781	365.48
368.163	368.2
368.544	349.67
368.925	360.06
369.306	383.56
369.688	362.77
370.069	381.3
370.45	349.44
370.831	370.91
371.212	353.28
371.593	381.53
371.974	383.79
372.355	367.74
372.736	379.95
373.117	377.46
373.498	350.57
373.879	367.52
374.26	386.28
374.641	367.97
375.021	365.03
375.402	370.46
375.783	388.99
376.163	403
376.544	400.96
376.925	389.21
377.305	402.32
377.686	377.46
378.066	394.18
378.447	400.51
378.827	386.28
379.208	381.53
379.588	395.09
379.968	404.13
380.349	398.03
380.729	404.13
381.109	389.44
381.489	407.74
381.87	426.73
382.25	441.41
382.63	437.35
383.01	452.26
383.39	421.98
383.77	441.64
384.15	445.03
384.53	437.57
384.91	444.13
385.29	440.96
385.67	478.93
386.049	448.87
386.429	458.36
386.809	469.21
387.189	465.82
387.568	479.15
387.948	482.32
388.328	493.84
388.707	501.98
389.087	503.11
389.466	471.24
389.846	497.91
390.225	519.83
390.605	506.27
390.984	516.89
391.363	517.35
391.743	537.46
392.122	534.97
392.501	570.9
392.881	562.54
393.26	591.02
393.639	580.85
394.018	573.39
394.397	574.74
394.776	589.21
395.155	592.82
395.534	610.45
395.913	607.51
396.292	639.15
396.671	625.59
397.05	643.44
397.429	650.45
397.808	637.34
398.186	670.79
398.565	646.38
398.944	694.52
399.323	693.39
399.701	709.43
400.08	731.8
400.458	705.59
400.837	738.81
401.215	733.38
401.594	777.9
401.972	763.44
402.351	760.73
402.729	815.87
403.107	810.67
403.486	798.69
403.864	803.21
404.242	849.09
404.62	856.32
404.999	894.28
405.377	880.73
405.755	914.85
406.133	908.07
406.511	959.37
406.889	950.1
407.267	966.6
407.645	982.64
408.023	986.03
408.401	1020.38
408.779	1040.95
409.156	1069.42
409.534	1092.25
409.912	1101.06
410.29	1128.85
410.667	1146.03
411.045	1160.72
411.422	1206.59
411.8	1225.35
412.178	1231.22
412.555	1275.97
412.933	1305.12
413.31	1313.26
413.687	1344.22
414.065	1360.26
414.442	1367.49
414.819	1400.71
415.197	1447.72
415.574	1446.59
415.951	1505.34
416.328	1476.42
416.705	1513.7
417.082	1513.7
417.46	1522.97
417.837	1578.79
418.214	1581.5
418.591	1589.41
418.967	1616.3
419.344	1618.56
419.721	1677.31
420.098	1670.76
420.475	1688.16
420.852	1701.95
421.228	1728.16
421.605	1757.09
421.982	1772.23
422.358	1759.12
422.735	1841.38
423.111	1847.25
423.488	1855.62
423.864	1870.3
424.241	1909.4
424.617	1930.64
424.994	1955.5
425.37	1982.17
425.746	1994.14
426.123	2018.1
426.499	2058.32
426.875	2069.17
427.251	2127.47
427.627	2186.68
428.003	2181.03
428.379	2242.5
428.756	2218.32
429.132	2276.85
429.507	2312.33
429.883	2329.27
430.259	2379.44
430.635	2386.67
431.011	2415.15
431.387	2486.78
431.763	2538.99
432.138	2535.15
432.514	2555.71
432.89	2601.58
433.265	2689.94
433.641	2718.19
434.016	2741.02
434.392	2785.76
434.767	2826.89
435.143	2788.7
435.518	2846.1
435.894	2903.95
436.269	2944.85
436.644	2990.95
437.02	2998.41
437.395	3032.76
437.77	3062.36
438.145	3144.62
438.52	3135.81
438.895	3175.35
439.271	3174.22
439.646	3258.97
440.021	3331.51
440.395	3297.84
440.77	3301.45
441.145	3345.75
441.52	3399.98
441.895	3423.94
442.27	3455.57
442.645	3457.61
443.019	3517.49
443.394	3506.65
443.769	3550.94
444.143	3552.75
444.518	3601.56
444.892	3588
445.267	3613.99
445.641	3687.88
446.016	3728.79
446.39	3732.18
446.764	3771.27
447.139	3752.29
447.513	3854.21
447.887	3817.6
448.262	3852.85
448.636	3896.24
449.01	3950.7
449.384	3964.94
449.758	4032.05
450.132	4018.95
450.506	4054.65
450.88	4094.2
451.254	4126.97
451.628	4253.97
452.002	4249.22
452.376	4287.87
452.75	4326.28
453.123	4390.01
453.497	4479.27
453.871	4493.96
454.244	4591.36
454.618	4598.14
454.992	4666.84
455.365	4698.7
455.739	4799.49
456.112	4838.14
456.486	4923.56
456.859	4945.03
457.232	5032.93
457.606	5048.98
457.979	5164.91
458.352	5232.93
458.725	5281.97
459.099	5347.95
459.472	5447.61
459.845	5518.12
460.218	5504.56
460.591	5623.43
460.964	5604.89
461.337	5733.48
461.71	5831.56
462.083	5954.26
462.456	5976.64
462.829	5996.3
463.201	6066.58
463.574	6188.61
463.947	6250.53
464.32	6383.18
464.692	6371.2
465.065	6489.84
465.438	6588.82
465.81	6688.03
466.183	6748.14
466.555	6895.03
466.928	6956.05
467.3	6928.7
467.672	7044.41
468.045	7300.9
468.417	7281.46
468.789	7292.08
469.161	7443.49
469.534	7648.46
469.906	7770.49
470.278	7819.53
470.65	7882.35
471.022	8043.93
471.394	8212.51
471.766	8257.93
472.138	8372.51
472.51	8571.37
472.882	8694.08
473.253	8803.68
473.625	8859.5
473.997	9125.25
474.369	9214.07
474.74	9333.38
475.112	9501.74
475.484	9619.93
475.855	9783.54
476.227	9862.41
476.598	10203.87
476.97	10189.63
477.341	10501.72
477.713	10646.57
478.084	10716.4
478.455	10977.41
478.827	11047.69
479.198	11475.02
479.569	11478.41
479.94	11846.09
480.311	11918.4
480.682	12182.35
481.053	12392.51
481.424	12639.29
481.795	12724.03
482.166	12925.83
482.537	13192.04
482.908	13469.77
483.279	13570.34
483.65	13830.22
484.021	14079.7
484.391	14211.67
484.762	14376.64
485.133	14491.22
485.503	14769.17
485.874	15083.74
486.244	15235.15
486.615	15589.94
486.985	15607.12
487.356	16019.31
487.726	16199.64
488.097	16441.9
488.467	16527.55
488.837	16804.37
489.207	17101.99
489.578	17293.63
489.948	17472.83
490.318	17758.7
490.688	17798.02
491.058	18127.05
491.428	18364.79
491.798	18593.93
492.168	18929.52
492.538	18978.55
492.908	19207.7
493.278	19520.69
493.648	19538.77
494.017	19832.09
494.387	19967.46
494.757	20180.33
495.126	20345.75
495.496	20478.63
495.866	20645.86
496.235	20846.53
496.605	21115.22
496.974	21251.04
497.344	21364.25
497.713	21527.64
498.082	21704.81
498.452	21915.88
498.821	21914.97
499.19	22106.38
499.559	22341.18
499.928	22440.16
500.298	22628.85
500.667	22771.9
501.036	22824.78
501.405	22955.4
501.774	23127.82
502.143	23285.56
502.512	23354.71
502.88	23760.12
503.249	23711.76
503.618	23907.69
503.987	23937.97
504.356	24139.55
504.724	24249.6
505.093	24450.95
505.462	24594.9
505.83	24777.05
506.199	25009.58
506.567	25240.76
506.936	25426.75
507.304	25679.62
507.672	25672.16
508.041	25925.72
508.409	26060.4
508.777	26189.66
509.145	26503.33
509.514	26499.49
509.882	26713.72
510.25	26816.31
510.618	27080.26
510.986	27175.4
511.354	27504.43
511.722	27788.49
512.09	28017.19
512.458	27870.75
512.826	28254.02
513.193	28352.77
513.561	28560.9
513.929	28771.29
514.297	29042.02
514.664	29205.63
515.032	29344.61
515.4	29616.69
515.767	29765.39
516.135	30023.24
516.502	29834.54
516.869	30451.7
517.237	30566.05
517.604	30521.53
517.972	31022.31
518.339	31149.76
518.706	31235.86
519.073	31520.82
519.44	31706.58
519.808	32074.71
520.175	32064.54
520.542	32549.05
520.909	32765.31
521.276	32583.39
521.643	32957.4
522.009	33199.42
522.376	33395.8
522.743	33708.79
523.11	33972.74
523.477	34327.98
523.843	34478.03
524.21	34850.45
524.577	35112.82
524.943	35253.61
525.31	35497.44
525.676	35783.99
526.043	35976.3
526.409	36204.99
526.776	36515.04
527.142	36458.77
527.508	36868.71
527.874	37177.4
528.241	37427.79
528.607	37505.07
528.973	37945.74
529.339	37972.41
529.705	38233.87
530.071	38404.71
530.437	38732.39
530.803	38932.15
531.169	39154.75
531.535	39079.95
531.901	39247.4
532.267	39445.36
532.632	39821.17
532.998	39853.94
533.364	40025.46
533.73	40206.02
534.095	40499.8
534.461	40719.68
534.826	40822.73
535.192	40921.71
535.557	41276.05
535.923	41296.39
536.288	41374.35
536.653	41791.06
537.019	41551.52
537.384	41880.1
537.749	42033.09
538.114	42201.67
538.479	42363.93
538.845	42606.86
539.21	42509.01
539.575	42818.83
539.94	42957.81
540.305	43167.75
540.67	43083.23
541.034	43345.37
541.399	43589.21
541.764	43653.84
542.129	44104.22
542.494	44088.85
542.858	44299.24
543.223	44164.11
543.587	44649.74
543.952	44611.78
544.316	44768.84
544.681	44830.3
545.045	45115.49
545.41	45311.42
545.774	45251.08
546.138	45441.36
546.503	45496.05
546.867	45466.22
547.231	46004.74
547.595	46033.44
547.959	46181.23
548.324	46327.21
548.688	46176.94
549.052	46506.19
549.416	46510.71
549.779	46706.41
550.143	46690.37
550.507	46807.65
550.871	47107.53
551.235	47014.65
551.599	47254.87
551.962	47279.05
552.326	47500.74
552.689	47705.71
553.053	47409.67
553.417	47694.86
553.78	48161.52
554.143	47911.13
554.507	48061.86
554.87	48250.1
555.234	48612.8
555.597	48425.01
555.96	48523.99
556.323	48785.45
556.686	48797.66
557.05	49126.46
557.413	49230.87
557.776	49429.96
558.139	49538.88
558.502	49472.22
558.865	49769.84
559.228	50032.88
559.59	50096.15
559.953	50145.42
560.316	50495.24
560.679	50438.29
561.041	50698.85
561.404	50855.46
561.767	51092.29
562.129	50996.47
562.492	51407.98
562.854	51400.3
563.217	51462.9
563.579	51658.15
563.941	51770.46
564.304	51938.14
564.666	52218.13
565.028	52219.71
565.39	52328.41
565.753	52489.99
566.115	52611.79
566.477	52754.84
566.839	52826.25
567.201	53120.03
567.563	53058.34
567.925	53271.44
568.287	53370.42
568.648	53423.75
569.01	53591.2
569.372	53741.93
569.734	53634.37
570.095	53891.31
570.457	53988.93
570.819	54050.85
571.18	54031.64
571.542	54284.07
571.903	54272.99
572.265	54396.61
572.626	54475.93
572.987	54523.38
573.349	54656.49
573.71	54723.38
574.071	54879.76
574.432	54982.35
574.794	55053.99
575.155	55117.04
575.516	55088.11
575.877	55070.71
576.238	55219.86
576.599	55308.22
576.96	55418.95
577.32	55359.52
577.681	55442.23
578.042	55518.61
578.403	55510.7
578.763	55498.95
579.124	55645.84
579.485	55722.45
579.845	55750.24
580.206	55665.73
580.566	55730.36
580.927	55694.43
581.287	55859.39
581.648	55780.07
582.008	55885.38
582.368	55870.69
582.728	55837.92
583.089	55930.35
583.449	55879.73
583.809	55916.34
584.169	55902.56
584.529	55905.95
584.889	56096.45
585.249	55954.31
585.609	55809
585.969	56079.27
586.329	55872.73
586.688	55892.16
587.048	55887.19
587.408	55839.73
587.768	55887.41
588.127	55885.15
588.487	55800.41
588.846	55983.46
589.206	55816.68
589.565	55853.07
589.925	55842.44
590.284	55858.94
590.643	55850.35
591.003	55915.21
591.362	56036.11
591.721	55873.18
592.08	55925.61
592.44	55907.75
592.799	55978.49
593.158	55994.76
593.517	55950.46
593.876	55983.23
594.235	55945.04
594.593	55965.6
594.952	56058.26
595.311	55912.27
595.67	56031.82
596.029	56209.44
596.387	56206.5
596.746	56240.17
597.104	56189.1
597.463	56247.41
597.822	56307.29
598.18	56202.21
598.538	56234.07
598.897	56418.02
599.255	56227.29
599.613	56620.28
599.972	56433.39
600.33	56491.69
600.688	56425.71
601.046	56499.83
601.404	56592.25
601.762	56551.58
602.12	56676.09
602.478	56705.7
602.836	56593.38
603.194	56591.8
603.552	56702.99
603.91	56584.57
604.268	56672.93
604.625	56602.42
604.983	56695.98
605.341	56611.69
605.698	56739.14
606.056	56777.79
606.413	56770.33
606.771	56845.58
607.128	56950.21
607.485	56766.26
607.843	56821.18
608.2	56913.83
608.557	57005.35
608.914	56916.99
609.272	57034.28
609.629	57079.02
609.986	57141.17
610.343	57044.45
610.7	57132.81
611.057	57081.73
611.414	57066.14
611.771	57087.16
612.127	57226.81
612.484	57250.32
612.841	57318.56
613.198	57134.61
613.554	57241.73
613.911	57297.1
614.267	57224.78
614.624	57211
614.98	57348.85
615.337	57343.65
615.693	57305.23
616.05	57278.79
616.406	57450.31
616.762	57314.27
617.118	57294.61
617.475	57274.5
617.831	57363.99
618.187	57332.12
618.543	57423.19
618.899	57506.13
619.255	57479.69
619.611	57422.74
619.967	57526.24
620.323	57516.98
620.678	57409.18
621.034	57415.51
621.39	57439.92
621.746	57349.75
622.101	57596.52
622.457	57392.91
622.812	57412.12
623.168	57385.23
623.523	57354.72
623.879	57512.68
624.234	57280.82
624.589	57433.14
624.945	57401.5
625.3	57434.49
625.655	57441.27
626.01	57415.51
626.365	57453.02
626.72	57443.76
627.075	57377.77
627.43	57305.68
627.785	57284.67
628.14	57344.33
628.495	57379.35
628.85	57242.41
629.205	57165.35
629.559	57319.92
629.914	57243.99
630.269	57275.85
630.623	57175.52
630.978	57163.54
631.332	57196.08
631.687	57261.62
632.041	57120.38
632.396	57138.68
632.75	56998.35
633.104	57147.95
633.459	57070.21
633.813	57063.43
634.167	57115.86
634.521	57017.1
634.875	57061.4
635.229	57035.41
635.583	56958.57
635.937	56917.9
636.291	57011
636.645	56954.28
636.999	56901.17
637.352	56988.18
637.706	56869.31
638.06	56954.28
638.413	56863.43
638.767	56808.07
639.121	56815.07
639.474	56718.81
639.828	56733.72
640.181	56724.91
640.534	56723.32
640.888	56675.19
641.241	56588.19
641.594	56632.71
641.947	56674.74
642.301	56600.39
642.654	56647.85
643.007	56672.48
643.36	56600.84
643.713	56530.34
644.066	56599.71
644.419	56413.28
644.771	56218.25
645.124	55981.2
645.477	55920.41
645.83	55721.32
646.182	55616.24
646.535	55518.38
646.888	55529.91
647.24	55364.94
647.593	55559.06
647.945	55476.8
648.298	55328.33
648.65	55272.06
649.002	55140.99
649.355	55261.67
649.707	55226.19
650.059	55250.6
650.411	55583.92
650.763	55557.93
651.115	55909.11
651.467	55710.7
651.819	55679.96
652.171	55631.6
652.523	55582.56
652.875	55522.9
653.227	55456.01
653.578	55649
653.93	55555.45
654.282	55516.13
654.633	55301.89
654.985	55260.09
655.337	55311.61
655.688	55332.63
656.039	55378.05
656.391	55169.69
656.742	55212.18
657.094	55246.3
657.445	55351.61
657.796	55127.43
658.147	55151.61
658.498	55115.46
658.849	55172.86
659.2	55182.12
659.551	54995.23
659.902	55131.28
660.253	55003.14
660.604	55074.1
660.955	54924.95
661.306	55007.89
661.656	54897.16
662.007	55015.57
662.358	55023.71
662.708	54968.34
663.059	54811.51
663.409	54828.91
663.76	54924.28
664.11	54925.18
664.461	54898.74
664.811	54893.32
665.161	54759.99
665.511	54749.14
665.862	54679.99
666.212	54753.21
666.562	54800.21
666.912	54653.32
667.262	54609.26
667.612	54663.49
667.962	54698.75
668.312	54537.62
668.662	54726.99
669.011	54457.62
669.361	54468.02
669.711	54510.95
670.06	54418.53
670.41	54437.74
670.76	54305.76
671.109	54434.8
671.459	54390.73
671.808	54270.96
672.157	54407.45
672.507	54156.16
672.856	54113.68
673.205	54098.54
673.554	54232.32
673.904	54165.43
674.253	54385.99
674.602	54175.82
674.951	53652.67
675.3	53599.79
675.649	54049.5
675.998	53889.05
676.346	53916.17
676.695	54052.21
677.044	53793.01
677.393	53934.92
677.741	53969.95
678.09	53843.63
678.438	53818.77
678.787	53816.96
679.135	53957.07
679.484	53710.3
679.832	53866.45
680.181	53591.88
680.529	53712.1
680.877	53516.18
681.225	53658.09
681.573	53748.49
681.922	53521.83
682.27	53430.98
682.618	53453.81
682.966	53373.81
683.314	53419.46
683.661	53328.39
684.009	53258.78
684.357	53241.16
684.705	53211.1
685.053	53229.63
685.4	53143.53
685.748	53020.6
686.095	53022.86
686.443	52972.92
686.79	52929.3
687.138	52998.9
687.485	52974.72
687.832	52752.13
688.18	52801.85
688.527	52673.04
688.874	52729.31
689.221	52640.27
689.568	52543.1
689.915	52444.12
690.262	52489.54
690.609	52360.95
690.956	52262.43
691.303	52188.75
691.65	52050.45
691.997	51977.69
692.344	51893.17
692.69	51838.03
693.037	51788.09
693.383	51535.66
693.73	51665.38
694.077	51410.92
694.423	51375.89
694.769	51208.67
695.116	51237.59
695.462	51193.3
695.808	51054.1
696.155	51068.33
696.501	50781.79
696.847	50750.6
697.193	50408.01
697.539	50622.02
697.885	50370.95
698.231	50247.79
698.577	50034.46
698.923	49999.43
699.269	49857.29
699.614	49591.54
699.96	49405.33
700.306	49480.8
700.651	49265.89
700.997	49218.21
701.342	49054.15
701.688	48962.17
702.033	48705.46
702.379	48816.19
702.724	48657.1
703.069	48657.32
703.415	48220.72
703.76	48189.31
704.105	48173.04
704.45	48093.5
704.795	47789.1
705.14	47614.86
705.485	47607.41
705.83	47558.37
706.175	47524.7
706.52	47345.27
706.865	47237.25
707.209	47150.02
707.554	46973.07
707.899	47012.17
708.243	46970.36
708.588	46783.93
708.932	46603.14
709.277	46588.22
709.621	46578.05
709.966	46321.79
710.31	46422.35
710.654	46046.54
710.998	46062.36
711.342	45976.26
711.687	45952.08
712.031	45665.08
712.375	45474.81
712.719	45547.35
713.063	45593.22
713.407	45567.91
713.75	45443.17
714.094	45354.36
714.438	45176.51
714.782	45245.43
715.125	44933.8
715.469	45018.55
715.812	44902.17
716.156	44742.17
716.499	44676.41
716.843	44740.82
717.186	44590.76
717.53	44645.45
717.873	44538.11
718.216	44515.06
718.559	44449.07
718.902	44077.1
719.246	44160.72
719.589	43988.52
719.932	43875.3
720.275	43861.29
720.617	43831.69
720.96	43811.35
721.303	43687.74
721.646	43819.71
721.989	43589.88
722.331	43691.35
722.674	43548.98
723.016	43512.37
723.359	43494.75
723.701	43449.78
724.044	43212.49
724.386	43235.54
724.729	43125.26
725.071	43100.63
725.413	43011.14
725.755	42905.84
726.097	42775.22
726.439	42832.84
726.782	42735.67
727.124	42846.85
727.465	42518.5
727.807	42552.4
728.149	42379.97
728.491	42269.92
728.833	42370.93
729.175	42100.88
729.516	42191.96
729.858	42092.98
730.199	41994.45
730.541	41931.85
730.882	41881.91
731.224	42138.85
731.565	41732.98
731.906	41710.84
732.248	41833.55
732.589	41563.95
732.93	41572.99
733.271	41577.51
733.612	41379.32
733.953	41357.4
734.294	41289.61
734.635	41247.12
734.976	41309.04
735.317	41108.37
735.658	41170.51
735.999	41017.3
736.339	40982.27
736.68	40881.48
737.021	40801.48
737.361	40617.31
737.702	40824.53
738.042	40695.27
738.383	40611.43
738.723	40561.94
739.063	40488.5
739.404	40486.92
739.744	40225.23
740.084	40188.39
740.424	40259.8
740.764	40117.21
741.104	40174.61
741.444	39992.69
741.784	39919.92
742.124	39899.36
742.464	39952.47
742.804	39751.34
743.143	39748.4
743.483	39787.27
743.823	39587.28
744.162	39605.13
744.502	39479.03
744.841	39321.3
745.181	39454.85
745.52	39260.51
745.86	39322.43
746.199	39260.51
746.538	39237.68
746.877	39204.24
747.216	39019.16
747.556	38879.5
747.895	38952.49
748.234	38630.47
748.573	38642.44
748.911	38757.47
749.25	38586.4
749.589	38446.52
749.928	38356.58
750.267	38404.48
750.605	38216.47
750.944	37981.67
751.283	38030.26
751.621	37875.23
751.96	37712.07
752.298	37785.52
752.636	37655.35
752.975	37433.44
753.313	37272.08
753.651	37524.96
753.989	37254.91
754.327	37179.43
754.666	36913.9
755.004	37014.92
755.342	36810.85
755.679	36718.65
756.017	36469.85
756.355	36652.44
756.693	36461.26
757.031	36363.18
757.368	36225.56
757.706	36166.58
758.044	36000.03
758.381	35936.53
758.719	35710.32
759.056	35810.2
759.394	35645.01
759.731	35352.59
760.068	35223.33
760.405	35099.49
760.743	35023.78
761.08	35159.6
761.417	34887.74
761.754	34783.79
762.091	34577.24
762.428	34447.98
762.765	34392.61
763.102	34524.81
763.438	34187.65
763.775	34067.2
764.112	34166.18
764.449	34118.5
764.785	33971.38
765.122	33638.06
765.458	33466.08
765.795	33504.05
766.131	33410.04
766.467	33186.54
766.804	33023.84
767.14	32987.9
767.476	32876.72
767.812	32641.92
768.148	32809.38
768.485	32591.76
768.821	32521.48
769.157	32457.52
769.492	32232.67
769.828	32188.15
770.164	31852.11
770.5	31844.66
770.836	31761.95
771.171	31625
771.507	31649.63
771.842	31375.52
772.178	31386.82
772.513	31333.71
772.849	31079.25
773.184	30915.87
773.519	31097.33
773.855	30893.5
774.19	30759.26
774.525	30635.65
774.86	30788.19
775.195	30605.82
775.53	30437.69
775.865	30390.46
776.2	30143.23
776.535	30088.09
776.87	29962.9
777.205	29859.85
777.539	29736.01
777.874	29799.29
778.209	29551.38
778.543	29509.13
778.878	29298.96
779.212	29278.4
779.547	29063.26
779.881	29239.08
780.215	29108.23
780.55	29052.87
780.884	28921.34
781.218	28732.87
781.552	28691.07
781.886	28558.19
782.22	28549.83
782.554	28355.71
782.888	28113.68
783.222	28229.84
783.556	27948.49
783.889	27859
784.223	27683.86
784.557	27785.1
784.89	27701.49
785.224	27450.65
785.557	27394.38
785.891	27359.35
786.224	27249.07
786.558	27163.65
786.891	26906.26
787.224	26865.13
787.557	26774.73
787.891	26798.91
788.224	26647.51
788.557	26725.02
788.89	26516.66
789.223	26492.71
789.556	26264.69
789.888	26273.28
790.221	26127.52
790.554	25910.35
790.887	25910.35
791.219	25785.83
791.552	25853.4
791.884	25634.88
792.217	25689.56
792.549	25639.62
792.882	25364.15
793.214	25265.85
793.546	25322.34
793.879	25167.09
794.211	25006.19
794.543	25091.16
794.875	25082.57
795.207	25119.18
795.539	24817.72
795.871	24760.55
796.203	24656.37
796.535	24494.57
796.867	24463.83
797.198	24412.31
797.53	24319.88
797.862	24238.53
798.193	24289.15
798.525	24051.42
798.856	24095.26
799.188	23850.06
799.519	23767.13
799.85	23674.02
800.182	23651.43
800.513	23707.7
800.844	23454.37
801.175	23574.59
801.506	23371.89
801.837	23281.49
802.168	23220.25
802.499	23171.89
802.83	23125.34
803.161	23016.19
803.491	22939.58
803.822	22894.84
804.153	22780.26
804.483	22567.61
804.814	22486.03
805.145	22435.86
805.475	22424.11
805.805	22410.33
806.136	22343.44
806.466	22341.86
806.796	22333.04
807.126	22173.95
807.457	22039.49
807.787	21999.72
808.117	21974.63
808.447	21943.45
808.777	21910.91
809.107	21732.61
809.436	21688.99
809.766	21753.85
810.096	21688.31
810.426	21485.83
810.755	21492.84
811.085	21381.2
811.414	21391.15
811.744	21150.25
812.073	21122.91
812.403	21158.38
812.732	20947.54
813.061	20919.07
813.39	20948.45
813.719	20822.57
814.049	20922.01
814.378	20748.45
814.707	20752.97
815.036	20611.73
815.365	20536.48
815.693	20291.74
816.022	20351.4
816.351	20217.17
816.68	20138.3
817.008	20244.74
817.337	19999.54
817.665	20059.43
817.994	20001.58
818.322	20011.52
818.651	19879.1
818.979	19721.59
819.307	19819.89
819.636	19598.2
819.964	19587.58
820.292	19643.4
820.62	19486.34
820.948	19526.11
821.276	19636.39
821.604	19412.22
821.932	19477.52
822.259	19407.7
822.587	19349.62
822.915	19299.22
823.243	19338.77
823.57	19326.34
823.898	19317.75
824.225	19190.53
824.553	19294.25
824.88	19248.6
825.207	19318.88
825.535	19233.69
825.862	19136.29
826.189	19203.41
826.516	19254.25
826.843	19336.29
827.17	19306.91
827.497	19285.21
827.824	19223.75
828.151	19236.17
828.478	19108.04
828.805	19249.73
829.131	19139.23
829.458	19087.48
829.785	19067.82
830.111	19064.2
830.438	19147.82
830.764	19032.56
831.09	19093.81
831.417	18941.49
831.743	19152.11
832.069	18977.2
832.395	18853.81
832.722	18908.95
833.048	18844.09
833.374	18915.96
833.7	18881.61
834.026	18906.01
834.351	18964.09
834.677	18906.47
835.003	18982.62
835.329	18847.26
835.654	18847.03
835.98	18827.37
836.306	18895.62
836.631	18713.48
836.956	18818.33
837.282	18823.98
837.607	18769.97
837.932	18644.1
838.258	18672.35
838.583	18671.44
838.908	18529.53
839.233	18651.33
839.558	18576.31
839.883	18548.74
840.208	18495.18
840.533	18473.94
840.858	18512.35
841.182	18450.66
841.507	18451.34
841.832	18427.61
842.156	18407.95
842.481	18317.56
842.805	18252.02
843.13	18305.35
843.454	18371.56
843.778	18137.67
844.103	18177.67
844.427	18137.22
844.751	18173.15
845.075	18079.37
845.399	17951.91
845.723	17983.33
846.047	17937
846.371	17736.33
846.695	17791.47
847.019	17727.29
847.343	17599.38
847.666	17522.55
847.99	17510.34
848.313	17448.43
848.637	17382.66
848.96	17351.25
849.284	17304.25
849.607	17180.18
849.931	17091.37
850.254	17106.06
850.577	17084.14
850.9	16867.88
851.223	16802.11
851.546	16808.44
851.869	16628.11
852.192	16837.37
852.515	16666.75
852.838	16496.36
853.161	16593.53
853.483	16368
853.806	16324.84
854.129	16321.45
854.451	16321.9
854.774	16214.33
855.096	16093.21
855.419	16060.67
855.741	16013.43
856.063	15962.59
856.385	15953.55
856.708	15869.94
857.03	15892.99
857.352	15880.56
857.674	15852.54
857.996	15757.62
858.318	15657.74
858.64	15608.25
858.961	15495.48
859.283	15525.54
859.605	15485.54
859.926	15500.45
860.248	15526.67
860.57	15385.43
860.891	15373.45
861.212	15268.37
861.534	15180.69
861.855	15206.22
862.176	15201.03
862.498	15284.64
862.819	15241.48
863.14	15025.66
863.461	15068.6
863.782	15034.03
864.103	14981.82
864.424	14926.91
864.745	14943.63
865.065	14913.8
865.386	14828.16
865.707	14891.66
866.027	14773.92
866.348	14827.03
866.668	14738.89
866.989	14767.59
867.309	14613.7
867.63	14678.33
867.95	14612.12
868.27	14465.9
868.59	14543.87
868.91	14517.2
869.23	14447.6
869.55	14479.69
869.87	14587.26
870.19	14377.55
870.51	14528.5
870.83	14383.87
871.15	14247.83
871.469	14302.75
871.789	14278.57
872.109	14265.23
872.428	14245.35
872.748	14308.39
873.067	14286.93
873.386	14212.35
873.706	14174.16
874.025	14123.54
874.344	14110.43
874.663	14057.55
874.982	14033.15
875.301	14015.52
875.62	14012.13
875.939	13925.13
876.258	13894.62
876.577	13913.83
876.896	13847.84
877.214	13841.06
877.533	13804.45
877.852	13798.58
878.17	13721.29
878.489	13818.69
878.807	13686.49
879.125	13669.99
879.444	13667.51
879.762	13568.98
880.08	13620.5
880.398	13592.48
880.716	13617.79
881.034	13510.45
881.352	13495.99
881.67	13435.65
881.988	13471.81
882.306	13367.85
882.624	13348.65
882.941	13234.52
883.259	13130.35
883.577	13227.97
883.894	13169.44
884.212	13204.02
884.529	13176.67
884.846	13114.3
885.164	13146.39
885.481	12961.76
885.798	13024.36
886.115	12918.38
886.432	12958.6
886.75	12907.3
887.067	12842.44
887.383	12778.04
887.7	12840.41
888.017	12781.88
888.334	12753.86
888.651	12701.21
888.967	12675.22
889.284	12676.12
889.6	12611.04
889.917	12505.05
890.233	12532.4
890.55	12491.49
890.866	12417.82
891.182	12431.38
891.498	12288.34
891.815	12271.84
892.131	12239.07
892.447	12131.5
892.763	12195
893.079	12163.14
893.395	12028.68
893.71	11931.51
894.026	12016.48
894.342	11978.74
894.657	11891.74
894.973	11851.06
895.289	11880.21
895.604	11828.46
895.92	11655.81
896.235	11684.74
896.55	11615.36
896.865	11637.05
897.181	11633.66
897.496	11619.43
897.811	11504.4
898.126	11399.32
898.441	11337.85
898.756	11319.55
899.071	11230.74
899.386	11246.78
899.7	11120.23
900.015	11032.55
900.33	10962.72
900.644	11037.52
900.959	11004.3
901.273	10906.68
901.588	10867.13
901.902	10850.41
902.216	10792.1
902.531	10799.33
902.845	10773.12
903.159	10685.67
903.473	10656.74
903.787	10593.46
904.101	10557.99
904.415	10559.79
904.729	10536.97
905.042	10472.34
905.356	10482.05
905.67	10401.61
905.984	10333.36
906.297	10276.18
906.611	10206.36
906.924	10170.42
907.237	10180.82
907.551	10089.3
907.864	10079.58
908.177	10049.07
908.491	10028.28
908.804	9929.53
909.117	9894.73
909.43	9815.41
909.743	9814.5
910.056	9799.36
910.368	9728.4
910.681	9689.99
910.994	9741.06
911.307	9659.25
911.619	9561.85
911.932	9588.75
912.244	9561.4
912.557	9473.49
912.869	9423.33
913.181	9406.15
913.494	9370.22
913.806	9341.07
914.118	9353.05
914.43	9242.31
914.742	9275.76
915.054	9226.72
915.366	9121.64
915.678	9154.63
915.99	9107.4
916.302	9018.14
916.613	9019.72
916.925	9010.46
917.236	8984.92
917.548	8882.77
917.859	8897.46
918.171	8803.91
918.482	8729.56
918.794	8718.94
919.105	8792.38
919.416	8577.25
919.727	8660.18
920.038	8620.63
920.349	8510.36
920.66	8550.35
920.971	8524.37
921.282	8530.02
921.593	8452.96
921.903	8408.21
922.214	8395.33
922.525	8367.76
922.835	8407.53
923.146	8302.23
923.456	8365.73
923.767	8277.59
924.077	8231.04
924.387	8219.06
924.697	8201.44
925.008	8200.31
925.318	8113.3
925.628	8088.45
925.938	8034.89
926.248	7988.56
926.558	7976.36
926.867	7975.91
927.177	7923.48
927.487	7905.4
927.796	7855.23
928.106	7850.94
928.416	7838.28
928.725	7862.01
929.034	7744.5
929.344	7727.55
929.653	7746.08
929.962	7679.87
930.271	7651.62
930.581	7621.79
930.89	7611.4
931.199	7568.46
931.508	7554
931.817	7525.3
932.125	7583.15
932.434	7413.66
932.743	7455.24
933.051	7458.41
933.36	7374.34
933.669	7281.01
933.977	7282.14
934.286	7295.7
934.594	7259.99
934.902	7220.9
935.21	7216.38
935.519	7227
935.827	7139.54
936.135	7120.79
936.443	7059.09
936.751	7040.34
937.059	7056.16
937.367	7010.06
937.674	6973.67
937.982	6974.35
938.29	6881.7
938.597	6851.19
938.905	6800.12
939.213	6813.22
939.52	6748.37
939.827	6808.03
940.135	6743.85
940.442	6720.57
940.749	6649.39
941.056	6682.38
941.363	6631.99
941.67	6561.48
941.977	6551.54
942.284	6438.32
942.591	6472.67
942.898	6447.58
943.205	6498.2
943.511	6445.78
943.818	6438.32
944.125	6341.82
944.431	6352.67
944.738	6334.37
945.044	6250.3
945.35	6258.89
945.657	6214.37
945.963	6166.46
946.269	6143.86
946.575	6093.7
946.881	6119.91
947.187	6110.87
947.493	6060.02
947.799	6023.42
948.105	5981.38
948.41	5959.01
948.716	5911.1
949.022	5858.67
949.327	5874.49
949.633	5834.95
949.938	5814.83
950.244	5839.69
950.549	5722.18
950.854	5726.93
951.16	5710.2
951.465	5679.02
951.77	5650.32
952.075	5653.03
952.38	5612.8
952.685	5610.09
952.99	5560.38
953.294	5552.47
953.599	5510.43
953.904	5404.67
954.209	5403.54
954.513	5347.05
954.818	5387.27
955.122	5328.07
955.426	5336.2
955.731	5264.34
956.035	5244.23
956.339	5213.72
956.643	5191.35
956.948	5197.22
957.252	5156.32
957.556	5118.35
957.86	5060.5
958.163	5103.89
958.467	5027.96
958.771	4989.54
959.075	5002.2
959.378	5001.97
959.682	4952.71
959.985	4944.35
960.289	4871.13
960.592	4839.94
960.896	4835.42
961.199	4811.47
961.502	4830
961.805	4802.66
962.108	4697.35
962.411	4714.97
962.714	4684.47
963.017	4702.32
963.32	4700.74
963.623	4640.85
963.926	4595.2
964.228	4577.35
964.531	4597.69
964.833	4564.92
965.136	4493.96
965.438	4524.7
965.741	4484.02
966.043	4459.39
966.345	4433.17
966.648	4422.55
966.95	4390.69
967.252	4342.78
967.554	4339.39
967.856	4324.48
968.158	4290.58
968.46	4260.52
968.761	4267.3
969.063	4233.86
969.365	4208.55
969.666	4206.97
969.968	4155.22
970.269	4113.18
970.571	4099.85
970.872	4093.07
971.174	4112.73
971.475	4074.09
971.776	4047.65
972.077	4030.47
972.378	3977.82
972.679	3983.02
972.98	3950.48
973.281	3997.71
973.582	3922.68
973.883	3891.04
974.183	3908.22
974.484	3881.78
974.785	3831.16
975.085	3848.78
975.386	3867.77
975.686	3804.49
975.986	3825.51
976.287	3793.64
976.587	3778.5
976.887	3729.69
977.187	3740.54
977.487	3703.7
977.787	3685.4
978.087	3632.52
978.387	3650.82
978.687	3653.76
978.987	3633.87
979.286	3587.77
979.586	3603.14
979.885	3544.84
980.185	3529.24
980.484	3510.26
980.784	3486.53
981.083	3484.95
981.382	3471.39
981.682	3458.28
981.981	3418.74
982.28	3415.12
982.579	3403.14
982.878	3394.78
983.177	3383.71
983.475	3381.22
983.774	3362.47
984.073	3281.11
984.372	3343.71
984.67	3288.57
984.969	3255.58
985.267	3273.2
985.566	3254.22
985.864	3234.56
986.162	3235.69
986.461	3194.11
986.759	3185.3
987.057	3169.48
987.355	3105.07
987.653	3121.34
987.951	3118.63
988.249	3155.47
988.547	3135.58
988.844	3051.97
989.142	3086.54
989.44	3051.29
989.737	3018.52
990.035	2988.69
990.332	3015.36
990.63	2998.86
990.927	2999.77
991.224	2961.57
991.521	2939.43
991.819	2920.22
992.116	2914.8
992.413	2928.58
992.71	2901.69
993.006	2891.75
993.303	2874.57
993.6	2880.67
993.897	2883.16
994.193	2816.49
994.49	2858.07
994.787	2807.45
995.083	2808.81
995.379	2770.85
995.676	2797.06
995.972	2761.35
996.268	2771.98
996.565	2701.69
996.861	2727.91
997.157	2701.24
997.453	2682.26
997.749	2693.79
998.044	2685.88
998.34	2692.43
998.636	2661.47
998.932	2652.2
999.227	2630.96
999.523	2597.52
999.818	2597.29
1000.114	2557.52
1000.409	2594.35
1000.704	2529.04
1001	2537.86
1001.295	2515.94
1001.59	2516.16
1001.885	2490.4
1002.18	2502.6
1002.475	2473.68
1002.77	2444.98
1003.065	2453.34
1003.359	2444.3
1003.654	2397.97
1003.949	2382.83
1004.243	2388.93
1004.538	2345.32
1004.832	2396.62
1005.127	2364.53
1005.421	2327.02
1005.715	2323.17
1006.009	2340.57
1006.304	2298.99
1006.598	2236.17
1006.892	2265.77
1007.186	2229.62
1007.48	2257.41
1007.773	2222.61
1008.067	2229.84
1008.361	2178.54
1008.655	2191.43
1008.948	2193.91
1009.242	2175.15
1009.535	2166.34
1009.829	2137.42
1010.122	2142.39
1010.415	2094.03
1010.708	2097.87
1011.001	2113.69
1011.295	2064.42
1011.588	2073.24
1011.881	2079.34
1012.173	2086.57
1012.466	2032.56
1012.759	2031.2
1013.052	2012.45
1013.344	2003.86
1013.637	2001.15
1013.93	2001.37
1014.222	1969.06
1014.514	1948.72
1014.807	1919.79
1015.099	1940.36
1015.391	1931.09
1015.683	1897.2
1015.976	1892.68
1016.268	1903.75
1016.56	1866.91
1016.851	1860.36
1017.143	1846.12
1017.435	1861.94
1017.727	1814.49
1018.018	1813.13
1018.31	1803.41
1018.602	1805.67
1018.893	1786.69
1019.185	1752.57
1019.476	1759.57
1019.767	1772
1020.058	1762.96
1020.35	1746.69
1020.641	1688.61
1020.932	1703.98
1021.223	1704.66
1021.514	1678.44
1021.804	1677.31
1022.095	1652
1022.386	1682.51
1022.677	1652.68
1022.967	1630.76
1023.258	1645
1023.548	1622.4
1023.839	1610.42
1024.129	1607.49
1024.419	1565.68
1024.709	1611.1
1025	1546.92
1025.29	1556.41
1025.58	1563.65
1025.87	1529.52
1026.16	1560.48
1026.449	1521.84
1026.739	1505.34
1027.029	1504.89
1027.319	1507.6
1027.608	1481.61
1027.898	1452.91
1028.187	1468.96
1028.477	1448.39
1028.766	1443.2
1029.055	1422.18
1029.344	1413.82
1029.634	1412.01
1029.923	1412.46
1030.212	1379.47
1030.501	1397.1
1030.79	1369.3
1031.078	1371.56
1031.367	1336.08
1031.656	1359.36
1031.945	1377.21
1032.233	1333.14
1032.522	1323.43
1032.81	1285.69
1033.099	1318.68
1033.387	1303.99
1033.675	1293.37
1033.963	1271.68
1034.251	1285.01
1034.54	1255.86
1034.828	1252.24
1035.116	1248.17
1035.403	1235.52
1035.691	1227.38
1035.979	1218.57
1036.267	1226.48
1036.554	1192.36
1036.842	1190.1
1037.129	1176.31
1037.417	1151
1037.704	1170.21
1037.992	1152.13
1038.279	1170.44
1038.566	1134.73
1038.853	1134.73
1039.14	1134.73
