Data from white_steel_sheet_FLMS001491_094.txt Node
Date: Tue Feb 07 10:58:50 GMT 2017
User: dcchb
Spectrometer: FLMS00149
Trigger mode: 0
Integration Time (sec): 2.000000E-2
Scans to average: 10
Electric dark correction enabled: true
Nonlinearity correction enabled: false
Boxcar width: 0
XAxis mode: Wavelengths
Number of Pixels in Spectrum: 2048
>>>>>Begin Spectral Data<<<<<
341.393	-14.11
341.776	-14.11
342.16	-14.11
342.543	-65.86
342.927	-64.05
343.31	-78.74
343.693	-64.05
344.077	-77.16
344.46	-40.1
344.843	-50.49
345.226	-43.04
345.61	-43.49
345.993	-27.44
346.376	-22.25
346.759	5.32
347.142	41.71
347.525	58.43
347.908	56.4
348.291	81.25
348.674	87.13
349.057	116.51
349.44	120.35
349.823	135.49
350.206	175.72
350.588	195.83
350.971	204.64
351.354	235.83
351.737	251.65
352.119	265.88
352.502	257.75
352.884	269.27
353.267	299.78
353.65	284.64
354.032	294.13
354.414	309.27
354.797	321.47
355.179	315.6
355.562	327.35
355.944	330.29
356.326	327.8
356.709	335.26
357.091	338.88
357.473	330.06
357.855	340.23
358.238	335.94
358.62	326.45
359.002	350.85
359.384	332.77
359.766	359.89
360.148	323.96
360.53	327.58
360.912	375.94
361.294	325.99
361.676	354.92
362.057	337.52
362.439	327.35
362.821	345.43
363.203	323.06
363.584	348.37
363.966	338.65
364.348	316.73
364.729	324.19
365.111	311.31
365.493	336.39
365.874	326.45
366.256	322.38
366.637	309.05
367.019	307.46
367.4	330.29
367.781	313.79
368.163	321.93
368.544	336.62
368.925	321.7
369.306	329.38
369.688	310.85
370.069	324.41
370.45	324.64
370.831	312.89
371.212	322.38
371.593	311.98
371.974	318.08
372.355	321.02
372.736	339.55
373.117	335.71
373.498	342.04
373.879	332.55
374.26	317.41
374.641	312.21
375.021	333.45
375.402	354.02
375.783	335.71
376.163	331.64
376.544	340.01
376.925	335.94
377.305	348.37
377.686	337.97
378.066	357.18
378.447	330.51
378.827	325.32
379.208	350.63
379.588	359.67
379.968	352.66
380.349	343.39
380.729	354.47
381.109	372.09
381.489	348.59
381.87	356.5
382.25	373.68
382.63	372.32
383.01	369.83
383.39	366.22
383.77	347.69
384.15	349.04
384.53	384.75
384.91	359.44
385.29	347.01
385.67	362.15
386.049	400.79
386.429	387.46
386.809	388.14
387.189	390.17
387.568	400.34
387.948	387.69
388.328	405.77
388.707	393.34
389.087	394.02
389.466	399.66
389.846	397.63
390.225	412.09
390.605	405.77
390.984	399.89
391.363	423.39
391.743	435.14
392.122	433.34
392.501	428.14
392.881	427.69
393.26	461.58
393.639	463.17
394.018	472.88
394.397	457.74
394.776	451.41
395.155	450.06
395.534	455.03
395.913	476.72
396.292	493.22
396.671	486.22
397.05	473.11
397.429	493.67
397.808	498.87
398.186	491.19
398.565	500.9
398.944	501.58
399.323	504.52
399.701	507.68
400.08	521.24
400.458	518.08
400.837	558.08
401.215	556.27
401.594	572.99
401.972	575.25
402.351	577.29
402.729	580.22
403.107	592.2
403.486	577.97
403.864	593.56
404.242	598.53
404.62	616.83
404.999	594.01
405.377	619.32
405.755	641.92
406.133	622.48
406.511	649.15
406.889	669.49
407.267	684.85
407.645	703.16
408.023	717.85
408.401	698.64
408.779	688.47
409.156	738.86
409.534	736.6
409.912	744.29
410.29	766.21
410.667	810.73
411.045	781.58
411.422	818.41
411.8	780.45
412.178	827.45
412.555	840.78
412.933	841.69
413.31	852.99
413.687	856.15
414.065	883.95
414.442	890.5
414.819	913.55
415.197	896.83
415.574	945.19
415.951	918.75
416.328	929.82
416.705	949.48
417.082	971.63
417.46	963.94
417.837	979.99
418.214	986.09
418.591	1002.36
418.967	981.34
419.344	1016.82
419.721	1023.15
420.098	1019.31
420.475	1058.4
420.852	1030.83
421.228	1049.37
421.605	1080.55
421.982	1071.74
422.358	1091.4
422.735	1108.8
423.111	1122.36
423.488	1128.91
423.864	1146.76
424.241	1157.84
424.617	1195.12
424.994	1163.71
425.37	1182.92
425.746	1188.12
426.123	1190.38
426.499	1219.98
426.875	1215.46
427.251	1266.99
427.627	1276.03
428.003	1266.99
428.379	1297.72
428.756	1292.75
429.132	1361.45
429.507	1345.85
429.883	1386.76
430.259	1388.34
430.635	1413.88
431.011	1412.75
431.387	1443.25
431.763	1457.26
432.138	1456.36
432.514	1486.87
432.89	1471.95
433.265	1531.61
433.641	1547.43
434.016	1553.31
434.392	1610.93
434.767	1605.51
435.143	1628.33
435.518	1633.3
435.894	1658.84
436.269	1682.79
436.644	1686.41
437.02	1693.19
437.395	1730.7
437.77	1734.09
438.145	1763.24
438.52	1827.65
438.895	1833.98
439.271	1823.13
439.646	1853.41
440.021	1875.33
440.395	1899.51
440.77	1847.54
441.145	1925.73
441.52	1923.92
441.895	1909.23
442.27	1980.19
442.645	1976.35
443.019	1976.8
443.394	1997.81
443.769	1972.28
444.143	2012.73
444.518	2029.68
444.892	2061.32
445.267	2071.94
445.641	2064.71
446.016	2062.22
446.39	2084.59
446.764	2112.39
447.139	2110.35
447.513	2163.91
447.887	2177.7
448.262	2228.54
448.636	2201.65
449.01	2226.96
449.384	2219.5
449.758	2295.21
450.132	2323
450.506	2327.07
450.88	2331.37
451.254	2360.97
451.628	2346.73
452.002	2428.99
452.376	2430.57
452.75	2433.74
453.123	2475.09
453.497	2503.56
453.871	2537.24
454.244	2590.79
454.618	2594.41
454.992	2632.15
455.365	2629.89
455.739	2720.73
456.112	2692.26
456.486	2717.12
456.859	2770
457.232	2827.62
457.606	2789.66
457.979	2841.18
458.352	2872.59
458.725	2919.37
459.099	2953.72
459.472	2983.1
459.845	3047.05
460.218	3094.74
460.591	3082.53
460.964	3093.15
461.337	3164.79
461.71	3216.09
462.083	3268.74
462.456	3269.65
462.829	3276.88
463.201	3353.26
463.574	3347.16
463.947	3391.45
464.32	3459.02
464.692	3484.78
465.065	3496.98
465.438	3570.43
465.81	3618.79
466.183	3649.52
466.555	3731.33
466.928	3749.18
467.3	3793.93
467.672	3800.48
468.045	3907.59
468.417	3951.21
468.789	3988.72
469.161	3973.36
469.534	4047.48
469.906	4146.23
470.278	4142.17
470.65	4229.17
471.022	4329.28
471.394	4378.77
471.766	4444.08
472.138	4457.19
472.51	4555.49
472.882	4663.28
473.253	4700.34
473.625	4741.47
473.997	4846.78
474.369	4905.08
474.74	4927.91
475.112	5004.97
475.484	5074.57
475.855	5207.22
476.227	5237.28
476.598	5373.09
476.97	5414.9
477.341	5560.43
477.713	5682.24
478.084	5639.98
478.455	5788.68
478.827	5838.17
479.198	5992.29
479.569	6020.53
479.94	6191.38
480.311	6277.93
480.682	6383.24
481.053	6522.44
481.424	6656.68
481.795	6684.02
482.166	6786.39
482.537	6864.13
482.908	7057.79
483.279	7056.21
483.65	7166.49
484.021	7321.52
484.391	7470.67
484.762	7493.94
485.133	7587.5
485.503	7763.09
485.874	7870.65
486.244	7989.52
486.615	8081.72
486.985	8215.96
487.356	8373.01
487.726	8386.8
488.097	8628.83
488.467	8608.71
488.837	8837.18
489.207	8910.85
489.578	9032.21
489.948	9144.07
490.318	9249.6
490.688	9262.71
491.058	9511.29
491.428	9636.03
491.798	9714.22
492.168	9888.91
492.538	9888.68
492.908	10006.87
493.278	10118.51
493.648	10208.22
494.017	10307.43
494.387	10392.85
494.757	10511.04
495.126	10685.5
495.496	10726.4
495.866	10747.87
496.235	10876.9
496.605	10971.82
496.974	11013.4
497.344	11094.07
497.713	11267.63
498.082	11332.26
498.452	11460.39
498.821	11463.78
499.19	11550.33
499.559	11687.05
499.928	11714.62
500.298	11795.3
500.667	12033.71
501.036	11952.58
501.405	12090.66
501.774	12156.64
502.143	12267.83
502.512	12370.88
502.88	12431.89
503.249	12437.54
503.618	12520.02
503.987	12571.1
504.356	12749.85
504.724	12908.26
505.093	12913.91
505.462	12929.73
505.83	12988.03
506.199	13199.55
506.567	13313
506.936	13341.7
507.304	13533.56
507.672	13561.58
508.041	13600.67
508.409	13754.34
508.777	13889.93
509.145	14019.87
509.514	13950.72
509.882	14156.59
510.25	14224.16
510.618	14297.15
510.986	14446.75
511.354	14567.65
511.722	14660.53
512.09	14830.47
512.458	14772.17
512.826	14992.28
513.193	15049.45
513.561	15162.67
513.929	15236.56
514.297	15340.29
514.664	15494.86
515.032	15546.16
515.4	15747.96
515.767	15854.63
516.135	15950.44
516.502	15814.17
516.869	16193.37
517.237	16282.86
517.604	16305.91
517.972	16490.09
518.339	16577.77
518.706	16629.97
519.073	16787.03
519.44	16888.27
519.808	17093.01
520.175	17062.73
520.542	17355.38
520.909	17450.52
521.276	17434.47
521.643	17665.65
522.009	17776.16
522.376	17968.69
522.743	18063.38
523.11	18208.46
523.477	18486.42
523.843	18559.64
524.21	18771.38
524.577	18789.92
524.943	19020.42
525.31	19089.57
525.676	19258.83
526.043	19395.55
526.409	19531.14
526.776	19691.81
527.142	19771.36
527.508	19906.5
527.874	20067.62
528.241	20240.5
528.607	20204.12
528.973	20457.44
529.339	20445.47
529.705	20737.43
530.071	20904.66
530.437	20878.22
530.803	21063.98
531.169	21259.46
531.535	21201.6
531.901	21274.14
532.267	21541.93
532.632	21681.14
532.998	21708.26
533.364	21844.52
533.73	21815.37
534.095	22023.5
534.461	22085.42
534.826	22347.56
535.192	22418.29
535.557	22545.75
535.923	22537.16
536.288	22772.86
536.653	22698.51
537.019	22739.64
537.384	22954.33
537.749	23037.71
538.114	23059.18
538.479	23108.45
538.845	23137.82
539.21	23222.12
539.575	23375.11
539.94	23521.77
540.305	23689
540.67	23632.05
541.034	23704.59
541.399	23847.41
541.764	23908.65
542.129	24006.95
542.494	24092.6
542.858	24099.61
543.223	24233.39
543.587	24334.18
543.952	24422.31
544.316	24514.96
544.681	24391.8
545.045	24680.16
545.41	24789.31
545.774	24830.89
546.138	24855.07
546.503	24966.25
546.867	24962.86
547.231	25187.49
547.595	25199.92
547.959	25307.71
548.324	25406.92
548.688	25436.97
549.052	25508.38
549.416	25533.69
549.779	25719.68
550.143	25688.94
550.507	25935.49
550.871	25986.11
551.235	26011.19
551.599	26254.58
551.962	26085.77
552.326	26352.88
552.689	26509.49
553.053	26441.24
553.417	26507
553.78	26947.89
554.143	26846.43
554.507	26835.81
554.87	27035.35
555.234	27243.48
555.597	27086.42
555.96	27236.47
556.323	27431.95
556.686	27298.17
557.05	27746.29
557.413	27783.58
557.776	27865.84
558.139	28008.2
558.502	28010.24
558.865	28117.13
559.228	28317.12
559.59	28402.54
559.953	28458.36
560.316	28807.96
560.679	28798.01
561.041	28939.71
561.404	29059.7
561.767	29228.74
562.129	29124.11
562.492	29569.29
562.854	29496.98
563.217	29438.22
563.579	29706.69
563.941	29827.59
564.304	29945.1
564.666	30067.36
565.028	30058.09
565.39	30205.89
565.753	30481.59
566.115	30598.87
566.477	30837.96
566.839	30865.3
567.201	31049.48
567.563	31114.79
567.925	31220.55
568.287	31233.2
568.648	31259.87
569.01	31527.89
569.372	31679.75
569.734	31525.17
570.095	31768.78
570.457	31947.08
570.819	31902.34
571.18	31966.29
571.542	32193.18
571.903	32215.55
572.265	32244.48
572.626	32481.53
572.987	32440.4
573.349	32547.97
573.71	32617.35
574.071	32663
574.432	32923.33
574.794	33094.85
575.155	33074.06
575.516	33065.25
575.877	33095.75
576.238	33164.68
576.599	33223.66
576.96	33309.08
577.32	33295.97
577.681	33434.73
578.042	33565.8
578.403	33622.52
578.763	33482.41
579.124	33678.79
579.485	33736.42
579.845	33775.96
580.206	33755.4
580.566	33748.84
580.927	33679.02
581.287	33987.71
581.648	33773.48
582.008	34016.18
582.368	33871.1
582.728	33911.33
583.089	33966.92
583.449	34038.55
583.809	33937.31
584.169	33988.61
584.529	33959.23
584.889	34166.91
585.249	33909.52
585.609	33805.79
585.969	34158.33
586.329	33989.52
586.688	34077.65
587.048	33980.7
587.408	33999.69
587.768	34018.89
588.127	33976.41
588.487	33891.89
588.846	34312.22
589.206	34042.62
589.565	34100.7
589.925	34208.49
590.284	33970.31
590.643	34065.22
591.003	34172.79
591.362	34209.17
591.721	34198.78
592.08	34267.7
592.44	34225.89
592.799	34229.74
593.158	34165.1
593.517	34074.94
593.876	34183.18
594.235	34194.03
594.593	34211.43
594.952	34206.69
595.311	33980.93
595.67	34246.01
596.029	34382.73
596.387	34229.96
596.746	34447.58
597.104	34281.94
597.463	34191.77
597.822	34412.1
598.18	34322.84
598.538	34175.27
598.897	34465.66
599.255	34240.36
599.613	34575.26
599.972	34444.87
600.33	34337.3
600.688	34193.35
601.046	34539.78
601.404	34548.82
601.762	34430.41
602.12	34575.04
602.478	34539.33
602.836	34542.04
603.194	34526.9
603.552	34421.59
603.91	34333.01
604.268	34542.95
604.625	34378.88
604.983	34577.75
605.341	34356.51
605.698	34659.78
606.056	34669.27
606.413	34600.12
606.771	34662.04
607.128	34827.91
607.485	34637.41
607.843	34702.94
608.2	34769.61
608.557	34901.81
608.914	34734.13
609.272	34895.03
609.629	35001.92
609.986	35066.78
610.343	34981.81
610.7	35183.38
611.057	35094.12
611.414	35109.49
611.771	35107.68
612.127	35264.06
612.484	35154.23
612.841	35240.1
613.198	35178.64
613.554	35272.19
613.911	35321.91
614.267	35281.46
614.624	35393.09
614.98	35405.3
615.337	35639.64
615.693	35488.23
616.05	35426.99
616.406	35732.97
616.762	35731.17
617.118	35572.3
617.475	35746.76
617.831	35800.77
618.187	35658.85
618.543	35794.67
618.899	35863.36
619.255	35833.99
619.611	35764.84
619.967	35998.73
620.323	36108.1
620.678	35911.95
621.034	35790.82
621.39	35802.58
621.746	35842.8
622.101	36192.4
622.457	35925.28
622.812	35983.14
623.168	36000.76
623.523	35965.51
623.879	36179.06
624.234	35908.56
624.589	35997.6
624.945	36002.57
625.3	36125.96
625.655	36029.46
626.01	36044.6
626.365	35968.45
626.72	35944.27
627.075	36069.91
627.43	36059.29
627.785	35906.75
628.14	36051.38
628.495	35917.15
628.85	35999.18
629.205	35832.86
629.559	35944.49
629.914	36000.31
630.269	35966.87
630.623	35759.86
630.978	35728
631.332	35977.94
631.687	35815.46
632.041	35770.49
632.396	35835.57
632.75	35584.05
633.104	35706.76
633.459	35488.23
633.813	35458.18
634.167	35457.05
634.521	35484.17
634.875	35636.7
635.229	35394.9
635.583	35356.03
635.937	35422.47
636.291	35286.66
636.645	35387.45
636.999	35222.03
637.352	35235.13
637.706	35006.44
638.06	35191.74
638.413	35073.78
638.767	35067.91
639.121	35024.97
639.474	34843.05
639.828	34758.54
640.181	34810.51
640.534	34865.65
640.888	34526.22
641.241	34515.15
641.594	34535.04
641.947	34653
642.301	34570.52
642.654	34501.82
643.007	34469.5
643.36	34510.18
643.713	34388.38
644.066	34521.03
644.419	34216.85
644.771	34000.82
645.124	33733.93
645.477	33551.79
645.83	33340.27
646.182	33333.49
646.535	33245.81
646.888	33399.47
647.24	33109.09
647.593	33372.13
647.945	33203.55
648.298	33251.23
648.65	32997.68
649.002	33011.91
649.355	33043.1
649.707	32912.48
650.059	33067.51
650.411	33430.89
650.763	33430.21
651.115	33837.2
651.467	33684.21
651.819	33599.7
652.171	33536.87
652.523	33545.23
652.875	33656.42
653.227	33353.6
653.578	33622.07
653.93	33352.47
654.282	33268.86
654.633	33331.68
654.985	33314.28
655.337	33317.9
655.688	33241.96
656.039	33445.35
656.391	32964.91
656.742	33175.75
657.094	33167.39
657.445	33320.15
657.796	33307.27
658.147	33196.99
658.498	33002.88
658.849	33164
659.2	33017.79
659.551	32953.84
659.902	32971.24
660.253	32827.06
660.604	32881.3
660.955	32705.48
661.306	32854.86
661.656	32563.56
662.007	32719.94
662.358	32665.71
662.708	32609.67
663.059	32550.01
663.409	32404.92
663.76	32713.39
664.11	32506.84
664.461	32624.58
664.811	32568.76
665.161	32480.63
665.511	32282.67
665.862	32242.67
666.212	32282.22
666.562	32312.05
666.912	32065.95
667.262	31912.73
667.612	31952.96
667.962	31829.8
668.312	31950.7
668.662	31887.2
669.011	31783.47
669.361	31719.97
669.711	31529.69
670.06	31507.77
670.41	31382.8
670.76	31223.71
671.109	31334.44
671.459	31364.95
671.808	31154.79
672.157	31151.4
672.507	30934.91
672.856	31037.5
673.205	30981.23
673.554	31105.52
673.904	30820.11
674.253	31069.14
674.602	30914.57
674.951	30403.17
675.3	30196.62
675.649	30661.69
675.998	30591.87
676.346	30713.22
676.695	30708.25
677.044	30539.66
677.393	30671.41
677.741	30402.49
678.09	30558.42
678.438	30500.57
678.787	30584.41
679.135	30453.34
679.484	30359.78
679.832	30526.33
680.181	30257.18
680.529	30394.58
680.877	30273.91
681.225	30284.75
681.573	30463.96
681.922	30178.99
682.27	30344.87
682.618	30309.16
682.966	30286.11
683.314	30273
683.661	30325.88
684.009	30239.78
684.357	30285.88
684.705	30239.56
685.053	30131.54
685.4	30184.87
685.748	30121.59
686.095	30012.45
686.443	29988.72
686.79	30078.21
687.138	30168.6
687.485	30060.13
687.832	30013.35
688.18	30136.28
688.527	29939.45
688.874	30010.19
689.221	29915.05
689.568	29982.16
689.915	29885.89
690.262	29913.24
690.609	29812.22
690.956	29869.17
691.303	29785.11
691.65	29607.71
691.997	29759.57
692.344	29505.79
692.69	29546.24
693.037	29634.38
693.383	29438.45
693.73	29476.64
694.077	29437.55
694.423	29302.86
694.769	29327.04
695.116	29361.61
695.462	29340.6
695.808	29153.94
696.155	29250.43
696.501	29121.62
696.847	29139.47
697.193	28922.53
697.539	28958.01
697.885	28627.17
698.231	28637.57
698.577	28690.45
698.923	28623.33
699.269	28632.37
699.614	28322.77
699.96	28367.74
700.306	28404.35
700.651	28269.21
700.997	28232.15
701.342	28106.05
701.688	28181.76
702.033	27968.21
702.379	27981.31
702.724	27881.88
703.069	27888.43
703.415	27527.54
703.76	27702
704.105	27585.16
704.45	27588.1
704.795	27343.36
705.14	27319.18
705.485	27309.47
705.83	27225.4
706.175	27271.27
706.52	27218.17
706.865	27144.5
707.209	27030.6
707.554	26875.13
707.899	26990.38
708.243	26912.19
708.588	26752.87
708.932	26624.51
709.277	26649.6
709.621	26656.6
709.966	26487.57
710.31	26528.02
710.654	26421.81
710.998	26375.93
711.342	26444.63
711.687	26245.31
712.031	26198.76
712.375	26057.52
712.719	26071.98
713.063	25998.31
713.407	26036.05
713.75	25954.25
714.094	25880.58
714.438	25729.62
714.782	25850.07
715.125	25668.6
715.469	25856.62
715.812	25707.93
716.156	25421.15
716.499	25450.98
716.843	25387.48
717.186	25237.43
717.53	25457.99
717.873	25457.08
718.216	25327.14
718.559	25210.76
718.902	24955.18
719.246	25191.56
719.589	25020.94
719.932	24893.71
720.275	24958.34
720.617	24961.05
720.96	24948.85
721.303	24990.43
721.646	24881.05
721.989	24658.46
722.331	24827.27
722.674	24738.01
723.016	24734.84
723.359	24621.63
723.701	24710.21
724.044	24443.55
724.386	24432.03
724.729	24400.62
725.071	24436.77
725.413	24400.84
725.755	24463.44
726.097	24314.52
726.439	24127.63
726.782	24210.11
727.124	24282.43
727.465	24133.28
727.807	24107.97
728.149	23998.82
728.491	24012.6
728.833	24059.16
729.175	23888.31
729.516	23959.5
729.858	23798.37
730.199	23913.4
730.541	23835.43
730.882	23694.87
731.224	23818.48
731.565	23649.9
731.906	23666.62
732.248	23640.64
732.589	23601.77
732.93	23575.55
733.271	23419.62
733.612	23418.95
733.953	23464.14
734.294	23402.22
734.635	23289.46
734.976	23413.97
735.317	23152.96
735.658	23208.78
735.999	23178.27
736.339	23085.62
736.68	23248.56
737.021	23145.06
737.361	22992.97
737.702	23075
738.042	22999.07
738.383	22861.45
738.723	23006.53
739.063	22868.45
739.404	22869.36
739.744	22876.59
740.084	22722.92
740.424	22748.68
740.764	22724.05
741.104	22749.59
741.444	22579.65
741.784	22626.2
742.124	22591.4
742.464	22565.86
742.804	22550.27
743.143	22478.86
743.483	22399.76
743.823	22287.45
744.162	22457.84
744.502	22236.6
744.841	22163.61
745.181	22207.45
745.52	22178.98
745.86	22117.96
746.199	22175.14
746.538	22024.86
746.877	22133.56
747.216	22039.55
747.556	21992.32
747.895	21915.03
748.234	21900.79
748.573	21878.87
748.911	21693.12
749.25	21807.24
749.589	21685.88
749.928	21686.56
750.267	21706.68
750.605	21602.27
750.944	21555.04
751.283	21498.54
751.621	21534.7
751.96	21339.68
752.298	21468.04
752.636	21407.02
752.975	21294.71
753.313	21339.23
753.651	21339
753.989	21176.97
754.327	21199.34
754.666	20983.08
755.004	21065.34
755.342	20975.17
755.679	21003.42
756.017	20800.94
756.355	20918
756.693	20782.86
757.031	20816.75
757.368	20647.95
757.706	20647.49
758.044	20593.03
758.381	20503.54
758.719	20419.7
759.056	20412.47
759.394	20462.64
759.731	20275.53
760.068	20353.26
760.405	20146.26
760.743	20157.34
761.08	20126.83
761.417	20086.6
761.754	19952.37
762.091	19954.63
762.428	19775.88
762.765	19718.93
763.102	19752.38
763.438	19598.71
763.775	19515.77
764.112	19549.44
764.449	19547.18
764.785	19428.09
765.122	19319.17
765.458	19210.47
765.795	19269
766.131	19186.52
766.467	19031.72
766.804	19092.28
767.14	18929.35
767.476	18904.04
767.812	18872.85
768.148	18777.71
768.485	18718.73
768.821	18675.34
769.157	18595.57
769.492	18493.2
769.828	18510.15
770.164	18293.21
770.5	18363.26
770.836	18360.32
771.171	18197.39
771.507	18288.91
771.842	18028.58
772.178	18096.37
772.513	17966.43
772.849	17932.76
773.184	17942.71
773.519	17816.83
773.855	17703.39
774.19	17718.98
774.525	17637.63
774.86	17646.89
775.195	17598.53
775.53	17581.81
775.865	17318.54
776.2	17317.64
776.535	17122.39
776.87	17146.34
777.205	16997.87
777.539	17045.55
777.874	17152.44
778.209	16884.43
778.543	16793.36
778.878	16753.36
779.212	16722.4
779.547	16564.89
779.881	16699.12
780.215	16465.23
780.55	16543.42
780.884	16407.38
781.218	16379.13
781.552	16348.62
781.886	16294.16
782.22	16195.86
782.554	16127.84
782.888	16002.64
783.222	15961.52
783.556	15960.61
783.889	15864.79
784.223	15675.2
784.557	15673.16
784.89	15712.71
785.224	15651.02
785.557	15491.7
785.891	15479.95
786.224	15615.99
786.558	15471.13
786.891	15272.72
787.224	15313.62
787.557	15262.1
787.891	15215.77
788.224	15110.01
788.557	15152.95
788.89	15170.8
789.223	15121.31
789.556	14917.93
789.888	14853.75
790.221	14842.22
790.554	14686.52
790.887	14683.13
791.219	14679.52
791.552	14690.14
791.884	14601.78
792.217	14562.68
792.549	14511.16
792.882	14359.75
793.214	14385.29
793.546	14324.04
793.879	14233.2
794.211	14109.36
794.543	14265.97
794.875	14145.52
795.207	14162.47
795.539	14088.12
795.871	14072.3
796.203	13953.88
796.535	13914.79
796.867	13816.71
797.198	13933.09
797.53	13816.04
797.862	13639.09
798.193	13744.62
798.525	13622.82
798.856	13644.51
799.188	13488.13
799.519	13499.21
799.85	13404.07
800.182	13407.91
800.513	13359.1
800.844	13208.82
801.175	13383.28
801.506	13313.45
801.837	13177.86
802.168	13158.2
802.499	13134.47
802.83	13100.12
803.161	12985.1
803.491	12887.7
803.822	13030.97
804.153	12927.47
804.483	12774.48
804.814	12776.97
805.145	12734.26
805.475	12760.92
805.805	12696.52
806.136	12794.37
806.466	12696.06
806.796	12643.64
807.126	12569.74
807.457	12488.16
807.787	12539.01
808.117	12430.08
808.447	12388.73
808.777	12483.41
809.107	12276.19
809.436	12291.33
809.766	12315.74
810.096	12234.83
810.426	12257.88
810.755	12195.51
811.085	12159.81
811.414	12131.56
811.744	12037.55
812.073	12081.62
812.403	12061.5
812.732	11950.55
813.061	12032.35
813.39	11899.48
813.719	11901.06
814.049	11965.46
814.378	11879.59
814.707	11812.25
815.036	11873.94
815.365	11776.99
815.693	11659.48
816.022	11671.23
816.351	11599.6
816.68	11583.78
817.008	11573.16
817.337	11442.31
817.665	11450.67
817.994	11421.3
818.322	11431.24
818.651	11429.66
818.979	11366.83
819.307	11436.21
819.636	11375.2
819.964	11288.64
820.292	11387.4
820.62	11327.06
820.948	11269.21
821.276	11323.22
821.604	11283.9
821.932	11294.52
822.259	11317.57
822.587	11202.09
822.915	11182.21
823.243	11307.63
823.57	11159.38
823.898	11190.57
824.225	11108.08
824.553	11153.73
824.88	11188.76
825.207	11244.58
825.535	11177.01
825.862	11214.52
826.189	11197.8
826.516	11223.33
826.843	11279.6
827.17	11202.09
827.497	11226.95
827.824	11255.2
828.151	11191.7
828.478	11146.5
828.805	11228.08
829.131	11150.12
829.458	11124.13
829.785	11113.06
830.111	11138.59
830.438	11172.26
830.764	11087.52
831.09	11204.58
831.417	11060.85
831.743	11100.63
832.069	11099.5
832.395	11084.13
832.722	11087.52
833.048	11013.17
833.374	11044.58
833.7	11044.58
834.026	11013.17
834.351	11036.9
834.677	11002.32
835.003	11030.8
835.329	11015.88
835.654	11010.01
835.98	10959.84
836.306	10967.52
836.631	10965.94
836.956	10946.51
837.282	10866.96
837.607	10849.33
837.932	10763.01
838.258	10833.29
838.583	10863.8
838.908	10791.71
839.233	10799.17
839.558	10712.39
839.883	10707.64
840.208	10670.58
840.533	10702.44
840.858	10744.25
841.182	10706.29
841.507	10722.56
841.832	10624.25
842.156	10577.93
842.481	10600.3
842.805	10610.02
843.13	10516.46
843.454	10513.75
843.778	10495.9
844.103	10464.71
844.427	10515.78
844.751	10426.07
845.075	10325.28
845.399	10299.29
845.723	10337.48
846.047	10384.26
846.371	10227.88
846.695	10247.09
847.019	10093.42
847.343	10141.1
847.666	10032.41
847.99	10036.02
848.313	10025.63
848.637	9941.33
848.96	9942.24
849.284	9914.44
849.607	9840.55
849.931	9829.7
850.254	9683.49
850.577	9708.57
850.9	9625.41
851.223	9656.6
851.546	9570.72
851.869	9545.41
852.192	9514.23
852.515	9466.09
852.838	9447.11
853.161	9460.9
853.483	9379.32
853.806	9367.11
854.129	9347.45
854.451	9283.95
854.774	9213.44
855.096	9269.49
855.419	9203.27
855.741	9152.2
856.063	9055.48
856.385	9161.92
856.708	9126.67
857.03	9033.11
857.352	9046.22
857.674	9019.55
857.996	8990.63
858.318	8937.52
858.64	8975.26
858.961	8921.93
859.283	8872.21
859.605	8818.65
859.926	8870.18
860.248	8788.6
860.57	8717.64
860.891	8769.16
861.212	8788.14
861.534	8686.45
861.855	8691.42
862.176	8744.53
862.498	8692.55
862.819	8683.51
863.14	8649.17
863.461	8558.77
863.782	8517.19
864.103	8577.3
864.424	8554.03
864.745	8547.7
865.065	8477.64
865.386	8510.41
865.707	8511.99
866.027	8534.14
866.348	8476.51
866.668	8453.92
866.989	8434.03
867.309	8358.78
867.63	8371.21
867.95	8420.92
868.27	8315.39
868.59	8373.24
868.91	8324.88
869.23	8359.91
869.55	8241.49
869.87	8279.01
870.19	8233.13
870.51	8213.7
870.83	8275.62
871.15	8198.33
871.469	8226.58
871.789	8260.47
872.109	8214.83
872.428	8105.9
872.748	8155.39
873.067	8182.96
873.386	8103.42
873.706	8130.76
874.025	8066.13
874.344	8082.85
874.663	8106.58
874.982	8054.6
875.301	8022.06
875.62	8090.08
875.939	8006.47
876.258	8053.47
876.577	7935.96
876.896	8020.93
877.214	7921.95
877.533	7973.93
877.852	7943.2
878.17	7878.34
878.489	7963.53
878.807	7958.56
879.125	7880.82
879.444	7902.29
879.762	7890.32
880.08	7911.56
880.398	7830.2
880.716	7861.39
881.034	7818
881.352	7807.15
881.67	7799.92
881.988	7751.11
882.306	7768.74
882.624	7782.75
882.941	7715.86
883.259	7658
883.577	7699.36
883.894	7701.62
884.212	7644.22
884.529	7651.9
884.846	7657.78
885.164	7625.46
885.481	7599.48
885.798	7563.77
886.115	7518.35
886.432	7535.07
886.75	7465.24
887.067	7472.92
887.383	7463.66
887.7	7409.65
888.017	7411.46
888.334	7406.49
888.651	7333.72
888.967	7318.35
889.284	7344.57
889.6	7290.33
889.917	7222.08
890.233	7246.94
890.55	7253.04
890.866	7243.55
891.182	7176.66
891.498	7168.75
891.815	7151.58
892.131	7102.09
892.447	7142.54
892.763	7037.68
893.079	7073.84
893.395	7034.74
893.71	7016.44
894.026	7057.34
894.342	6969.44
894.657	6938.25
894.973	6939.15
895.289	6962.43
895.604	6903.45
895.92	6797.24
896.235	6903.9
896.55	6828.87
896.865	6792.72
897.181	6820.29
897.496	6779.84
897.811	6732.83
898.126	6755.88
898.441	6661.42
898.756	6679.95
899.071	6627.75
899.386	6630.01
899.7	6585.26
900.015	6547.98
900.33	6532.61
900.644	6536.9
900.959	6543.01
901.273	6496.91
901.588	6404.03
901.902	6476.12
902.216	6449.45
902.531	6425.27
902.845	6424.36
903.159	6373.97
903.473	6316.35
903.787	6316.8
904.101	6226.4
904.415	6315.22
904.729	6194.99
905.042	6211.72
905.356	6191.6
905.67	6163.58
905.984	6145.73
906.297	6128.55
906.611	6112.28
906.924	6071.61
907.237	6049.46
907.551	6030.7
907.864	6000.87
908.177	5980.08
908.491	5928.56
908.804	5938.5
909.117	5877.94
909.43	5897.83
909.743	5864.61
910.056	5860.31
910.368	5839.97
910.681	5820.09
910.994	5754.33
911.307	5779.18
911.619	5754.78
911.932	5667.55
912.244	5637.27
912.557	5671.62
912.869	5606.31
913.181	5612.86
913.494	5625.52
913.806	5621.22
914.118	5550.72
914.43	5535.12
914.742	5486.31
915.054	5470.94
915.366	5454.45
915.678	5427.78
915.99	5406.54
916.302	5333.32
916.613	5354.34
916.925	5323.83
917.236	5345.98
917.548	5325.41
917.859	5349.82
918.171	5296.49
918.482	5259.88
918.794	5238.86
919.105	5199.54
919.416	5149.37
919.727	5174.45
920.038	5104.17
920.349	5114.12
920.66	5127.68
920.971	5084.06
921.282	5120.9
921.593	4990.96
921.903	5031.18
922.214	4987.34
922.525	4995.48
922.835	4938.08
923.146	4945.99
923.456	4918.19
923.767	4873.67
924.077	4864.18
924.387	4837.97
924.697	4773.56
925.008	4811.98
925.318	4786.44
925.628	4797.52
925.938	4746.44
926.248	4725.65
926.558	4736.5
926.867	4745.77
927.177	4654.02
927.487	4658.31
927.796	4624.86
928.106	4620.57
928.416	4584.64
928.725	4545.09
929.034	4557.97
929.344	4550.52
929.653	4499.9
929.962	4489.27
930.271	4456.06
930.581	4475.26
930.89	4425.32
931.199	4390.29
931.508	4375.38
931.817	4396.62
932.125	4330.86
932.434	4316.4
932.743	4338.54
933.051	4286.79
933.36	4285.21
933.669	4255.61
933.977	4237.08
934.286	4200.69
934.594	4216.74
934.902	4126.12
935.21	4167.7
935.519	4147.59
935.827	4147.14
936.135	4148.04
936.443	4115.27
936.751	4089.51
937.059	4069.17
937.367	4022.85
937.674	4056.74
937.982	4007.93
938.29	4037.99
938.597	4002.51
938.905	3951.89
939.213	3952.34
939.52	3907.59
939.827	3952.34
940.135	3935.84
940.442	3930.19
940.749	3876.18
941.056	3864.43
941.363	3847.71
941.67	3807.26
941.977	3788.5
942.284	3809.29
942.591	3777.88
942.898	3726.81
943.205	3763.87
943.511	3719.58
943.818	3700.59
944.125	3673.02
944.431	3647.26
944.738	3671.67
945.044	3661.73
945.35	3673.25
945.657	3564.33
945.963	3640.48
946.269	3584.21
946.575	3576.08
946.881	3564.1
947.187	3581.5
947.493	3508.96
947.799	3510.54
948.105	3546.47
948.41	3497.66
948.716	3482.07
949.022	3456.76
949.327	3449.98
949.633	3408.17
949.938	3443.88
950.244	3400.72
950.549	3371.79
950.854	3364.56
951.16	3356.42
951.465	3363.65
951.77	3292.24
952.075	3274.39
952.38	3300.61
952.685	3305.35
952.99	3270.1
953.294	3284.56
953.599	3216.31
953.904	3242.53
954.209	3219.7
954.513	3178.57
954.818	3160.5
955.122	3161.63
955.426	3136.77
955.731	3146.94
956.035	3154.62
956.339	3124.34
956.643	3110.33
956.948	3065.36
957.252	3048.41
957.556	3062.42
957.86	3029.2
958.163	3067.17
958.467	3021.52
958.771	3003.21
959.075	3015.87
959.378	2975.42
959.682	2961.18
959.985	2970.22
960.289	2953.72
960.592	2926.6
960.896	2919.15
961.199	2904.68
961.502	2911.01
961.805	2857.23
962.108	2853.61
962.411	2840.73
962.714	2863.1
963.017	2825.14
963.32	2828.98
963.623	2789.88
963.926	2804.57
964.228	2779.72
964.531	2786.49
964.833	2788.98
965.136	2704.46
965.438	2727.51
965.741	2749.21
966.043	2709.66
966.345	2708.76
966.648	2683.9
966.95	2683.9
967.252	2677.8
967.554	2664.92
967.856	2638.02
968.158	2607.29
968.46	2610.23
968.761	2619.72
969.063	2592.38
969.365	2588.99
969.666	2567.74
969.968	2567.74
970.269	2539.27
970.571	2547.18
970.872	2523
971.174	2523.68
971.475	2522.32
971.776	2504.24
972.077	2487.07
972.378	2494.07
972.679	2513.73
972.98	2486.16
973.281	2416.56
973.582	2483.23
973.883	2447.29
974.183	2391.48
974.484	2424.7
974.785	2402.32
975.085	2381.99
975.386	2393.06
975.686	2355.77
975.986	2343.57
976.287	2371.59
976.587	2328.43
976.887	2330.46
977.187	2304.47
977.487	2338.14
977.787	2271.93
978.087	2266.73
978.387	2284.59
978.687	2269.9
978.987	2239.84
979.286	2253.18
979.586	2243.68
979.885	2231.71
980.185	2220.41
980.484	2217.02
980.784	2195.1
981.083	2213.63
981.382	2209.11
981.682	2175.44
981.981	2154.65
982.28	2156
982.579	2148.32
982.878	2138.15
983.177	2125.04
983.475	2133.4
983.774	2095.67
984.073	2094.31
984.372	2111.94
984.67	2082.11
984.969	2087.08
985.267	2040.98
985.566	2071.26
985.864	2047.76
986.162	2021.77
986.461	2028.1
986.759	2001.2
987.057	1974.76
987.355	1996.01
987.653	1996.01
987.951	2008.89
988.249	1979.06
988.547	1923.92
988.844	1952.84
989.142	1952.17
989.44	1939.29
989.737	1946.52
990.035	1965.73
990.332	1941.32
990.63	1884.37
990.927	1902.22
991.224	1869.46
991.521	1897.48
991.819	1854.99
992.116	1850.02
992.413	1822.45
992.71	1848.44
993.006	1851.6
993.303	1835.11
993.6	1830.14
993.897	1808.89
994.193	1790.59
994.49	1798.72
994.787	1802.34
995.083	1766.63
995.379	1764.6
995.676	1787.42
995.972	1762.79
996.268	1758.72
996.565	1763.7
996.861	1742.23
997.157	1729.57
997.453	1727.77
997.749	1718.5
998.044	1690.03
998.34	1710.59
998.636	1706.3
998.932	1660.65
999.227	1662.68
999.523	1657.26
999.818	1664.26
1000.114	1636.02
1000.409	1632.85
1000.704	1633.76
1001	1613.87
1001.295	1609.35
1001.59	1605.06
1001.885	1626.98
1002.18	1582.46
1002.475	1563.7
1002.77	1588.33
1003.065	1555.11
1003.359	1549.69
1003.654	1557.37
1003.949	1535.23
1004.243	1560.54
1004.538	1507.66
1004.832	1515.12
1005.127	1499.3
1005.421	1516.92
1005.715	1445.06
1006.009	1479.64
1006.304	1466.76
1006.598	1456.36
1006.892	1459.07
1007.186	1447.55
1007.48	1441.9
1007.773	1434.67
1008.067	1459.75
1008.361	1412.52
1008.655	1417.26
1008.948	1411.84
1009.242	1399.64
1009.535	1377.94
1009.829	1358.74
1010.122	1378.85
1010.415	1364.16
1010.708	1345.18
1011.001	1351.5
1011.295	1324.61
1011.588	1347.66
1011.881	1325.52
1012.173	1314.44
1012.466	1299.3
1012.759	1301.34
1013.052	1310.38
1013.344	1276.7
1013.637	1302.47
1013.93	1270.15
1014.222	1275.57
1014.514	1260.66
1014.807	1257.5
1015.099	1251.39
1015.391	1248.91
1015.683	1263.6
1015.976	1241.68
1016.268	1234.67
1016.56	1213.2
1016.851	1204.39
1017.143	1206.42
1017.435	1202.13
1017.727	1186.31
1018.018	1200.77
1018.31	1194.45
1018.602	1181.34
1018.893	1176.59
1019.185	1150.61
1019.476	1141.79
1019.767	1156.71
1020.058	1151.96
1020.35	1120.55
1020.641	1119.42
1020.932	1120.32
1021.223	1096.6
1021.514	1095.01
1021.804	1086.2
1022.095	1072.87
1022.386	1079.19
1022.677	1103.6
1022.967	1065.64
1023.258	1066.99
1023.548	1061.57
1023.839	1052.53
1024.129	1057.73
1024.419	1055.24
1024.709	1028.8
1025	1015.24
1025.29	1018.63
1025.58	1003.94
1025.87	983.38
1026.16	998.52
1026.449	998.07
1026.739	974.56
1027.029	961.23
1027.319	967.79
1027.608	968.24
1027.898	954.68
1028.187	968.01
1028.477	945.86
1028.766	930.72
1029.055	962.14
1029.344	942.02
1029.634	932.98
1029.923	913.55
1030.212	904.96
1030.501	907
1030.79	892.31
1031.078	909.71
1031.367	876.49
1031.656	867.9
1031.945	877.39
1032.233	873.55
1032.522	862.25
1032.81	895.47
1033.099	860.44
1033.387	859.09
1033.675	846.66
1033.963	863.83
1034.251	860.44
1034.54	846.88
1034.828	843.27
1035.116	838.98
1035.403	824.51
1035.691	828.81
1035.979	839.43
1036.267	808.92
1036.554	794.23
1036.842	810.73
1037.129	804.17
1037.417	787.23
1037.704	770.05
1037.992	814.57
1038.279	780.45
1038.566	768.24
1038.853	768.24
1039.14	768.24
