Data from white_wall_FLMS001491_020.txt Node
Date: Tue Feb 07 11:03:43 GMT 2017
User: dcchb
Spectrometer: FLMS00149
Trigger mode: 0
Integration Time (sec): 2.000000E-2
Scans to average: 10
Electric dark correction enabled: true
Nonlinearity correction enabled: false
Boxcar width: 0
XAxis mode: Wavelengths
Number of Pixels in Spectrum: 2048
>>>>>Begin Spectral Data<<<<<
341.393	-6.64
341.776	-6.64
342.16	-6.64
342.543	-89.12
342.927	-59.07
343.31	-66.98
343.693	-63.81
344.077	-73.76
344.46	-73.53
344.843	-59.52
345.226	-41.21
345.61	-15.45
345.993	-18.16
346.376	-8.45
346.759	19.35
347.142	35.62
347.525	48.28
347.908	52.12
348.291	69.97
348.674	96.64
349.057	98.9
349.44	110.87
349.823	130.76
350.206	183.19
350.588	237.65
350.971	237.42
351.354	255.95
351.737	259.34
352.119	271.55
352.502	283.07
352.884	299.34
353.267	309.29
353.65	326.69
354.032	321.49
354.414	328.27
354.797	318.78
355.179	355.16
355.562	365.1
355.944	359
356.326	366.23
356.709	373.69
357.091	368.72
357.473	369.4
357.855	363.07
358.238	359.45
358.62	368.49
359.002	362.62
359.384	337.99
359.766	364.2
360.148	368.27
360.53	363.52
360.912	356.52
361.294	351.77
361.676	347.7
362.057	376.18
362.439	360.13
362.821	341.6
363.203	354.03
363.584	349.06
363.966	372.11
364.348	349.74
364.729	372.11
365.111	347.48
365.493	349.51
365.874	356.52
366.256	350.87
366.637	360.81
367.019	344.31
367.4	331.21
367.781	348.61
368.163	350.41
368.544	357.19
368.925	343.64
369.306	339.79
369.688	369.85
370.069	345.67
370.45	369.4
370.831	334.14
371.212	346.8
371.593	358.78
371.974	364.88
372.355	333.69
372.736	344.99
373.117	353.35
373.498	371.66
373.879	371.2
374.26	352.67
374.641	374.37
375.021	356.06
375.402	374.14
375.783	375.27
376.163	364.2
376.544	380.24
376.925	349.06
377.305	361.04
377.686	371.66
378.066	374.59
378.447	378.89
378.827	380.24
379.208	379.11
379.588	373.01
379.968	385.22
380.349	394.48
380.729	402.62
381.109	392.45
381.489	401.03
381.87	385.89
382.25	397.64
382.63	378.89
383.01	430.19
383.39	414.59
383.77	408.27
384.15	406.68
384.53	399.45
384.91	411.88
385.29	431.99
385.67	426.57
386.049	439.68
386.429	429.96
386.809	430.41
387.189	431.54
387.568	443.75
387.948	438.32
388.328	469.51
388.707	450.52
389.087	462.5
389.466	459.56
389.846	459.79
390.225	472.67
390.605	502.27
390.984	466.8
391.363	509.28
391.743	499.11
392.122	512.9
392.501	493.46
392.881	522.16
393.26	511.99
393.639	501.15
394.018	536.4
394.397	542.5
394.776	564.19
395.155	542.05
395.534	559
395.913	566.91
396.292	570.97
396.671	579.79
397.05	595.61
397.429	598.54
397.808	615.94
398.186	607.13
398.565	614.36
398.944	626.57
399.323	651.88
399.701	646.23
400.08	688.26
400.458	680.12
400.837	694.13
401.215	681.48
401.594	716.73
401.972	735.26
402.351	740.91
402.729	744.98
403.107	756.73
403.486	756.28
403.864	789.72
404.242	808.48
404.62	813
404.999	813
405.377	829.5
405.755	844.64
406.133	878.54
406.511	887.35
406.889	899.33
407.267	904.07
407.645	908.37
408.023	963.28
408.401	963.28
408.779	980.91
409.156	1001.02
409.534	1012.77
409.912	1015.03
410.29	1051.19
410.667	1063.62
411.045	1082.15
411.422	1125.99
411.8	1127.12
412.178	1138.87
412.555	1159.43
412.933	1172.09
413.31	1196.04
413.687	1209.15
414.065	1229.26
414.442	1271.75
414.819	1286.66
415.197	1256.83
415.574	1300.45
415.951	1329.82
416.328	1318.52
416.705	1354.91
417.082	1375.02
417.46	1391.74
417.837	1350.61
418.214	1412.53
418.591	1413.21
418.967	1426.09
419.344	1457.28
419.721	1470.39
420.098	1492.08
420.475	1511.97
420.852	1508.58
421.228	1511.51
421.605	1526.43
421.982	1560.1
422.358	1579.31
422.735	1620.44
423.111	1640.78
423.488	1664.96
423.864	1651.62
424.241	1693.2
424.617	1718.97
424.994	1734.33
425.37	1746.76
425.746	1743.15
426.123	1813.43
426.499	1787.89
426.875	1823.37
427.251	1839.87
427.627	1876.48
428.003	1909.7
428.379	1918.06
428.756	1939.75
429.132	1968
429.507	2017.94
429.883	2004.38
430.259	2058.62
430.635	2069.01
431.011	2068.56
431.387	2131.16
431.763	2173.19
432.138	2184.72
432.514	2228.11
432.89	2231.95
433.265	2269.23
433.641	2320.98
434.016	2360.76
434.392	2352.4
434.767	2431.94
435.143	2394.65
435.518	2457.48
435.894	2453.18
436.269	2533.63
436.644	2562.56
437.02	2565.72
437.395	2581.54
437.77	2629.9
438.145	2657.47
438.52	2678.49
438.895	2747.41
439.271	2720.3
439.646	2804.14
440.021	2812.72
440.395	2828.77
440.77	2826.28
441.145	2823.34
441.52	2894.3
441.895	2930.23
442.27	2975.2
442.645	2957.58
443.019	3002.1
443.394	3024.47
443.769	3037.8
444.143	3028.08
444.518	3092.49
444.892	3060.4
445.267	3103.56
445.641	3146.95
446.016	3192.6
446.39	3211.58
446.764	3268.76
447.139	3251.36
447.513	3287.06
447.887	3287.06
448.262	3304.01
448.636	3363.44
449.01	3395.98
449.384	3417.9
449.758	3453.84
450.132	3478.69
450.506	3520.27
450.88	3567.28
451.254	3520.27
451.628	3602.08
452.002	3647.05
452.376	3650.67
452.75	3740.16
453.123	3749.87
453.497	3821.74
453.871	3866.25
454.244	3900.6
454.618	3957.78
454.992	3958.46
455.365	3981.28
455.739	4135.4
456.112	4132.46
456.486	4224.66
456.859	4249.75
457.232	4321.16
457.606	4290.42
457.979	4374.04
458.352	4489.29
458.725	4503.53
459.099	4573.81
459.472	4652
459.845	4661.04
460.218	4749.39
460.591	4795.04
460.964	4847.92
461.337	4927.92
461.71	4980.35
462.083	5058.77
462.456	5099.22
462.829	5179.44
463.201	5268.93
463.574	5261.92
463.947	5344.41
464.32	5447
464.692	5480.22
465.065	5516.15
465.438	5650.61
465.81	5726.54
466.183	5802.25
466.555	5923.38
466.928	5950.27
467.3	5957.72
467.672	6033.65
468.045	6194.78
468.417	6276.59
468.789	6289.69
469.161	6410.82
469.534	6510.48
469.906	6643.36
470.278	6699.17
470.65	6750.92
471.022	6900.3
471.394	7019.39
471.766	7085.83
472.138	7198.82
472.51	7349.78
472.882	7445.14
473.253	7563.11
473.625	7604.91
473.997	7852.36
474.369	7913.38
474.74	7988.63
475.112	8163.32
475.484	8307.04
475.855	8439.02
476.227	8543.42
476.598	8765.56
476.97	8880.36
477.341	9076.29
477.713	9145.66
478.084	9266.79
478.455	9547.69
478.827	9641.7
479.198	9933.89
479.569	9825.87
479.94	10207.56
480.311	10343.37
480.682	10518.96
481.053	10821.78
481.424	10955.56
481.795	11026.29
482.166	11275.55
482.537	11384.93
482.908	11642.1
483.279	11798.48
483.65	11965.7
484.021	12278.24
484.391	12381.96
484.762	12494.73
485.133	12666.47
485.503	12823.08
485.874	13158.89
486.244	13207.7
486.615	13460.8
486.985	13671.19
487.356	13978.76
487.726	14046.78
488.097	14364.28
488.467	14390.95
488.837	14709.36
489.207	14902.12
489.578	15126.98
489.948	15254.43
490.318	15401.09
490.688	15587.3
491.058	15837.46
491.428	16041.08
491.798	16141.86
492.168	16543.44
492.538	16688.74
492.908	16856.2
493.278	16999.24
493.648	17111.78
494.017	17264.77
494.387	17510.19
494.757	17646.91
495.126	17870.86
495.496	17912.66
495.866	18197.18
496.235	18274.46
496.605	18551.74
496.974	18629.03
497.344	18889.36
497.713	19057.72
498.082	19191.73
498.452	19382
498.821	19493.87
499.19	19579.51
499.559	19782.9
499.928	19978.6
500.298	20086.62
500.667	20194.64
501.036	20311.47
501.405	20407.29
501.774	20483.44
502.143	20823.32
502.512	20881.85
502.88	21074.62
503.249	21042.53
503.618	21183.77
503.987	21417.88
504.356	21607.48
504.724	21767.03
505.093	21808.38
505.462	21957.98
505.83	22139.22
506.199	22330.63
506.567	22668.7
506.936	22666.89
507.304	23084.05
507.672	22967.45
508.041	23256.93
508.409	23358.85
508.777	23565.4
509.145	23898.72
509.514	23825.05
509.882	24041.77
510.25	24209.22
510.618	24278.15
510.986	24448.09
511.354	24812.37
511.722	25071.35
512.09	25208.52
512.458	25242.64
512.826	25453.48
513.193	25567.6
513.561	25526.25
513.929	25880.59
514.297	26080.81
514.664	26313.57
515.032	26535.49
515.4	26721.92
515.767	26805.54
516.135	26949.49
516.502	26824.52
516.869	27356.03
517.237	27453.2
517.604	27538.85
517.972	27774.55
518.339	28085.96
518.706	28183.81
519.073	28270.36
519.44	28618.6
519.808	28905.82
520.175	28857.69
520.542	29320.27
520.909	29396.88
521.276	29494.96
521.643	29771.11
522.009	29956.19
522.376	30267.82
522.743	30508.49
523.11	30699.67
523.477	31025.77
523.843	31129.27
524.21	31359.99
524.577	31815.12
524.943	31795.69
525.31	32006.98
525.676	32369.46
526.043	32560.87
526.409	32702.78
526.776	33070.23
527.142	33202.66
527.508	33381.86
527.874	33684.23
528.241	33902.53
528.607	33913.83
528.973	34422.74
529.339	34231.33
529.705	34791.09
530.071	34880.13
530.437	35141.14
530.803	35306.33
531.169	35448.02
531.535	35531.18
531.901	35800.78
532.267	35894.11
532.632	36172.75
532.998	36153.31
533.364	36451.16
533.73	36406.87
534.095	37028.55
534.461	36953.29
534.826	37189.22
535.192	37200.75
535.557	37497.46
535.923	37367.75
536.288	37826.94
536.653	37867.39
537.019	37933.83
537.384	38191.68
537.749	38374.05
538.114	38486.13
538.479	38462.63
538.845	38740.59
539.21	38781.49
539.575	38884.32
539.94	39097.64
540.305	39285.66
540.67	39321.14
541.034	39462.83
541.399	39737.85
541.764	39724.97
542.129	39910.05
542.494	40011.97
542.858	40152.08
543.223	40210.84
543.587	40570.6
543.952	40623.03
544.316	40664.38
544.681	40672.97
545.045	41028.67
545.41	41199.28
545.774	41305.04
546.138	41321.31
546.503	41642.89
546.867	41529.67
547.231	41982.31
547.595	42020.96
547.959	42272.25
548.324	42301.85
548.688	42471.34
549.052	42655.52
549.416	42733.48
549.779	42809.41
550.143	42923.31
550.507	43209.4
550.871	43441.03
551.235	43326.91
551.599	43770.52
551.962	43911.53
552.326	44126.89
552.689	44347
553.053	44257.06
553.417	44232.65
553.78	44982.46
554.143	44713.09
554.507	45002.8
554.87	45136.81
555.234	45476.46
555.597	45450.7
555.96	45732.5
556.323	45950.35
556.686	45981.31
557.05	46296.55
557.413	46377.9
557.776	46548.3
558.139	46911.45
558.502	47001.17
558.865	46949.42
559.228	47388.5
559.59	47390.53
559.953	47501.94
560.316	47937.64
560.679	47763.86
561.041	48156.16
561.404	48366.55
561.767	48663.04
562.129	48569.94
562.492	48958.18
562.854	49083.6
563.217	49129.92
563.579	49207.66
563.941	49446.3
564.304	49625.96
564.666	49884.25
565.028	49785.72
565.39	50075.89
565.753	50219.39
566.115	50362.66
566.477	50474.07
566.839	50589.09
567.201	50919.93
567.563	50848.07
567.925	51002.64
568.287	51133.49
568.648	51194.5
569.01	51353.37
569.372	51649.63
569.734	51507.04
570.095	51776.41
570.457	51922.62
570.819	51948.61
571.18	52077.19
571.542	52187.92
571.903	52198.54
572.265	52325.09
572.626	52497.07
572.987	52443.73
573.349	52652.32
573.71	52709.72
574.071	52763.05
574.432	52845.98
574.794	53125.75
575.155	52937.73
575.516	52968.69
575.877	53109.03
576.238	53162.59
576.599	53313.54
576.96	53342.24
577.32	53417.72
577.681	53486.64
578.042	53550.6
578.403	53610.26
578.763	53573.65
579.124	53643.48
579.485	53736.81
579.845	53867.43
580.206	53790.82
580.566	53783.81
580.927	53831.49
581.287	53891.38
581.648	53828.33
582.008	54008.66
582.368	53887.54
582.728	53984.26
583.089	53997.37
583.449	53917.82
583.809	53935.22
584.169	53973.41
584.529	53944.71
584.889	54228.09
585.249	53996.01
585.609	53868.78
585.969	54190.13
586.329	54022.9
586.688	54141.99
587.048	54079.17
587.408	54049.57
587.768	54075.78
588.127	54014.31
588.487	53975.9
588.846	54153.75
589.206	54039.85
589.565	54101.32
589.925	54131.83
590.284	54145.61
590.643	54158.49
591.003	54203.69
591.362	54355.55
591.721	54245.49
592.08	54265.61
592.44	54264.93
592.799	54270.58
593.158	54235.33
593.517	54196.46
593.876	54262.9
594.235	54266.28
594.593	54285.27
594.952	54316.45
595.311	54289.56
595.67	54318.26
596.029	54464.25
596.387	54434.19
596.746	54492.27
597.104	54413.17
597.463	54310.13
597.822	54435.77
598.18	54374.98
598.538	54425.83
598.897	54605.94
599.255	54334.53
599.613	54802.32
599.972	54514.64
600.33	54584.47
600.688	54448.43
601.046	54610.46
601.404	54701.08
601.762	54731.58
602.12	54810.9
602.478	54784.69
602.836	54836.21
603.194	54650.46
603.552	54738.36
603.91	54693.17
604.268	54805.25
604.625	54674.64
604.983	54845.93
605.341	54763.9
605.698	54899.71
606.056	55001.63
606.413	54982.42
606.771	54960.96
607.128	54984.01
607.485	54864.01
607.843	54911.47
608.2	55123.89
608.557	55151.46
608.914	55079.14
609.272	55265.81
609.629	55307.16
609.986	55384.9
610.343	55138.35
610.7	55468.51
611.057	55380.61
611.414	55374.05
611.771	55363.21
612.127	55458.12
612.484	55492.69
612.841	55524.33
613.198	55467.16
613.554	55479.59
613.911	55652.92
614.267	55643.88
614.624	55671.9
614.98	55613.37
615.337	55763.87
615.693	55767.71
616.05	55707.15
616.406	55815.4
616.762	55727.26
617.118	55824.89
617.475	55750.09
617.831	55834.15
618.187	55867.37
618.543	55915.73
618.899	56058.33
619.255	55990.53
619.611	55947.82
619.967	56035.28
620.323	56136.97
620.678	55944.88
621.034	55973.13
621.39	56033.24
621.746	55931.33
622.101	56254.26
622.457	55923.64
622.812	56083.64
623.168	56182.17
623.523	56064.43
623.879	56163.64
624.234	55914.38
624.589	56088.61
624.945	56100.81
625.3	56159.12
625.655	56160.47
626.01	56191.88
626.365	56169.51
626.72	56149.85
627.075	56222.39
627.43	56129.51
627.785	56124.09
628.14	56141.26
628.495	56179.91
628.85	56146.46
629.205	56052
629.559	56183.3
629.914	56114.15
630.269	56136.52
630.623	56052.23
630.978	56012.68
631.332	56089.06
631.687	56070.31
632.041	55969.29
632.396	56018.1
632.75	55915.28
633.104	56009.97
633.459	55765.68
633.813	55818.33
634.167	55837.54
634.521	55864.44
634.875	55819.69
635.229	55729.3
635.583	55712.35
635.937	55693.14
636.291	55573.82
636.645	55677.32
636.999	55642.97
637.352	55693.14
637.706	55548.06
638.06	55690.2
638.413	55560.49
638.767	55505.12
639.121	55577.66
639.474	55351.68
639.828	55402.75
640.181	55465.12
640.534	55307.39
640.888	55269.42
641.241	55182.87
641.594	55211.34
641.947	55252.02
642.301	55245.69
642.654	55174.96
643.007	55020.16
643.36	55178.35
643.713	55078.69
644.066	55107.62
644.419	54958.24
644.771	54794.86
645.124	54491.14
645.477	54475.32
645.83	54292.5
646.182	54186.74
646.535	54154.88
646.888	54170.24
647.24	54117.36
647.593	54235.1
647.945	54014.31
648.298	53991.72
648.65	53909.01
649.002	53832.85
649.355	53975.22
649.707	53929.12
650.059	54024.71
650.411	54294.76
650.763	54374.98
651.115	54628.08
651.467	54582.89
651.819	54416.34
652.171	54378.15
652.523	54414.3
652.875	54396.68
653.227	54307.41
653.578	54391.48
653.93	54319.16
654.282	54172.5
654.633	54183.58
654.985	54189.9
655.337	54281.2
655.688	54120.07
656.039	54294.98
656.391	53922.34
656.742	54074.2
657.094	54047.99
657.445	54141.09
657.796	54112.62
658.147	53988.55
658.498	53925.5
658.849	53999.4
659.2	54052.05
659.551	53905.16
659.902	54065.84
660.253	53890.02
660.604	53899.74
660.955	53939.97
661.306	53922.79
661.656	53807.54
662.007	53855
662.358	53897.26
662.708	53859.29
663.059	53772.29
663.409	53553.54
663.76	53792.63
664.11	53772.06
664.461	53772.74
664.811	53692.74
665.161	53718.73
665.511	53557.83
665.862	53690.48
666.212	53760.31
666.562	53731.61
666.912	53668.33
667.262	53578.62
667.612	53618.84
667.962	53645.74
668.312	53593.08
668.662	53769.12
669.011	53602.35
669.361	53549.69
669.711	53560.09
670.06	53417.49
670.41	53392.18
670.76	53350.38
671.109	53450.04
671.459	53311.28
671.808	53309.93
672.157	53372.52
672.507	53160.55
672.856	53169.59
673.205	53254.33
673.554	53317.84
673.904	53180.89
674.253	53382.24
674.602	53219.31
674.951	52694.12
675.3	52558.31
675.649	53089.59
675.998	52929.6
676.346	53036.03
676.695	53055.7
677.044	52950.84
677.393	52954.23
677.741	52983.38
678.09	52920.33
678.438	52751.07
678.787	52803.95
679.135	52883.5
679.484	52539.32
679.832	52656.38
680.181	52562.83
680.529	52643.28
680.877	52467.91
681.225	52528.25
681.573	52699.09
681.922	52352.89
682.27	52336.17
682.618	52396.73
682.966	52324.42
683.314	52388.59
683.661	52251.2
684.009	52115.61
684.357	51993.58
684.705	51911.77
685.053	51890.08
685.4	51839
685.748	51823.41
686.095	51707.26
686.443	51615.73
686.79	51498.45
687.138	51566.69
687.485	51578.45
687.832	51444.66
688.18	51482.86
688.527	51324.67
688.874	51233.6
689.221	51144.56
689.568	51095.29
689.915	51007.39
690.262	51000.16
690.609	50817.56
690.956	50771.01
691.303	50695.98
691.65	50498.93
691.997	50601.97
692.344	50412.15
692.69	50340.74
693.037	50366.05
693.383	50070.24
693.73	50198.14
694.077	49875.21
694.423	49823.24
694.769	49717.48
695.116	49648.1
695.462	49668.21
695.808	49512.06
696.155	49567.2
696.501	49266.42
696.847	49283.82
697.193	49046.99
697.539	49248.56
697.885	48928.57
698.231	48901.91
698.577	48744.4
698.923	48711.4
699.269	48520.67
699.614	48352.09
699.96	48264.41
700.306	48346.21
700.651	48062.38
700.997	48065.32
701.342	47974.47
701.688	47882.5
702.033	47714.59
702.379	47788.26
702.724	47595.73
703.069	47748.26
703.415	47221.05
703.76	47358.67
704.105	47319.35
704.45	47154.38
704.795	46993.48
705.14	46906.48
705.485	46753.04
705.83	46638.69
706.175	46747.39
706.52	46525.92
706.865	46349.66
707.209	46375.19
707.554	46194.86
707.899	46311.01
708.243	46046.61
708.588	46120.51
708.932	45794.64
709.277	45747.41
709.621	45874.42
709.966	45445.95
710.31	45597.59
710.654	45255.45
710.998	45300.87
711.342	45433.97
711.687	45202.34
712.031	45020.88
712.375	44844.84
712.719	45093.19
713.063	44931.16
713.407	44966.87
713.75	44757.16
714.094	44674.67
714.438	44653.43
714.782	44573.43
715.125	44419.76
715.469	44400.33
715.812	44252.76
716.156	44084.41
716.499	44185.19
716.843	44142.48
717.186	43902.26
717.53	44023.84
717.873	43957.4
718.216	43825.88
718.559	43582.5
718.902	43397.19
719.246	43487.81
719.589	43357.19
719.932	43116.75
720.275	43313.35
720.617	43090.53
720.96	43044.66
721.303	43023.64
721.646	42978.9
721.989	42858.22
722.331	42749.3
722.674	42810.54
723.016	42884.21
723.359	42638.12
723.701	42591.79
724.044	42343.21
724.386	42310.67
724.729	42394.73
725.071	42324.68
725.413	42271.57
725.755	42236.54
726.097	41980.51
726.439	41862.54
726.782	41899.83
727.124	42149.99
727.465	41748.65
727.807	41828.42
728.149	41678.82
728.491	41580.97
728.833	41720.4
729.175	41558.6
729.516	41448.99
729.858	41417.13
730.199	41448.99
730.541	41201.77
730.882	41209.23
731.224	41441.54
731.565	40941.21
731.906	41095.11
732.248	41203.35
732.589	40912.74
732.93	40774.66
733.271	40866.19
733.612	40921.1
733.953	40832.74
734.294	40634.78
734.635	40452.64
734.976	40695.79
735.317	40388.91
735.658	40378.29
735.999	40494.67
736.339	40241.12
736.68	40430.49
737.021	40217.61
737.361	40030.05
737.702	40293.77
738.042	40230.27
738.383	39835.25
738.723	40111.18
739.063	39940.33
739.404	39976.94
739.744	39700.57
740.084	39710.51
740.424	39611.98
740.764	39573.11
741.104	39590.06
741.444	39341.93
741.784	39259.45
742.124	39395.72
742.464	39312.78
742.804	39111.2
743.143	39051.77
743.483	39155.04
743.823	38847.71
744.162	39035.5
744.502	38919.57
744.841	38720.25
745.181	38864.66
745.52	38621.72
745.86	38722.06
746.199	38555.29
746.538	38640.03
746.877	38604.32
747.216	38609.3
747.556	38646.36
747.895	38499.47
748.234	38242.53
748.573	38122.08
748.911	38196.65
749.25	38176.54
749.589	38085.69
749.928	37984.68
750.267	38017.9
750.605	37824.91
750.944	37894.06
751.283	37505.82
751.621	37704.69
751.96	37494.07
752.298	37440.29
752.636	37501.3
752.975	37143.8
753.313	37156.45
753.651	37303.12
753.989	37153.97
754.327	36963.24
754.666	36915.33
755.004	36981.09
755.342	36948.1
755.679	36747.65
756.017	36542.23
756.355	36577.03
756.693	36467.2
757.031	36491.84
757.368	36247.55
757.706	36335.68
758.044	36035.58
758.381	36130.26
758.719	35989.48
759.056	35954.22
759.394	35859.76
759.731	35466.55
760.068	35569.15
760.405	35429.04
760.743	35364.86
761.08	35371.87
761.417	35155.38
761.754	35109.27
762.091	34993.35
762.428	34851.2
762.765	34668.16
763.102	34733.92
763.438	34611.89
763.775	34436.52
764.112	34489.18
764.449	34581.38
764.785	34299.13
765.122	34177.55
765.458	34092.8
765.795	33962.19
766.131	34020.72
766.467	33754.51
766.804	33639.48
767.14	33457.11
767.476	33483.78
767.812	33305.25
768.148	33195.88
768.485	33164.01
768.821	32951.14
769.157	32739.62
769.492	32692.16
769.828	32730.81
770.164	32412.62
770.5	32339.86
770.836	32333.75
771.171	32157.94
771.507	32062.12
771.842	31828
772.178	31789.81
772.513	31806.31
772.849	31557.96
773.184	31485.87
773.519	31435.92
773.855	31229.15
774.19	31184.63
774.525	31174.69
774.86	31116.39
775.195	30914.58
775.53	30677.98
775.865	30690.86
776.2	30359.57
776.535	30343.3
776.87	30268.05
777.205	30283.64
777.539	30087.94
777.874	30080.25
778.209	29749.42
778.543	29556.43
778.878	29637.78
779.212	29546.71
779.547	29467.84
779.881	29282.76
780.215	29119.83
780.55	29298.35
780.884	29064.24
781.218	29012.71
781.552	29051.13
781.886	28871.02
782.22	28644.81
782.554	28496.12
782.888	28461.99
783.222	28353.29
783.556	28191.26
783.889	28074.88
784.223	27784.27
784.557	27867.66
784.89	27813.87
785.224	27744.04
785.557	27606.42
785.891	27492.53
786.224	27423.37
786.558	27281.23
786.891	27149.94
787.224	27038.98
787.557	26985.65
787.891	26819.1
788.224	26757.4
788.557	26736.84
788.89	26749.95
789.223	26751.08
789.556	26385.66
789.888	26477.41
790.221	26270.86
790.554	26099.12
790.887	26067.25
791.219	26004.43
791.552	25924.21
791.884	25734.38
792.217	25718.79
792.549	25639.47
792.882	25547.27
793.214	25414.39
793.546	25447.16
793.879	25270.44
794.211	25145.92
794.543	25171.91
794.875	25014.4
795.207	25056.43
795.539	25033.83
795.871	24885.81
796.203	24752.26
796.535	24693.05
796.867	24580.51
797.198	24451.7
797.53	24463.68
797.862	24357.24
798.193	24417.58
798.525	24134.65
798.856	24296.23
799.188	23968.32
799.519	23938.72
799.85	23757.93
800.182	23807.2
800.513	23751.38
800.844	23459.41
801.175	23731.04
801.506	23573.53
801.837	23467.32
802.168	23324.73
802.499	23309.58
802.83	23098.74
803.161	23170.15
803.491	23065.52
803.822	23084.05
804.153	22973.1
804.483	22728.81
804.814	22690.62
805.145	22643.84
805.475	22666.21
805.805	22519.55
806.136	22635.7
806.466	22537.63
806.796	22509.38
807.126	22283.17
807.457	22179.45
807.787	22224.19
808.117	22199.33
808.447	21977.42
808.777	22064.19
809.107	22007.7
809.436	21916.18
809.766	21873.24
810.096	21863.07
810.426	21748.95
810.755	21676.63
811.085	21628.5
811.414	21553.25
811.744	21435.74
812.073	21433.25
812.403	21428.73
812.732	21264.21
813.061	21203.65
813.39	21131.56
813.719	20989.87
814.049	21149.87
814.378	21049.31
814.707	20922.08
815.036	20985.58
815.365	20852.02
815.693	20628.98
816.022	20629.88
816.351	20644.8
816.68	20572.71
817.008	20670.33
817.337	20406.16
817.665	20394.86
817.994	20449.1
818.322	20462.65
818.651	20263.34
818.979	20151.25
819.307	20231.25
819.636	20230.57
819.964	20103.57
820.292	20170.68
820.62	20161.87
820.948	19939.73
821.276	20176.11
821.604	20023.34
821.932	19990.35
822.259	20217.01
822.587	19957.13
822.915	20036.22
823.243	20112.38
823.57	19932.72
823.898	20103.12
824.225	19952.61
824.553	19949.67
824.88	19910.13
825.207	19977.47
825.535	19871.03
825.862	19958.26
826.189	19865.61
826.516	19976.79
826.843	20133.85
827.17	19981.08
827.497	19892.73
827.824	19982.21
828.151	19900.18
828.478	19856.57
828.805	20108.54
829.131	19915.32
829.458	19981.08
829.785	19817.47
830.111	19848.66
830.438	19908.77
830.764	19883.23
831.09	19899.96
831.417	19771.37
831.743	19846.85
832.069	19873.74
832.395	19767.08
832.722	19807.3
833.048	19837.81
833.374	19774.54
833.7	19598.95
834.026	19693.63
834.351	19677.82
834.677	19574.09
835.003	19692.28
835.329	19621.09
835.654	19584.94
835.98	19528.22
836.306	19437.82
836.631	19445.51
836.956	19528.44
837.282	19410.25
837.607	19242.8
837.932	19290.48
838.258	19349.24
838.583	19348.11
838.908	19221.78
839.233	19205.29
839.558	19210.94
839.883	19154.89
840.208	19094.78
840.533	19131.39
840.858	19124.84
841.182	19056.59
841.507	19065.18
841.832	18819.31
842.156	18937.27
842.481	18850.27
842.805	18831.06
843.13	18733.43
843.454	18711.06
843.778	18693.89
844.103	18629.71
844.427	18569.82
844.751	18574.57
845.075	18470.62
845.399	18426.1
845.723	18317.17
846.047	18473.55
846.371	18200.79
846.695	18199.44
847.019	18140
847.343	18029.05
847.666	17923.51
847.99	17772.33
848.313	17791.76
848.637	17696.85
848.96	17683.07
849.284	17619.79
849.607	17511.55
849.931	17511.77
850.254	17425.9
850.577	17342.74
850.9	17187.49
851.223	17212.8
851.546	17093.93
851.869	16932.35
852.192	17044.89
852.515	16758.34
852.838	16834.05
853.161	16845.8
853.483	16677.67
853.806	16651
854.129	16602.42
854.451	16549.99
854.774	16379.82
855.096	16413.72
855.419	16303.67
855.741	16256.44
856.063	16134.86
856.385	16158.36
856.708	16160.39
857.03	16072.71
857.352	16052.37
857.674	15958.59
857.996	15928.31
858.318	15838.82
858.64	15877.69
858.961	15761.53
859.283	15733.51
859.605	15637.24
859.926	15637.24
860.248	15649.45
860.57	15603.35
860.891	15579.17
861.212	15374.2
861.534	15410.81
861.855	15437.7
862.176	15351.15
862.498	15372.62
862.819	15336.01
863.14	15303.47
863.461	15253.98
863.782	15167.65
864.103	15223.7
864.424	15129.23
864.745	15122.91
865.065	15093.53
865.386	14938.51
865.707	14988.9
866.027	15050.37
866.348	14953.19
866.668	15010.59
866.989	15025.96
867.309	14843.37
867.63	14861.45
867.95	14856.7
868.27	14854.67
868.59	14818.06
868.91	14700.55
869.23	14705.97
869.55	14710.71
869.87	14812.63
870.19	14683.6
870.51	14678.63
870.83	14685.4
871.15	14548.46
871.469	14604.73
871.789	14662.58
872.109	14580.32
872.428	14470.04
872.748	14479.76
873.067	14461.68
873.386	14444.51
873.706	14416.26
874.025	14417.62
874.344	14314.57
874.663	14310.05
874.982	14322.93
875.301	14348.92
875.62	14250.84
875.939	14273.21
876.258	14230.05
876.577	14163.84
876.896	14163.16
877.214	14184.18
877.533	14173.55
877.852	14055.36
878.17	14127.91
878.489	14120.9
878.807	14134.91
879.125	13975.82
879.444	13975.14
879.762	13915.71
880.08	13894.92
880.398	13899.89
880.716	13926.1
881.034	13793.68
881.352	13869.61
881.67	13794.35
881.988	13740.8
882.306	13805.2
882.624	13708.48
882.941	13655.15
883.259	13719.33
883.577	13550.52
883.894	13488.15
884.212	13524.76
884.529	13516.62
884.846	13445.66
885.164	13359.34
885.481	13375.61
885.798	13440.47
886.115	13345.78
886.432	13331.32
886.75	13248.83
887.067	13353.69
887.383	13224.65
887.7	13281.83
888.017	13151.21
888.334	13166.57
888.651	13109.4
888.967	13083.87
889.284	13016.3
889.6	13011.55
889.917	12869.41
890.233	12936.98
890.55	12831.89
890.866	12745.57
891.182	12765
891.498	12774.27
891.815	12757.55
892.131	12567.72
892.447	12606.14
892.763	12597.78
893.079	12563.2
893.395	12538.34
893.71	12505.35
894.026	12466.25
894.342	12462.41
894.657	12364.34
894.973	12421.74
895.289	12327.05
895.604	12325.69
895.92	12209.76
896.235	12106.94
896.55	12176.54
896.865	12087.06
897.181	12031.46
897.496	12064.91
897.811	12064.68
898.126	11994.85
898.441	11970.9
898.756	11857
899.071	11762.54
899.386	11793.05
899.7	11672.6
900.015	11581.98
900.33	11609.55
900.644	11494.08
900.959	11570.46
901.273	11575.2
901.588	11472.61
901.902	11343.12
902.216	11377.47
902.531	11324.59
902.845	11299.51
903.159	11280.97
903.473	11163.46
903.787	11147.87
904.101	11068.1
904.415	11076.69
904.729	11014.09
905.042	10996.69
905.356	10963.24
905.67	10883.47
905.984	10875.56
906.297	10844.6
906.611	10786.07
906.924	10776.36
907.237	10711.5
907.551	10724.15
907.864	10685.96
908.177	10585.85
908.491	10553.54
908.804	10562.8
909.117	10451.84
909.43	10398.96
909.743	10318.06
910.056	10371.39
910.368	10279.64
910.681	10306.31
910.994	10218.86
911.307	10165.52
911.619	10100.89
911.932	10159.65
912.244	10102.25
912.557	10015.47
912.869	9927.34
913.181	9955.13
913.494	9893.21
913.806	9877.85
914.118	9777.51
914.43	9770.05
914.742	9755.14
915.054	9655.25
915.366	9627.91
915.678	9609.83
915.99	9456.16
916.302	9500.23
916.613	9418.2
916.925	9419.33
917.236	9408.93
917.548	9380.91
917.859	9380.69
918.171	9310.63
918.482	9235.6
918.794	9234.47
919.105	9236.73
919.416	9074.48
919.727	9101.14
920.038	9102.27
920.349	8969.85
920.66	8949.51
920.971	8931.66
921.282	8848.27
921.593	8817.99
921.903	8825.22
922.214	8829.74
922.525	8756.97
922.835	8697.31
923.146	8641.27
923.456	8659.12
923.767	8587.03
924.077	8596.3
924.387	8545.91
924.697	8485.34
925.008	8434.27
925.318	8402.18
925.628	8431.11
925.938	8360.6
926.248	8242.64
926.558	8268.62
926.867	8243.09
927.177	8166.71
927.487	8224.11
927.796	8084.9
928.106	8063.43
928.416	8054.84
928.725	8028.86
929.034	7987.5
929.344	8032.7
929.653	7902.53
929.962	7888.07
930.271	7768.98
930.581	7822.08
930.89	7703.89
931.199	7744.12
931.508	7700.96
931.817	7665.93
932.125	7686.49
932.434	7644.91
932.743	7570.79
933.051	7568.08
933.36	7537.57
933.669	7479.94
933.977	7436.56
934.286	7387.52
934.594	7423.9
934.902	7286.28
935.21	7292.6
935.519	7304.58
935.827	7272.49
936.135	7237.69
936.443	7164.25
936.751	7168.99
937.059	7163.34
937.367	7046.96
937.674	7065.27
937.982	7017.58
938.29	6999.05
938.597	7006.28
938.905	6852.84
939.213	6904.59
939.52	6870.02
939.827	6904.59
940.135	6820.75
940.442	6702.56
940.749	6728.78
941.056	6730.13
941.363	6613.07
941.67	6680.64
941.977	6578.73
942.284	6514.09
942.591	6583.02
942.898	6507.99
943.205	6556.35
943.511	6463.47
943.818	6450.14
944.125	6381.44
944.431	6426.19
944.738	6318.17
945.044	6349.58
945.35	6331.27
945.657	6281.56
945.963	6246.08
946.269	6214.67
946.575	6174.44
946.881	6116.59
947.187	6102.58
947.493	6111.84
947.799	6073.2
948.105	6047.67
948.41	5994.56
948.716	6002.02
949.022	5955.01
949.327	5906.65
949.633	5832.3
949.938	5862.13
950.244	5821.01
950.549	5814
950.854	5782.81
951.16	5740.1
951.465	5705.98
951.77	5755.47
952.075	5638.64
952.38	5675.25
952.685	5652.65
952.99	5594.8
953.294	5577.62
953.599	5542.59
953.904	5554.12
954.209	5511.41
954.513	5498.08
954.818	5530.84
955.122	5447.23
955.426	5441.35
955.731	5373.33
956.035	5353.67
956.339	5338.31
956.643	5347.35
956.948	5317.06
957.252	5277.74
957.556	5263.73
957.86	5269.38
958.163	5296.5
958.467	5195.48
958.771	5171.98
959.075	5155.49
959.378	5129.95
959.682	5099.44
959.985	5066.9
960.289	5076.62
960.592	5020.35
960.896	5022.83
961.199	5027.81
961.502	4954.59
961.805	4953.46
962.108	4943.29
962.411	4930.63
962.714	4904.65
963.017	4848.6
963.32	4898.54
963.623	4813.35
963.926	4765.89
964.228	4751.43
964.531	4760.69
964.833	4747.59
965.136	4717.53
965.438	4686.57
965.741	4647.48
966.043	4633.47
966.345	4615.16
966.648	4594.14
966.95	4657.42
967.252	4574.26
967.554	4570.42
967.856	4540.81
968.158	4486.8
968.46	4489.97
968.761	4498.33
969.063	4440.02
969.365	4465.79
969.666	4412.23
969.968	4387.14
970.269	4369.97
970.571	4375.39
970.872	4332.23
971.174	4277.99
971.475	4262.63
971.776	4276.41
972.077	4259.24
972.378	4253.59
972.679	4227.15
972.98	4200.48
973.281	4184.66
973.582	4168.85
973.883	4107.6
974.183	4122.97
974.484	4096.08
974.785	4061.05
975.085	4056.76
975.386	4065.8
975.686	4056.08
975.986	4035.29
976.287	4004.1
976.587	3942.41
976.887	3922.07
977.187	3942.18
977.487	3918.68
977.787	3876.65
978.087	3867.16
978.387	3920.49
978.687	3880.72
978.987	3810.44
979.286	3779.7
979.586	3784.67
979.885	3756.88
980.185	3744.9
980.484	3738.8
980.784	3755.97
981.083	3704.22
981.382	3704.68
981.682	3669.65
981.981	3658.58
982.28	3625.13
982.579	3591.46
982.878	3667.39
983.177	3595.98
983.475	3568.41
983.774	3550.1
984.073	3534.96
984.372	3544
984.67	3517.11
984.969	3489.09
985.267	3474.17
985.566	3514.63
985.864	3429.66
986.162	3439.15
986.461	3419.26
986.759	3386.94
987.057	3378.13
987.355	3327.74
987.653	3358.47
987.951	3321.64
988.249	3329.09
988.547	3323.22
988.844	3281.64
989.142	3244.58
989.44	3260.17
989.737	3241.19
990.035	3270.79
990.332	3205.48
990.63	3195.76
990.927	3160.96
991.224	3160.96
991.521	3137.23
991.819	3140.85
992.116	3150.79
992.413	3096.56
992.71	3094.75
993.006	3092.72
993.303	3050.91
993.6	3066.05
993.897	3009.78
994.193	3047.52
994.49	3027.18
994.787	2977.01
995.083	2975.66
995.379	2941.08
995.676	2937.24
995.972	2939.72
996.268	2900.86
996.565	2864.92
996.861	2850.46
997.157	2856.11
997.453	2846.39
997.749	2826.28
998.044	2799.16
998.34	2815.89
998.636	2811.82
998.932	2786.28
999.227	2763.23
999.523	2749.45
999.818	2681.88
1000.114	2706.51
1000.409	2723.23
1000.704	2720.52
1001	2690.47
1001.295	2672.61
1001.59	2662.44
1001.885	2624.25
1002.18	2624.93
1002.475	2603.46
1002.77	2591.49
1003.065	2552.16
1003.359	2542
1003.654	2571.15
1003.949	2537.25
1004.243	2523.92
1004.538	2518.72
1004.832	2516.69
1005.127	2472.17
1005.421	2449.34
1005.715	2453.41
1006.009	2426.07
1006.304	2408.44
1006.598	2399.17
1006.892	2392.62
1007.186	2385.16
1007.48	2376.12
1007.773	2333.87
1008.067	2339.97
1008.361	2297.93
1008.655	2299.74
1008.948	2309.23
1009.242	2255.9
1009.535	2265.62
1009.829	2247.99
1010.122	2222.23
1010.415	2235.79
1010.708	2212.74
1011.001	2186.98
1011.295	2189.01
1011.588	2139.29
1011.881	2143.81
1012.173	2130.93
1012.466	2130.03
1012.759	2103.14
1013.052	2100.2
1013.344	2102.91
1013.637	2093.19
1013.93	2089.35
1014.222	2040.54
1014.514	2060.88
1014.807	2038.73
1015.099	2010.03
1015.391	2003.48
1015.683	1978.62
1015.976	1996.02
1016.268	1971.16
1016.56	1956.7
1016.851	1940.66
1017.143	1909.02
1017.435	1906.76
1017.727	1906.98
1018.018	1909.24
1018.31	1888
1018.602	1897.04
1018.893	1851.84
1019.185	1849.36
1019.476	1808.68
1019.767	1764.39
1020.058	1804.16
1020.35	1802.81
1020.641	1777.04
1020.932	1763.71
1021.223	1756.71
1021.514	1732.98
1021.804	1711.51
1022.095	1722.81
1022.386	1710.15
1022.677	1704.5
1022.967	1703.6
1023.258	1661.57
1023.548	1676.48
1023.839	1650.72
1024.129	1647.56
1024.419	1639.42
1024.709	1634.45
1025	1640.55
1025.29	1603.94
1025.58	1566.2
1025.87	1553.09
1026.16	1547.67
1026.449	1566.88
1026.739	1540.67
1027.029	1551.96
1027.319	1506.09
1027.608	1485.53
1027.898	1516.03
1028.187	1507.9
1028.477	1469.26
1028.766	1462.25
1029.055	1437.39
1029.344	1459.54
1029.634	1435.13
1029.923	1433.55
1030.212	1433.1
1030.501	1414.12
1030.79	1412.31
1031.078	1382.03
1031.367	1361.46
1031.656	1376.83
1031.945	1406.43
1032.233	1354.23
1032.522	1347.45
1032.81	1327.11
1033.099	1309.03
1033.387	1311.29
1033.675	1321.69
1033.963	1305.64
1034.251	1271.07
1034.54	1270.84
1034.828	1275.36
1035.116	1258.64
1035.403	1236.49
1035.691	1215.48
1035.979	1243.27
1036.267	1257.51
1036.554	1224.06
1036.842	1223.16
1037.129	1180.9
1037.417	1196.72
1037.704	1160.79
1037.992	1160.79
1038.279	1176.83
1038.566	1160.56
1038.853	1160.56
1039.14	1160.56
