Data from white_wall_FLMS001491_090.txt Node
Date: Tue Feb 07 11:06:03 GMT 2017
User: dcchb
Spectrometer: FLMS00149
Trigger mode: 0
Integration Time (sec): 2.000000E-2
Scans to average: 10
Electric dark correction enabled: true
Nonlinearity correction enabled: false
Boxcar width: 0
XAxis mode: Wavelengths
Number of Pixels in Spectrum: 2048
>>>>>Begin Spectral Data<<<<<
341.393	-21.54
341.776	-21.54
342.16	-21.54
342.543	-62.67
342.927	-57.02
343.31	-64.93
343.693	-83.91
344.077	-82.55
344.46	-57.24
344.843	-58.37
345.226	-41.65
345.61	-17.92
345.993	-5.95
346.376	4
346.759	13.71
347.142	15.07
347.525	54.39
347.908	47.61
348.291	76.99
348.674	90.1
349.057	110.66
349.44	133.49
349.823	144.11
350.206	154.28
350.588	234.73
350.971	226.59
351.354	242.41
351.737	242.86
352.119	264.1
352.502	300.49
352.884	320.15
353.267	296.87
353.65	310.43
354.032	301.16
354.414	359.02
354.797	334.61
355.179	345.01
355.562	349.75
355.944	339.36
356.326	366.25
356.709	369.41
357.091	379.35
357.473	353.37
357.855	344.1
358.238	352.46
358.62	371.9
359.002	353.59
359.384	369.64
359.766	363.54
360.148	357.66
360.53	366.7
360.912	366.93
361.294	358.11
361.676	372.8
362.057	377.09
362.439	352.69
362.821	338.9
363.203	352.46
363.584	368.51
363.966	358.34
364.348	348.39
364.729	361.28
365.111	352.01
365.493	349.3
365.874	315.85
366.256	348.17
366.637	351.11
367.019	351.33
367.4	356.3
367.781	333.25
368.163	333.93
368.544	349.98
368.925	343.88
369.306	364.67
369.688	341.39
370.069	353.82
370.45	325.34
370.831	327.38
371.212	336.42
371.593	342.97
371.974	346.36
372.355	335.06
372.736	341.84
373.117	350.88
373.498	355.85
373.879	362.63
374.26	356.98
374.641	348.85
375.021	366.7
375.402	349.75
375.783	367.15
376.163	369.64
376.544	370.54
376.925	363.54
377.305	358.34
377.686	373.03
378.066	379.81
378.447	369.86
378.827	369.41
379.208	392.46
379.588	370.99
379.968	386.13
380.349	365.8
380.729	387.49
381.109	405.79
381.489	403.31
381.87	391.11
382.25	372.12
382.63	402.63
383.01	375.06
383.39	394.72
383.77	407.38
384.15	429.75
384.53	393.14
384.91	427.71
385.29	425.45
385.67	410.09
386.049	415.29
386.429	430.43
386.809	438.34
387.189	448.96
387.568	446.7
387.948	423.42
388.328	461.61
388.707	462.97
389.087	455.51
389.466	472.69
389.846	448.05
390.225	444.44
390.605	450.99
390.984	461.84
391.363	490.31
391.743	487.37
392.122	506.13
392.501	505.9
392.881	516.98
393.26	519.92
393.639	535.51
394.018	532.8
394.397	552.23
394.776	568.28
395.155	544.1
395.534	548.16
395.913	571.44
396.292	565.56
396.671	567.37
397.05	595.39
397.429	623.42
397.808	620.48
398.186	638.33
398.565	638.1
398.944	636.52
399.323	643.98
399.701	667.03
400.08	666.13
400.458	689.4
400.837	701.83
401.215	715.84
401.594	705
401.972	726.24
402.351	757.2
402.729	780.93
403.107	762.85
403.486	772.56
403.864	799.23
404.242	814.15
404.62	810.76
404.999	833.35
405.377	857.53
405.755	872.45
406.133	883.97
406.511	901.83
406.889	932.79
407.267	935.95
407.645	945.44
408.023	988.15
408.401	966.68
408.779	996.97
409.156	1025.21
409.534	1021.15
409.912	1061.14
410.29	1094.82
410.667	1101.82
411.045	1135.04
411.422	1132.33
411.8	1163.06
412.178	1200.35
412.555	1169.16
412.933	1205.32
413.31	1239.22
413.687	1265.66
414.065	1297.07
414.442	1258.88
414.819	1282.83
415.197	1326
415.574	1346.56
415.951	1358.54
416.328	1353.57
416.705	1375.03
417.082	1395.37
417.46	1409.84
417.837	1462.94
418.214	1465.43
418.591	1439.67
418.967	1489.16
419.344	1494.58
419.721	1525.09
420.098	1531.19
420.475	1553.79
420.852	1555.14
421.228	1600.79
421.605	1582.49
421.982	1626.55
422.358	1622.26
422.735	1636.5
423.111	1658.42
423.488	1711.3
423.864	1725.76
424.241	1751.3
424.617	1756.49
424.994	1808.92
425.37	1799.66
425.746	1787
426.123	1819.54
426.499	1871.29
426.875	1879.43
427.251	1904.74
427.627	1920.33
428.003	1955.36
428.379	1967.11
428.756	2010.95
429.132	2040.55
429.507	2066.09
429.883	2076.71
430.259	2119.42
430.635	2133.21
431.011	2180.21
431.387	2230.38
431.763	2250.49
432.138	2266.54
432.514	2276.48
432.89	2304.73
433.265	2380.21
433.641	2419.98
434.016	2412.97
434.392	2465.4
434.767	2495.23
435.143	2513.31
435.518	2543.59
435.894	2590.6
436.269	2615.23
436.644	2634.21
437.02	2683.7
437.395	2699.52
437.77	2724.15
438.145	2790.82
438.52	2801.66
438.895	2851.83
439.271	2863.81
439.646	2895.67
440.021	2899.29
440.395	2922.56
440.77	2922.56
441.145	2939.74
441.52	2988.78
441.895	3040.3
442.27	3046.63
442.645	3038.49
443.019	3112.16
443.394	3112.84
443.769	3149
444.143	3120.07
444.518	3227.42
444.892	3210.69
445.267	3274.65
445.641	3286.62
446.016	3293.63
446.39	3298.15
446.764	3361.42
447.139	3360.29
447.513	3382.44
447.887	3409.33
448.262	3433.74
448.636	3425.6
449.01	3511.7
449.384	3529.33
449.758	3552.38
450.132	3625.14
450.506	3618.82
450.88	3680.06
451.254	3707.63
451.628	3720.06
452.002	3745.37
452.376	3821.3
452.75	3798.7
453.123	3901.75
453.497	3985.59
453.871	3944.46
454.244	4089.31
454.618	4146.94
454.992	4153.94
455.365	4158.92
455.739	4289.53
456.112	4293.38
456.486	4326.14
456.859	4369.53
457.232	4492.47
457.606	4462.64
457.979	4531.34
458.352	4684.78
458.725	4699.24
459.099	4712.12
459.472	4862.63
459.845	4805.9
460.218	4972
460.591	4999.57
460.964	5000.25
461.337	5137.2
461.71	5216.97
462.083	5266.23
462.456	5266.01
462.829	5278.66
463.201	5433.01
463.574	5433.23
463.947	5514.81
464.32	5660.8
464.692	5716.16
465.065	5776.73
465.438	5878.19
465.81	5946.21
466.183	6044.29
466.555	6133.55
466.928	6176.04
467.3	6194.79
467.672	6294
468.045	6453.77
468.417	6432.98
468.789	6559.53
469.161	6689.7
469.534	6791.16
469.906	6936.92
470.278	7008.11
470.65	7023.7
471.022	7171.27
471.394	7306.63
471.766	7443.58
472.138	7500.75
472.51	7677.69
472.882	7814.64
473.253	7887.18
473.625	7971.92
473.997	8107.51
474.369	8264.8
474.74	8309.54
475.112	8466.15
475.484	8621.4
475.855	8768.29
476.227	8887.83
476.598	9217.54
476.97	9204.21
477.341	9407.37
477.713	9539.57
478.084	9643.74
478.455	9900.23
478.827	10010.06
479.198	10260
479.569	10316.49
479.94	10604.17
480.311	10668.35
480.682	10958.51
481.053	11193.99
481.424	11325.96
481.795	11483.7
482.166	11711.49
482.537	11826.96
482.908	12212.26
483.279	12218.37
483.65	12591.01
484.021	12719.37
484.391	12968.4
484.762	13072.81
485.133	13206.81
485.503	13356.41
485.874	13692.22
486.244	13805.67
486.615	14035.72
486.985	14224.41
487.356	14511.64
487.726	14618.53
488.097	14923.83
488.467	15010.16
488.837	15406.53
489.207	15458.28
489.578	15754.77
489.948	15850.59
490.318	16180.52
490.688	16288.31
491.058	16534.86
491.428	16787.28
491.798	16957.68
492.168	17305.46
492.538	17349.08
492.908	17483.54
493.278	17717.43
493.648	17815.96
494.017	18028.38
494.387	18274.48
494.757	18473.79
495.126	18651.19
495.496	18734.13
495.866	18851.86
496.235	19104.96
496.605	19314.9
496.974	19340.44
497.344	19589.92
497.713	19678.06
498.082	19896.81
498.452	20224.71
498.821	20171.15
499.19	20313.75
499.559	20476.68
499.928	20750.34
500.298	20859.72
500.667	21066.72
501.036	21034.4
501.405	21327.28
501.774	21394.85
502.143	21608.4
502.512	21789.64
502.88	21970.43
503.249	22019.46
503.618	22154.15
503.987	22338.33
504.356	22579
504.724	22674.36
505.093	22725.43
505.462	22851.98
505.83	23012.21
506.199	23366.77
506.567	23663.49
506.936	23557.5
507.304	23921.56
507.672	23882.69
508.041	24086.08
508.409	24407.2
508.777	24543.46
509.145	24723.35
509.514	24794.76
509.882	24827.98
510.25	25090.57
510.618	25258.25
510.986	25393.61
511.354	25761.96
511.722	25911.56
512.09	26195.17
512.458	26212.35
512.826	26504.77
513.193	26539.34
513.561	26772.78
513.929	26948.37
514.297	27182.72
514.664	27477.62
515.032	27402.15
515.4	27775.47
515.767	27870.16
516.135	28092.75
516.502	27949.48
516.869	28515.56
517.237	28604.15
517.604	28578.61
517.972	29027.87
518.339	29257.92
518.706	29380.85
519.073	29487.97
519.44	29722.54
519.808	30057.9
520.175	30036.65
520.542	30393.71
520.909	30605.68
521.276	30796.86
521.643	30857.2
522.009	31332.44
522.376	31405.66
522.743	31634.8
523.11	31942.82
523.477	32276.14
523.843	32405.41
524.21	32709.35
524.577	33014.43
524.943	33131.04
525.31	33364.93
525.676	33655.32
526.043	33897.8
526.409	33935.76
526.776	34340.95
527.142	34491.45
527.508	34666.36
527.874	34897.32
528.241	35173.02
528.607	35297.31
528.973	35664.75
529.339	35577.98
529.705	36008.93
530.071	36391.51
530.437	36437.16
530.803	36691.39
531.169	36861.79
531.535	36801.9
531.901	37011.61
532.267	37272.85
532.632	37615.66
532.998	37601.65
533.364	37960.06
533.73	37944.92
534.095	38304.01
534.461	38450.22
534.826	38581.29
535.192	38740.61
535.557	39056.08
535.923	38999.36
536.288	39080.26
536.653	39249.29
537.019	39223.08
537.384	39604.09
537.749	39757.08
538.114	39831.42
538.479	39948.94
538.845	40185.77
539.21	40152.09
539.575	40449.26
539.94	40575.59
540.305	40828.69
540.67	40883.83
541.034	40963.37
541.399	41186.64
541.764	41383.25
542.129	41534.88
542.494	41629.12
542.858	41781.2
543.223	41806.97
543.587	42178.71
543.952	42174.87
544.316	42319.72
544.681	42275.88
545.045	42541.41
545.41	42802.65
545.774	42924
546.138	43101.85
546.503	43091.45
546.867	43212.8
547.231	43619.57
547.595	43795.61
547.959	43770.08
548.324	43938.89
548.688	43940.47
549.052	44372.77
549.416	44417.52
549.779	44433.34
550.143	44650.96
550.507	45011.4
550.871	45105.64
551.235	45142.02
551.599	45419.98
551.962	45488.68
552.326	45652.97
552.689	45983.13
553.053	45807.76
553.417	45938.16
553.78	46648.87
554.143	46417.47
554.507	46614.07
554.87	46736.55
555.234	47294.05
555.597	47134.28
555.96	47312.81
556.323	47463.54
556.686	47555.29
557.05	47895.17
557.413	47987.59
557.776	48127.93
558.139	48364.31
558.502	48467.13
558.865	48501.25
559.228	48808.14
559.59	49031.63
559.953	49066.21
560.316	49350.04
560.679	49502.13
561.041	49738.96
561.404	49861.9
561.767	50032.29
562.129	49983.47
562.492	50311.83
562.854	50345.5
563.217	50456
563.579	50633.85
563.941	50824.13
564.304	50981.41
564.666	51257.34
565.028	51332.82
565.39	51442.19
565.753	51540.95
566.115	51715.86
566.477	51817.1
566.839	51944.1
567.201	52143.42
567.563	52186.35
567.925	52315.16
568.287	52425.44
568.648	52516.29
569.01	52781.82
569.372	52935.49
569.734	52899.56
570.095	53013.9
570.457	53180.45
570.819	53206.44
571.18	53241.02
571.542	53319.21
571.903	53445.98
572.265	53578.18
572.626	53653.66
572.987	53712.87
573.349	53846.2
573.71	53928.91
574.071	53938.85
574.432	54125.06
574.794	54289.35
575.155	54210.26
575.516	54193.53
575.877	54272.63
576.238	54405.05
576.599	54489.12
576.96	54426.07
577.32	54552.17
577.681	54565.05
578.042	54626.29
578.403	54645.95
578.763	54767.98
579.124	54791.71
579.485	54789.22
579.845	54986.73
580.206	54850.24
580.566	54835.32
580.927	54886.62
581.287	54984.92
581.648	54905.83
582.008	55133.62
582.368	54972.27
582.728	55081.42
583.089	55085.03
583.449	55084.13
583.809	55158.93
584.169	55166.61
584.529	55120.97
584.889	55256.78
585.249	55178.14
585.609	55069.44
585.969	55265.14
586.329	55177.69
586.688	55278.25
587.048	55234.41
587.408	55202.32
587.768	55138.14
588.127	55217.46
588.487	55184.69
588.846	55309.21
589.206	55189.66
589.565	55255.2
589.925	55322.32
590.284	55323.45
590.643	55372.03
591.003	55309.21
591.362	55409.09
591.721	55327.29
592.08	55346.27
592.44	55424.01
592.799	55460.17
593.158	55301.53
593.517	55369.09
593.876	55458.81
594.235	55403.44
594.593	55399.83
594.952	55452.71
595.311	55367.06
595.67	55471.24
596.029	55541.52
596.387	55629.88
596.746	55602.54
597.104	55495.42
597.463	55485.25
597.822	55608.64
598.18	55529.99
598.538	55464.69
598.897	55708.97
599.255	55465.59
599.613	55887.05
599.972	55629.43
600.33	55750.1
600.688	55641.18
601.046	55798.46
601.404	55843.88
601.762	55809.76
602.12	55884.11
602.478	55925.92
602.836	55875.52
603.194	55722.31
603.552	55829.65
603.91	55822.64
604.268	55945.58
604.625	55861.51
604.983	55979.7
605.341	55907.84
605.698	56031.9
606.056	56124.56
606.413	56128.62
606.771	56144.22
607.128	56165.23
607.485	56064.9
607.843	56089.08
608.2	56287.26
608.557	56316.41
608.914	56259.02
609.272	56284.55
609.629	56365.68
609.986	56467.6
610.343	56396.19
610.7	56511.44
611.057	56566.8
611.414	56499.91
611.771	56508.05
612.127	56595.28
612.484	56618.55
612.841	56735.16
613.198	56619.01
613.554	56576.29
613.911	56825.55
614.267	56687.25
614.624	56701.26
614.98	56744.43
615.337	56866
615.693	56757.99
616.05	56780.13
616.406	56893.8
616.762	56826.68
617.118	56859.23
617.475	56860.58
617.831	56909.62
618.187	57006.11
618.543	57015.83
618.899	57093.57
619.255	57078.65
619.611	57089.95
619.967	57141.25
620.323	57224.64
620.678	57099.44
621.034	57000.01
621.39	57103.06
621.746	57042.72
622.101	57284.07
622.457	57104.42
622.812	57179.44
623.168	57126.11
623.523	57237.75
623.879	57332.43
624.234	57197.52
624.589	57255.6
624.945	57219.89
625.3	57251.76
625.655	57261.7
626.01	57258.31
626.365	57264.41
626.72	57238.42
627.075	57233.23
627.43	57143.06
627.785	57150.97
628.14	57201.82
628.495	57243.85
628.85	57196.17
629.205	57103.74
629.559	57246.33
629.914	57104.87
630.269	57209.5
630.623	57067.81
630.978	56996.85
631.332	57129.5
631.687	57217.41
632.041	57086.11
632.396	57093.57
632.75	57020.13
633.104	57024.64
633.459	56863.52
633.813	56843.86
634.167	56862.84
634.521	56809.74
634.875	56918.66
635.229	56768.15
635.583	56706.23
635.937	56746.01
636.291	56712.34
636.645	56690.19
636.999	56684.77
637.352	56760.47
637.706	56574.49
638.06	56698.78
638.413	56730.42
638.767	56521.16
639.121	56596.18
639.474	56447.03
639.828	56465.79
640.181	56529.52
640.534	56551.21
640.888	56358.45
641.241	56303.76
641.594	56314.15
641.947	56364.78
642.301	56288.84
642.654	56290.88
643.007	56294.04
643.36	56257.21
643.713	56208.85
644.066	56280.03
644.419	56047.27
644.771	55858.35
645.124	55652.7
645.477	55645.7
645.83	55457.23
646.182	55381.52
646.535	55333.39
646.888	55342.43
647.24	55141.3
647.593	55296.1
647.945	55262.21
648.298	55062.89
648.65	55039.39
649.002	55007.3
649.355	55122.55
649.707	55023.34
650.059	55128.2
650.411	55482.31
650.763	55539.26
651.115	55750.1
651.467	55620.61
651.819	55619.48
652.171	55557.34
652.523	55520.73
652.875	55527.28
653.227	55360.28
653.578	55558.69
653.93	55445.03
654.282	55334.75
654.633	55302.2
654.985	55302.43
655.337	55358.93
655.688	55304.69
656.039	55377.46
656.391	55167.97
656.742	55232.6
657.094	55237.57
657.445	55254.97
657.796	55165.94
658.147	55081.19
658.498	55148.76
658.849	55116.45
659.2	55102.89
659.551	55141.53
659.902	55197.57
660.253	55109.21
660.604	55083.45
660.955	54994.42
661.306	55075.32
661.656	55046.84
662.007	55033.51
662.358	55010.46
662.708	55071.48
663.059	54890.24
663.409	54746.51
663.76	54983.57
664.11	54930.01
664.461	54910.12
664.811	54926.39
665.161	54907.86
665.511	54776.79
665.862	54871.93
666.212	54877.81
666.562	54947.19
666.912	54776.57
667.262	54771.14
667.612	54723.91
667.962	54837.58
668.312	54739.28
668.662	54921.42
669.011	54763.46
669.361	54745.83
669.711	54765.04
670.06	54648.89
670.41	54614.54
670.76	54598.95
671.109	54701.54
671.459	54619.96
671.808	54542.45
672.157	54537.93
672.507	54358.27
672.856	54304.26
673.205	54349.91
673.554	54380.42
673.904	54337.94
674.253	54466.07
674.602	54380.65
674.951	53978.4
675.3	53835.58
675.649	54223.81
675.998	54243.47
676.346	54276.24
676.695	54326.41
677.044	54137.26
677.393	54183.59
677.741	54168.45
678.09	54044.16
678.438	53989.02
678.787	54044.16
679.135	54069.24
679.484	53922.81
679.832	53958.06
680.181	53808.01
680.529	53974.33
680.877	53821.11
681.225	53778.18
681.573	53926.65
681.922	53672.87
682.27	53589.03
682.618	53664.06
682.966	53583.38
683.314	53573.44
683.661	53482.82
684.009	53297.74
684.357	53253.44
684.705	53259.77
685.053	53239.89
685.4	53195.82
685.748	53034.24
686.095	53058.42
686.443	52881.02
686.79	52794.47
687.138	52830.63
687.485	52870.86
687.832	52663.18
688.18	52708.83
688.527	52573.24
688.874	52466.57
689.221	52441.49
689.568	52348.61
689.915	52343.41
690.262	52240.59
690.609	52160.14
690.956	52060.03
691.303	51953.14
691.65	51816.65
691.997	51890.32
692.344	51573.71
692.69	51668.85
693.037	51684.45
693.383	51416.66
693.73	51613.94
694.077	51289.88
694.423	51318.81
694.769	51272.03
695.116	51155.65
695.462	51077.46
695.808	50949.55
696.155	50942.32
696.501	50743.68
696.847	50790.46
697.193	50446.74
697.539	50734.87
697.885	50435.67
698.231	50152.51
698.577	50247.42
698.923	50180.98
699.269	50036.35
699.614	49852.63
699.96	49705.29
700.306	49782.8
700.651	49491.06
700.997	49449.48
701.342	49484.28
701.688	49279.76
702.033	49288.12
702.379	49172.87
702.724	49098.53
703.069	49158.64
703.415	48600.23
703.76	48647.01
704.105	48742.15
704.45	48529.95
704.795	48387.81
705.14	48371.54
705.485	48371.31
705.83	48172.9
706.175	48175.39
706.52	48169.51
706.865	47945.56
707.209	47934.94
707.554	47767.26
707.899	47844.32
708.243	47668.51
708.588	47565.46
708.932	47484.78
709.277	47302.19
709.621	47283.43
709.966	47053.38
710.31	47133.38
710.654	46816.78
710.998	47000.05
711.342	46946.72
711.687	46761.19
712.031	46682.09
712.375	46522.1
712.719	46557.58
713.063	46469.44
713.407	46536.11
713.75	46348.77
714.094	46283.46
714.438	46127.3
714.782	46190.58
715.125	46056.8
715.469	46096.12
715.812	45822
716.156	45594.21
716.499	45548.11
716.843	45639.41
717.186	45363.93
717.53	45479.86
717.873	45322.13
718.216	45384.5
718.559	45184.05
718.902	44884.4
719.246	45042.59
719.589	44907.22
719.932	44599.43
720.275	44654.12
720.617	44577.74
720.96	44541.81
721.303	44726.66
721.646	44534.35
721.989	44330.97
722.331	44436.5
722.674	44297.97
723.016	44225.43
723.359	44145.21
723.701	44291.19
724.044	44040.35
724.386	43899.57
724.729	44026.79
725.071	43876.06
725.413	43839.91
725.755	43737.99
726.097	43545.45
726.439	43420.26
726.782	43595.62
727.124	43655.28
727.465	43338
727.807	43360.6
728.149	43337.32
728.491	43222.3
728.833	43262.52
729.175	43095.07
729.516	42970.55
729.858	42926.03
730.199	42859.14
730.541	42867.95
730.882	42854.85
731.224	42796.32
731.565	42597.23
731.906	42605.81
732.248	42545.03
732.589	42181.87
732.93	42405.37
733.271	42102.1
733.612	42255.99
733.953	42292.15
734.294	41969.22
734.635	41960.63
734.976	42036.56
735.317	41814.2
735.658	41863.69
735.999	41748.21
736.339	41742.79
736.68	41891.48
737.021	41525.84
737.361	41421.67
737.702	41595.9
738.042	41501.89
738.383	41330.82
738.723	41411.04
739.063	41335.57
739.404	41369.92
739.744	41061.67
740.084	41034.56
740.424	41047.44
740.764	40955.91
741.104	40916.59
741.444	40825.97
741.784	40849.7
742.124	40832.3
742.464	40688.58
742.804	40583.04
743.143	40712.08
743.483	40508.92
743.823	40383.27
744.162	40282.71
744.502	40340.79
744.841	40277.29
745.181	40318.19
745.52	40080.46
745.86	40061.93
746.199	39964.75
746.538	40016.28
746.877	40080.68
747.216	39950.74
747.556	39873.46
747.895	39871.88
748.234	39548.49
748.573	39656.97
748.911	39518.66
749.25	39518.21
749.589	39351.21
749.928	39498.33
750.267	39511.88
750.605	39209.52
750.944	39203.87
751.283	39013.82
751.621	39166.58
751.96	38920.26
752.298	38782.19
752.636	38822.41
752.975	38586.26
753.313	38508.3
753.651	38710.1
753.989	38517.11
754.327	38479.82
754.666	38233.73
755.004	38404.12
755.342	38227.85
755.679	38040.29
756.017	37857.69
756.355	37969.1
756.693	37779.05
757.031	37911.25
757.368	37645.27
757.706	37526.85
758.044	37418.15
758.381	37508.55
758.719	37421.54
759.056	37405.73
759.394	37185.84
759.731	36944.04
760.068	37085.51
760.405	36772.07
760.743	36611.62
761.08	36821.11
761.417	36521.23
761.754	36500.89
762.091	36435.36
762.428	36250.05
762.765	36029.72
763.102	36168.24
763.438	35881.25
763.775	35806.9
764.112	35737.97
764.449	35660.91
764.785	35530.29
765.122	35339.34
765.458	35260.25
765.795	35207.14
766.131	35173.47
766.467	35173.24
766.804	34939.35
767.14	34744.78
767.476	34727.15
767.812	34566.7
768.148	34617.78
768.485	34336.88
768.821	34220.72
769.157	34079.26
769.492	34121.52
769.828	34015.08
770.164	33693.96
770.5	33585.71
770.836	33595.2
771.171	33408.09
771.507	33323.12
771.842	33054.88
772.178	33034.32
772.513	32998.16
772.849	32927.88
773.184	32637.49
773.519	32736.92
773.855	32513.42
774.19	32490.83
774.525	32304.16
774.86	32221.68
775.195	32178.07
775.53	32006.55
775.865	31897.4
776.2	31695.82
776.535	31562.04
776.87	31665.09
777.205	31447.46
777.539	31123.18
777.874	31308.94
778.209	30947.14
778.543	30833.02
778.878	30763.64
779.212	30713.25
779.547	30517.32
779.881	30708.05
780.215	30252.47
780.55	30445.46
780.884	30174.28
781.218	30141.28
781.552	30142.87
781.886	30029.42
782.22	29862.65
782.554	29737.68
782.888	29450.45
783.222	29330.23
783.556	29240.06
783.889	29187.41
784.223	28974.31
784.557	28868.32
784.89	28915.55
785.224	28843.24
785.557	28641.66
785.891	28605.96
786.224	28614.32
786.558	28354.44
786.891	28100.89
787.224	28129.13
787.557	28085.07
787.891	27976.82
788.224	28012.53
788.557	27830.38
788.89	27767.79
789.223	27709.03
789.556	27563.5
789.888	27380.9
790.221	27432.65
790.554	27062.95
790.887	27269.95
791.219	27088.71
791.552	27006.68
791.884	26885.55
792.217	26790.64
792.549	26604.65
792.882	26524.88
793.214	26462.74
793.546	26507.71
793.879	26188.62
794.211	26225.23
794.543	26233.36
794.875	26107.04
795.207	26212.12
795.539	25925.8
795.871	25816.65
796.203	25791.34
796.535	25495.3
796.867	25573.49
797.198	25552.93
797.53	25469.99
797.862	25203.33
798.193	25192.49
798.525	25086.5
798.856	25071.81
799.188	24933.96
799.519	24748.21
799.85	24622.11
800.182	24730.8
800.513	24672.73
800.844	24404.26
801.175	24489
801.506	24519.06
801.837	24343.47
802.168	24307.99
802.499	24199.75
802.83	24142.12
803.161	23988.45
803.491	23931.73
803.822	23903.93
804.153	23914.55
804.483	23687.44
804.814	23623.04
805.145	23615.35
805.475	23628.23
805.805	23499.88
806.136	23494.68
806.466	23378.07
806.796	23451.97
807.126	23150.73
807.457	23116.16
807.787	23137.17
808.117	23058.98
808.447	22866.45
808.777	22953.22
809.107	22876.16
809.436	22708.03
809.766	22656.96
810.096	22685.43
810.426	22572.67
810.755	22578.54
811.085	22531.99
811.414	22366.35
811.744	22333.81
812.073	22282.28
812.403	22221.94
812.732	22071.44
813.061	22134.49
813.39	21993.25
813.719	21898.11
814.049	22119.35
814.378	21996.41
814.707	21896.3
815.036	21794.61
815.365	21729.75
815.693	21599.36
816.022	21609.98
816.351	21490.44
816.68	21464.22
817.008	21491.34
817.337	21291.8
817.665	21214.74
817.994	21231.46
818.322	21165.47
818.651	21049.32
818.979	20960.28
819.307	21157.79
819.636	21044.8
819.964	20859.95
820.292	21014.74
820.62	21000.28
820.948	20913.28
821.276	20866.27
821.604	20863.79
821.932	20904.01
822.259	20854.97
822.587	20882.32
822.915	20751.7
823.243	20943.11
823.57	20746.05
823.898	20813.17
824.225	20732.04
824.553	20781.76
824.88	20712.38
825.207	20839.83
825.535	20747.41
825.862	20822.66
826.189	20641.87
826.516	20793.73
826.843	20823.56
827.17	20847.97
827.497	20807.97
827.824	20762.32
828.151	20778.82
828.478	20725.71
828.805	20717.35
829.131	20753.28
829.458	20619.27
829.785	20659.5
830.111	20566.85
830.438	20733.17
830.764	20678.71
831.09	20718.25
831.417	20518.94
831.743	20741.76
832.069	20641.42
832.395	20471.26
832.722	20525.72
833.048	20479.62
833.374	20541.54
833.7	20451.37
834.026	20404.14
834.351	20612.04
834.677	20508.77
835.003	20480.75
835.329	20469.67
835.654	20437.13
835.98	20356.91
836.306	20290.02
836.631	20177.48
836.956	20301.54
837.282	20303.12
837.607	20231.94
837.932	20180.19
838.258	20181.32
838.583	20018.61
838.908	19958.73
839.233	19996.01
839.558	19952.85
839.883	19880.76
840.208	19873.53
840.533	19964.6
840.858	19901.33
841.182	19830.14
841.507	19805.28
841.832	19692.74
842.156	19732.29
842.481	19556.7
842.805	19567.78
843.13	19487.55
843.454	19563.71
843.778	19417.27
844.103	19431.28
844.427	19364.62
844.751	19317.39
845.075	19250.95
845.399	19220.21
845.723	19142.7
846.047	19116.49
846.371	18859.32
846.695	18968.92
847.019	18949.49
847.343	18794.69
847.666	18707.46
847.99	18545.43
848.313	18469.27
848.637	18463.62
848.96	18399.9
849.284	18299.11
849.607	18226.57
849.931	18179.79
850.254	18097.98
850.577	18022.96
850.9	17806.69
851.223	17787.48
851.546	17683.53
851.869	17587.04
852.192	17660.71
852.515	17458.45
852.838	17440.83
853.161	17424.56
853.483	17423.2
853.806	17354.05
854.129	17274.5
854.451	17196.09
854.774	17109.54
855.096	17097.56
855.419	16948.86
855.741	16905.7
856.063	16941.18
856.385	16867.73
856.708	16832.48
857.03	16816.44
857.352	16810.56
857.674	16697.8
857.996	16658.47
858.318	16494.18
858.64	16661.41
858.961	16561.98
859.283	16410.8
859.605	16392.49
859.926	16390.46
860.248	16192.05
860.57	16245.6
860.891	16248.32
861.212	16131.71
861.534	16153.18
861.855	16070.69
862.176	16054.2
862.498	15988.44
862.819	16042.67
863.14	15976.23
863.461	15956.57
863.782	15849.23
864.103	15876.8
864.424	15840.42
864.745	15838.38
865.065	15703.47
865.386	15590.71
865.707	15601.78
866.027	15664.6
866.348	15587.77
866.668	15522.01
866.989	15632.96
867.309	15391.39
867.63	15543.7
867.95	15511.39
868.27	15491.5
868.59	15396.59
868.91	15372.86
869.23	15359.53
869.55	15268.23
869.87	15408.56
870.19	15357.27
870.51	15312.07
870.83	15296.48
871.15	15158.17
871.469	15248.12
871.789	15210.6
872.109	15104.17
872.428	15053.54
872.748	15036.37
873.067	15049.25
873.386	15069.82
873.706	15086.99
874.025	14943.94
874.344	14941.91
874.663	14968.8
874.982	14936.71
875.301	14909.82
875.62	14905.3
875.939	14883.61
876.258	14843.15
876.577	14798.41
876.896	14759.99
877.214	14718.41
877.533	14786.66
877.852	14774
878.17	14687
878.489	14709.6
878.807	14606.32
879.125	14669.83
879.444	14582.6
879.762	14583.05
880.08	14575.37
880.398	14501.92
880.716	14542.6
881.034	14408.82
881.352	14424.18
881.67	14383.73
881.988	14390.29
882.306	14342.83
882.624	14311.87
882.941	14313.23
883.259	14230.97
883.577	14234.13
883.894	14176.28
884.212	14186
884.529	14106.9
884.846	14021.93
885.164	14041.14
885.481	14018.54
885.798	13963.18
886.115	13847.93
886.432	13949.62
886.75	13858.55
887.067	13783.3
887.383	13873.91
887.7	13770.87
888.017	13664.65
888.334	13773.35
888.651	13716.63
888.967	13622.4
889.284	13611.55
889.6	13555.51
889.917	13474.83
890.233	13470.31
890.55	13418.11
890.866	13343.99
891.182	13351.89
891.498	13255.17
891.815	13249.3
892.131	13160.26
892.447	13073.03
892.763	13149.64
893.079	13108.29
893.395	13011.56
893.71	13063.99
894.026	13012.24
894.342	12997.1
894.657	12868.97
894.973	12887.27
895.289	12824.45
895.604	12872.59
895.92	12776.99
896.235	12711.69
896.55	12714.62
896.865	12634.63
897.181	12592.59
897.496	12618.13
897.811	12546.94
898.126	12485.7
898.441	12425.82
898.756	12455.65
899.071	12400.73
899.386	12318.02
899.7	12246.39
900.015	12148.54
900.33	12036.9
900.644	12068.76
900.959	12147.41
901.273	12089.33
901.588	11976.11
901.902	11872.61
902.216	11844.82
902.531	11869.22
902.845	11775.66
903.159	11739.28
903.473	11689.11
903.787	11640.98
904.101	11541.32
904.415	11591.94
904.729	11609.79
905.042	11485.73
905.356	11422
905.67	11363.47
905.984	11345.85
906.297	11377.71
906.611	11261.78
906.924	11241.44
907.237	11208.45
907.551	11136.13
907.864	11020.2
908.177	11077.38
908.491	11024.95
908.804	10943.14
909.117	10873.54
909.43	10826.31
909.743	10842.13
910.056	10781.57
910.368	10739.08
910.681	10692.3
910.994	10676.03
911.307	10661.57
911.619	10537.28
911.932	10525.98
912.244	10488.47
912.557	10479.88
912.869	10354.91
913.181	10363.27
913.494	10285.99
913.806	10238.98
914.118	10239.66
914.43	10202.82
914.742	10115.82
915.054	10078.99
915.366	10005.77
915.678	10022.26
915.99	9903.17
916.302	9901.59
916.613	9864.98
916.925	9808.94
917.236	9855.72
917.548	9693.69
917.859	9692.78
918.171	9666.12
918.482	9610.75
918.794	9555.16
919.105	9523.52
919.416	9425.44
919.727	9402.62
920.038	9428.16
920.349	9381.15
920.66	9307.26
920.971	9321.27
921.282	9255.51
921.593	9213.25
921.903	9180.25
922.214	9141.61
922.525	9109.07
922.835	8993.37
923.146	9027.94
923.456	9021.39
923.767	8932.12
924.077	8942.52
924.387	8888.51
924.697	8801.28
925.008	8808.74
925.318	8751.34
925.628	8752.24
925.938	8678.12
926.248	8601.06
926.558	8513.6
926.867	8566.26
927.177	8522.87
927.487	8504.34
927.796	8400.61
928.106	8390.9
928.416	8383.66
928.725	8342.08
929.034	8349.77
929.344	8254.63
929.653	8284.46
929.962	8201.3
930.271	8186.15
930.581	8190
930.89	8065.93
931.199	8040.62
931.508	7984.35
931.817	7973.28
932.125	7959.49
932.434	7904.35
932.743	7806.05
933.051	7768.31
933.36	7876.11
933.669	7751.59
933.977	7712.04
934.286	7681.99
934.594	7663.46
934.902	7642.44
935.21	7569.22
935.519	7564.02
935.827	7534.42
936.135	7515.21
936.443	7412.16
936.751	7363.35
937.059	7316.8
937.367	7328.32
937.674	7366.06
937.982	7306.63
938.29	7196.8
938.597	7300.3
938.905	7159.97
939.213	7131.72
939.52	7103.25
939.827	7084.71
940.135	7037.94
940.442	7046.98
940.749	6962.46
941.056	7032.96
941.363	6893.08
941.67	6884.95
941.977	6868.9
942.284	6810.37
942.591	6804.95
942.898	6809.69
943.205	6780.54
943.511	6731.5
943.818	6677.95
944.125	6621.68
944.431	6654.9
944.738	6608.57
945.044	6566.31
945.35	6566.54
945.657	6439.08
945.963	6432.08
946.269	6507.55
946.575	6459.42
946.881	6393.43
947.187	6405.64
947.493	6364.51
947.799	6314.11
948.105	6303.94
948.41	6239.31
948.716	6250.84
949.022	6206.55
949.327	6158.19
949.633	6086.32
949.938	6103.5
950.244	6107.34
950.549	6013.33
950.854	5975.37
951.16	5994.35
951.465	5953.67
951.77	5934.24
952.075	5880.9
952.38	5859.44
952.685	5898.31
952.99	5865.09
953.294	5803.39
953.599	5794.58
953.904	5771.98
954.209	5746.9
954.513	5711.87
954.818	5717.52
955.122	5662.38
955.426	5623.06
955.731	5599.33
956.035	5596.62
956.339	5515.94
956.643	5558.88
956.948	5453.8
957.252	5471.88
957.556	5445.21
957.86	5452.67
958.163	5446.79
958.467	5369.51
958.771	5374.48
959.075	5385.55
959.378	5301.03
959.682	5288.6
959.985	5270.53
960.289	5256.29
960.592	5210.87
960.896	5221.71
961.199	5222.16
961.502	5163.18
961.805	5181.94
962.108	5122.05
962.411	5138.33
962.714	5062.4
963.017	5082.51
963.32	5019.46
963.623	5024.66
963.926	4989.18
964.228	4946.24
964.531	4920.93
964.833	4915.05
965.136	4850.42
965.438	4847.03
965.741	4816.98
966.043	4849.52
966.345	4811.33
966.648	4830.08
966.95	4821.72
967.252	4719.58
967.554	4696.53
967.856	4704.89
968.158	4657.89
968.46	4692.01
968.761	4637.1
969.063	4637.32
969.365	4609.98
969.666	4576.08
969.968	4531.56
970.269	4556.19
970.571	4500.6
970.872	4471.45
971.174	4495.63
971.475	4498.12
971.776	4449.3
972.077	4413.82
972.378	4389.64
972.679	4393.26
972.98	4352.58
973.281	4336.31
973.582	4305.8
973.883	4315.07
974.183	4251.12
974.484	4240.27
974.785	4213.6
975.085	4193.49
975.386	4199.37
975.686	4172.02
975.986	4153.04
976.287	4186.26
976.587	4089.99
976.887	4096.32
977.187	4081.86
977.487	4085.92
977.787	4028.98
978.087	3990.78
978.387	4013.61
978.687	3999.15
978.987	4021.29
979.286	3989.2
979.586	3928.41
979.885	3929.09
980.185	3913.95
980.484	3862.65
980.784	3896.78
981.083	3849.55
981.382	3851.13
981.682	3819.04
981.981	3790.11
982.28	3796.67
982.579	3730.45
982.878	3757.8
983.177	3735.88
983.475	3774.29
983.774	3688.19
984.073	3654.75
984.372	3666.95
984.67	3659.04
984.969	3604.13
985.267	3656.1
985.566	3598.93
985.864	3613.62
986.162	3580.85
986.461	3530.46
986.759	3535.2
987.057	3505.83
987.355	3505.37
987.653	3476
987.951	3478.71
988.249	3452.72
988.547	3447.97
988.844	3416.79
989.142	3423.34
989.44	3399.61
989.737	3407.75
990.035	3312.16
990.332	3317.13
990.63	3313.29
990.927	3286.62
991.224	3269.45
991.521	3301.76
991.819	3300.86
992.116	3237.13
992.413	3220.86
992.71	3216.12
993.006	3210.24
993.303	3178.15
993.6	3130.47
993.897	3147.42
994.193	3116.01
994.49	3135.44
994.787	3056.12
995.083	3106.51
995.379	3037.36
995.676	3047.76
995.972	3051.83
996.268	3026.52
996.565	2970.92
996.861	2980.19
997.157	2984.48
997.453	2971.6
997.749	2921.89
998.044	2876.24
998.34	2923.69
998.636	2868.1
998.932	2881.89
999.227	2831.95
999.523	2808.9
999.818	2845.05
1000.114	2817.03
1000.409	2810.48
1000.704	2778.16
1001	2778.84
1001.295	2717.37
1001.59	2729.12
1001.885	2748.11
1002.18	2690.48
1002.475	2701.1
1002.77	2663.59
1003.065	2653.64
1003.359	2633.53
1003.654	2611.16
1003.949	2595.57
1004.243	2599.86
1004.538	2598.28
1004.832	2568.22
1005.127	2589.01
1005.421	2525.51
1005.715	2508.11
1006.009	2500.88
1006.304	2480.32
1006.598	2505.85
1006.892	2451.84
1007.186	2461.56
1007.48	2478.06
1007.773	2438.96
1008.067	2415.23
1008.361	2379.3
1008.655	2382.24
1008.948	2377.04
1009.242	2362.58
1009.535	2338.4
1009.829	2310.38
1010.122	2322.81
1010.415	2295.91
1010.708	2305.86
1011.001	2240.77
1011.295	2238.51
1011.588	2233.77
1011.881	2239.19
1012.173	2211.62
1012.466	2222.02
1012.759	2193.54
1013.052	2208.46
1013.344	2189.25
1013.637	2176.14
1013.93	2149.93
1014.222	2141.79
1014.514	2136.37
1014.807	2096.15
1015.099	2110.61
1015.391	2116.03
1015.683	2096.37
1015.976	2058.86
1016.268	2036.94
1016.56	2001.46
1016.851	2020.44
1017.143	2021.35
1017.435	1958.3
1017.727	1983.38
1018.018	1968.24
1018.31	1976.37
1018.602	1930.73
1018.893	1917.85
1019.185	1883.04
1019.476	1905.19
1019.767	1906.32
1020.058	1867
1020.35	1838.53
1020.641	1828.81
1020.932	1821.58
1021.223	1778.19
1021.514	1798.53
1021.804	1784.06
1022.095	1783.39
1022.386	1742.26
1022.677	1765.08
1022.967	1759.66
1023.258	1736.61
1023.548	1731.86
1023.839	1693.44
1024.129	1702.26
1024.419	1682.6
1024.709	1674.24
1025	1675.82
1025.29	1617.06
1025.58	1601.7
1025.87	1599.89
1026.16	1623.39
1026.449	1621.13
1026.739	1589.49
1027.029	1552.88
1027.319	1554.24
1027.608	1534.35
1027.898	1540
1028.187	1561.24
1028.477	1544.3
1028.766	1495.03
1029.055	1516.5
1029.344	1493.68
1029.634	1466.11
1029.923	1482.83
1030.212	1473.79
1030.501	1471.76
1030.79	1445.99
1031.078	1409.61
1031.367	1425.88
1031.656	1373.68
1031.945	1389.72
1032.233	1379.55
1032.522	1353.79
1032.81	1359.22
1033.099	1374.13
1033.387	1329.84
1033.675	1341.14
1033.963	1318.54
1034.251	1318.31
1034.54	1314.25
1034.828	1297.75
1035.116	1308.82
1035.403	1276.05
1035.691	1276.51
1035.979	1276.05
1036.267	1238.31
1036.554	1241.25
1036.842	1235.15
1037.129	1226.56
1037.417	1211.87
1037.704	1196.73
1037.992	1198.32
1038.279	1196.96
1038.566	1187.69
1038.853	1187.69
1039.14	1187.69
