Data from white_wall_FLMS001491_054.txt Node
Date: Tue Feb 07 11:04:58 GMT 2017
User: dcchb
Spectrometer: FLMS00149
Trigger mode: 0
Integration Time (sec): 2.000000E-2
Scans to average: 10
Electric dark correction enabled: true
Nonlinearity correction enabled: false
Boxcar width: 0
XAxis mode: Wavelengths
Number of Pixels in Spectrum: 2048
>>>>>Begin Spectral Data<<<<<
341.393	-21.14
341.776	-21.14
342.16	-21.14
342.543	-45.32
342.927	-62.95
343.31	-77.87
343.693	-60.01
344.077	-69.96
344.46	-55.27
344.843	-56.4
345.226	-44.87
345.61	-24.99
345.993	-17.08
346.376	-20.92
346.759	2.58
347.142	29.93
347.525	41.68
347.908	66.31
348.291	80.32
348.674	81.68
349.057	124.84
349.44	133.2
349.823	139.08
350.206	166.87
350.588	205.74
350.971	218.62
351.354	230.6
351.737	232.41
352.119	243.48
352.502	277.38
352.884	262.69
353.267	277.15
353.65	313.99
354.032	313.76
354.414	313.31
354.797	302.46
355.179	321.45
355.562	311.5
355.944	323.93
356.326	311.05
356.709	327.1
357.091	342.46
357.473	348.79
357.855	350.37
358.238	351.28
358.62	347.66
359.002	337.49
359.384	353.08
359.766	331.39
360.148	353.54
360.53	332.75
360.912	320.77
361.294	360.77
361.676	342.46
362.057	348.56
362.439	342.24
362.821	320.54
363.203	320.77
363.584	345.4
363.966	317.38
364.348	330.71
364.729	329.58
365.111	328.9
365.493	329.58
365.874	336.59
366.256	327.1
366.637	298.62
367.019	325.74
367.4	322.58
367.781	317.38
368.163	321.9
368.544	325.29
368.925	335.01
369.306	315.8
369.688	310.6
370.069	328.9
370.45	306.31
370.831	310.15
371.212	314.44
371.593	323.48
371.974	319.64
372.355	327.77
372.736	323.25
373.117	326.87
373.498	323.48
373.879	327.55
374.26	325.74
374.641	331.39
375.021	309.47
375.402	322.8
375.783	319.64
376.163	315.8
376.544	313.54
376.925	325.06
377.305	335.46
377.686	339.3
378.066	333.42
378.447	341.11
378.827	327.77
379.208	350.82
379.588	346.3
379.968	359.86
380.349	350.37
380.729	370.03
381.109	314.44
381.489	347.21
381.87	337.94
382.25	362.35
382.63	348.34
383.01	342.01
383.39	347.66
383.77	353.31
384.15	356.25
384.53	350.37
384.91	368.22
385.29	370.71
385.67	368.22
386.049	361.67
386.429	382.69
386.809	384.04
387.189	357.38
387.568	401.67
387.948	398.05
388.328	380.65
388.707	386.08
389.087	373.2
389.466	403.48
389.846	393.31
390.225	412.29
390.605	382.91
390.984	430.6
391.363	423.14
391.743	401.22
392.122	419.52
392.501	426.53
392.881	445.74
393.26	424.04
393.639	422.69
394.018	431.95
394.397	441.44
394.776	454.1
395.155	452.06
395.534	436.02
395.913	454.78
396.292	451.61
396.671	482.12
397.05	464.04
397.429	459.3
397.808	473.53
398.186	515.34
398.565	492.06
398.944	500.65
399.323	508.79
399.701	510.82
400.08	528.22
400.458	548.11
400.837	531.84
401.215	553.53
401.594	568.22
401.972	544.04
402.351	565.73
402.729	577.03
403.107	581.1
403.486	591.5
403.864	622
404.242	604.15
404.62	620.65
404.999	629.23
405.377	620.42
405.755	648.22
406.133	678.5
406.511	667.43
406.889	685.96
407.267	696.58
407.645	711.72
408.023	722.11
408.401	727.76
408.779	717.82
409.156	737.03
409.534	749.46
409.912	765.5
410.29	773.86
410.667	774.32
411.045	800.76
411.422	786.52
411.8	796.46
412.178	811.6
412.555	841.66
412.933	872.62
413.31	849.34
413.687	885.05
414.065	886.4
414.442	901.32
414.819	903.58
415.197	928.66
415.574	955.1
415.951	946.51
416.328	937.48
416.705	976.34
417.082	962.11
417.46	980.41
417.837	987.64
418.214	1026.29
418.591	1014.54
418.967	1014.31
419.344	1011.15
419.721	1045.95
420.098	1038.72
420.475	1048.21
420.852	1064.48
421.228	1053.86
421.605	1094.08
421.982	1093.4
422.358	1130.24
422.735	1147.64
423.111	1105.61
423.488	1163.23
423.864	1175.21
424.241	1164.81
424.617	1184.02
424.994	1193.29
425.37	1213.85
425.746	1174.31
426.123	1245.26
426.499	1236.22
426.875	1245.04
427.251	1258.82
427.627	1283
428.003	1324.58
428.379	1346.05
428.756	1312.61
429.132	1358.71
429.507	1371.59
429.883	1377.46
430.259	1407.07
430.635	1439.16
431.011	1423.11
431.387	1460.85
431.763	1467.63
432.138	1483.9
432.514	1519.61
432.89	1510.57
433.265	1572.49
433.641	1587.63
434.016	1589.44
434.392	1595.99
434.767	1620.17
435.143	1626.5
435.518	1673.73
435.894	1678.02
436.269	1695.42
436.644	1685.03
437.02	1771.13
437.395	1748.98
437.77	1760.28
438.145	1788.75
438.52	1814.29
438.895	1839.82
439.271	1836.43
439.646	1873.04
440.021	1887.96
440.395	1900.39
440.77	1907.39
441.145	1919.14
441.52	1939.93
441.895	1916.66
442.27	1972.25
442.645	1962.08
443.019	1996.88
443.394	2006.37
443.769	2029.42
444.143	2042.08
444.518	2056.77
444.892	2058.8
445.267	2059.71
445.641	2090.67
446.016	2111
446.39	2105.35
446.764	2102.87
447.139	2132.47
447.513	2163.43
447.887	2198.91
448.262	2186.48
448.636	2214.05
449.01	2243.2
449.384	2257.21
449.758	2261.06
450.132	2285.46
450.506	2298.12
450.88	2296.08
451.254	2349.19
451.628	2383.99
452.002	2387.38
452.376	2423.99
452.75	2421.5
453.123	2446.59
453.497	2513.48
453.871	2575.4
454.244	2572.46
454.618	2605.68
454.992	2606.58
455.365	2586.47
455.739	2703.98
456.112	2715.28
456.486	2701.27
456.859	2774.72
457.232	2837.54
457.606	2799.8
457.979	2842.06
458.352	2920.02
458.725	2962.96
459.099	2980.59
459.472	3038.66
459.845	3061.71
460.218	3090.19
460.591	3077.76
460.964	3124.99
461.337	3193.24
461.71	3254.25
462.083	3297.87
462.456	3282.5
462.829	3277.3
463.201	3409.73
463.574	3397.98
463.947	3470.52
464.32	3534.24
464.692	3533.57
465.065	3574.47
465.438	3601.59
465.81	3678.19
466.183	3693.56
466.555	3808.59
466.928	3799.77
467.3	3805.87
467.672	3924.29
468.045	4001.58
468.417	4001.12
468.789	4040.9
469.161	4105.75
469.534	4136.04
469.906	4222.13
470.278	4309.36
470.65	4355.92
471.022	4396.82
471.394	4494.22
471.766	4572.41
472.138	4604.95
472.51	4700.31
472.882	4756.13
473.253	4790.48
473.625	4877.71
473.997	4973.08
474.369	5032.96
474.74	5064.82
475.112	5198.15
475.484	5210.58
475.855	5296.23
476.227	5402.22
476.598	5568.77
476.97	5634.75
477.341	5730.8
477.713	5778.7
478.084	5853.5
478.455	6027.74
478.827	6072.93
479.198	6220.73
479.569	6229.99
479.94	6377.33
480.311	6487.84
480.682	6681.51
481.053	6807.38
481.424	6839.02
481.795	6987.26
482.166	7060.25
482.537	7140.48
482.908	7247.37
483.279	7368.04
483.65	7545.66
484.021	7701.14
484.391	7759.22
484.762	7818.42
485.133	7965.99
485.503	8008.93
485.874	8226.55
486.244	8291.41
486.615	8464.96
486.985	8564.39
487.356	8724.62
487.726	8794.22
488.097	8970.03
488.467	9016.36
488.837	9195.79
489.207	9340.19
489.578	9424.03
489.948	9563.92
490.318	9686.4
490.688	9738.15
491.058	9892.04
491.428	10018.37
491.798	10140.62
492.168	10362.31
492.538	10324.12
492.908	10457.45
493.278	10671
493.648	10714.17
494.017	10781.28
494.387	10901.96
494.757	10991
495.126	11113.25
495.496	11203.65
495.866	11304.43
496.235	11410.19
496.605	11527.25
496.974	11597.31
497.344	11699.68
497.713	11770.64
498.082	11902.38
498.452	12037.75
498.821	12051.31
499.19	12153.45
499.559	12279.32
499.928	12332.66
500.298	12494.01
500.667	12632.31
501.036	12590.5
501.405	12721.12
501.774	12762.25
502.143	12881.34
502.512	13013.09
502.88	13103.26
503.249	13109.13
503.618	13274.55
503.987	13268.22
504.356	13384.61
504.724	13531.49
505.093	13623.24
505.462	13705.73
505.83	13818.27
506.199	13880.86
506.567	14041.76
506.936	14032.72
507.304	14319.95
507.672	14404.01
508.041	14483.11
508.409	14617.79
508.777	14681.29
509.145	14803.55
509.514	14851.01
509.882	15018.69
510.25	14956.77
510.618	15196.54
510.986	15290.77
511.354	15438.34
511.722	15478.79
512.09	15615.06
512.458	15638.33
512.826	15684.88
513.193	15864.31
513.561	15942.96
513.929	16165.32
514.297	16245.55
514.664	16436.95
515.032	16546.78
515.4	16627.68
515.767	16737.06
516.135	16856.83
516.502	16859.77
516.869	17066.99
517.237	17195.13
517.604	17137.73
517.972	17402.81
518.339	17564.83
518.706	17560.99
519.073	17693.19
519.44	17755.79
519.808	18083.47
520.175	17955.11
520.542	18252.95
520.909	18301.99
521.276	18447.3
521.643	18619.27
522.009	18785.14
522.376	18873.95
522.743	19032.37
523.11	19193.72
523.477	19380.61
523.843	19402.53
524.21	19652.92
524.577	19847.03
524.943	19929.07
525.31	19902.63
525.676	20174.03
526.043	20329.06
526.409	20553.68
526.776	20684.98
527.142	20654.25
527.508	20902.83
527.874	21114.57
528.241	21204.29
528.607	21172.42
528.973	21379.65
529.339	21525.86
529.705	21622.81
530.071	21779.41
530.437	21875.68
530.803	22051.95
531.169	22214.2
531.535	22161.32
531.901	22327.65
532.267	22446.06
532.632	22505.72
532.998	22639.05
533.364	22739.61
533.73	22909.1
534.095	23133.95
534.461	23204.69
534.826	23351.58
535.192	23417.11
535.557	23540.95
535.923	23553.6
536.288	23585.02
536.653	23737.55
537.019	23743.88
537.384	23915.18
537.749	23991.11
538.114	24088.73
538.479	24126.47
538.845	24165.11
539.21	24329.85
539.575	24384.99
539.94	24516.97
540.305	24732.56
540.67	24686.91
541.034	24767.81
541.399	24918.54
541.764	24992.66
542.129	25049.38
542.494	25057.97
542.858	25161.47
543.223	25316.27
543.587	25427.68
543.952	25419.09
544.316	25558.07
544.681	25638.75
545.045	25928
545.41	25881.23
545.774	26064.5
546.138	26114.21
546.503	26183.59
546.867	26243.02
547.231	26543.81
547.595	26466.75
547.959	26684.82
548.324	26765.5
548.688	26767.76
549.052	26960.29
549.416	27066.28
549.779	26955.55
550.143	27188.99
550.507	27403.9
550.871	27440.06
551.235	27471.69
551.599	27629.2
551.962	27791.91
552.326	27852.02
552.689	28141.73
553.053	28055.86
553.417	28125.01
553.78	28523.19
554.143	28273.71
554.507	28590.99
554.87	28626.69
555.234	29050.41
555.597	28826.69
555.96	29067.58
556.323	29223.06
556.686	29320.01
557.05	29452.66
557.413	29523.62
557.776	29508.25
558.139	29780.56
558.502	30012.87
558.865	30001.57
559.228	30320.88
559.59	30405.85
559.953	30504.83
560.316	30852.39
560.679	30830.02
561.041	31129.68
561.404	31178.49
561.767	31324.92
562.129	31250.35
562.492	31539.16
562.854	31687.4
563.217	31594.97
563.579	31896.44
563.941	31996.32
564.304	32112.25
564.666	32334.39
565.028	32287.16
565.39	32436.76
565.753	32785.9
566.115	32808.5
566.477	32932.34
566.839	32954.94
567.201	33236.97
567.563	33316.51
567.925	33589.05
568.287	33615.94
568.648	33573.23
569.01	33818.19
569.372	34076.72
569.734	33950.84
570.095	34311.51
570.457	34355.35
570.819	34396.03
571.18	34402.13
571.542	34659.75
571.903	34679.19
572.265	34949.91
572.626	34985.85
572.987	35124.83
573.349	35101.55
573.71	35348.77
574.071	35301.09
574.432	35483.69
574.794	35655.21
575.155	35607.75
575.516	35582.89
575.877	35779.05
576.238	35809.1
576.599	35745.15
576.96	35916.44
577.32	36028.3
577.681	36121.41
578.042	36277.79
578.403	36160.28
578.763	36200.28
579.124	36282.76
579.485	36406.6
579.845	36472.13
580.206	36473.26
580.566	36342.87
580.927	36431.23
581.287	36524.11
581.648	36472.36
582.008	36659.02
582.368	36586.93
582.728	36645.91
583.089	36674.16
583.449	36731.56
583.809	36832.12
584.169	36736.99
584.529	36793.26
584.889	37031.89
585.249	36680.26
585.609	36636.65
585.969	36981.05
586.329	36870.99
586.688	36919.13
587.048	36906.7
587.408	36794.16
587.768	36791.67
588.127	36755.06
588.487	36715.52
588.846	36999.13
589.206	36812.01
589.565	36920.48
589.925	36988.5
590.284	36936.53
590.643	37044.55
591.003	37054.27
591.362	37143.53
591.721	37173.81
592.08	36965
592.44	37153.25
592.799	37054.04
593.158	37084.55
593.517	37146.47
593.876	37146.92
594.235	37208.61
594.593	37134.49
594.952	37209.74
595.311	37055.85
595.67	37124.09
596.029	37349.85
596.387	37332
596.746	37397.08
597.104	37227.14
597.463	37213.81
597.822	37306.46
598.18	37230.53
598.538	37149.63
598.897	37570.86
599.255	37277.31
599.613	37722.95
599.972	37575.38
600.33	37555.5
600.688	37531.77
601.046	37536.96
601.404	37670.07
601.762	37546.46
602.12	37853.79
602.478	37748.94
602.836	37729.28
603.194	37645.66
603.552	37681.37
603.91	37622.61
604.268	37811.53
604.625	37577.42
604.983	37974.92
605.341	37769.28
605.698	38062.15
606.056	37980.34
606.413	38049.27
606.771	38152.77
607.128	38132.2
607.485	37927.01
607.843	38078.19
608.2	38344.63
608.557	38183.05
608.914	38259.88
609.272	38379.43
609.629	38541.23
609.986	38593.89
610.343	38365.42
610.7	38618.97
611.057	38515.92
611.414	38572.87
611.771	38595.69
612.127	38664.84
612.484	38735.35
612.841	38791.62
613.198	38751.85
613.554	38768.57
613.911	38929.24
614.267	38913.65
614.624	38829.59
614.98	38992.52
615.337	39216.92
615.693	38978.96
616.05	39038.62
616.406	39228.67
616.762	39030.94
617.118	39076.13
617.475	39043.82
617.831	39150.71
618.187	39278.16
618.543	39285.85
618.899	39377.37
619.255	39369.46
619.611	39352.96
619.967	39494.43
620.323	39508.44
620.678	39352.51
621.034	39409.01
621.39	39371.49
621.746	39379.18
622.101	39862.55
622.457	39341.89
622.812	39508.66
623.168	39652.39
623.523	39669.79
623.879	39709.79
624.234	39532.17
624.589	39651.03
624.945	39599.51
625.3	39739.62
625.655	39594.09
626.01	39611.26
626.365	39676.57
626.72	39606.97
627.075	39613.07
627.43	39704.14
627.785	39461.66
628.14	39688.32
628.495	39740.97
628.85	39656.46
629.205	39508.21
629.559	39740.97
629.914	39581.21
630.269	39571.71
630.623	39464.6
630.978	39516.8
631.332	39416.24
631.687	39580.98
632.041	39397.48
632.396	39446.07
632.75	39299.86
633.104	39353.64
633.459	39199.07
633.813	39102.35
634.167	39159.97
634.521	39179.86
634.875	39230.71
635.229	39067.09
635.583	38994.1
635.937	39022.58
636.291	38906.87
636.645	38907.1
636.999	38754.11
637.352	38975.8
637.706	38699.42
638.06	38902.35
638.413	38708.91
638.767	38662.81
639.121	38672.53
639.474	38533.1
639.828	38446.55
640.181	38507.11
640.534	38550.5
640.888	38512.98
641.241	38260.11
641.594	38407.22
641.947	38385.3
642.301	38251.52
642.654	38436.15
643.007	38357.28
643.36	38105.31
643.713	38089.72
644.066	38306.21
644.419	38044.97
644.771	37804.3
645.124	37537.87
645.477	37433.46
645.83	37158.44
646.182	37136.07
646.535	36884.55
646.888	37056.53
647.24	36719.59
647.593	36941.73
647.945	36791.9
648.298	36828.28
648.65	36663.99
649.002	36537.22
649.355	36692.02
649.707	36660.6
650.059	36793.26
650.411	37121.38
650.763	37233.47
651.115	37411.32
651.467	37371.55
651.819	37459
652.171	37294.26
652.523	37244.09
652.875	37193.7
653.227	37091.55
653.578	37197.76
653.93	37041.84
654.282	37038
654.633	36997.77
654.985	37138.33
655.337	37073.25
655.688	37101.72
656.039	37205.22
656.391	36958.9
656.742	36876.19
657.094	36959.35
657.445	37026.7
657.796	36852.69
658.147	36917.09
658.498	36751
658.849	36887.94
659.2	36752.8
659.551	36647.72
659.902	36824.44
660.253	36682.52
660.604	36742.64
660.955	36588.74
661.306	36672.35
661.656	36625.58
662.007	36567.95
662.358	36437.78
662.708	36463.09
663.059	36601.17
663.409	36361.18
663.76	36612.47
664.11	36407.73
664.461	36500.83
664.811	36479.59
665.161	36451.12
665.511	36332.7
665.862	36340.16
666.212	36553.26
666.562	36435.75
666.912	36385.36
667.262	36219.03
667.612	36339.26
667.962	36412.93
668.312	36339.48
668.662	36432.81
669.011	36284.12
669.361	36265.81
669.711	36149.66
670.06	36116.21
670.41	36141.75
670.76	36126.83
671.109	36181.97
671.459	36196.44
671.808	36068.76
672.157	36095.42
672.507	35798.93
672.856	36011.36
673.205	35892.04
673.554	35975.42
673.904	35897.46
674.253	36043.9
674.602	35921.87
674.951	35330.47
675.3	35271.26
675.649	35668.31
675.998	35708.31
676.346	35596
676.695	35809.78
677.044	35478.94
677.393	35476
677.741	35531.59
678.09	35544.7
678.438	35408.66
678.787	35456.12
679.135	35497.92
679.484	35214.77
679.832	35322.79
680.181	35033.98
680.529	35105.62
680.877	35114.2
681.225	35138.38
681.573	35264.71
681.922	35013.87
682.27	35026.75
682.618	34925.96
682.966	34947.2
683.314	35007.09
683.661	34728.23
684.009	34570.72
684.357	34596.7
684.705	34500.21
685.053	34565.74
685.4	34348.35
685.748	34290.5
686.095	34330.95
686.443	34140.67
686.79	34115.13
687.138	34151.07
687.485	34177.73
687.832	33952.43
688.18	34110.61
688.527	33713.79
688.874	33791.75
689.221	33716.27
689.568	33746.56
689.915	33520.12
690.262	33584.98
690.609	33465.66
690.956	33286.23
691.303	33258.66
691.65	33052.79
691.997	33078.1
692.344	32948.61
692.69	32962.85
693.037	32847.37
693.383	32561.95
693.73	32715.4
694.077	32563.99
694.423	32442.64
694.769	32327.84
695.116	32288.06
695.462	32204
695.808	32180.27
696.155	32210.55
696.501	31895.98
696.847	31784.35
697.193	31699.38
697.539	31886.27
697.885	31731.02
698.231	31525.37
698.577	31517.24
698.923	31574.41
699.269	31392.04
699.614	31202.22
699.96	31227.3
700.306	31246.28
700.651	30874.99
700.997	30907.99
701.342	30813.07
701.688	30800.19
702.033	30741.44
702.379	30682
702.724	30600.2
703.069	30724.71
703.415	30235.01
703.76	30221.45
704.105	30323.6
704.45	30276.82
704.795	30100.1
705.14	30028.01
705.485	30078.4
705.83	29811.29
706.175	29843.61
706.52	29738.3
706.865	29506.67
707.209	29676.15
707.554	29527.91
707.899	29624.86
708.243	29425.31
708.588	29365.43
708.932	29171.54
709.277	29184.19
709.621	29115.94
709.966	28962.05
710.31	28991.2
710.654	28797.08
710.998	28910.07
711.342	28765.44
711.687	28608.84
712.031	28660.36
712.375	28595.73
712.719	28538.56
713.063	28498.78
713.407	28641.15
713.75	28427.37
714.094	28438
714.438	28287.72
714.782	28246.36
715.125	28227.38
715.469	28256.76
715.812	27941.96
716.156	27975.18
716.499	27992.13
716.843	28047.05
717.186	27786.94
717.53	27952.58
717.873	27825.36
718.216	27816.09
718.559	27646.38
718.902	27484.35
719.246	27595.08
719.589	27497.45
719.932	27360.96
720.275	27417.46
720.617	27271.02
720.96	27317.57
721.303	27312.38
721.646	27272.38
721.989	27163.23
722.331	27243.45
722.674	27173.62
723.016	27088.43
723.359	27147.63
723.701	27119.39
724.044	26827.19
724.386	26706.06
724.729	26804.59
725.071	26741.77
725.413	26750.36
725.755	26693.41
726.097	26484.15
726.439	26421.78
726.782	26456.35
727.124	26467.88
727.465	26411.61
727.807	26463.13
728.149	26352.85
728.491	26313.98
728.833	26291.61
729.175	26214.1
729.516	26067.44
729.858	26047.55
730.199	26054.78
730.541	26005.97
730.882	26021.56
731.224	26018.85
731.565	25768.01
731.906	25819.08
732.248	25906.54
732.589	25715.58
732.93	25744.05
733.271	25728.24
733.612	25791.51
733.953	25754.45
734.294	25561.23
734.635	25509.48
734.976	25631.29
735.317	25426.32
735.658	25416.61
735.999	25503.16
736.339	25394.91
736.68	25391.07
737.021	25352.43
737.361	25130.29
737.702	25312.2
738.042	25198.98
738.383	25205.99
738.723	25247.12
739.063	25133.22
739.404	25146.56
739.744	25105.65
740.084	24958.99
740.424	24954.92
740.764	24849.39
741.104	25051.64
741.444	24903.85
741.784	24789.73
742.124	24804.87
742.464	24799.67
742.804	24737.3
743.143	24800.58
743.483	24739.11
743.823	24613.91
744.162	24570.07
744.502	24557.87
744.841	24443.52
745.181	24575.95
745.52	24431.32
745.86	24494.14
746.199	24388.16
746.538	24337.76
746.877	24429.96
747.216	24327.14
747.556	24161.05
747.895	24249.86
748.234	24098.45
748.573	24013.03
748.911	24104.32
749.25	24071.78
749.589	23882.41
749.928	23921.96
750.267	23915.85
750.605	23805.8
750.944	23796.08
751.283	23718.8
751.621	23741.4
751.96	23559.25
752.298	23532.14
752.636	23565.58
752.975	23376.66
753.313	23393.38
753.651	23513.83
753.989	23389.31
754.327	23240.62
754.666	23232.48
755.004	23200.39
755.342	23202.43
755.679	23106.38
756.017	23020.28
756.355	23108.64
756.693	22795.43
757.031	23061.19
757.368	22847.63
757.706	22781.42
758.044	22814.19
758.381	22664.59
758.719	22681.08
759.056	22516.34
759.394	22564.03
759.731	22429.34
760.068	22387.31
760.405	22282
760.743	22258.5
761.08	22201.77
761.417	22117.03
761.754	22065.96
762.091	22017.83
762.428	21932.63
762.765	21953.65
763.102	21876.13
763.438	21719.53
763.775	21614.22
764.112	21634.78
764.449	21610.6
764.785	21566.76
765.122	21338.29
765.458	21324.06
765.795	21345.98
766.131	21195.02
766.467	21223.95
766.804	21008.59
767.14	20978.08
767.476	20918.19
767.812	20905.31
768.148	20902.6
768.485	20745.99
768.821	20663.96
769.157	20646.79
769.492	20620.57
769.828	20580.8
770.164	20332.9
770.5	20292.22
770.836	20358.21
771.171	20157.31
771.507	20209.29
771.842	20047.48
772.178	19936.75
772.513	19920.93
772.849	19904.21
773.184	19772.91
773.519	19835.51
773.855	19593.93
774.19	19564.56
774.525	19566.14
774.86	19358.46
775.195	19437.55
775.53	19315.75
775.865	19130.9
776.2	19045.47
776.535	19012.93
776.87	18955.76
777.205	18961.41
777.539	18772.71
777.874	18840.96
778.209	18642.55
778.543	18713.96
778.878	18523.23
779.212	18545.83
779.547	18367.07
779.881	18553.74
780.215	18397.36
780.55	18314.42
780.884	18241.88
781.218	18106.52
781.552	18242.33
781.886	18003.69
782.22	18058.38
782.554	17902
782.888	17727.09
783.222	17643.25
783.556	17653.65
783.889	17626.75
784.223	17471.96
784.557	17431.96
784.89	17506.31
785.224	17417.95
785.557	17219.76
785.891	17196.93
786.224	17176.14
786.558	17124.62
786.891	17128.01
787.224	16979.31
787.557	16986.54
787.891	16862.71
788.224	16868.81
788.557	16792.2
788.89	16726.21
789.223	16737.29
789.556	16628.59
789.888	16552.43
790.221	16373
790.554	16288.71
790.887	16319.44
791.219	16283.06
791.552	16317.41
791.884	16176.17
792.217	16167.58
792.549	16081.26
792.882	15980.02
793.214	15916.74
793.546	15955.39
793.879	15862.51
794.211	15706.58
794.543	15787.03
794.875	15689.86
795.207	15697.31
795.539	15579.12
795.871	15606.47
796.203	15488.05
796.535	15420.26
796.867	15364.21
797.198	15297.1
797.53	15328.06
797.862	15190.66
798.193	15233.82
798.525	15140.04
798.856	15101.85
799.188	14980.95
799.519	14888.07
799.85	14775.98
800.182	14791.57
800.513	14821.4
800.844	14766.94
801.175	14828.18
801.506	14819.6
801.837	14683.33
802.168	14626.15
802.499	14610.11
802.83	14540.73
803.161	14545.03
803.491	14462.54
803.822	14542.77
804.153	14379.83
804.483	14334.41
804.814	14310.68
805.145	14190.01
805.475	14284.92
805.805	14137.13
806.136	14222.78
806.466	14178.03
806.796	14009
807.126	13972.61
807.457	13968.09
807.787	13966.51
808.117	13871.82
808.447	13879.96
808.777	13842.9
809.107	13734.43
809.436	13804.48
809.766	13724.71
810.096	13719.29
810.426	13637.93
810.755	13604.03
811.085	13649.68
811.414	13566.07
811.744	13484.26
812.073	13365.85
812.403	13433.42
812.732	13377.6
813.061	13351.16
813.39	13313.87
813.719	13295.79
814.049	13249.69
814.378	13160.66
814.707	13193.65
815.036	13177.15
815.365	13109.81
815.693	12971.96
816.022	12954.56
816.351	12953.43
816.68	12854.45
817.008	12999.76
817.337	12851.06
817.665	12752.53
817.994	12805.64
818.322	12862.13
818.651	12744.17
818.979	12610.84
819.307	12755.47
819.636	12709.6
819.964	12617.62
820.292	12684.74
820.62	12592.08
820.948	12618.98
821.276	12587.56
821.604	12585.98
821.932	12623.95
822.259	12564.97
822.587	12587.56
822.915	12597.51
823.243	12602.03
823.57	12516.83
823.898	12626.21
824.225	12512.76
824.553	12469.6
824.88	12510.28
825.207	12551.86
825.535	12530.16
825.862	12597.51
826.189	12493.78
826.516	12574.68
826.843	12567.68
827.17	12591.41
827.497	12556.38
827.824	12590.5
828.151	12596.38
828.478	12469.38
828.805	12492.2
829.131	12436.38
829.458	12454.46
829.785	12388.7
830.111	12405.87
830.438	12483.39
830.764	12480
831.09	12482.26
831.417	12432.54
831.743	12422.6
832.069	12460.11
832.395	12338.53
832.722	12397.96
833.048	12344.63
833.374	12445.65
833.7	12351.64
834.026	12350.51
834.351	12416.5
834.677	12336.27
835.003	12289.72
835.329	12241.58
835.654	12308.7
835.98	12263.51
836.306	12256.95
836.631	12212.66
836.956	12293.56
837.282	12221.02
837.607	12152.1
837.932	12054.02
838.258	12146.67
838.583	12060.57
838.908	12064.87
839.233	12068.93
839.558	12061.25
839.883	12000.91
840.208	12007.69
840.533	12004.75
840.858	11989.16
841.182	11938.77
841.507	11882.05
841.832	11792.33
842.156	11802.05
842.481	11782.84
842.805	11841.14
843.13	11680.24
843.454	11755.27
843.778	11783.97
844.103	11637.08
844.427	11645.67
844.751	11602.51
845.075	11615.61
845.399	11614.48
845.723	11615.84
846.047	11546.46
846.371	11444.77
846.695	11422.4
847.019	11330.65
847.343	11309.41
847.666	11152.8
847.99	11169.97
848.313	11123.2
848.637	11115.96
848.96	11169.3
849.284	11094.27
849.607	11016.53
849.931	10982.86
850.254	10846.59
850.577	10806.14
850.9	10791
851.223	10726.82
851.546	10656.32
851.869	10661.74
852.192	10645.47
852.515	10548.52
852.838	10471.01
853.161	10564.79
853.483	10445.25
853.806	10445.47
854.129	10435.76
854.451	10394.63
854.774	10279.38
855.096	10299.26
855.419	10306.72
855.741	10244.58
856.063	10165.93
856.385	10238.47
856.708	10172.49
857.03	10129.78
857.352	10139.49
857.674	10069.21
857.996	10057.91
858.318	9974.98
858.64	10067.86
858.961	9939.27
859.283	9933.85
859.605	9920.06
859.926	9867.86
860.248	9828.32
860.57	9807.52
860.891	9792.61
861.212	9778.6
861.534	9746.28
861.855	9752.38
862.176	9735.89
862.498	9652.05
862.819	9740.86
863.14	9607.08
863.461	9662.67
863.782	9591.94
864.103	9572.73
864.424	9559.62
864.745	9602.78
865.065	9528.44
865.386	9527.53
865.707	9413.18
866.027	9491.6
866.348	9432.62
866.668	9468.32
866.989	9468.78
867.309	9443.69
867.63	9348.1
867.95	9367.76
868.27	9314.2
868.59	9313.53
868.91	9313.3
869.23	9309.91
869.55	9266.97
869.87	9278.72
870.19	9233.75
870.51	9212.29
870.83	9224.04
871.15	9229.69
871.469	9191.27
871.789	9218.39
872.109	9139.29
872.428	9036.7
872.748	9091.16
873.067	9103.81
873.386	9232.4
873.706	9142.91
874.025	9135.9
874.344	9043.7
874.663	9082.8
874.982	9072.63
875.301	8977.72
875.62	9015.68
875.939	8970.94
876.258	9032.86
876.577	8937.27
876.896	8958.28
877.214	8880.54
877.533	8935.46
877.852	8885.74
878.17	8930.49
878.489	8881
878.807	8857.49
879.125	8861.33
879.444	8848.68
879.762	8772.52
880.08	8769.36
880.398	8763.71
880.716	8799.64
881.034	8774.56
881.352	8758.96
881.67	8652.98
881.988	8719.42
882.306	8682.36
882.624	8620.21
882.941	8633.54
883.259	8553.55
883.577	8532.98
883.894	8541.8
884.212	8554
884.529	8547.67
884.846	8489.14
885.164	8538.41
885.481	8487.33
885.798	8444.4
886.115	8402.59
886.432	8357.17
886.75	8400.78
887.067	8368.92
887.383	8271.97
887.7	8303.61
888.017	8308.81
888.334	8337.28
888.651	8293.44
888.967	8238.07
889.284	8228.36
889.6	8204.85
889.917	8093.45
890.233	8184.29
890.55	8127.34
890.866	8124.18
891.182	8083.95
891.498	8075.59
891.815	8028.14
892.131	8032.2
892.447	8019.1
892.763	8004.41
893.079	7887.58
893.395	7913.11
893.71	7914.69
894.026	7872.66
894.342	7864.52
894.657	7796.5
894.973	7818.2
895.289	7807.13
895.604	7786.33
895.92	7670.63
896.235	7681.7
896.55	7699.33
896.865	7643.74
897.181	7592.44
897.496	7610.07
897.811	7622.95
898.126	7529.39
898.441	7519.22
898.756	7542.27
899.071	7483.52
899.386	7505.44
899.7	7376.4
900.015	7390.64
900.33	7292.34
900.644	7332.56
900.959	7318.78
901.273	7245.78
901.588	7267.48
901.902	7206.01
902.216	7182.28
902.531	7197.88
902.845	7150.87
903.159	7140.93
903.473	7036.07
903.787	7081.27
904.101	6940.71
904.415	7025.22
904.729	6999.24
905.042	6971.89
905.356	6942.29
905.67	6914.49
905.984	6879.24
906.297	6932.57
906.611	6835.63
906.924	6825.46
907.237	6796.98
907.551	6789.98
907.864	6747.94
908.177	6717.21
908.491	6676.53
908.804	6636.08
909.117	6636.08
909.43	6636.76
909.743	6578.46
910.056	6545.24
910.368	6534.62
910.681	6485.8
910.994	6458.69
911.307	6440.61
911.619	6401.96
911.932	6439.25
912.244	6391.57
912.557	6347.73
912.869	6296.43
913.181	6291.68
913.494	6310.22
913.806	6253.04
914.118	6256.21
914.43	6178.02
914.742	6150.22
915.054	6200.39
915.366	6152.25
915.678	6079.71
915.99	6068.87
916.302	5999.49
916.613	5973.05
916.925	6013.95
917.236	5947.51
917.548	5972.37
917.859	5966.27
918.171	5924.46
918.482	5874.52
918.794	5874.75
919.105	5832.04
919.416	5794.75
919.727	5816.44
920.038	5741.42
920.349	5737.35
920.66	5723.79
920.971	5737.12
921.282	5628.2
921.593	5658.48
921.903	5568.99
922.214	5589.1
922.525	5574.19
922.835	5558.37
923.146	5507.3
923.456	5470.24
923.767	5404.48
924.077	5411.93
924.387	5462.33
924.697	5414.87
925.008	5389.79
925.318	5350.24
925.628	5371.03
925.938	5326.29
926.248	5292.84
926.558	5251.03
926.867	5279.28
927.177	5266.4
927.487	5197.7
927.796	5156.35
928.106	5141.43
928.416	5162.67
928.725	5172.39
929.034	5063.69
929.344	5040.19
929.653	5090.36
929.962	5044.94
930.271	5030.48
930.581	5023.47
930.89	4946.41
931.199	4934.43
931.508	4917.94
931.817	4902.57
932.125	4922.46
932.434	4893.98
932.743	4830.48
933.051	4819.86
933.36	4872.97
933.669	4762.91
933.977	4758.62
934.286	4776.47
934.594	4769.24
934.902	4740.09
935.21	4663.71
935.519	4693.99
935.827	4647.21
936.135	4616.93
936.443	4613.99
936.751	4606.76
937.059	4591.39
937.367	4545.06
937.674	4538.74
937.982	4557.95
938.29	4509.58
938.597	4468.23
938.905	4467.55
939.213	4420.77
939.52	4399.31
939.827	4396.82
940.135	4391.62
940.442	4386.65
940.749	4355.01
941.056	4364.5
941.363	4306.88
941.67	4287.9
941.977	4288.57
942.284	4228.01
942.591	4210.84
942.898	4233.43
943.205	4240.44
943.511	4175.58
943.818	4192.31
944.125	4134.45
944.431	4115.92
944.738	4109.82
945.044	4101.91
945.35	4051.97
945.657	4032.54
945.963	4020.56
946.269	3988.47
946.575	4018.3
946.881	3982.59
947.187	3943.5
947.493	3936.94
947.799	3898.75
948.105	3898.98
948.41	3848.36
948.716	3834.12
949.022	3825.76
949.327	3847
949.633	3835.93
949.938	3804.97
950.244	3832.31
950.549	3774.91
950.854	3777.4
951.16	3740.11
951.465	3758.42
951.77	3713.9
952.075	3666.22
952.38	3668.25
952.685	3649.27
952.99	3625.99
953.294	3643.62
953.599	3609.5
953.904	3573.56
954.209	3585.09
954.513	3550.51
954.818	3588.03
955.122	3556.62
955.426	3529.5
955.731	3524.07
956.035	3496.05
956.339	3517.29
956.643	3464.87
956.948	3467.8
957.252	3471.19
957.556	3435.94
957.86	3443.62
958.163	3405.89
958.467	3367.47
958.771	3362.95
959.075	3396.85
959.378	3355.94
959.682	3338.32
959.985	3316.85
960.289	3344.64
960.592	3331.99
960.896	3277.07
961.199	3276.62
961.502	3230.75
961.805	3200.47
962.108	3213.8
962.411	3225.55
962.714	3163.41
963.017	3164.76
963.32	3177.42
963.623	3136.97
963.926	3162.5
964.228	3146.23
964.531	3113.01
964.833	3089.51
965.136	3078.66
965.438	3075.5
965.741	3053.13
966.043	3066.01
966.345	3059.68
966.648	3017.42
966.95	3043.63
967.252	2979.91
967.554	2975.84
967.856	2983.75
968.158	2940.59
968.46	2918.21
968.761	2885.45
969.063	2948.04
969.365	2926.12
969.666	2905.56
969.968	2879.8
970.269	2871.21
970.571	2852.45
970.872	2845.22
971.174	2791.89
971.475	2845.9
971.776	2830.53
972.077	2818.1
972.378	2774.49
972.679	2771.55
972.98	2794.6
973.281	2762.06
973.582	2718.45
973.883	2752.79
974.183	2704.21
974.484	2687.71
974.785	2666.7
975.085	2692.23
975.386	2698.11
975.686	2663.31
975.986	2661.05
976.287	2642.97
976.587	2623.31
976.887	2642.97
977.187	2587.83
977.487	2581.5
977.787	2576.53
978.087	2538.56
978.387	2577.88
978.687	2576.75
978.987	2539.69
979.286	2551.22
979.586	2486.81
979.885	2492.46
980.185	2473.93
980.484	2429.64
980.784	2488.62
981.083	2446.59
981.382	2438.23
981.682	2411.11
981.981	2430.77
982.28	2416.08
982.579	2401.84
982.878	2386.93
983.177	2400.71
983.475	2361.17
983.774	2353.94
984.073	2374.95
984.372	2353.48
984.67	2322.75
984.969	2337.21
985.267	2320.72
985.566	2312.13
985.864	2287.04
986.162	2269.87
986.461	2240.72
986.759	2240.49
987.057	2254.28
987.355	2242.07
987.653	2218.57
987.951	2245.92
988.249	2187.39
988.547	2228.29
988.844	2193.49
989.142	2194.17
989.44	2194.39
989.737	2143.32
990.035	2152.81
990.332	2140.16
990.63	2127.5
990.927	2130.66
991.224	2113.04
991.521	2090.67
991.819	2104.68
992.116	2106.48
992.413	2060.16
992.71	2038.24
993.006	2075.07
993.303	2026.71
993.6	2064.45
993.897	2073.26
994.193	2016.99
994.49	2021.06
994.787	2009.99
995.083	1999.82
995.379	1970.22
995.676	1968.41
995.972	1986.04
996.268	1949.88
996.565	1917.56
996.861	1926.38
997.157	1940.39
997.453	1896.55
997.749	1888.86
998.044	1880.05
998.34	1892.25
998.636	1890.44
998.932	1866.49
999.227	1876.21
999.523	1856.55
999.818	1838.24
1000.114	1872.59
1000.409	1817.45
1000.704	1827.17
1001	1789.88
1001.295	1795.76
1001.59	1784.91
1001.885	1746.72
1002.18	1774.06
1002.475	1759.37
1002.77	1713.5
1003.065	1762.54
1003.359	1738.36
1003.654	1772.26
1003.949	1715.53
1004.243	1662.43
1004.538	1671.69
1004.832	1679.83
1005.127	1683.9
1005.421	1660.62
1005.715	1685.25
1006.009	1642.09
1006.304	1659.49
1006.598	1646.61
1006.892	1650
1007.186	1610.68
1007.48	1610.45
1007.773	1584.69
1008.067	1601.64
1008.361	1577.23
1008.655	1569.78
1008.948	1582.66
1009.242	1576.33
1009.535	1559.61
1009.829	1548.31
1010.122	1534.07
1010.415	1524.13
1010.708	1511.92
1011.001	1501.75
1011.295	1499.27
1011.588	1518.93
1011.881	1461.53
1012.173	1464.92
1012.466	1474.18
1012.759	1450.68
1013.052	1433.96
1013.344	1427.63
1013.637	1422.43
1013.93	1451.81
1014.222	1440.74
1014.514	1407.07
1014.807	1424.02
1015.099	1392.15
1015.391	1397.58
1015.683	1368.65
1015.976	1361.64
1016.268	1360.06
1016.56	1364.81
1016.851	1342.66
1017.143	1358.48
1017.435	1335.43
1017.727	1334.3
1018.018	1316.45
1018.31	1315.32
1018.602	1293.17
1018.893	1303.57
1019.185	1279.16
1019.476	1282.1
1019.767	1272.38
1020.058	1240.97
1020.35	1211.59
1020.641	1246.62
1020.932	1247.52
1021.223	1219.28
1021.514	1237.35
1021.804	1225.38
1022.095	1196.23
1022.386	1212.5
1022.677	1187.86
1022.967	1173.18
1023.258	1188.32
1023.548	1155.1
1023.839	1167.98
1024.129	1165.04
1024.419	1157.58
1024.709	1146.06
1025	1144.93
1025.29	1154.19
1025.58	1115.1
1025.87	1122.56
1026.16	1073.07
1026.449	1122.56
1026.739	1101.54
1027.029	1069
1027.319	1080.52
1027.608	1055.89
1027.898	1051.6
1028.187	1073.97
1028.477	1053.63
1028.766	1051.82
1029.055	1036.91
1029.344	1031.48
1029.634	1012.28
1029.923	1041.65
1030.212	1002.78
1030.501	1014.54
1030.79	1000.52
1031.078	965.27
1031.367	986.51
1031.656	1000.52
1031.945	974.76
1032.233	986.51
1032.522	973.86
1032.81	941.32
1033.099	983.8
1033.387	939.74
1033.675	937.93
1033.963	932.5
1034.251	913.3
1034.54	943.58
1034.828	914.43
1035.116	925.05
1035.403	916.68
1035.691	903.58
1035.979	888.44
1036.267	908.78
1036.554	873.07
1036.842	889.12
1037.129	876.91
1037.417	896.8
1037.704	891.83
1037.992	852.05
1038.279	863.8
1038.566	852.96
1038.853	852.96
1039.14	852.96
