Data from White_reflection_standard_FLMS001491_029.txt Node
Date: Tue Feb 07 10:32:01 GMT 2017
User: dcchb
Spectrometer: FLMS00149
Trigger mode: 0
Integration Time (sec): 2.000000E-2
Scans to average: 10
Electric dark correction enabled: true
Nonlinearity correction enabled: false
Boxcar width: 0
XAxis mode: Wavelengths
Number of Pixels in Spectrum: 2048
>>>>>Begin Spectral Data<<<<<
341.393	-19.63
341.776	-19.63
342.16	-19.63
342.543	-65.51
342.927	-67.54
343.31	-53.08
343.693	-70.03
344.077	-79.74
344.46	-48.11
344.843	-63.47
345.226	-32.51
345.61	-17.15
345.993	-27.32
346.376	-11.04
346.759	16.75
347.142	14.49
347.525	37.99
347.908	70.08
348.291	83.87
348.674	67.6
349.057	111.66
349.44	117.77
349.823	136.3
350.206	168.61
350.588	226.01
350.971	239.8
351.354	279.79
351.737	276.41
352.119	287.48
352.502	317.76
352.884	317.31
353.267	324.31
353.65	346.91
354.032	372.67
354.414	345.78
354.797	379
355.179	374.26
355.562	379.91
355.944	386.68
356.326	373.8
356.709	374.48
357.091	390.3
357.473	422.62
357.855	406.35
358.238	400.02
358.62	391.43
359.002	423.75
359.384	422.16
359.766	401.37
360.148	405.22
360.53	413.35
360.912	408.61
361.294	402.5
361.676	412.9
362.057	407.48
362.439	401.6
362.821	406.12
363.203	400.02
363.584	395.27
363.966	413.8
364.348	387.81
364.729	412.67
365.111	417.64
365.493	416.29
365.874	403.63
366.256	431.88
366.637	414.25
367.019	418.55
367.4	415.61
367.781	436.63
368.163	409.51
368.544	402.28
368.925	430.07
369.306	445.67
369.688	417.19
370.069	419.9
370.45	397.98
370.831	432.56
371.212	430.3
371.593	452.67
371.974	422.62
372.355	432.11
372.736	442.05
373.117	454.93
373.498	451.32
373.879	458.77
374.26	459.68
374.641	430.98
375.021	444.08
375.402	471.43
375.783	474.14
376.163	491.99
376.544	503.52
376.925	477.98
377.305	493.35
377.686	481.82
378.066	502.61
378.447	504.2
378.827	495.61
379.208	529.28
379.588	519.34
379.968	513.46
380.349	527.92
380.729	516.17
381.109	515.95
381.489	533.12
381.87	537.19
382.25	542.84
382.63	558.43
383.01	558.21
383.39	551.2
383.77	570.41
384.15	575.61
384.53	577.64
384.91	592.56
385.29	607.7
385.67	616.96
386.049	613.35
386.429	603.63
386.809	641.82
387.189	635.27
387.568	626.45
387.948	638.43
388.328	651.08
388.707	647.24
389.087	677.98
389.466	666
389.846	679.11
390.225	680.91
390.605	698.54
390.984	716.39
391.363	700.8
391.743	727.47
392.122	731.53
392.501	730.18
392.881	749.16
393.26	758.43
393.639	771.99
394.018	767.92
394.397	777.86
394.776	812.66
395.155	795.49
395.534	774.92
395.913	817.41
396.292	823.74
396.671	833.45
397.05	803.17
397.429	841.81
397.808	808.14
398.186	854.02
398.565	840.46
398.944	860.12
399.323	856.73
399.701	893.11
400.08	875.03
400.458	925.43
400.837	931.98
401.215	934.24
401.594	949.83
401.972	931.3
402.351	943.51
402.729	973.56
403.107	985.77
403.486	997.52
403.864	994.58
404.242	983.28
404.62	1009.04
404.999	1042.03
405.377	1055.59
405.755	1042.26
406.133	1052.2
406.511	1102.15
406.889	1098.3
407.267	1129.04
407.645	1117.29
408.023	1155.48
408.401	1176.49
408.779	1181.47
409.156	1186.89
409.534	1192.31
409.912	1218.08
410.29	1254.01
410.667	1249.94
411.045	1283.38
411.422	1306.43
411.8	1304.63
412.178	1351.63
412.555	1340.33
412.933	1371.97
413.31	1346.89
413.687	1395.7
414.065	1411.74
414.442	1433.44
414.819	1440.44
415.197	1454.91
415.574	1472.08
415.951	1532.87
416.328	1479.54
416.705	1543.94
417.082	1545.3
417.46	1563.15
417.837	1593.21
418.214	1619.42
418.591	1611.96
418.967	1605.64
419.344	1637.73
419.721	1671.85
420.098	1669.59
420.475	1683.6
420.852	1712.07
421.228	1735.12
421.605	1730.38
421.982	1766.08
422.358	1753.2
422.735	1808.12
423.111	1804.27
423.488	1822.58
423.864	1870.04
424.241	1892.63
424.617	1929.7
424.994	1927.21
425.37	1929.7
425.746	1946.64
426.123	1994.55
426.499	1999.98
426.875	2006.3
427.251	2046.75
427.627	2098.73
428.003	2138.96
428.379	2143.93
428.756	2194.55
429.132	2204.72
429.507	2238.16
429.883	2296.24
430.259	2275.9
430.635	2337.14
431.011	2334.43
431.387	2440.87
431.763	2422.79
432.138	2396.35
432.514	2503.69
432.89	2517.02
433.265	2554.31
433.641	2601.09
434.016	2637.02
434.392	2679.73
434.767	2703.01
435.143	2717.7
435.518	2768.99
435.894	2777.13
436.269	2862.1
436.644	2857.35
437.02	2911.14
437.395	2896.9
437.77	2939.84
438.145	3008.76
438.52	3007.18
438.895	3085.6
439.271	3079.95
439.646	3149.78
440.021	3153.17
440.395	3149.32
440.77	3171.47
441.145	3210.11
441.52	3276.1
441.895	3258.47
442.27	3356.1
442.645	3310
443.019	3371.92
443.394	3350.67
443.769	3398.58
444.143	3382.99
444.518	3502.54
444.892	3465.47
445.267	3529.2
445.641	3528.52
446.016	3541.86
446.39	3556.54
446.764	3603.55
447.139	3594.28
447.513	3688.74
447.887	3658.01
448.262	3704.11
448.636	3689.2
449.01	3795.63
449.384	3842.19
449.758	3865.46
450.132	3887.16
450.506	3924.44
450.88	3969.19
451.254	3946.14
451.628	4003.09
452.002	4075.85
452.376	4152.91
452.75	4150.43
453.123	4180.71
453.497	4288.05
453.871	4248.28
454.244	4384.55
454.618	4415.05
454.992	4467.71
455.365	4474.03
455.739	4584.99
456.112	4658.21
456.486	4655.27
456.859	4712.67
457.232	4820.92
457.606	4809.62
457.979	4893.91
458.352	5017.07
458.725	5054.36
459.099	5074.47
459.472	5206.9
459.845	5209.83
460.218	5277.18
460.591	5294.13
460.964	5365.76
461.337	5442.6
461.71	5531.63
462.083	5643.04
462.456	5677.17
462.829	5639.2
463.201	5831.06
463.574	5819.54
463.947	5929.36
464.32	6022.24
464.692	6085.29
465.065	6168.23
465.438	6235.8
465.81	6330.94
466.183	6355.57
466.555	6566.18
466.928	6620.65
467.3	6517.6
467.672	6735.22
468.045	6866.29
468.417	6862.9
468.789	6933.18
469.161	7070.12
469.534	7165.49
469.906	7302.66
470.278	7411.58
470.65	7493.62
471.022	7623.78
471.394	7785.59
471.766	7828.52
472.138	7952.36
472.51	8125.01
472.882	8191
473.253	8259.92
473.625	8419.47
473.997	8668.05
474.369	8681.61
474.74	8848.16
475.112	8943.97
475.484	9118.21
475.855	9284.3
476.227	9365.43
476.598	9582.6
476.97	9708.7
477.341	9911.63
477.713	10052.87
478.084	10113.89
478.455	10448.79
478.827	10477.04
479.198	10840.65
479.569	10889.46
479.94	11093.07
480.311	11210.13
480.682	11539.16
481.053	11771.47
481.424	11888.76
481.795	12057.34
482.166	12285.58
482.537	12420.94
482.908	12658
483.279	12759.24
483.65	12986.81
484.021	13303.63
484.391	13451.65
484.762	13515.38
485.133	13728.48
485.503	13905.43
485.874	14221.8
486.244	14277.39
486.615	14601.45
486.985	14822.92
487.356	15007.09
487.726	15236.69
488.097	15593.29
488.467	15575.44
488.837	15929.78
489.207	16101.3
489.578	16329.32
489.948	16478.47
490.318	16630.78
490.688	16742.86
491.058	17068.05
491.428	17271.89
491.798	17401.15
492.168	17763.4
492.538	17871.2
492.908	18073.45
493.278	18378.3
493.648	18352.09
494.017	18525.19
494.387	18800.66
494.757	18885.41
495.126	19087.44
495.496	19187.55
495.866	19398.61
496.235	19573.98
496.605	19743.46
496.974	19806.29
497.344	20083.57
497.713	20248.54
498.082	20429.77
498.452	20616.66
498.821	20677
499.19	20722.87
499.559	20996.31
499.928	21149.08
500.298	21279.24
500.667	21510.88
501.036	21544.55
501.405	21744.32
501.774	21698.89
502.143	21986.12
502.512	22024.99
502.88	22234.92
503.249	22409.38
503.618	22545.42
503.987	22655.48
504.356	22832.65
504.724	22900.22
505.093	23108.12
505.462	23211.85
505.83	23453.2
506.199	23530.93
506.567	23868.1
506.936	23863.36
507.304	24130.24
507.672	24277.81
508.041	24382.44
508.409	24605.03
508.777	24773.39
509.145	24881.63
509.514	25000.5
509.882	25221.06
510.25	25369.76
510.618	25647.72
510.986	25666.7
511.354	25976.97
511.722	26157.31
512.09	26357.53
512.458	26442.5
512.826	26721.59
513.193	26877.74
513.561	26934.01
513.929	27206.77
514.297	27463.49
514.664	27640.88
515.032	27725.17
515.4	28009.69
515.767	28059.63
516.135	28291.94
516.502	28111.15
516.869	28785.94
517.237	28878.14
517.604	28839.95
517.972	29127.17
518.339	29345.25
518.706	29533.26
519.073	29654.84
519.44	29961.5
519.808	30289.63
520.175	30242.17
520.542	30660.92
520.909	30882.15
521.276	30861.59
521.643	31261.35
522.009	31520.33
522.376	31641.68
522.743	31917.38
523.11	32252.74
523.477	32465.39
523.843	32756.46
524.21	33048.65
524.577	33342.2
524.943	33520.95
525.31	33595.53
525.676	33880.49
526.043	34165.91
526.409	34338.33
526.776	34636.86
527.142	34690.87
527.508	35051.08
527.874	35415.82
528.241	35433.9
528.607	35614.23
528.973	36027.56
529.339	36018.29
529.705	36324.27
530.071	36613.75
530.437	36776.46
530.803	37077.7
531.169	37320.4
531.535	37300.06
531.901	37390.01
532.267	37608.08
532.632	37829.09
532.998	37946.38
533.364	38066.37
533.73	38264.78
534.095	38695.06
534.461	38842.62
534.826	38923.07
535.192	39111.99
535.557	39471.53
535.923	39359.22
536.288	39576.39
536.653	39875.14
537.019	39698.19
537.384	39871.07
537.749	40086.21
538.114	40193.77
538.479	40411.4
538.845	40577.94
539.21	40590.37
539.575	40786.07
539.94	40867.2
540.305	41271.94
540.67	41151.26
541.034	41264.93
541.399	41556
541.764	41600.29
542.129	41670.12
542.494	41846.84
542.858	41939.04
543.223	42031.24
543.587	42327.28
543.952	42380.38
544.316	42536.99
544.681	42482.98
545.045	42699.47
545.41	43060.59
545.774	43138.33
546.138	43020.59
546.503	43273.69
546.867	43212
547.231	43635.72
547.595	43775.6
547.959	43830.29
548.324	44011.53
548.688	44014.24
549.052	44336.94
549.416	44367
549.779	44343.04
550.143	44583.94
550.507	44915.68
550.871	44971.73
551.235	45008.56
551.599	45356.58
551.962	45364.49
552.326	45516.57
552.689	45803.8
553.053	45731.71
553.417	45807.86
553.78	46306.61
554.143	46058.7
554.507	46368.75
554.87	46541.63
555.234	46809.64
555.597	46686.48
555.96	46863.43
556.323	47144.78
556.686	47154.95
557.05	47468.16
557.413	47516.74
557.776	47802.84
558.139	47932.55
558.502	47996.51
558.865	48186.33
559.228	48342.49
559.59	48617.28
559.953	48766.66
560.316	48967.33
560.679	49129.36
561.041	49260.88
561.404	49408.22
561.767	49617.93
562.129	49523.02
562.492	49996.45
562.854	49968.88
563.217	50021.09
563.579	50210.69
563.941	50447.52
564.304	50436.44
564.666	50794.4
565.028	50777.9
565.39	50852.48
565.753	51152.81
566.115	51357.1
566.477	51326.81
566.839	51430.77
567.201	51677.31
567.563	51674.83
567.925	51903.75
568.287	51954.59
568.648	52052.44
569.01	52259.67
569.372	52430.97
569.734	52316.39
570.095	52584.41
570.457	52729.72
570.819	52769.94
571.18	52827.11
571.542	52966.32
571.903	53065.75
572.265	53168.8
572.626	53205.18
572.987	53345.07
573.349	53353.43
573.71	53411.05
574.071	53536.47
574.432	53694.66
574.794	53892.4
575.155	53788.67
575.516	53771.72
575.877	53914.77
576.238	54042.22
576.599	54072.05
576.96	54085.16
577.32	54169.9
577.681	54219.17
578.042	54302.1
578.403	54337.58
578.763	54308.43
579.124	54446.05
579.485	54505.49
579.845	54565.6
580.206	54519.27
580.566	54576.45
580.927	54579.38
581.287	54574.64
581.648	54568.76
582.008	54743.22
582.368	54614.19
582.728	54665.71
583.089	54724.92
583.449	54721.08
583.809	54712.04
584.169	54832.94
584.529	54773.05
584.889	54963.55
585.249	54721.98
585.609	54631.13
585.969	54887.62
586.329	54744.8
586.688	54859.38
587.048	54767.63
587.408	54797.91
587.768	54743
588.127	54818.93
588.487	54766.05
588.846	54908.19
589.206	54757.23
589.565	54846.5
589.925	54949.77
590.284	54765.37
590.643	54853.05
591.003	54984.12
591.362	54977.34
591.721	54901.41
592.08	54924.69
592.44	54954.97
592.799	54990.45
593.158	54891.01
593.517	54933.27
593.876	55015.98
594.235	54948.41
594.593	54971.69
594.952	55099.37
595.311	54957.45
595.67	55121.06
596.029	55159.03
596.387	55246.71
596.746	55220.95
597.104	55103.44
597.463	55105.47
597.822	55236.09
598.18	55076.09
598.538	55115.19
598.897	55223.89
599.255	55032.25
599.613	55395.18
599.972	55258.46
600.33	55299.14
600.688	55207.62
601.046	55358.8
601.404	55388.85
601.762	55406.26
602.12	55509.98
602.478	55549.3
602.836	55477.21
603.194	55366.26
603.552	55418.01
603.91	55399.25
604.268	55613.93
604.625	55511.34
604.983	55632.92
605.341	55445.12
605.698	55625.01
606.056	55669.3
606.413	55551.34
606.771	55688.51
607.128	55662.29
607.485	55608.74
607.843	55684.67
608.2	55785
608.557	55852.57
608.914	55738.22
609.272	55909.29
609.629	55955.85
609.986	56080.59
610.343	55905.9
610.7	56049.18
611.057	56100.7
611.414	56038.55
611.771	56091.89
612.127	56212.34
612.484	56148.38
612.841	56203.3
613.198	56154.26
613.554	56161.49
613.911	56347.7
614.267	56279.23
614.624	56260.47
614.98	56282.16
615.337	56427.47
615.693	56307.47
616.05	56390.18
616.406	56485.1
616.762	56349.51
617.118	56297.31
617.475	56334.14
617.831	56508.15
618.187	56430.41
618.543	56519.9
618.899	56640.12
619.255	56650.52
619.611	56570.52
619.967	56613.68
620.323	56662.95
620.678	56570.52
621.034	56525.77
621.39	56545.89
621.746	56475.15
622.101	56832.66
622.457	56567.13
622.812	56573.91
623.168	56704.07
623.523	56625.43
623.879	56717.18
624.234	56540.24
624.589	56664.75
624.945	56603.96
625.3	56695.49
625.655	56661.14
626.01	56670.85
626.365	56595.6
626.72	56616.39
627.075	56544.53
627.43	56585.21
627.785	56532.55
628.14	56661.82
628.495	56608.26
628.85	56541.14
629.205	56458.66
629.559	56593.79
629.914	56481.26
630.269	56484.87
630.623	56410.97
630.978	56380.24
631.332	56543.17
631.687	56511.54
632.041	56350.41
632.396	56375.5
632.75	56270.41
633.104	56291.66
633.459	56220.47
633.813	56237.19
634.167	56145.9
634.521	56133.24
634.875	56222.5
635.229	56110.19
635.583	56041.72
635.937	55995.17
636.291	55962.4
636.645	55915.39
636.999	55895.73
637.352	55988.16
637.706	55720.82
638.06	55859.35
638.413	55803.53
638.767	55783.65
639.121	55798.34
639.474	55586.59
639.828	55597.21
640.181	55702.52
640.534	55642.63
640.888	55596.76
641.241	55421.4
641.594	55521.51
641.947	55516.99
642.301	55471.56
642.654	55493.48
643.007	55442.64
643.36	55364.67
643.713	55309.31
644.066	55401.96
644.419	55072.7
644.771	54989.77
645.124	54674.3
645.477	54684.47
645.83	54420.07
646.182	54349.11
646.535	54318.15
646.888	54353.85
647.24	54154.54
647.593	54350.46
647.945	54324.02
648.298	54089.45
648.65	54070.47
649.002	54007.2
649.355	54121.09
649.707	53981.21
650.059	54096.23
650.411	54458.26
650.763	54517.24
651.115	54817.8
651.467	54659.61
651.819	54625.03
652.171	54516.56
652.523	54494.87
652.875	54499.39
653.227	54367.41
653.578	54599.95
653.93	54400.18
654.282	54368.99
654.633	54214.87
654.985	54325.15
655.337	54292.61
655.688	54225.04
656.039	54263.01
656.391	54046.29
656.742	54122.9
657.094	54145.95
657.445	54187.76
657.796	54150.92
658.147	54022.11
658.498	54111.6
658.849	54119.96
659.2	53984.37
659.551	53978.5
659.902	54039.96
660.253	53903.92
660.604	53992.28
660.955	53848.1
661.306	53920.19
661.656	53941.43
662.007	54001.09
662.358	53944.37
662.708	53864.83
663.059	53843.58
663.409	53620.99
663.76	53859.63
664.11	53886.52
664.461	53878.39
664.811	53745.96
665.161	53788.9
665.511	53613.08
665.862	53693.53
666.212	53790.93
666.562	53789.57
666.912	53646.75
667.262	53610.14
667.612	53590.94
667.962	53621.22
668.312	53588.9
668.662	53584.38
669.011	53606.75
669.361	53527.89
669.711	53432.97
670.06	53431.62
670.41	53423.93
670.76	53362.47
671.109	53502.58
671.459	53413.99
671.808	53349.13
672.157	53400.88
672.507	53164.96
672.856	53152.53
673.205	53256.03
673.554	53338.29
673.904	53117.95
674.253	53352.07
674.602	53221.45
674.951	52828.92
675.3	52605.88
675.649	53134.68
675.998	53068.01
676.346	53110.27
676.695	53081.57
677.044	52857.85
677.393	52945.53
677.741	53052.87
678.09	52877.28
678.438	52844.29
678.787	52959.54
679.135	52828.92
679.484	52620.79
679.832	52740.34
680.181	52642.26
680.529	52682.48
680.877	52626.67
681.225	52557.06
681.573	52730.62
681.922	52435.03
682.27	52437.75
682.618	52365.88
682.966	52243.17
683.314	52356.17
683.661	52190.75
684.009	52036.17
684.357	51999.79
684.705	51818.33
685.053	51925.22
685.4	51889.06
685.748	51771.77
686.095	51728.84
686.443	51566.81
686.79	51515.06
687.138	51677.54
687.485	51580.14
687.832	51458.11
688.18	51391.45
688.527	51255.86
688.874	51222.41
689.221	51195.29
689.568	51062.19
689.915	50956.88
690.262	50923.44
690.609	50845.92
690.956	50718.92
691.303	50687.28
691.65	50473.73
691.997	50526.84
692.344	50247.29
692.69	50305.82
693.037	50207.07
693.383	49973.4
693.73	50068.09
694.077	49909.68
694.423	49878.49
694.769	49796.01
695.116	49606.63
695.462	49608.67
695.808	49336.58
696.155	49471.95
696.501	49205.74
696.847	49130.04
697.193	48908.8
697.539	49218.4
697.885	48794
698.231	48598.75
698.577	48676.49
698.923	48607.34
699.269	48425.2
699.614	48292.09
699.96	48228.59
700.306	48255.71
700.651	48044.64
700.997	47893.91
701.342	47867.7
701.688	47750.19
702.033	47615.05
702.379	47610.98
702.724	47486.01
703.069	47550.87
703.415	47197.21
703.76	47186.58
704.105	47218.9
704.45	47003.99
704.795	46717.9
705.14	46688.07
705.485	46629.08
705.83	46391.12
706.175	46376.66
706.52	46373.5
706.865	46185.03
707.209	46180.73
707.554	45945.94
707.899	46199.94
708.243	45839.05
708.588	45801.99
708.932	45466.18
709.277	45482
709.621	45569
709.966	45283.36
710.31	45426.4
710.654	45017.6
710.998	45051.73
711.342	45046.3
711.687	44994.33
712.031	44658.97
712.375	44552.53
712.719	44654
713.063	44648.57
713.407	44683.15
713.75	44445.41
714.094	44251.29
714.438	44224.4
714.782	44221.46
715.125	44029.15
715.469	44164.29
715.812	43773.34
716.156	43769.95
716.499	43668.26
716.843	43706.45
717.186	43441.82
717.53	43636.62
717.873	43522.05
718.216	43396.85
718.559	43156.63
718.902	42998.22
719.246	43147.14
719.589	42929.52
719.932	42821.28
720.275	42747.83
720.617	42744.22
720.96	42690.88
721.303	42793.71
721.646	42628.51
721.989	42417.44
722.331	42427.16
722.674	42289.31
723.016	42400.72
723.359	42239.6
723.701	42231.01
724.044	41961.64
724.386	41813.17
724.729	41942.88
725.071	41833.5
725.413	41796.44
725.755	41711.7
726.097	41491.82
726.439	41376.12
726.782	41333.86
727.124	41525.94
727.465	41219.51
727.807	41227.19
728.149	41116.24
728.491	41015.67
728.833	41106.07
729.175	41008.67
729.516	40887.54
729.858	40813.42
730.199	40932.06
730.541	40862.68
730.882	40718.51
731.224	40740.65
731.565	40438.51
731.906	40580.88
732.248	40472.86
732.589	40321.45
732.93	40285.97
733.271	40158.29
733.612	40184.73
733.953	40213.66
734.294	40017.51
734.635	39861.35
734.976	40084.17
735.317	39726.89
735.658	39723.05
735.999	39726.89
736.339	39538.42
736.68	39758.98
737.021	39555.82
737.361	39316.28
737.702	39412.55
738.042	39376.62
738.383	39178.66
738.723	39194.25
739.063	39135.95
739.404	39239
739.744	39010.75
740.084	38961.26
740.424	38893.69
740.764	38892.11
741.104	38947.93
741.444	38690.08
741.784	38630.2
742.124	38632.01
742.464	38716.98
742.804	38555.4
743.143	38395.4
743.483	38430.88
743.823	38284.67
744.162	38137.1
744.502	38230.66
744.841	38125.35
745.181	38327.83
745.52	38053.49
745.86	38058.46
746.199	37825.93
746.538	37824.34
746.877	37955.87
747.216	37812.37
747.556	37668.42
747.895	37778.47
748.234	37486.73
748.573	37503.9
748.911	37416.67
749.25	37404.92
749.589	37309.33
749.928	37215.09
750.267	37266.62
750.605	37083.57
750.944	36957.25
751.283	36900.75
751.621	36881.54
751.96	36705.05
752.298	36694.88
752.636	36703.7
752.975	36472.74
753.313	36261.67
753.651	36503.25
753.989	36332.63
754.327	36146.87
754.666	36098.51
755.004	36057.39
755.342	35926.54
755.679	35940.1
756.017	35753.66
756.355	35813.1
756.693	35641.13
757.031	35563.16
757.368	35405.2
757.706	35415.14
758.044	35233.23
758.381	35308.7
758.719	35072.33
759.056	35059.9
759.394	34918.88
759.731	34593.24
760.068	34694.48
760.405	34587.14
760.743	34383.98
761.08	34495.17
761.417	34346.24
761.754	34292.01
762.091	34161.62
762.428	34042.52
762.765	33736.77
763.102	33930.21
763.438	33789.87
763.775	33651.12
764.112	33671.69
764.449	33711.46
764.785	33385.14
765.122	33207.74
765.458	32927.52
765.795	32998.26
766.131	32973.4
766.467	32854.98
766.804	32747.87
767.14	32494.09
767.476	32545.39
767.812	32434.88
768.148	32452.96
768.485	32198.96
768.821	31986.98
769.157	32015.68
769.492	31882.58
769.828	31793.99
770.164	31546.54
770.5	31376.83
770.836	31386.77
771.171	31208.47
771.507	31177.97
771.842	30898.42
772.178	31052.55
772.513	30890.29
772.849	30803.96
773.184	30545.21
773.519	30714.02
773.855	30521.49
774.19	30351.32
774.525	30236.75
774.86	30169.63
775.195	29976.87
775.53	29925.57
775.865	29762.18
776.2	29581.17
776.535	29389.31
776.87	29418.01
777.205	29278.81
777.539	29085.82
777.874	29248.98
778.209	28956.56
778.543	28975.99
778.878	28700.29
779.212	28694.19
779.547	28562.89
779.881	28657.13
780.215	28436.79
780.55	28342.56
780.884	28242.9
781.218	28170.59
781.552	28077.48
781.886	27934.66
782.22	27808.34
782.554	27738.73
782.888	27512.3
783.222	27434.56
783.556	27287.67
783.889	27284.51
784.223	26948.7
784.557	26988.25
784.89	27060.33
785.224	26958.87
785.557	26812.88
785.891	26754.58
786.224	26626.22
786.558	26619.67
786.891	26290.41
787.224	26306
787.557	26218.77
787.891	26122.05
788.224	26097.2
788.557	26037.31
788.89	25945.33
789.223	25807.71
789.556	25653.82
789.888	25605.46
790.221	25451.34
790.554	25400.04
790.887	25256.31
791.219	25247.73
791.552	25053.83
791.884	24949.2
792.217	24948.52
792.549	24756.67
792.882	24575.2
793.214	24660.4
793.546	24588.76
793.879	24524.36
794.211	24370.46
794.543	24429.89
794.875	24266.06
795.207	24231.03
795.539	24110.13
795.871	24165.95
796.203	23925.73
796.535	23893.86
796.867	23723.02
797.198	23708.33
797.53	23639.41
797.862	23468.11
798.193	23450.03
798.525	23384.05
798.856	23390.15
799.188	23188.35
799.519	23133.43
799.85	22949.71
800.182	22950.61
800.513	22954.68
800.844	22772.54
801.175	22961.91
801.506	22777.96
801.837	22614.8
802.168	22639.66
802.499	22533.9
802.83	22478.31
803.161	22371.19
803.491	22333.68
803.822	22378.42
804.153	22187.92
804.483	21960.13
804.814	21922.16
805.145	21930.3
805.475	21813.47
805.805	21912.67
806.136	21901.6
806.466	21813.24
806.796	21790.87
807.126	21606.92
807.457	21596.3
807.787	21598.78
808.117	21425.45
808.447	21375.29
808.777	21427.71
809.107	21273.59
809.436	21215.29
809.766	21188.17
810.096	21101.39
810.426	21068.85
810.755	21009.65
811.085	20836.09
811.414	20846.71
811.744	20729.2
812.073	20660.05
812.403	20596.1
812.732	20592.26
813.061	20599.71
813.39	20484.69
813.719	20425.03
814.049	20494.18
814.378	20384.58
814.707	20356.56
815.036	20230.91
815.365	20134.87
815.693	19919.5
816.022	19889
816.351	19945.72
816.68	19824.14
817.008	19906.85
817.337	19632.05
817.665	19716.12
817.994	19827.3
818.322	19673.64
818.651	19540.53
818.979	19526.52
819.307	19544.15
819.636	19569.46
819.964	19424.6
820.292	19529.23
820.62	19420.76
820.948	19341.89
821.276	19439.29
821.604	19409.46
821.932	19401.33
822.259	19376.47
822.587	19396.35
822.915	19279.07
823.243	19375.56
823.57	19345.73
823.898	19305.74
824.225	19281.1
824.553	19170.15
824.88	19260.54
825.207	19362.23
825.535	19186.87
825.862	19393.64
826.189	19265.28
826.516	19336.69
826.843	19390.7
827.17	19348.45
827.497	19352.29
827.824	19367.2
828.151	19272.74
828.478	19237.04
828.805	19259.63
829.131	19167.21
829.458	19155.23
829.785	19117.27
830.111	19173.99
830.438	19271.39
830.764	19224.83
831.09	19134.89
831.417	19082.01
831.743	19235
832.069	19158.85
832.395	19044.73
832.722	19087.44
833.048	18982.81
833.374	19136.93
833.7	18969.25
834.026	18982.81
834.351	19002.47
834.677	18955.69
835.003	18991.17
835.329	18927.67
835.654	18950.04
835.98	18904.39
836.306	18970.6
836.631	18832.08
836.956	18884.96
837.282	18877.72
837.607	18763.83
837.932	18642.7
838.258	18733.32
838.583	18656.71
838.908	18473.44
839.233	18607
839.558	18476.15
839.883	18493.78
840.208	18419.2
840.533	18452.88
840.858	18362.26
841.182	18412.2
841.507	18347.79
841.832	18244.07
842.156	18295.37
842.481	18261.02
842.805	18153.9
843.13	18145.54
843.454	18008.59
843.778	18004.07
844.103	17971.08
844.427	17942.38
844.751	17877.98
845.075	17976.5
845.399	17758.43
845.723	17656.51
846.047	17735.38
846.371	17601.15
846.695	17542.39
847.019	17394.37
847.343	17308.27
847.666	17263.98
847.99	17205
848.313	17188.05
848.637	17044.33
848.96	17075.96
849.284	16984.67
849.607	16850.21
849.931	16849.08
850.254	16687.27
850.577	16593.72
850.9	16542.19
851.223	16485.47
851.546	16550.33
851.869	16355.3
852.192	16286.61
852.515	16155.99
852.838	16191.69
853.161	16125.03
853.483	16094.97
853.806	16056.33
854.129	16001.64
854.451	15955.77
854.774	15816.11
855.096	15836
855.419	15777.24
855.741	15681.88
856.063	15634.19
856.385	15650.69
856.708	15550.58
857.03	15513.74
857.352	15403.01
857.674	15466.97
857.996	15411.15
858.318	15325.95
858.64	15345.61
858.961	15233.75
859.283	15257.93
859.605	15148.78
859.926	15212.28
860.248	15086.41
860.57	15033.76
860.891	15022.68
861.212	14882.35
861.534	14938.39
861.855	14937.71
862.176	14928.68
862.498	14880.99
862.819	14905.85
863.14	14782.69
863.461	14777.49
863.782	14734.78
864.103	14708.12
864.424	14577.72
864.745	14649.13
865.065	14626.08
865.386	14588.8
865.707	14601.9
866.027	14591.06
866.348	14558.97
866.668	14474.45
866.989	14418.41
867.309	14323.04
867.63	14366.88
867.95	14320.33
868.27	14248.02
868.59	14301.12
868.91	14245.98
869.23	14301.8
869.55	14227
869.87	14240.33
870.19	14129.83
870.51	14224.74
870.83	14104.74
871.15	14015.93
871.469	14067.91
871.789	14079.43
872.109	14096.61
872.428	13921.24
872.748	14068.58
873.067	14002.15
873.386	14062.48
873.706	13968.93
874.025	13857.29
874.344	13864.97
874.663	13924.18
874.982	13847.8
875.301	13816.16
875.62	13784.3
875.939	13672.66
876.258	13737.52
876.577	13690.52
876.896	13642.38
877.214	13669.5
877.533	13698.2
877.852	13572.1
878.17	13686
878.489	13572.55
878.807	13613.68
879.125	13533.01
879.444	13461.6
879.762	13454.59
880.08	13474.02
880.398	13412.78
880.716	13385.21
881.034	13364.42
881.352	13378.21
881.67	13268.83
881.988	13316.29
882.306	13229.51
882.624	13245.1
882.941	13186.35
883.259	13144.54
883.577	13058.44
883.894	13045.56
884.212	12997.88
884.529	13022.51
884.846	13098.21
885.164	12969.4
885.481	12958.33
885.798	13048.27
886.115	12798.56
886.432	12894.38
886.75	12843.08
887.067	12823.87
887.383	12730.09
887.7	12771.9
888.017	12660.26
888.334	12686.47
888.651	12665.68
888.967	12556.31
889.284	12536.2
889.6	12523.31
889.917	12428.85
890.233	12492.81
890.55	12447.61
890.866	12445.58
891.182	12361.51
891.498	12306.82
891.815	12262.53
892.131	12197.67
892.447	12191.35
892.763	12123.33
893.079	12092.37
893.395	12099.37
893.71	12047.62
894.026	11992.03
894.342	12019.83
894.657	11858.93
894.973	11920.17
895.289	11880.62
895.604	11910.22
895.92	11723.11
896.235	11709.78
896.55	11753.84
896.865	11645.37
897.181	11612.38
897.496	11606.28
897.811	11504.36
898.126	11496
898.441	11436.79
898.756	11448.77
899.071	11356.79
899.386	11335.1
899.7	11246.29
900.015	11232.28
900.33	11195.44
900.644	11166.51
900.959	11121.54
901.273	11124.71
901.588	11057.14
901.902	11009
902.216	10940.76
902.531	10946.86
902.845	10925.84
903.159	10871.15
903.473	10754.1
903.787	10693.53
904.101	10713.64
904.415	10668.9
904.729	10666.87
905.042	10644.49
905.356	10518.17
905.67	10474.78
905.984	10459.87
906.297	10483.82
906.611	10382.58
906.924	10357.04
907.237	10301.68
907.551	10364.28
907.864	10290.38
908.177	10251.74
908.491	10233.43
908.804	10096.49
909.117	10116.82
909.43	10031.4
909.743	10006.54
910.056	9935.59
910.368	9962.03
910.681	9876.83
910.994	9848.13
911.307	9827.34
911.619	9661.24
911.932	9742.6
912.244	9647.91
912.557	9578.08
912.869	9555.71
913.181	9578.08
913.494	9505.77
913.806	9427.8
914.118	9484.98
914.43	9376.28
914.742	9374.02
915.054	9308.03
915.366	9260.12
915.678	9220.58
915.99	9261.48
916.302	9154.59
916.613	9122.5
916.925	9106.68
917.236	9082.05
917.548	8995.5
917.859	8945.1
918.171	8915.5
918.482	8916.86
918.794	8796.41
919.105	8812.45
919.416	8758.22
919.727	8760.7
920.038	8669.4
920.349	8690.87
920.66	8632.57
920.971	8584.66
921.282	8593.47
921.593	8546.24
921.903	8468.28
922.214	8389.86
922.525	8434.83
922.835	8360.03
923.146	8384.67
923.456	8261.51
923.767	8296.08
924.077	8301.05
924.387	8236.65
924.697	8146.93
925.008	8104.45
925.318	8091.11
925.628	8082.08
925.938	8084.79
926.248	8012.47
926.558	7954.62
926.867	7867.17
927.177	7865.58
927.487	7772.25
927.796	7753.72
928.106	7769.54
928.416	7702.88
928.725	7658.81
929.034	7633.5
929.344	7685.48
929.653	7593.27
929.962	7534.52
930.271	7523.67
930.581	7468.53
930.89	7451.58
931.199	7411.81
931.508	7386.5
931.817	7369.33
932.125	7344.47
932.434	7338.82
932.743	7239.84
933.051	7206.62
933.36	7196.68
933.669	7206.39
933.977	7105.38
934.286	7078.03
934.594	7106.28
934.902	7009.34
935.21	7002.1
935.519	6990.13
935.827	6944.03
936.135	6917.59
936.443	6841.88
936.751	6795.78
937.059	6837.36
937.367	6728.44
937.674	6778.38
937.982	6741.32
938.29	6698.84
938.597	6655.22
938.905	6602.79
939.213	6628.78
939.52	6538.84
939.827	6576.13
940.135	6531.16
940.442	6525.05
940.749	6454.55
941.056	6510.37
941.363	6418.62
941.67	6363.93
941.977	6324.83
942.284	6324.83
942.591	6280.32
942.898	6264.72
943.205	6270.15
943.511	6209.13
943.818	6220.66
944.125	6141.79
944.431	6133.88
944.738	6136.59
945.044	6059.3
945.35	6095.46
945.657	5990.15
945.963	5970.94
946.269	5953.54
946.575	5941.57
946.881	5927.1
947.187	5884.85
947.493	5859.31
947.799	5834.45
948.105	5770.95
948.41	5756.94
948.716	5750.16
949.022	5677.39
949.327	5716.04
949.633	5672.65
949.938	5655.02
950.244	5645.3
950.549	5619.09
950.854	5534.35
951.16	5551.29
951.465	5511.3
951.77	5493.9
952.075	5448.92
952.38	5410.51
952.685	5452.31
952.99	5383.84
953.294	5413.9
953.599	5363.05
953.904	5337.74
954.209	5311.53
954.513	5251.87
954.818	5270.4
955.122	5251.64
955.426	5200.12
955.731	5138.88
956.035	5140.91
956.339	5184.75
956.643	5122.83
956.948	5097.52
957.252	5082.15
957.556	5131.64
957.86	5018.2
958.163	5058.65
958.467	4970.07
958.771	4956.96
959.075	4979.78
959.378	4932.33
959.682	4907.02
959.985	4859.34
960.289	4863.86
960.592	4822.5
960.896	4876.51
961.199	4808.49
961.502	4789.05
961.805	4687.14
962.108	4699.79
962.411	4700.47
962.714	4693.69
963.017	4686.91
963.32	4683.07
963.623	4625.44
963.926	4601.49
964.228	4552
964.531	4576.41
964.833	4523.3
965.136	4493.7
965.438	4486.46
965.741	4485.56
966.043	4457.09
966.345	4421.38
966.648	4411.89
966.95	4416.86
967.252	4408.05
967.554	4336.64
967.856	4283.98
968.158	4283.31
968.46	4278.79
968.761	4289.86
969.063	4243.08
969.365	4241.95
969.666	4199.92
969.968	4166.92
970.269	4169.41
970.571	4169.41
970.872	4129.64
971.174	4145.23
971.475	4073.59
971.776	4078.11
972.077	4053.26
972.378	4034.95
972.679	4041.5
972.98	4060.03
973.281	4018.91
973.582	3972.81
973.883	3938.23
974.183	3947.72
974.484	3928.06
974.785	3952.01
975.085	3865.24
975.386	3874.73
975.686	3818.23
975.986	3849.19
976.287	3831.34
976.587	3830.66
976.887	3806.71
977.187	3749.76
977.487	3781.85
977.787	3722.19
978.087	3777.56
978.387	3695.75
978.687	3711.34
978.987	3688.29
979.286	3638.8
979.586	3639.25
979.885	3615.53
980.185	3630.67
980.484	3580.73
980.784	3578.47
981.083	3545.25
981.382	3577.56
981.682	3520.61
981.981	3491.01
982.28	3488.3
982.579	3462.31
982.878	3439.49
983.177	3465.02
983.475	3475.64
983.774	3431.58
984.073	3391.58
984.372	3379.83
984.67	3345.7
984.969	3360.62
985.267	3321.52
985.566	3303.67
985.864	3299.38
986.162	3302.77
986.461	3294.4
986.759	3242.43
987.057	3253.95
987.355	3221.19
987.653	3189.55
987.951	3193.16
988.249	3206.27
988.547	3180.96
988.844	3164.01
989.142	3122.21
989.44	3116.33
989.737	3130.57
990.035	3055.99
990.332	3053.28
990.63	3068.65
990.927	3044.92
991.224	3034.52
991.521	3011.25
991.819	3015.09
992.116	2983.45
992.413	2979.61
992.71	2948.88
993.006	2947.52
993.303	2914.75
993.6	2951.82
993.897	2952.27
994.193	2915.21
994.49	2878.37
994.787	2858.26
995.083	2824.81
995.379	2832.27
995.676	2825.72
995.972	2812.61
996.268	2791.82
996.565	2731.93
996.861	2741.43
997.157	2723.57
997.453	2736.91
997.749	2726.06
998.044	2693.74
998.34	2669.34
998.636	2665.27
998.932	2629.11
999.227	2650.58
999.523	2656
999.818	2604.93
1000.114	2590.92
1000.409	2583.24
1000.704	2586.17
1001	2543.92
1001.295	2529.23
1001.59	2535.1
1001.885	2507.08
1002.18	2474.54
1002.475	2462.79
1002.77	2487.87
1003.065	2460.3
1003.359	2472.51
1003.654	2451.49
1003.949	2437.48
1004.243	2434.31
1004.538	2382.79
1004.832	2368.55
1005.127	2389.8
1005.421	2307.31
1005.715	2342.34
1006.009	2307.54
1006.304	2282.23
1006.598	2293.3
1006.892	2289.23
1007.186	2267.31
1007.48	2267.09
1007.773	2240.2
1008.067	2222.79
1008.361	2232.96
1008.655	2183.02
1008.948	2183.47
1009.242	2174.21
1009.535	2155.68
1009.829	2124.49
1010.122	2150.71
1010.415	2145.73
1010.708	2077.49
1011.001	2075.91
1011.295	2077.94
1011.588	2077.94
1011.881	2070.48
1012.173	2034.78
1012.466	2051.5
1012.759	1988
1013.052	1991.61
1013.344	1981.22
1013.637	1997.26
1013.93	1996.36
1014.222	1966.3
1014.514	1938.73
1014.807	1944.16
1015.099	1915.23
1015.391	1882.46
1015.683	1922.69
1015.976	1851.05
1016.268	1871.39
1016.56	1857.15
1016.851	1869.36
1017.143	1815.12
1017.435	1801.79
1017.727	1827.32
1018.018	1818.74
1018.31	1794.33
1018.602	1794.11
1018.893	1753.88
1019.185	1771.06
1019.476	1729.93
1019.767	1733.99
1020.058	1752.52
1020.35	1698.29
1020.641	1698.06
1020.932	1657.61
1021.223	1693.32
1021.514	1652.87
1021.804	1610.16
1022.095	1639.99
1022.386	1623.49
1022.677	1603.83
1022.967	1611.74
1023.258	1609.25
1023.548	1612.87
1023.839	1587.11
1024.129	1562.93
1024.419	1567.44
1024.709	1523.38
1025	1552.76
1025.29	1540.55
1025.58	1495.81
1025.87	1502.36
1026.16	1468.46
1026.449	1496.49
1026.739	1490.16
1027.029	1451.06
1027.319	1431.4
1027.608	1429.6
1027.898	1412.42
1028.187	1412.87
1028.477	1421.91
1028.766	1387.11
1029.055	1366.32
1029.344	1372.87
1029.634	1369.26
1029.923	1359.99
1030.212	1352.54
1030.501	1370.16
1030.79	1322.25
1031.078	1336.94
1031.367	1327.22
1031.656	1317.73
1031.945	1314.34
1032.233	1295.14
1032.522	1271.18
1032.81	1277.51
1033.099	1270.5
1033.387	1244.97
1033.675	1251.52
1033.963	1218.98
1034.251	1238.19
1034.54	1230.28
1034.828	1215.36
1035.116	1184.63
1035.403	1197.74
1035.691	1201.13
1035.979	1179.43
1036.267	1185.53
1036.554	1191.86
1036.842	1142.6
1037.129	1147.34
1037.417	1154.12
1037.704	1134.01
1037.992	1117.74
1038.279	1136.72
1038.566	1073.9
1038.853	1073.9
1039.14	1073.9
