Data from White_paper_FLMS001491_083.txt Node
Date: Tue Feb 07 10:35:40 GMT 2017
User: dcchb
Spectrometer: FLMS00149
Trigger mode: 0
Integration Time (sec): 2.000000E-2
Scans to average: 10
Electric dark correction enabled: true
Nonlinearity correction enabled: false
Boxcar width: 0
XAxis mode: Wavelengths
Number of Pixels in Spectrum: 2048
>>>>>Begin Spectral Data<<<<<
341.393	-26.17
341.776	-26.17
342.16	-26.17
342.543	-47.19
342.927	-65.94
343.31	-59.17
343.693	-77.02
344.077	-64.36
344.46	-52.84
344.843	-51.48
345.226	-22.33
345.61	-34.31
345.993	-26.17
346.376	-0.64
346.759	-8.32
347.142	16.77
347.525	43.66
347.908	57.44
348.291	60.83
348.674	113.26
349.057	104.67
349.44	122.53
349.823	138.57
350.206	142.41
350.588	214.73
350.971	231.9
351.354	264.44
351.737	271.67
352.119	266.02
352.502	288.4
352.884	291.33
353.267	303.76
353.65	303.54
354.032	299.47
354.414	323.42
354.797	333.37
355.179	348.06
355.562	337.43
355.944	324.33
356.326	360.71
356.709	356.19
357.091	357.77
357.473	367.94
357.855	365.68
358.238	367.26
358.62	358
359.002	353.71
359.384	366.59
359.766	378.56
360.148	387.15
360.53	382.41
360.912	357.77
361.294	360.71
361.676	364.78
362.057	381.95
362.439	363.65
362.821	392.8
363.203	366.36
363.584	357.55
363.966	369.52
364.348	358.68
364.729	347.83
365.111	350.77
365.493	374.95
365.874	358.23
366.256	350.99
366.637	330.2
367.019	371.33
367.4	362.07
367.781	360.71
368.163	370.65
368.544	357.77
368.925	366.81
369.306	353.71
369.688	360.26
370.069	381.73
370.45	348.51
370.831	377.43
371.212	376.76
371.593	363.87
371.974	372.46
372.355	358.45
372.736	369.07
373.117	366.13
373.498	374.27
373.879	378.11
374.26	376.76
374.641	375.17
375.021	358.23
375.402	369.07
375.783	397.77
376.163	384.21
376.544	381.95
376.925	387.83
377.305	376.98
377.686	398.22
378.066	395.96
378.447	390.77
378.827	390.09
379.208	386.25
379.588	400.71
379.968	403.87
380.349	387.15
380.729	402.29
381.109	417.21
381.489	430.54
381.87	417.88
382.25	424.66
382.63	437.09
383.01	422.4
383.39	435.06
383.77	428.73
384.15	452.69
384.53	450.2
384.91	446.13
385.29	449.52
385.67	422.4
386.049	446.36
386.429	440.48
386.809	464.66
387.189	473.48
387.568	461.05
387.948	462.63
388.328	479.58
388.707	479.8
389.087	470.99
389.466	488.17
389.846	478.45
390.225	471.44
390.605	497.66
390.984	504.44
391.363	501.05
391.743	520.03
392.122	519.8
392.501	528.16
392.881	532.01
393.26	519.35
393.639	532.23
394.018	552.34
394.397	557.77
394.776	546.69
395.155	540.59
395.534	562.51
395.913	559.12
396.292	583.08
396.671	589.41
397.05	568.16
397.429	573.13
397.808	576.07
398.186	590.08
398.565	605.45
398.944	613.59
399.323	621.95
399.701	635.96
400.08	646.81
400.458	647.03
400.837	651.1
401.215	649.52
401.594	668.27
401.972	679.57
402.351	680.93
402.729	696.3
403.107	691.78
403.486	724.32
403.864	727.25
404.242	720.02
404.62	737.42
404.999	758.44
405.377	774.49
405.755	778.55
406.133	821.72
406.511	822.17
406.889	831.21
407.267	842.28
407.645	865.56
408.023	888.61
408.401	918.44
408.779	926.57
409.156	948.72
409.534	955.27
409.912	974.25
410.29	1014.03
410.667	1011.09
411.045	1072.78
411.422	1083.63
411.8	1111.65
412.178	1127.7
412.555	1155.27
412.933	1192.55
413.31	1203.4
413.687	1250.63
414.065	1279.78
414.442	1302.38
414.819	1296.28
415.197	1360.46
415.574	1387.12
415.951	1405.88
416.328	1428.93
416.705	1473.45
417.082	1482.72
417.46	1512.09
417.837	1527.23
418.214	1577.85
418.591	1575.59
418.967	1604.52
419.344	1660.79
419.721	1703.73
420.098	1705.31
420.475	1718.87
420.852	1757.28
421.228	1781.92
421.605	1811.52
421.982	1854.68
422.358	1851.07
422.735	1856.49
423.111	1883.16
423.488	1913.21
423.864	1925.42
424.241	1985.53
424.617	1994.11
424.994	2054
425.37	2036.82
425.746	2065.75
426.123	2093.32
426.499	2122.02
426.875	2177.61
427.251	2201.79
427.627	2244.5
428.003	2284.73
428.379	2323.37
428.756	2349.36
429.132	2390.04
429.507	2425.74
429.883	2414.67
430.259	2483.14
430.635	2502.8
431.011	2557.26
431.387	2616.24
431.763	2629.13
432.138	2649.46
432.514	2681.1
432.89	2712.97
433.265	2799.06
433.641	2830.25
434.016	2875
434.392	2915.9
434.767	2978.95
435.143	2997.93
435.518	3047.42
435.894	3051.94
436.269	3070.47
436.644	3158.6
437.02	3166.29
437.395	3195.21
437.77	3247.41
438.145	3286.74
438.52	3325.83
438.895	3339.62
439.271	3378.48
439.646	3433.17
440.021	3497.8
440.395	3456
440.77	3475.21
441.145	3518.14
441.52	3626.84
441.895	3576.67
442.27	3646.95
442.645	3640.17
443.019	3701.87
443.394	3719.94
443.769	3737.12
444.143	3704.35
444.518	3801.98
444.892	3784.58
445.267	3799.04
445.641	3846.95
446.016	3838.59
446.39	3897.34
446.764	3936.44
447.139	3931.46
447.513	3985.25
447.887	3987.73
448.262	3961.29
448.636	4027.96
449.01	4067.05
449.384	4095.53
449.758	4128.97
450.132	4179.37
450.506	4204.45
450.88	4252.13
451.254	4296.2
451.628	4250.78
452.002	4342.98
452.376	4394.96
452.75	4440.15
453.123	4461.17
453.497	4539.13
453.871	4523.31
454.244	4636.3
454.618	4702.74
454.992	4772.57
455.365	4700.03
455.739	4876.75
456.112	4900.7
456.486	4981.38
456.859	4996.97
457.232	5129.4
457.606	5096.18
457.979	5135.27
458.352	5265.89
458.725	5326.23
459.099	5384.31
459.472	5456.17
459.845	5508.6
460.218	5548.15
460.591	5636.5
460.964	5666.11
461.337	5811.41
461.71	5839.21
462.083	5916.5
462.456	5930.28
462.829	5987.46
463.201	6099.77
463.574	6157.85
463.947	6211.18
464.32	6353.77
464.692	6411.17
465.065	6431.29
465.438	6584.05
465.81	6581.79
466.183	6706.98
466.555	6844.83
466.928	6919.86
467.3	6936.58
467.672	7036.92
468.045	7222
468.417	7183.13
468.789	7274.65
469.161	7375.22
469.534	7533.86
469.906	7707.86
470.278	7731.59
470.65	7779.05
471.022	7968.42
471.394	8128.19
471.766	8122.77
472.138	8247.28
472.51	8409.09
472.882	8564.34
473.253	8690.21
473.625	8769.08
473.997	8937.66
474.369	9034.16
474.74	9167.03
475.112	9332.45
475.484	9473.92
475.855	9632.11
476.227	9698.77
476.598	9970.85
476.97	10021.25
477.341	10275.25
477.713	10430.73
478.084	10456.72
478.455	10799.76
478.827	10857.61
479.198	11223.25
479.569	11160.88
479.94	11528.78
480.311	11593.18
480.682	11833.86
481.053	12123.34
481.424	12294.63
481.795	12415.08
482.166	12632.25
482.537	12827.5
482.908	13057.78
483.279	13196.08
483.65	13401.95
484.021	13684.88
484.391	13879.9
484.762	13967.58
485.133	14074.02
485.503	14277.63
485.874	14544.29
486.244	14709.26
486.615	14923.04
486.985	15164.39
487.356	15424.5
487.726	15489.58
488.097	15824.03
488.467	15873.07
488.837	16207.75
489.207	16431.7
489.578	16645.25
489.948	16727.06
490.318	17032.59
490.688	17084.11
491.058	17301.96
491.428	17543.08
491.798	17757.09
492.168	18045.67
492.538	18123.18
492.908	18376.51
493.278	18543.06
493.648	18626.22
494.017	18861.24
494.387	18998.86
494.757	19130.61
495.126	19374.22
495.496	19499.64
495.866	19480.66
496.235	19732.4
496.605	19926.3
496.974	20002.45
497.344	20271.15
497.713	20354.31
498.082	20595.43
498.452	20681.98
498.821	20762.21
499.19	20863.9
499.559	21150.22
499.928	21210.56
500.298	21369.88
500.667	21512.25
501.036	21562.41
501.405	21825.01
501.774	21768.74
502.143	22049.18
502.512	22115.17
502.88	22377.99
503.249	22309.74
503.618	22487.36
503.987	22679.67
504.356	22905.2
504.724	23000.79
505.093	23053.45
505.462	23099.77
505.83	23358.3
506.199	23521.91
506.567	23830.15
506.936	23781.11
507.304	23984.27
507.672	24128.9
508.041	24256.81
508.409	24425.61
508.777	24677.59
509.145	24836.9
509.514	24885.04
509.882	25030.8
510.25	25146.27
510.618	25277.34
510.986	25396.21
511.354	25714.62
511.722	25862.87
512.09	26169.75
512.458	26049.53
512.826	26384.66
513.193	26395.05
513.561	26534.94
513.929	26768.38
514.297	27023.96
514.664	27312.09
515.032	27277.97
515.4	27501.92
515.767	27586.44
516.135	27821.68
516.502	27681.12
516.869	28354.78
517.237	28336.92
517.604	28176.02
517.972	28709.8
518.339	28790.7
518.706	28794.54
519.073	29077.24
519.44	29150.46
519.808	29341.19
520.175	29571.24
520.542	29937.11
520.909	30036.77
521.276	30175.07
521.643	30431.11
522.009	30592.46
522.376	30920.81
522.743	31048.27
523.11	31195.61
523.477	31450.06
523.843	31740
524.21	32019.77
524.577	32289.81
524.943	32515.57
525.31	32567.1
525.676	32870.36
526.043	33027.42
526.409	33275.33
526.776	33611.81
527.142	33576.33
527.508	33672.15
527.874	34125.25
528.241	34218.58
528.607	34374.28
528.973	34616.76
529.339	34711.22
529.705	35035.73
530.071	35197.31
530.437	35402.28
530.803	35618.09
531.169	35737.86
531.535	35814.02
531.901	35979.21
532.267	36131.97
532.632	36462.13
532.998	36572.87
533.364	36796.59
533.73	36767.89
534.095	37209.01
534.461	37168.56
534.826	37407.87
535.192	37662.33
535.557	37761.08
535.923	37823.91
536.288	38049.44
536.653	38225.93
537.019	38121.07
537.384	38277.23
537.749	38577.11
538.114	38693.26
538.479	38660.49
538.845	38927.38
539.21	38971.45
539.575	39106.13
539.94	39139.13
540.305	39515.61
540.67	39425.67
541.034	39577.31
541.399	39796.51
541.764	39912.67
542.129	40154.92
542.494	40295.71
542.858	40362.6
543.223	40416.83
543.587	40733.21
543.952	40527.79
544.316	40858.63
544.681	40817.5
545.045	41169.58
545.41	41353.76
545.774	41425.17
546.138	41494.77
546.503	41655.67
546.867	41659.74
547.231	42066.28
547.595	41980.18
547.959	42165.71
548.324	42220.18
548.688	42417.68
549.052	42646.15
549.416	42566.61
549.779	42664.68
550.143	42832.14
550.507	43014.96
550.871	43082.3
551.235	43092.24
551.599	43380.37
551.962	43551.44
552.326	43648.61
552.689	43834.37
553.053	43813.35
553.417	43891.77
553.78	44433.68
554.143	44286.34
554.507	44400
554.87	44690.17
555.234	44947.11
555.597	44823.5
555.96	44807.9
556.323	45147.78
556.686	45287.67
557.05	45597.71
557.413	45506.19
557.776	45652.18
558.139	45998.83
558.502	46072.28
558.865	46072.28
559.228	46372.61
559.59	46508.2
559.953	46566.28
560.316	46973.95
560.679	46953.38
561.041	47316.31
561.404	47368.06
561.767	47526.7
562.129	47524.22
562.492	47834.26
562.854	47850.54
563.217	47877.43
563.579	48123.75
563.941	48411.42
564.304	48639.44
564.666	48737.07
565.028	48884.63
565.39	48949.04
565.753	49217.28
566.115	49307.67
566.477	49427.9
566.839	49463.15
567.201	49857.04
567.563	49949.01
567.925	50138.16
568.287	50053.42
568.648	50170.25
569.01	50297.48
569.372	50567.07
569.734	50531.6
570.095	50661.08
570.457	50886.39
570.819	51032.37
571.18	50941.53
571.542	51283.67
571.903	51247.73
572.265	51434.85
572.626	51490.44
572.987	51547.39
573.349	51670.77
573.71	51878.9
574.071	51872.8
574.432	52022.63
574.794	52232.57
575.155	52194.38
575.516	52153.47
575.877	52286.58
576.238	52387.82
576.599	52499
576.96	52596.17
577.32	52666.23
577.681	52651.31
578.042	52858.31
578.403	52784.64
578.763	52862.61
579.124	52922.04
579.485	53037.97
579.845	53188.25
580.206	53160.23
580.566	53162.03
580.927	53176.72
581.287	53309.15
581.648	53128.59
582.008	53389.15
582.368	53361.8
582.728	53472.53
583.089	53425.98
583.449	53431.41
583.809	53472.53
584.169	53495.36
584.529	53540.33
584.889	53795.92
585.249	53616.49
585.609	53608.35
585.969	53684.73
586.329	53621.91
586.688	53738.74
587.048	53677.05
587.408	53600.44
587.768	53703.49
588.127	53686.99
588.487	53713.88
588.846	53933.09
589.206	53778.52
589.565	53784.16
589.925	53931.05
590.284	53741.45
590.643	53896.7
591.003	53999.53
591.362	54045.85
591.721	53954.56
592.08	54002.24
592.44	54048.11
592.799	54084.5
593.158	54053.54
593.517	54056.02
593.876	54079.75
594.235	54036.81
594.593	54093.08
594.952	54225.74
595.311	54026.64
595.67	54200.88
596.029	54370.82
596.387	54372.62
596.746	54334.21
597.104	54211.95
597.463	54349.35
597.822	54423.92
598.18	54256.02
598.538	54280.88
598.897	54423.02
599.255	54288.33
599.613	54661.88
599.972	54454.88
600.33	54639.28
600.688	54478.16
601.046	54567.2
601.404	54718.15
601.762	54571.26
602.12	54721.09
602.478	54725.61
602.836	54753.18
603.194	54536.01
603.552	54646.74
603.91	54601.77
604.268	54792.27
604.625	54632.05
604.983	54806.28
605.341	54701.43
605.698	54885.38
606.056	54851.93
606.413	54791.82
606.771	55000.4
607.128	54999.27
607.485	54904.14
607.843	54936.45
608.2	55024.58
608.557	55101.42
608.914	55020.97
609.272	55137.58
609.629	55170.34
609.986	55329.21
610.343	55191.36
610.7	55283.56
611.057	55297.12
611.414	55176.44
611.771	55247.63
612.127	55420.28
612.484	55433.16
612.841	55415.08
613.198	55365.14
613.554	55358.59
613.911	55571.69
614.267	55536.89
614.624	55472.03
614.98	55548.19
615.337	55663.21
615.693	55609.88
616.05	55640.39
616.406	55700.27
616.762	55601.07
617.118	55594.74
617.475	55557
617.831	55691.01
618.187	55747.96
618.543	55749.99
618.899	55881.28
619.255	55819.82
619.611	55879.7
619.967	55895.97
620.323	55916.09
620.678	55818.69
621.034	55726.26
621.39	55769.65
621.746	55776.65
622.101	56070.21
622.457	55895.75
622.812	55843.77
623.168	55937.1
623.523	55992.92
623.879	56031.79
624.234	55835.18
624.589	55953.83
624.945	55967.16
625.3	55952.7
625.655	56011.45
626.01	55932.36
626.365	55969.87
626.72	55957.67
627.075	55918.8
627.43	55945.01
627.785	55845.81
628.14	55886.26
628.495	56010.1
628.85	56002.64
629.205	55856.88
629.559	56017.78
629.914	55882.19
630.269	55888.97
630.623	55885.13
630.978	55821.4
631.332	56001.96
631.687	56020.04
632.041	55854.39
632.396	56003.99
632.75	55795.41
633.104	55899.82
633.459	55792.02
633.813	55791.8
634.167	55765.58
634.521	55745.7
634.875	55723.1
635.229	55744.79
635.583	55675.87
635.937	55649.43
636.291	55655.75
636.645	55656.21
636.999	55600.16
637.352	55646.26
637.706	55505.93
638.06	55691.91
638.413	55606.72
638.767	55515.87
639.121	55606.04
639.474	55401.52
639.828	55456.89
640.181	55469.77
640.534	55487.62
640.888	55387.06
641.241	55282.43
641.594	55319.04
641.947	55400.39
642.301	55359.94
642.654	55460.05
643.007	55400.85
643.36	55330.56
643.713	55266.16
644.066	55460.96
644.419	55269.55
644.771	55040.18
645.124	54766.74
645.477	54762.44
645.83	54555.67
646.182	54551.83
646.535	54402
646.888	54571.49
647.24	54431.38
647.593	54574.43
647.945	54455.11
648.298	54273.87
648.65	54314.09
649.002	54286.07
649.355	54417.82
649.707	54269.8
650.059	54428.44
650.411	54768.55
650.763	54806.06
651.115	55061.42
651.467	54992.27
651.819	54982.78
652.171	54954.76
652.523	54906.4
652.875	54866.17
653.227	54745.95
653.578	54968.31
653.93	54885.38
654.282	54763.35
654.633	54658.27
654.985	54784.14
655.337	54733.07
655.688	54767.42
656.039	54868.66
656.391	54597.25
656.742	54716.57
657.094	54685.16
657.445	54790.69
657.796	54677.25
658.147	54631.6
658.498	54634.99
658.849	54721.32
659.2	54686.29
659.551	54570.13
659.902	54757.25
660.253	54650.58
660.604	54652.84
660.955	54557.03
661.306	54608.55
661.656	54518.38
662.007	54471.38
662.358	54494.65
662.708	54563.81
663.059	54580.98
663.409	54312.74
663.76	54513.64
664.11	54480.87
664.461	54439.74
664.811	54516.35
665.161	54540.76
665.511	54353.19
665.862	54433.41
666.212	54475.9
666.562	54510.7
666.912	54400.19
667.262	54398.16
667.612	54384.15
667.962	54401.1
668.312	54344.15
668.662	54406.52
669.011	54349.57
669.361	54304.6
669.711	54249.92
670.06	54294.43
670.41	54139.18
670.76	54183.02
671.109	54349.8
671.459	54197.71
671.808	54159.07
672.157	54220.76
672.507	53976.25
672.856	53994.1
673.205	54074.55
673.554	54073.65
673.904	53943.93
674.253	54112.07
674.602	54042.46
674.951	53540.1
675.3	53413.55
675.649	53877.72
675.998	53903.26
676.346	53854.9
676.695	53909.81
677.044	53669.59
677.393	53754.56
677.741	53864.16
678.09	53758.4
678.438	53666.65
678.787	53690.83
679.135	53586.43
679.484	53384.63
679.832	53609.48
680.181	53324.97
680.529	53477.73
680.877	53361.8
681.225	53353.22
681.573	53461.91
681.922	53240.9
682.27	53229.15
682.618	53175.14
682.966	53163.84
683.314	53083.84
683.661	53072.55
684.009	52781.93
684.357	52814.25
684.705	52753.23
685.053	52788.03
685.4	52764.98
685.748	52498.55
686.095	52533.8
686.443	52425.78
686.79	52308.27
687.138	52459
687.485	52384.88
687.832	52191.66
688.18	52254.71
688.527	52068.5
688.874	52084.55
689.221	51987.6
689.568	51911.45
689.915	51790.32
690.262	51718
690.609	51682.3
690.956	51569.76
691.303	51489.99
691.65	51347.17
691.997	51355.53
692.344	51138.58
692.69	51159.83
693.037	51079.15
693.383	50735.88
693.73	50962.77
694.077	50716
694.423	50719.84
694.769	50714.19
695.116	50512.61
695.462	50466.29
695.808	50391.26
696.155	50334.31
696.501	50126.86
696.847	50148.1
697.193	49945.4
697.539	50045.51
697.885	49715.8
698.231	49683.48
698.577	49684.84
698.923	49655.69
699.269	49436.93
699.614	49200.78
699.96	49246.66
700.306	49104.74
700.651	48994.46
700.997	48857.29
701.342	48866.78
701.688	48900.9
702.033	48674.92
702.379	48669.27
702.724	48511.99
703.069	48675.15
703.415	48107.7
703.76	48155.61
704.105	48186.12
704.45	48125.1
704.795	47929.63
705.14	47734.61
705.485	47653.03
705.83	47673.37
706.175	47606.25
706.52	47571.45
706.865	47337.55
707.209	47338.23
707.554	47175.07
707.899	47178.24
708.243	47084
708.588	47009.43
708.932	46698.93
709.277	46691.47
709.621	46787.51
709.966	46521.53
710.31	46536.22
710.654	46328.32
710.998	46393.4
711.342	46354.53
711.687	46191.14
712.031	46103.69
712.375	45908.67
712.719	45963.35
713.063	46026.4
713.407	46056.46
713.75	45810.14
714.094	45715.9
714.438	45464.38
714.782	45605.85
715.125	45331.96
715.469	45352.52
715.812	45115.69
716.156	45043.38
716.499	44938.52
716.843	45114.34
717.186	44875.47
717.53	45135.13
717.873	44916.83
718.216	44832.99
718.559	44568.36
718.902	44370.63
719.246	44496.05
719.589	44324.53
719.932	44242.04
720.275	44227.81
720.617	44160.92
720.96	44059.67
721.303	44231.87
721.646	44086.79
721.989	43769.06
722.331	44011.77
722.674	43795.95
723.016	43809.51
723.359	43670.31
723.701	43761.15
724.044	43497.43
724.386	43271
724.729	43559.12
725.071	43283.2
725.413	43253.37
725.755	43272.8
726.097	43047.27
726.439	42880.27
726.782	43041.62
727.124	43113.49
727.465	42845.02
727.807	42782.65
728.149	42722.31
728.491	42718.92
728.833	42764.79
729.175	42555.08
729.516	42447.51
729.858	42449.32
730.199	42634.85
730.541	42445.03
730.882	42397.57
731.224	42470.11
731.565	42159.84
731.906	42247.07
732.248	42261.76
732.589	42011.37
732.93	41694.99
733.271	41938.37
733.612	41829.23
733.953	42111.48
734.294	41538.84
734.635	41602.11
734.976	41760.53
735.317	41551.27
735.658	41420.87
735.999	41444.15
736.339	41367.54
736.68	41449.57
737.021	41259.07
737.361	41041.9
737.702	41348.11
738.042	41168.23
738.383	41101.33
738.723	41084.61
739.063	40909.02
739.404	41025.63
739.744	40914.9
740.084	40865.41
740.424	40870.38
740.764	40732.08
741.104	40750.84
741.444	40603.72
741.784	40508.58
742.124	40591.52
742.464	40479.88
742.804	40365.53
743.143	40356.72
743.483	40520.33
743.823	40211.87
744.162	40078.08
744.502	40152.66
744.841	39966
745.181	40070.85
745.52	39888.03
745.86	39972.78
746.199	39813.91
746.538	39896.39
746.877	39841.25
747.216	39810.07
747.556	39668.6
747.895	39670.41
748.234	39514.94
748.573	39477.87
748.911	39372.79
749.25	39388.84
749.589	39182.74
749.928	39229.07
750.267	39291.21
750.605	39081.05
750.944	38986.14
751.283	38921.73
751.621	38926.48
751.96	38902.07
752.298	38810.55
752.636	38674.51
752.975	38631.34
753.313	38450.78
753.651	38638.12
753.989	38434.29
754.327	38307.51
754.666	38065.03
755.004	38185.48
755.342	38251.92
755.679	38104.13
756.017	37906.62
756.355	38024.35
756.693	37810.35
757.031	37838.37
757.368	37645.83
757.706	37557.7
758.044	37415.78
758.381	37333.75
758.719	37203.58
759.056	37371.94
759.394	37145.96
759.731	36813.76
760.068	36967.66
760.405	36826.87
760.743	36607.22
761.08	36679.3
761.417	36488.8
761.754	36454.45
762.091	36433.21
762.428	36195.7
762.765	36003.39
763.102	36063.27
763.438	35867.8
763.775	35734.7
764.112	35955.03
764.449	35776.5
764.785	35482.5
765.122	35386.46
765.458	35284.31
765.795	35225.33
766.131	35228.04
766.467	35025.34
766.804	35053.58
767.14	34664.44
767.476	34795.06
767.812	34589.19
768.148	34538.12
768.485	34407.95
768.821	34334.28
769.157	34107.85
769.492	34126.15
769.828	33997.79
770.164	33765.71
770.5	33649.33
770.836	33629.44
771.171	33471.7
771.507	33409.79
771.842	33054.77
772.178	33052.05
772.513	33125.73
772.849	33017.71
773.184	32687.77
773.519	32755.79
773.855	32664.27
774.19	32429.7
774.525	32386.76
774.86	32325.97
775.195	32157.39
775.53	32179.54
775.865	31937.73
776.2	31696.16
776.535	31580.45
776.87	31474.02
777.205	31409.84
777.539	31381.14
777.874	31351.31
778.209	31050.3
778.543	30887.37
778.878	30961.26
779.212	30812.79
779.547	30547.04
779.881	30771.21
780.215	30390.88
780.55	30503.87
780.884	30246.48
781.218	30229.98
781.552	30302.75
781.886	30086.48
782.22	29841.97
782.554	29772.37
782.888	29565.37
783.222	29485.59
783.556	29220.97
783.889	29242.21
784.223	29053.06
784.557	28982.33
784.89	28973.52
785.224	28887.87
785.557	28662.79
785.891	28694.88
786.224	28598.84
786.558	28539.86
786.891	28401.78
787.224	28344.16
787.557	28155.23
787.891	28126.31
788.224	28074.56
788.557	27956.6
788.89	27865.3
789.223	27884.28
789.556	27736.26
789.888	27522.48
790.221	27534.91
790.554	27335.82
790.887	27190.97
791.219	27145.77
791.552	27014.25
791.884	26975.83
792.217	26914.14
792.549	26728.83
792.882	26663.97
793.214	26571.55
793.546	26623.07
793.879	26422.17
794.211	26313.93
794.543	26407.03
794.875	26219.69
795.207	26259.24
795.539	26009.3
795.871	26038.68
796.203	25888.18
796.535	25725.24
796.867	25653.15
797.198	25637.33
797.53	25572.93
797.862	25482.99
798.193	25345.82
798.525	25327.96
798.856	25315.99
799.188	24999.84
799.519	24939.5
799.85	24883.46
800.182	24811.37
800.513	24917.13
800.844	24636.46
801.175	24682.56
801.506	24698.38
801.837	24411.38
802.168	24509.45
802.499	24423.13
802.83	24297.93
803.161	24182.46
803.491	24184.04
803.822	24210.48
804.153	23937.27
804.483	23868.57
804.814	23756.03
805.145	23735.92
805.475	23749.7
805.805	23585.64
806.136	23625.64
806.466	23543.83
806.796	23538.41
807.126	23360.56
807.457	23304.97
807.787	23244.18
808.117	23197.62
808.447	23014.8
808.777	23252.54
809.107	23063.16
809.436	22979.1
809.766	22947.91
810.096	22737.3
810.426	22796.28
810.755	22643.74
811.085	22690.52
811.414	22594.7
811.744	22463.41
812.073	22400.81
812.403	22382.28
812.732	22316.07
813.061	22183.19
813.39	22177.76
813.719	22123.75
814.049	22231.32
814.378	21975.51
814.707	22020.71
815.036	21904.33
815.365	21820.49
815.693	21615.97
816.022	21659.59
816.351	21626.59
816.68	21516.09
817.008	21603.32
817.337	21362.87
817.665	21400.61
817.994	21374.62
818.322	21376.66
818.651	21249.88
818.979	21155.42
819.307	21372.36
819.636	21105.25
819.964	21063.67
820.292	21142.99
820.62	21107.28
820.948	20987.97
821.276	21116.78
821.604	21028.19
821.932	20961.98
822.259	21001.07
822.587	20895.09
822.915	20926.95
823.243	21096.89
823.57	20915.88
823.898	20969.66
824.225	20822.55
824.553	20919.72
824.88	20886.27
825.207	20993.61
825.535	20872.26
825.862	20902.54
826.189	20847.18
826.516	20915.2
826.843	21008.53
827.17	20933.05
827.497	20887.63
827.824	20916.1
828.151	20968.53
828.478	20884.24
828.805	20933.96
829.131	20779.16
829.458	20784.81
829.785	20814.41
830.111	20794.07
830.438	20844.47
830.764	20816.9
831.09	20795.88
831.417	20602.66
831.743	20736.67
832.069	20714.98
832.395	20661.19
832.722	20802.89
833.048	20580.52
833.374	20621.2
833.7	20561.99
834.026	20649.44
834.351	20640.63
834.677	20625.71
835.003	20578.94
835.329	20658.03
835.654	20638.14
835.98	20421.65
836.306	20496
836.631	20343.24
836.956	20459.17
837.282	20471.59
837.607	20205.84
837.932	20320.86
838.258	20283.58
838.583	20303.46
838.908	20206.52
839.233	20128.1
839.558	20118.38
839.883	20164.94
840.208	20022.57
840.533	19899.63
840.858	19985.73
841.182	20000.42
841.507	19966.75
841.832	19823.93
842.156	19893.98
842.481	19772.18
842.805	19751.84
843.13	19748
843.454	19714.78
843.778	19563.37
844.103	19554.1
844.427	19437.5
844.751	19510.26
845.075	19361.12
845.399	19372.41
845.723	19310.5
846.047	19350.27
846.371	19045.19
846.695	18978.07
847.019	18902.82
847.343	18909.38
847.666	18788.93
847.99	18793.67
848.313	18744.18
848.637	18622.83
848.96	18557.52
849.284	18577.63
849.607	18340.8
849.931	18252.67
850.254	18120.92
850.577	18122.28
850.9	18026.91
851.223	17945.11
851.546	17892.91
851.869	17740.14
852.192	17934.26
852.515	17760.25
852.838	17583.99
853.161	17587.6
853.483	17503.54
853.806	17458.57
854.129	17310.1
854.451	17346.48
854.774	17292.24
855.096	17206.37
855.419	17164.79
855.741	17152.13
856.063	17049.09
856.385	16947.85
856.708	16897
857.03	16813.16
857.352	16889.09
857.674	16744.91
857.996	16721.86
858.318	16629.44
858.64	16576.33
858.961	16627.4
859.283	16573.39
859.605	16448.42
859.926	16430.8
860.248	16421.98
860.57	16351.02
860.891	16342.21
861.212	16340.63
861.534	16266.28
861.855	16145.38
862.176	16217.02
862.498	16251.59
862.819	16188.77
863.14	16047.76
863.461	16021.54
863.782	16032.16
864.103	16002.56
864.424	15934.31
864.745	15959.4
865.065	15885.05
865.386	15827.42
865.707	15797.37
866.027	15811.83
866.348	15799.17
866.668	15797.37
866.989	15603.93
867.309	15564.6
867.63	15708.56
867.95	15697.03
868.27	15542.01
868.59	15574.77
868.91	15488.9
869.23	15426.08
869.55	15413.42
869.87	15475.57
870.19	15465.85
870.51	15396.47
870.83	15449.13
871.15	15312.41
871.469	15318.28
871.789	15325.97
872.109	15337.72
872.428	15116.48
872.748	15210.04
873.067	15222.02
873.386	15264.73
873.706	15128.91
874.025	15196.25
874.344	15074.67
874.663	15119.19
874.982	15073.32
875.301	15086.43
875.62	14966.65
875.939	14927.56
876.258	14980.89
876.577	14888.01
876.896	14887.79
877.214	14799.43
877.533	14868.8
877.852	14771.63
878.17	14836.26
878.489	14865.87
878.807	14733.21
879.125	14794.91
879.444	14715.59
879.762	14641.47
880.08	14606.44
880.398	14550.39
880.716	14581.35
881.034	14605.99
881.352	14563.73
881.67	14473.79
881.988	14452.77
882.306	14463.16
882.624	14504.07
882.941	14322.83
883.259	14255.94
883.577	14287.35
883.894	14257.52
884.212	14275.83
884.529	14202.61
884.846	14165.77
885.164	14097.75
885.481	14014.14
885.798	14115.15
886.115	13960.81
886.432	14006.91
886.75	13928.94
887.067	13917.64
887.383	13957.19
887.7	13942.95
888.017	13766.69
888.334	13815.72
888.651	13712.9
888.967	13673.13
889.284	13623.19
889.6	13663.19
889.917	13562.62
890.233	13602.4
890.55	13592.91
890.866	13584.32
891.182	13450.76
891.498	13353.82
891.815	13352.69
892.131	13344.1
892.447	13297.09
892.763	13174.16
893.079	13189.07
893.395	13166.48
893.71	13100.94
894.026	13058.23
894.342	13023.65
894.657	12917.44
894.973	12907.05
895.289	12848.29
895.604	12910.21
895.92	12902.53
896.235	12803.1
896.55	12766.49
896.865	12691.69
897.181	12670.67
897.496	12711.12
897.811	12574.85
898.126	12552.93
898.441	12466.83
898.756	12467.51
899.071	12350.68
899.386	12395.65
899.7	12280.17
900.015	12289.21
900.33	12167.18
900.644	12197.01
900.959	12154.3
901.273	12152.72
901.588	12051.02
901.902	12002.89
902.216	11899.62
902.531	11967.86
902.845	11895.1
903.159	11779.39
903.473	11730.58
903.787	11691.03
904.101	11617.59
904.415	11550.47
904.729	11575.33
905.042	11553.18
905.356	11439.29
905.67	11489.46
905.984	11391.83
906.297	11422.57
906.611	11299.18
906.924	11339.18
907.237	11247.66
907.551	11254.66
907.864	11103.93
908.177	11128.56
908.491	11026.87
908.804	11001.56
909.117	10968.12
909.43	10902.58
909.743	10844.95
910.056	10869.59
910.368	10752.98
910.681	10729.7
910.994	10680.67
911.307	10629.82
911.619	10516.15
911.932	10632.53
912.244	10481.35
912.557	10432.54
912.869	10421.69
913.181	10349.83
913.494	10406.32
913.806	10250.17
914.118	10268.47
914.43	10164.29
914.742	10172.43
915.054	10102.38
915.366	10044.75
915.678	10003.85
915.99	9974.24
916.302	9923.17
916.613	9926.11
916.925	9897.86
917.236	9813.8
917.548	9771.31
917.859	9759.56
918.171	9656.74
918.482	9611.09
918.794	9675.27
919.105	9588.49
919.416	9535.84
919.727	9501.26
920.038	9472.56
920.349	9396.18
920.66	9348.05
920.971	9373.58
921.282	9303.3
921.593	9194.15
921.903	9117.99
922.214	9166.36
922.525	9120.03
922.835	9092.68
923.146	9014.27
923.456	8967.26
923.767	8958.68
924.077	8921.62
924.387	8854.05
924.697	8877.78
925.008	8842.75
925.318	8813.37
925.628	8747.83
925.938	8734.5
926.248	8644.79
926.558	8584
926.867	8573.38
927.177	8526.6
927.487	8500.38
927.796	8429.43
928.106	8410.67
928.416	8409.31
928.725	8373.16
929.034	8303.33
929.344	8355.3
929.653	8250.45
929.962	8181.07
930.271	8162.31
930.581	8105.59
930.89	8064.24
931.199	8040.51
931.508	8029.44
931.817	7999.83
932.125	7995.99
932.434	7940.62
932.743	7854.75
933.051	7818.82
933.36	7810.91
933.669	7813.62
933.977	7745.83
934.286	7745.15
934.594	7686.62
934.902	7655.43
935.21	7576.79
935.519	7603.01
935.827	7546.51
936.135	7415.44
936.443	7418.6
936.751	7419.96
937.059	7430.13
937.367	7382.9
937.674	7378.38
937.982	7293.41
938.29	7166.86
938.597	7236.46
938.905	7226.07
939.213	7127.09
939.52	7127.31
939.827	7126.86
940.135	7058.61
940.442	7079.4
940.749	6992.85
941.056	7047.54
941.363	6918.96
941.67	6900.88
941.977	6891.16
942.284	6890.48
942.591	6889.13
942.898	6768.45
943.205	6740.43
943.511	6753.99
943.818	6710.37
944.125	6649.13
944.431	6617.95
944.738	6699.08
945.044	6606.65
945.35	6565.52
945.657	6537.05
945.963	6516.71
946.269	6465.41
946.575	6445.07
946.881	6451.85
947.187	6428.12
947.493	6335.24
947.799	6342.02
948.105	6245.98
948.41	6275.13
948.716	6226.09
949.022	6181.35
949.327	6191.29
949.633	6163.5
949.938	6128.47
950.244	6100.45
950.549	6075.36
950.854	6046.21
951.16	5996.95
951.465	6043.05
951.77	5945.42
952.075	5901.13
952.38	5923.05
952.685	5922.82
952.99	5871.07
953.294	5823.17
953.599	5810.96
953.904	5777.52
954.209	5709.95
954.513	5747.91
954.818	5687.35
955.122	5712.21
955.426	5674.47
955.731	5655.71
956.035	5537.07
956.339	5548.37
956.643	5575.71
956.948	5497.52
957.252	5492.55
957.556	5468.15
957.86	5438.77
958.163	5392.44
958.467	5440.13
958.771	5367.36
959.075	5349.51
959.378	5315.38
959.682	5342.27
959.985	5253.92
960.289	5307.93
960.592	5236.74
960.896	5180.47
961.199	5143.41
961.502	5189.51
961.805	5149.96
962.108	5072.45
962.411	5031.1
962.714	5035.39
963.017	5060.47
963.32	5055.95
963.623	4982.96
963.926	4962.62
964.228	4908.61
964.531	4934.83
964.833	4910.65
965.136	4855.28
965.438	4875.17
965.741	4849.86
966.043	4803.76
966.345	4810.76
966.648	4730.31
966.95	4742.97
967.252	4720.82
967.554	4665.68
967.856	4708.85
968.158	4638.56
968.46	4658
968.761	4621.16
969.063	4605.12
969.365	4575.29
969.666	4518.34
969.968	4501.39
970.269	4519.02
970.571	4501.62
970.872	4499.59
971.174	4444.67
971.475	4456.65
971.776	4395.63
972.077	4420.94
972.378	4394.05
972.679	4374.84
972.98	4324
973.281	4351.11
973.582	4284.22
973.883	4306.6
974.183	4260.5
974.484	4232.7
974.785	4215.75
975.085	4207.16
975.386	4223.89
975.686	4153.83
975.986	4138.01
976.287	4126.94
976.587	4076.77
976.887	4056.88
977.187	4095.98
977.487	4026.38
977.787	4004.46
978.087	3979.6
978.387	3969.43
978.687	4033.38
978.987	3951.58
979.286	3918.36
979.586	3921.3
979.885	3905.7
980.185	3886.95
980.484	3848.98
980.784	3805.14
981.083	3823.44
981.382	3816.21
981.682	3822.09
981.981	3757.68
982.28	3762.43
982.579	3735.76
982.878	3742.32
983.177	3709.78
983.475	3726.5
983.774	3657.8
984.073	3641.08
984.372	3647.18
984.67	3608.99
984.969	3585.26
985.267	3572.15
985.566	3584.81
985.864	3538.25
986.162	3499.84
986.461	3520.4
986.759	3545.71
987.057	3460.06
987.355	3463.45
987.653	3441.76
987.951	3420.07
988.249	3453.06
988.547	3401.53
988.844	3424.36
989.142	3410.35
989.44	3380.97
989.737	3355.89
990.035	3318.37
990.332	3300.52
990.63	3289.67
990.927	3283.57
991.224	3271.59
991.521	3270.92
991.819	3253.97
992.116	3211.26
992.413	3184.37
992.71	3174.87
993.006	3129.9
993.303	3133.52
993.6	3150.92
993.897	3089
994.193	3093.52
994.49	3107.31
994.787	3054.65
995.083	3023.47
995.379	2994.77
995.676	3033.63
995.972	3009.68
996.268	2991.6
996.565	2954.09
996.861	2947.99
997.157	2934.2
997.453	2943.02
997.749	2929
998.044	2932.39
998.34	2889.91
998.636	2832.06
998.932	2829.35
999.227	2827.76
999.523	2819.63
999.818	2799.06
1000.114	2789.8
1000.409	2751.61
1000.704	2724.94
1001	2746.64
1001.295	2718.84
1001.59	2705.73
1001.885	2707.54
1002.18	2688.33
1002.475	2667.09
1002.77	2625.28
1003.065	2630.26
1003.359	2611.05
1003.654	2600.88
1003.949	2590.26
1004.243	2555.23
1004.538	2578.28
1004.832	2519.3
1005.127	2531.05
1005.421	2480.66
1005.715	2477.72
1006.009	2463.25
1006.304	2528.11
1006.598	2452.18
1006.892	2449.24
1007.186	2464.38
1007.48	2420.77
1007.773	2399.53
1008.067	2381.45
1008.361	2357.49
1008.655	2394.1
1008.948	2350.72
1009.242	2323.82
1009.535	2311.85
1009.829	2284.5
1010.122	2282.24
1010.415	2285.63
1010.708	2247.67
1011.001	2231.17
1011.295	2218.97
1011.588	2215.13
1011.881	2199.08
1012.173	2173.77
1012.466	2183.71
1012.759	2162.47
1013.052	2139.65
1013.344	2124.05
1013.637	2146.65
1013.93	2137.84
1014.222	2098.74
1014.514	2103.04
1014.807	2078.41
1015.099	2054
1015.391	2036.37
1015.683	2032.98
1015.976	2039.99
1016.268	2017.16
1016.56	2000.22
1016.851	1990.27
1017.143	1976.04
1017.435	1987.56
1017.727	1945.75
1018.018	1937.84
1018.31	1938.3
1018.602	1925.64
1018.893	1891.52
1019.185	1873.67
1019.476	1872.99
1019.767	1841.12
1020.058	1826.66
1020.35	1828.02
1020.641	1805.42
1020.932	1797.96
1021.223	1783.05
1021.514	1784.63
1021.804	1755.93
1022.095	1735.14
1022.386	1699.21
1022.677	1750.96
1022.967	1720.68
1023.258	1705.99
1023.548	1696.49
1023.839	1673.9
1024.129	1667.34
1024.419	1667.8
1024.709	1632.77
1025	1655.14
1025.29	1600
1025.58	1607.91
1025.87	1587.35
1026.16	1581.92
1026.449	1602.03
1026.739	1561.58
1027.029	1567.68
1027.319	1571.07
1027.608	1552.54
1027.898	1504.86
1028.187	1516.16
1028.477	1528.82
1028.766	1475.94
1029.055	1470.51
1029.344	1461.02
1029.634	1448.82
1029.923	1448.59
1030.212	1435.03
1030.501	1454.92
1030.79	1426.9
1031.078	1431.19
1031.367	1416.28
1031.656	1385.09
1031.945	1387.8
1032.233	1376.96
1032.522	1375.15
1032.81	1360.68
1033.099	1352.1
1033.387	1338.31
1033.675	1329.27
1033.963	1340.35
1034.251	1291.53
1034.54	1283.62
1034.828	1297.18
1035.116	1270.74
1035.403	1255.83
1035.691	1251.31
1035.979	1236.85
1036.267	1252.44
1036.554	1235.26
1036.842	1231.65
1037.129	1205.66
1037.417	1213.57
1037.704	1204.08
1037.992	1218.09
1038.279	1176.73
1038.566	1150.52
1038.853	1150.52
1039.14	1150.52
