Data from white_poster_card_FLMS001491_00028.txt Node
Date: Wed Feb 08 11:51:18 GMT 2017
User: dcchb
Spectrometer: FLMS00149
Trigger mode: 0
Integration Time (sec): 2.000000E-2
Scans to average: 10
Electric dark correction enabled: true
Nonlinearity correction enabled: false
Boxcar width: 0
XAxis mode: Wavelengths
Number of Pixels in Spectrum: 2048
>>>>>Begin Spectral Data<<<<<
341.393	-24.12
341.776	-24.12
342.16	-24.12
342.543	-53.5
342.927	-79.94
343.31	-70.9
343.693	-57.57
344.077	-82.88
344.46	-41.75
344.843	-66.16
345.226	-48.76
345.61	-34.74
345.993	-3.56
346.376	-32.71
346.759	16.1
347.142	25.59
347.525	35.08
347.908	69.66
348.291	82.31
348.674	77.57
349.057	132.71
349.44	120.96
349.823	148.53
350.206	162.76
350.588	193.72
350.971	194.63
351.354	215.64
351.737	227.85
352.119	266.49
352.502	264.91
352.884	277.56
353.267	285.47
353.65	294.29
354.032	305.13
354.414	286.15
354.797	314.62
355.179	324.57
355.562	328.18
355.944	299.94
356.326	319.14
356.709	337.22
357.091	358.24
357.473	358.47
357.855	329.54
358.238	341.52
358.62	349.43
359.002	330.67
359.384	325.7
359.766	327.96
360.148	313.72
360.53	364.57
360.912	341.52
361.294	339.71
361.676	335.19
362.057	320.73
362.439	332.93
362.821	351.23
363.203	329.31
363.584	323.44
363.966	303.55
364.348	329.09
364.729	328.86
365.111	323.44
365.493	322.08
365.874	327.96
366.256	321.63
366.637	314.4
367.019	330.22
367.4	315.98
367.781	317.11
368.163	333.16
368.544	297.45
368.925	309.88
369.306	323.44
369.688	336.77
370.069	299.94
370.45	303.1
370.831	287.73
371.212	306.04
371.593	309.43
371.974	307.17
372.355	312.36
372.736	322.31
373.117	300.84
373.498	311.69
373.879	323.66
374.26	306.26
374.641	327.96
375.021	325.25
375.402	352.36
375.783	322.76
376.163	336.09
376.544	344
376.925	321.18
377.305	318.92
377.686	350.78
378.066	348.3
378.447	340.16
378.827	350.56
379.208	330.9
379.588	328.18
379.968	323.44
380.349	360.05
380.729	339.26
381.109	346.71
381.489	340.16
381.87	325.92
382.25	341.06
382.63	341.97
383.01	331.12
383.39	340.39
383.77	353.72
384.15	354.85
384.53	334.28
384.91	348.07
385.29	358.92
385.67	350.1
386.049	373.61
386.429	358.69
386.809	373.15
387.189	339.03
387.568	362.53
387.948	366.6
388.328	372.7
388.707	362.53
389.087	365.7
389.466	380.61
389.846	363.66
390.225	368.41
390.605	399.14
390.984	385.36
391.363	381.52
391.743	380.61
392.122	379.93
392.501	394.62
392.881	397.79
393.26	393.72
393.639	398.46
394.018	402.53
394.397	396.43
394.776	385.13
395.155	415.19
395.534	405.02
395.913	415.86
396.292	424.45
396.671	408.63
397.05	406.6
397.429	413.38
397.808	419.03
398.186	433.04
398.565	415.19
398.944	426.94
399.323	459.93
399.701	429.65
400.08	443.21
400.458	445.47
400.837	460.84
401.215	437.33
401.594	455.64
401.972	436.2
402.351	454.28
402.729	439.14
403.107	448.41
403.486	465.35
403.864	479.82
404.242	462.64
404.62	468.29
404.999	465.35
405.377	484.11
405.755	472.36
406.133	489.76
406.511	494.51
406.889	502.87
407.267	501.29
407.645	499.93
408.023	520.95
408.401	523.21
408.779	542.64
409.156	556.65
409.534	543.09
409.912	566.82
410.29	567.27
410.667	581.28
411.045	575.41
411.422	604.11
411.8	613.37
412.178	608.63
412.555	615.63
412.933	641.4
413.31	661.96
413.687	671.68
414.065	666.48
414.442	689.98
414.819	715.74
415.197	701.51
415.574	717.78
415.951	760.04
416.328	756.42
416.705	767.49
417.082	784.22
417.46	791.22
417.837	822.41
418.214	801.39
418.591	842.07
418.967	858.79
419.344	859.47
419.721	883.2
420.098	882.97
420.475	913.48
420.852	904.89
421.228	939.01
421.605	929.07
421.982	945.79
422.358	975.4
422.735	986.47
423.111	988.51
423.488	1011.1
423.864	1015.62
424.241	1053.36
424.617	1059.92
424.994	1065.57
425.37	1080.71
425.746	1082.29
426.123	1089.75
426.499	1108.05
426.875	1162.51
427.251	1139.01
427.627	1165.22
428.003	1196.64
428.379	1205
428.756	1211.78
429.132	1233.24
429.507	1272.11
429.883	1236.18
430.259	1292.23
430.635	1293.58
431.011	1314.6
431.387	1334.71
431.763	1362.05
432.138	1359.57
432.514	1421.49
432.89	1380.59
433.265	1445.89
433.641	1428.27
434.016	1452.22
434.392	1507.81
434.767	1512.33
435.143	1487.02
435.518	1555.95
435.894	1543.97
436.269	1573.8
436.644	1630.97
437.02	1596.17
437.395	1613.8
437.77	1689.96
438.145	1666.68
438.52	1711.65
438.895	1699.9
439.271	1704.42
439.646	1792.33
440.021	1752.78
440.395	1740.58
440.77	1772.89
441.145	1776.96
441.52	1800.01
441.895	1801.82
442.27	1802.95
442.645	1842.95
443.019	1849.73
443.394	1851.99
443.769	1861.7
444.143	1861.93
444.518	1906.67
444.892	1903.96
445.267	1910.06
445.641	1925.43
446.016	1927.24
446.39	1920.68
446.764	1953
447.139	1963.62
447.513	1954.81
447.887	1985.54
448.262	2003.85
448.636	2019.66
449.01	2034.13
449.384	2071.41
449.758	2061.92
450.132	2091.53
450.506	2104.86
450.88	2124.97
451.254	2125.42
451.628	2141.92
452.002	2171.3
452.376	2153.45
452.75	2211.75
453.123	2211.52
453.497	2266.21
453.871	2273.9
454.244	2324.52
454.618	2344.85
454.992	2341.46
455.365	2362.48
455.739	2411.29
456.112	2434.57
456.486	2444.51
456.859	2451.52
457.232	2541.91
457.606	2537.84
457.979	2547.33
458.352	2601.8
458.725	2624.85
459.099	2619.65
459.472	2689.48
459.845	2715.69
460.218	2745.3
460.591	2757.27
460.964	2771.51
461.337	2779.87
461.71	2872.3
462.083	2909.81
462.456	2878.4
462.829	2936.7
463.201	2980.32
463.574	3002.24
463.947	3033.88
464.32	3099.86
464.692	3081.56
465.065	3130.6
465.438	3128.11
465.81	3247.88
466.183	3239.07
466.555	3307.09
466.928	3334.21
467.3	3325.84
467.672	3400.87
468.045	3493.52
468.417	3469.12
468.789	3527.42
469.161	3527.65
469.534	3634.31
469.906	3674.08
470.278	3697.36
470.65	3732.16
471.022	3789.34
471.394	3820.3
471.766	3879.95
472.138	3931.48
472.51	4005.83
472.882	4099.38
473.253	4118.14
473.625	4155.43
473.997	4272.26
474.369	4269.55
474.74	4317.91
475.112	4411.92
475.484	4404.69
475.855	4507.06
476.227	4567.62
476.598	4720.16
476.97	4731.91
477.341	4830.21
477.713	4893.49
478.084	4926.48
478.455	5083.31
478.827	5085.57
479.198	5220.94
479.569	5210.54
479.94	5362.4
480.311	5396.52
480.682	5517.2
481.053	5679.46
481.424	5757.42
481.795	5810.75
482.166	5895.49
482.537	5966.68
482.908	6076.28
483.279	6127.58
483.65	6254.13
484.021	6323.96
484.391	6381.36
484.762	6457.51
485.133	6540
485.503	6639.66
485.874	6793.55
486.244	6868.12
486.615	6942.47
486.985	7052.3
487.356	7186.31
487.726	7256.36
488.097	7350.37
488.467	7430.37
488.837	7491.84
489.207	7651.83
489.578	7769.34
489.948	7760.76
490.318	7957.14
490.688	8018.15
491.058	8133.18
491.428	8211.37
491.798	8307.41
492.168	8464.69
492.538	8514.63
492.908	8588.98
493.278	8716.89
493.648	8755.98
494.017	8890.67
494.387	8902.65
494.757	8992.59
495.126	9120.27
495.496	9106.03
495.866	9209.31
496.235	9332.69
496.605	9383.99
496.974	9458.56
497.344	9549.41
497.713	9630.76
498.082	9681.38
498.452	9765.22
498.821	9844.77
499.19	9882.96
499.559	10038.66
499.928	10043.41
500.298	10115.04
500.667	10246.34
501.036	10233.69
501.405	10315.04
501.774	10311.88
502.143	10459.44
502.512	10522.49
502.88	10617.18
503.249	10576.73
503.618	10726.78
503.987	10807.91
504.356	10813.56
504.724	10920.22
505.093	10985.08
505.462	11042.93
505.83	11095.58
506.199	11221.23
506.567	11340.78
506.936	11336.26
507.304	11477.49
507.672	11621.22
508.041	11671.16
508.409	11772.85
508.777	11846.52
509.145	11855.79
509.514	11943.7
509.882	12099.4
510.25	12176.91
510.618	12174.43
510.986	12223.92
511.354	12358.6
511.722	12455.1
512.09	12629.1
512.458	12568.99
512.826	12790
513.193	12894.86
513.561	12798.82
513.929	12982.54
514.297	13075.87
514.664	13157.45
515.032	13224.12
515.4	13432.25
515.767	13436.99
516.135	13616.2
516.502	13488.06
516.869	13717.21
517.237	13783.2
517.604	13823.2
517.972	13952.23
518.339	14002.4
518.706	14091.44
519.073	14147.93
519.44	14330.75
519.808	14543.18
520.175	14486.46
520.542	14649.61
520.909	14783.17
521.276	14780.01
521.643	14988.14
522.009	15047.57
522.376	15156.72
522.743	15318.52
523.11	15380.9
523.477	15530.04
523.843	15730.26
524.21	15830.6
524.577	15966.64
524.943	16063.59
525.31	16115.79
525.676	16309.23
526.043	16448.66
526.409	16574.76
526.776	16707.41
527.142	16734.76
527.508	16908.99
527.874	16976.79
528.241	17077.35
528.607	17149.44
528.973	17419.94
529.339	17331.13
529.705	17602.53
530.071	17657.22
530.437	17777.67
530.803	18000.26
531.169	17995.06
531.535	17964.1
531.901	18073.48
532.267	18059.47
532.632	18316.64
532.998	18399.12
533.364	18510.53
533.73	18558.44
534.095	18705.33
534.461	18768.38
534.826	18828.26
535.192	18953.91
535.557	19120.46
535.923	19160
536.288	19211.08
536.653	19294.69
537.019	19288.59
537.384	19444.07
537.749	19585.08
538.114	19511.18
538.479	19572.65
538.845	19643.61
539.21	19778.07
539.575	19841.79
539.94	19933.77
540.305	20122.01
540.67	20025.07
541.034	20047.89
541.399	20194.1
541.764	20234.78
542.129	20362.01
542.494	20403.14
542.858	20616.24
543.223	20486.52
543.587	20769.91
543.952	20728.78
544.316	20764.03
544.681	20789.11
545.045	20979.39
545.41	21057.13
545.774	21014.19
546.138	21171.03
546.503	21215.77
546.867	21255.54
547.231	21383
547.595	21458.93
547.959	21496.67
548.324	21584.8
548.688	21580.96
549.052	21710.67
549.416	21888.75
549.779	21847.39
550.143	21994.73
550.507	22111.57
550.871	22095.97
551.235	22053.26
551.599	22312.69
551.962	22375.29
552.326	22396.53
552.689	22552.23
553.053	22484.44
553.417	22597.43
553.78	22876.52
554.143	22843.52
554.507	22851.66
554.87	22982.28
555.234	23331.19
555.597	23078.09
555.96	23349.95
556.323	23418.2
556.686	23465.43
557.05	23646.44
557.413	23528.93
557.776	23620.23
558.139	23950.61
558.502	23958.97
558.865	23965.3
559.228	24233.09
559.59	24293.88
559.953	24380.21
560.316	24633.08
560.679	24516.7
561.041	24825.62
561.404	24938.61
561.767	25019.51
562.129	24994.65
562.492	25174.54
562.854	25260.18
563.217	25327.53
563.579	25443.23
563.941	25553.73
564.304	25675.31
564.666	25884.8
565.028	25906.49
565.39	25916.44
565.753	26115.08
566.115	26337.22
566.477	26311.68
566.839	26379.48
567.201	26563.2
567.563	26581.73
567.925	26862.85
568.287	26816.75
568.648	26844.77
569.01	27220.58
569.372	27228.49
569.734	27108.95
570.095	27392.1
570.457	27469.39
570.819	27554.59
571.18	27541.03
571.542	27806.78
571.903	27823.96
572.265	27987.57
572.626	27972.88
572.987	28114.57
573.349	28145.76
573.71	28301.23
574.071	28459.2
574.432	28469.36
574.794	28616.03
575.155	28592.98
575.516	28463.94
575.877	28597.27
576.238	28753.42
576.599	28827.1
576.96	28867.09
577.32	28826.19
577.681	29009.92
578.042	29021.21
578.403	29087.88
578.763	29100.99
579.124	29092.62
579.485	29211.04
579.845	29244.26
580.206	29212.17
580.566	29310.02
580.927	29490.58
581.287	29464.37
581.648	29293.3
582.008	29389.57
582.368	29411.03
582.728	29504.82
583.089	29401.54
583.449	29511.82
583.809	29440.19
584.169	29624.81
584.529	29609.22
584.889	29750.46
585.249	29693.51
585.609	29525.16
585.969	29680.41
586.329	29671.82
586.688	29592.5
587.048	29752.27
587.408	29531.94
587.768	29660.97
588.127	29519.73
588.487	29517.25
588.846	29772.61
589.206	29574.19
589.565	29592.27
589.925	29749.78
590.284	29715.21
590.643	29718.82
591.003	29809.89
591.362	29834.98
591.721	29788.43
592.08	29738.26
592.44	29947.29
592.799	29851.47
593.158	29867.52
593.517	29896.45
593.876	29891.02
594.235	29850.8
594.593	29917.24
594.952	30078.59
595.311	29811.7
595.67	29927.41
596.029	30127.63
596.387	30116.33
596.746	30079.49
597.104	30077.46
597.463	29921.3
597.822	30116.78
598.18	29910.46
598.538	29974.64
598.897	30183.9
599.255	29980.06
599.613	30341.63
599.972	30235.19
600.33	30240.62
600.688	30086.95
601.046	30337.56
601.404	30468.41
601.762	30397.9
602.12	30421.18
602.478	30475.87
602.836	30432.93
603.194	30306.15
603.552	30418.69
603.91	30282.2
604.268	30436.54
604.625	30429.09
604.983	30437.9
605.341	30436.77
605.698	30503.66
606.056	30629.76
606.413	30587.95
606.771	30709.31
607.128	30714.96
607.485	30567.16
607.843	30617.1
608.2	30823.2
608.557	30808.29
608.914	30709.31
609.272	30992.01
609.629	30857.78
609.986	31051.67
610.343	30920.37
610.7	31141.84
611.057	31200.14
611.414	31090.76
611.771	31101.16
612.127	31201.5
612.484	31276.75
612.841	31347.93
613.198	31234.94
613.554	31297.54
613.911	31457.31
614.267	31366.46
614.624	31408.72
614.98	31363.75
615.337	31607.14
615.693	31520.81
616.05	31416.18
616.406	31703.18
616.762	31507.25
617.118	31503.86
617.475	31542.73
617.831	31711.77
618.187	31538.21
618.543	31650.3
618.899	31858.2
619.255	31866.11
619.611	31762.61
619.967	31810.97
620.323	31936.84
620.678	31717.87
621.034	31819.11
621.39	31792.89
621.746	31698.43
622.101	31997.18
622.457	31771.65
622.812	31890.07
623.168	31902.49
623.523	31909.95
623.879	31921.25
624.234	31708.15
624.589	31898.65
624.945	31797.41
625.3	31936.62
625.655	31805.32
626.01	31779.79
626.365	31803.74
626.72	31891.42
627.075	31771.42
627.43	31905.21
627.785	31689.62
628.14	31696.85
628.495	31856.62
628.85	31843.96
629.205	31585.67
629.559	31873.79
629.914	31686.23
630.269	31838.99
630.623	31611.2
630.978	31628.15
631.332	31710.18
631.687	31853.91
632.041	31414.6
632.396	31570.07
632.75	31442.62
633.104	31597.87
633.459	31439.68
633.813	31291.21
634.167	31415.95
634.521	31319.01
634.875	31364.2
635.229	31268.39
635.583	31107.04
635.937	31153.36
636.291	31065
636.645	31172.12
636.999	31005.57
637.352	31212.57
637.706	30855.97
638.06	30998.11
638.413	30925.12
638.767	30906.81
639.121	30863.2
639.474	30670.21
639.828	30671.34
640.181	30709.08
640.534	30713.15
640.888	30677.67
641.241	30426.38
641.594	30452.36
641.947	30600.83
642.301	30478.58
642.654	30474.74
643.007	30513.6
643.36	30502.53
643.713	30341.86
644.066	30546.82
644.419	30211.92
644.771	30074.97
645.124	29796.79
645.477	29805.83
645.83	29552.27
646.182	29511.37
646.535	29351.6
646.888	29350.7
647.24	29305.27
647.593	29319.74
647.945	29234.32
648.298	29159.29
648.65	29067.09
649.002	29094.43
649.355	29152.51
649.707	29047.2
650.059	29220.53
650.411	29515.21
650.763	29504.59
651.115	29889.21
651.467	29690.35
651.819	29714.98
652.171	29706.62
652.523	29566.28
652.875	29547.3
653.227	29407.19
653.578	29649.9
653.93	29562.22
654.282	29453.07
654.633	29287.65
654.985	29314.31
655.337	29373.75
655.688	29428.89
656.039	29425.5
656.391	29220.76
656.742	29365.61
657.094	29341.88
657.445	29318.38
657.796	29266.86
658.147	29298.27
658.498	29202.68
658.849	29231.38
659.2	29150.93
659.551	29056.02
659.902	29138.5
660.253	29146.86
660.604	29136.24
660.955	29024.38
661.306	29128.1
661.656	28945.51
662.007	29055.11
662.358	29025.28
662.708	28982.8
663.059	28870.71
663.409	28702.58
663.76	28960.42
664.11	28960.2
664.461	28944.61
664.811	28821.22
665.161	28941.89
665.511	28818.28
665.862	28827.77
666.212	28830.71
666.562	28934.89
666.912	28756.59
667.262	28797.04
667.612	28860.77
667.962	28785.97
668.312	28834.1
668.662	28849.92
669.011	28733.76
669.361	28635.91
669.711	28697.38
670.06	28624.39
670.41	28578.74
670.76	28536.93
671.109	28592.07
671.459	28589.14
671.808	28552.75
672.157	28585.07
672.507	28378.75
672.856	28462.58
673.205	28391.63
673.554	28498.29
673.904	28314.57
674.253	28498.97
674.602	28297.17
674.951	28025.53
675.3	27979.66
675.649	28315.47
675.998	28329.48
676.346	28273.44
676.695	28310.27
677.044	28151.63
677.393	28209.94
677.741	28287.45
678.09	28182.82
678.438	28118.87
678.787	28230.73
679.135	28159.99
679.484	27858.53
679.832	28020.56
680.181	27945.99
680.529	28008.36
680.877	27855.37
681.225	27848.36
681.573	28005.65
681.922	27673.91
682.27	27640.69
682.618	27666.22
682.966	27576.96
683.314	27591.2
683.661	27556.85
684.009	27374.48
684.357	27351.65
684.705	27393.69
685.053	27370.18
685.4	27295.61
685.748	27224.88
686.095	27121.6
686.443	27141.04
686.79	26995.96
687.138	26972.23
687.485	27120.02
687.832	26979.69
688.18	26982.4
688.527	26869.41
688.874	26743.08
689.221	26711.44
689.568	26654.27
689.915	26568.85
690.262	26673.03
690.609	26408.85
690.956	26309.87
691.303	26352.58
691.65	26250.89
691.997	26152.36
692.344	26063.33
692.69	26092.03
693.037	26172.25
693.383	25721.87
693.73	25941.75
694.077	25781.75
694.423	25720.51
694.769	25628.76
695.116	25638.25
695.462	25543.57
695.808	25451.14
696.155	25488.2
696.501	25222.44
696.847	25333.63
697.193	25149.9
697.539	25182.22
697.885	24985.84
698.231	24937.03
698.577	24992.62
698.923	24878.27
699.269	24792.17
699.614	24738.84
699.96	24646.41
700.306	24581.11
700.651	24445.74
700.997	24439.19
701.342	24398.06
701.688	24308.8
702.033	24246.88
702.379	24212.75
702.724	24189.7
703.069	24151.74
703.415	23925.98
703.76	23962.14
704.105	23962.82
704.45	23916.49
704.795	23778.87
705.14	23711.75
705.485	23691.64
705.83	23608.7
706.175	23646.44
706.52	23427.46
706.865	23422.72
707.209	23308.82
707.554	23338.43
707.899	23352.44
708.243	23190.86
708.588	23207.58
708.932	22967.36
709.277	23031.99
709.621	23129.84
709.966	22835.84
710.31	23015.04
710.654	22778.67
710.998	22733.02
711.342	22845.11
711.687	22585.9
712.031	22593.59
712.375	22479.47
712.719	22565.34
713.063	22436.53
713.407	22618.67
713.75	22456.42
714.094	22358.79
714.438	22275.18
714.782	22265.01
715.125	22248.29
715.469	22272.01
715.812	22085.58
716.156	21936.65
716.499	21988.86
716.843	22055.52
717.186	21850.56
717.53	21958.12
717.873	21901.4
718.216	21806.71
718.559	21768.52
718.902	21662.09
719.246	21632.48
719.589	21592.26
719.932	21461.41
720.275	21520.39
720.617	21558.81
720.96	21447.4
721.303	21474.52
721.646	21466.38
721.989	21267.52
722.331	21357.69
722.674	21255.99
723.016	21302.77
723.359	21268.42
723.701	21266.84
724.044	21146.62
724.386	20959.96
724.729	21073.85
725.071	20982.78
725.413	21070.46
725.755	21030.69
726.097	20816.23
726.439	20805.84
726.782	20844.71
727.124	20879.73
727.465	20724.26
727.807	20699.85
728.149	20726.07
728.491	20627.54
728.833	20656.69
729.175	20606.52
729.516	20555.22
729.858	20451.04
730.199	20502.12
730.541	20496.92
730.882	20417.6
731.224	20449.91
731.565	20184.38
731.906	20321.78
732.248	20341.89
732.589	20249.02
732.93	20061.9
733.271	20202.92
733.612	20114.33
733.953	20201.56
734.294	20061
734.635	20141.9
734.976	20118.4
735.317	19964.73
735.658	19962.7
735.999	20018.29
736.339	19975.58
736.68	19836.37
737.021	19889.93
737.361	19764.73
737.702	19889.93
738.042	19814
738.383	19724.96
738.723	19795.24
739.063	19655.13
739.404	19622.82
739.744	19587.56
740.084	19591.63
740.424	19715.92
740.764	19538.98
741.104	19598.86
741.444	19401.81
741.784	19330.85
742.124	19499.88
742.464	19427.12
742.804	19319.55
743.143	19317.51
743.483	19362.71
743.823	19218.76
744.162	19235.26
744.502	19249.04
744.841	19046.79
745.181	19104.64
745.52	19001.82
745.86	19046.11
746.199	19009.27
746.538	18978.09
746.877	18965.66
747.216	18984.87
747.556	18857.41
747.895	18900.12
748.234	18809.51
748.573	18649.28
748.911	18662.39
749.25	18679.79
749.589	18645.67
749.928	18607.25
750.267	18658.32
750.605	18527.48
750.944	18511.66
751.283	18491.1
751.621	18567.03
751.96	18416.75
752.298	18443.41
752.636	18370.87
752.975	18131.33
753.313	18108.51
753.651	18324.77
753.989	18174.95
754.327	18166.13
754.666	18038.23
755.004	18036.42
755.342	18056.76
755.679	18035.06
756.017	17907.38
756.355	18016.98
756.693	17863.77
757.031	17833.03
757.368	17735.86
757.706	17766.37
758.044	17716.65
758.381	17737.44
758.719	17593.94
759.056	17583.32
759.394	17562.31
759.731	17410.22
760.068	17428.98
760.405	17349.66
760.743	17186.27
761.08	17260.39
761.417	17225.82
761.754	17176.55
762.091	17098.14
762.428	17031.02
762.765	16942.21
763.102	17013.62
763.438	16872.38
763.775	16799.84
764.112	16840.97
764.449	16818.15
764.785	16699.05
765.122	16645.04
765.458	16574.08
765.795	16575.89
766.131	16480.98
766.467	16498.38
766.804	16422.22
767.14	16409.12
767.476	16410.02
767.812	16241.89
768.148	16232.4
768.485	16135
768.821	16121.89
769.157	16042.57
769.492	15955.57
769.828	15922.58
770.164	15734.33
770.5	15736.37
770.836	15816.36
771.171	15597.61
771.507	15590.38
771.842	15515.35
772.178	15476.49
772.513	15469.03
772.849	15399.65
773.184	15365.98
773.519	15354.91
773.855	15240.33
774.19	15260.45
774.525	15147
774.86	15174.35
775.195	15092.32
775.53	15014.12
775.865	14973.67
776.2	14842.15
776.535	14752.44
776.87	14826.11
777.205	14682.83
777.539	14646.68
777.874	14700.46
778.209	14447.81
778.543	14416.4
778.878	14283.3
779.212	14375.5
779.547	14328.04
779.881	14375.72
780.215	14200.14
780.55	14180.02
780.884	14179.12
781.218	14025.45
781.552	14082.4
781.886	14061.38
782.22	13950.2
782.554	13858.9
782.888	13734.61
783.222	13759.02
783.556	13686.48
783.889	13654.61
784.223	13581.17
784.557	13638.57
784.89	13678.57
785.224	13469.76
785.557	13420.95
785.891	13365.58
786.224	13367.16
786.558	13372.59
786.891	13167.62
787.224	13094.85
787.557	13117.68
787.891	13153.16
788.224	13153.83
788.557	13125.14
788.89	12974.4
789.223	13011.69
789.556	12904.12
789.888	12834.97
790.221	12891.24
790.554	12756.11
790.887	12733.28
791.219	12672.94
791.552	12596.79
791.884	12586.62
792.217	12550.46
792.549	12531.25
792.882	12353.18
793.214	12331.03
793.546	12394.98
793.879	12336.23
794.211	12232.28
794.543	12244.71
794.875	12204.26
795.207	12303.69
795.539	12119.06
795.871	12098.72
796.203	12014.2
796.535	11934.66
796.867	11937.6
797.198	11840.65
797.53	11873.64
797.862	11832.97
798.193	11817.37
798.525	11774.44
798.856	11700.99
799.188	11611.05
799.519	11624.84
799.85	11538.96
800.182	11536.02
800.513	11526.08
800.844	11392.75
801.175	11470.49
801.506	11461.9
801.837	11435.69
802.168	11344.16
802.499	11282.25
802.83	11314.34
803.161	11216.94
803.491	11192.53
803.822	11156.15
804.153	11131.97
804.483	11091.52
804.814	11024.63
805.145	11013.55
805.475	10999.09
805.805	10956.15
806.136	10959.54
806.466	10970.16
806.796	10876.83
807.126	10849.49
807.457	10832.99
807.787	10854.46
808.117	10764.07
808.447	10744.86
808.777	10753.9
809.107	10782.37
809.436	10647.46
809.766	10665.09
810.096	10595.48
810.426	10570.17
810.755	10610.85
811.085	10565.43
811.414	10527.46
811.744	10397.98
812.073	10500.35
812.403	10437.52
812.732	10381.7
813.061	10307.58
813.39	10305.77
813.719	10223.29
814.049	10251.99
814.378	10295.38
814.707	10189.62
815.036	10253.8
815.365	10148.72
815.693	10079.11
816.022	10080.24
816.351	10040.02
816.68	9998.44
817.008	10023.3
817.337	9916.63
817.665	9848.16
817.994	9934.94
818.322	9942.39
818.651	9865.11
818.979	9870.76
819.307	9794.38
819.636	9813.36
819.964	9786.24
820.292	9883.64
820.62	9774.71
820.948	9775.17
821.276	9825.11
821.604	9777.65
821.932	9763.42
822.259	9811.1
822.587	9671.21
822.915	9701.95
823.243	9788.05
823.57	9701.04
823.898	9703.76
824.225	9717.54
824.553	9679.12
824.88	9669.86
825.207	9740.37
825.535	9711.67
825.862	9698.78
826.189	9680.48
826.516	9686.13
826.843	9729.07
827.17	9717.09
827.497	9682.51
827.824	9716.41
828.151	9741.27
828.478	9707.82
828.805	9762.06
829.131	9673.7
829.458	9686.36
829.785	9673.93
830.111	9694.04
830.438	9682.74
830.764	9706.24
831.09	9760.48
831.417	9609.07
831.743	9688.84
832.069	9637.54
832.395	9647.71
832.722	9670.54
833.048	9620.82
833.374	9600.71
833.7	9630.54
834.026	9596.41
834.351	9647.03
834.677	9588.73
835.003	9622.18
835.329	9544.21
835.654	9543.53
835.98	9543.08
836.306	9512.57
836.631	9501.28
836.956	9429.19
837.282	9540.37
837.607	9456.31
837.932	9496.3
838.258	9489.75
838.583	9384.44
838.908	9346.7
839.233	9397.55
839.558	9376.08
839.883	9404.1
840.208	9235.29
840.533	9254.28
840.858	9221.96
841.182	9325.69
841.507	9249.53
841.832	9222.86
842.156	9256.08
842.481	9231
842.805	9222.19
843.13	9170.21
843.454	9164.79
843.778	9116.65
844.103	9066.26
844.427	9125.69
844.751	9063.77
845.075	9056.99
845.399	8994.4
845.723	8946.04
846.047	9006.6
846.371	8908.97
846.695	8959.82
847.019	8857
847.343	8755.76
847.666	8725.7
847.99	8680.28
848.313	8724.57
848.637	8637.57
848.96	8654.52
849.284	8659.94
849.607	8555.99
849.931	8536.33
850.254	8492.71
850.577	8456.33
850.9	8440.06
851.223	8381.53
851.546	8370.91
851.869	8293.85
852.192	8373.62
852.515	8308.99
852.838	8194.64
853.161	8203.23
853.483	8171.37
853.806	8142.22
854.129	8081.43
854.451	8024.03
854.774	8030.35
855.096	8066.51
855.419	7932.28
855.741	7986.97
856.063	7941.32
856.385	7886.63
856.708	7902.22
857.03	7875.1
857.352	7834.2
857.674	7748.55
857.996	7860.87
858.318	7781.32
858.64	7773.19
858.961	7769.34
859.283	7753.98
859.605	7687.76
859.926	7710.59
860.248	7644.83
860.57	7608.44
860.891	7676.92
861.212	7617.03
861.534	7562.12
861.855	7603.92
862.176	7583.81
862.498	7540.88
862.819	7606.86
863.14	7548.56
863.461	7486.19
863.782	7430.82
864.103	7497.26
864.424	7447.32
864.745	7471.27
865.065	7405.96
865.386	7357.83
865.707	7333.65
866.027	7343.59
866.348	7380.2
866.668	7436.47
866.989	7352.86
867.309	7339.98
867.63	7293.42
867.95	7331.84
868.27	7218.85
868.59	7300.66
868.91	7269.92
869.23	7222.47
869.55	7205.06
869.87	7286.19
870.19	7219.53
870.51	7200.09
870.83	7269.47
871.15	7193.09
871.469	7206.87
871.789	7195.35
872.109	7159.42
872.428	7099.3
872.748	7144.73
873.067	7099.3
873.386	7160.09
873.706	7177.27
874.025	7029.93
874.344	7092.98
874.663	7082.36
874.982	7057.5
875.301	7034.22
875.62	7055.46
875.939	7012.53
876.258	7005.3
876.577	7002.81
876.896	6940.66
877.214	6989.7
877.533	6924.85
877.852	6971.4
878.17	6957.61
878.489	6989.03
878.807	6934.79
879.125	6882.59
879.444	6883.72
879.762	6895.47
880.08	6893.66
880.398	6841.46
880.716	6815.92
881.034	6826.54
881.352	6780.9
881.67	6816.83
881.988	6828.58
882.306	6755.36
882.624	6747.9
882.941	6725.3
883.259	6715.13
883.577	6739.31
883.894	6688.02
884.212	6678.3
884.529	6657.06
884.846	6601.24
885.164	6689.37
885.481	6580.45
885.798	6556.04
886.115	6527.12
886.432	6578.19
886.75	6532.54
887.067	6521.92
887.383	6459.1
887.7	6490.51
888.017	6466.33
888.334	6444.41
888.651	6473.78
888.967	6491.19
889.284	6440.57
889.6	6410.74
889.917	6353.34
890.233	6390.17
890.55	6316.5
890.866	6317.63
891.182	6336.16
891.498	6307.46
891.815	6351.75
892.131	6288.7
892.447	6283.73
892.763	6238.76
893.079	6145.21
893.395	6118.54
893.71	6160.57
894.026	6155.83
894.342	6150.4
894.657	6062.5
894.973	6114.47
895.289	6091.65
895.604	6065.21
895.92	6021.37
896.235	6018.88
896.55	5974.59
896.865	5983.85
897.181	5911.31
897.496	5932.1
897.811	5905.21
898.126	5907.7
898.441	5899.34
898.756	5904.99
899.071	5830.19
899.386	5876.51
899.7	5786.8
900.015	5793.35
900.33	5675.84
900.644	5750.19
900.959	5747.7
901.273	5728.72
901.588	5645.33
901.902	5611.21
902.216	5593.81
902.531	5596.52
902.845	5646.69
903.159	5556.29
903.473	5562.4
903.787	5517.88
904.101	5531.44
904.415	5530.98
904.729	5464.55
905.042	5448.73
905.356	5442.17
905.67	5430.42
905.984	5438.56
906.297	5383.42
906.611	5363.08
906.924	5354.94
907.237	5338
907.551	5307.26
907.864	5262.52
908.177	5274.27
908.491	5252.12
908.804	5250.31
909.117	5232.01
909.43	5159.47
909.743	5167.38
910.056	5137.77
910.368	5136.19
910.681	5092.13
910.994	5087.15
911.307	5052.58
911.619	4995.86
911.932	5005.35
912.244	4974.84
912.557	5006.48
912.869	4935.97
913.181	4999.47
913.494	4945.69
913.806	4933.94
914.118	4901.62
914.43	4823.88
914.742	4819.36
915.054	4807.39
915.366	4785.69
915.678	4813.26
915.99	4756.54
916.302	4702.53
916.613	4713.6
916.925	4719.03
917.236	4727.62
917.548	4671.57
917.859	4655.08
918.171	4637.9
918.482	4666.83
918.794	4586.38
919.105	4591.35
919.416	4569.88
919.727	4512.03
920.038	4526.49
920.349	4501.18
920.66	4493.95
920.971	4469.09
921.282	4486.27
921.593	4421.18
921.903	4437.91
922.214	4416.66
922.525	4389.55
922.835	4391.81
923.146	4331.02
923.456	4312.71
923.767	4282.66
924.077	4312.71
924.387	4326.04
924.697	4251.24
925.008	4274.29
925.318	4227.74
925.628	4244.69
925.938	4211.7
926.248	4154.98
926.558	4102.1
926.867	4163.56
927.177	4111.36
927.487	4096.9
927.796	4081.08
928.106	4092.83
928.416	4063.45
928.725	4037.24
929.034	4042.21
929.344	3993.4
929.653	4011.02
929.962	3967.86
930.271	3927.41
930.581	3961.08
930.89	3950.69
931.199	3877.47
931.508	3909.11
931.817	3886.28
932.125	3874.3
932.434	3853.51
932.743	3836.34
933.051	3786.85
933.36	3767.19
933.669	3793.4
933.977	3810.13
934.286	3759.96
934.594	3787.08
934.902	3716.34
935.21	3729
935.519	3726.74
935.827	3676.12
936.135	3663.91
936.443	3661.2
936.751	3603.13
937.059	3642.22
937.367	3553.86
937.674	3569.45
937.982	3589.57
938.29	3564.03
938.597	3552.51
938.905	3506.63
939.213	3535.56
939.52	3504.15
939.827	3532.17
940.135	3417.14
940.442	3468.21
940.749	3437.71
941.056	3466.86
941.363	3409.46
941.67	3439.51
941.977	3448.55
942.284	3376.24
942.591	3361.1
942.898	3387.31
943.205	3325.39
943.511	3289.46
943.818	3307.31
944.125	3284.49
944.431	3273.19
944.738	3267.32
945.044	3239.75
945.35	3244.26
945.657	3233.42
945.963	3203.36
946.269	3181.67
946.575	3184.61
946.881	3172.18
947.187	3180.99
947.493	3147.32
947.799	3139.18
948.105	3143.25
948.41	3119.3
948.716	3082.46
949.022	3076.13
949.327	3053.54
949.633	3058.96
949.938	3012.41
950.244	3009.69
950.549	2986.87
950.854	2991.16
951.16	2983.71
951.465	2979.41
951.77	2930.83
952.075	2960.66
952.38	2952.97
952.685	2900.32
952.99	2934.67
953.294	2905.52
953.599	2920.43
953.904	2878.17
954.209	2854.22
954.513	2859.87
954.818	2867.33
955.122	2829.59
955.426	2816.25
955.731	2817.61
956.035	2794.11
956.339	2804.73
956.643	2808.34
956.948	2745.97
957.252	2766.54
957.556	2755.46
957.86	2729.93
958.163	2768.35
958.467	2715.92
958.771	2709.36
959.075	2678.86
959.378	2668.91
959.682	2678.4
959.985	2669.59
960.289	2628.24
960.592	2641.57
960.896	2640.89
961.199	2610.84
961.502	2625.75
961.805	2604.28
962.108	2543.72
962.411	2549.37
962.714	2545.53
963.017	2542.36
963.32	2533.32
963.623	2538.75
963.926	2527
964.228	2473.44
964.531	2469.6
964.833	2506.43
965.136	2484.51
965.438	2465.08
965.741	2448.13
966.043	2458.52
966.345	2429.82
966.648	2441.57
966.95	2412.87
967.252	2398.64
967.554	2387.34
967.856	2390.95
968.158	2344.63
968.46	2337.4
968.761	2367.9
969.063	2314.35
969.365	2343.27
969.666	2318.87
969.968	2318.64
970.269	2286.32
970.571	2322.48
970.872	2320.45
971.174	2265.08
971.475	2274.8
971.776	2275.7
972.077	2255.59
972.378	2244.29
972.679	2252.65
972.98	2251.52
973.281	2226.89
973.582	2222.6
973.883	2197.29
974.183	2223.5
974.484	2197.96
974.785	2177.63
975.085	2167.68
975.386	2164.75
975.686	2161.13
975.986	2135.37
976.287	2109.83
976.587	2150.06
976.887	2108.25
977.187	2120.9
977.487	2097.85
977.787	2076.16
978.087	2112.54
978.387	2071.64
978.687	2054.92
978.987	2045.65
979.286	2049.95
979.586	2024.18
979.885	2059.21
980.185	2013.11
980.484	2036.84
980.784	2032.09
981.083	1981.47
981.382	1986.9
981.682	1966.11
981.981	1983.73
982.28	1938.54
982.579	1943.06
982.878	1938.99
983.177	1945.32
983.475	1931.53
983.774	1902.83
984.073	1905.54
984.372	1877.3
984.67	1905.09
984.969	1866.9
985.267	1892.21
985.566	1881.36
985.864	1875.49
986.162	1856.05
986.461	1809.95
986.759	1823.74
987.057	1852.44
987.355	1822.16
987.653	1836.62
987.951	1829.16
988.249	1795.94
988.547	1790.07
988.844	1813.12
989.142	1767.02
989.44	1802.27
989.737	1772.89
990.035	1755.94
990.332	1773.34
990.63	1734.02
990.927	1721.37
991.224	1731.31
991.521	1738.77
991.819	1721.37
992.116	1698.99
992.413	1684.76
992.71	1665.78
993.006	1679.79
993.303	1686.34
993.6	1681.59
993.897	1637.75
994.193	1635.27
994.49	1653.35
994.787	1653.12
995.083	1613.35
995.379	1616.29
995.676	1624.19
995.972	1597.08
996.268	1611.09
996.565	1609.51
996.861	1585.78
997.157	1548.26
997.453	1576.51
997.749	1574.93
998.044	1579.68
998.34	1567.7
998.636	1536.29
998.932	1564.76
999.227	1522.05
999.523	1524.54
999.818	1542.16
1000.114	1504.42
1000.409	1489.96
1000.704	1470.53
1001	1478.44
1001.295	1486.8
1001.59	1471.2
1001.885	1464.2
1002.18	1442.05
1002.475	1452.45
1002.77	1434.14
1003.065	1402.96
1003.359	1400.47
1003.654	1410.41
1003.949	1398.21
1004.243	1384.2
1004.538	1400.25
1004.832	1393.01
1005.127	1381.72
1005.421	1372.45
1005.715	1389.62
1006.009	1342.62
1006.304	1339.46
1006.598	1363.41
1006.892	1347.37
1007.186	1349.63
1007.48	1302.62
1007.773	1327.25
1008.067	1342.39
1008.361	1299.01
1008.655	1320.93
1008.948	1297.2
1009.242	1299.46
1009.535	1317.08
1009.829	1275.73
1010.122	1288.16
1010.415	1266.92
1010.708	1247.71
1011.001	1242.96
1011.295	1250.65
1011.588	1228.5
1011.881	1227.59
1012.173	1216.75
1012.466	1217.65
1012.759	1227.37
1013.052	1207.03
1013.344	1194.6
1013.637	1198.67
1013.93	1158.44
1014.222	1205.45
1014.514	1184.88
1014.807	1183.08
1015.099	1144.21
1015.391	1160.48
1015.683	1147.82
1015.976	1141.72
1016.268	1129.07
1016.56	1124.32
1016.851	1137.88
1017.143	1157.31
1017.435	1124.77
1017.727	1131.55
1018.018	1073.02
1018.31	1096.3
1018.602	1097.2
1018.893	1075.96
1019.185	1083.42
1019.476	1044.55
1019.767	1066.02
1020.058	1095.62
1020.35	1049.97
1020.641	1063.31
1020.932	1031.89
1021.223	1010.65
1021.514	1031.44
1021.804	1039.35
1022.095	1044.77
1022.386	1020.59
1022.677	1000.71
1022.967	976.08
1023.258	980.82
1023.548	1013.82
1023.839	978.79
1024.129	957.09
1024.419	968.17
1024.709	943.53
1025	943.08
1025.29	933.37
1025.58	975.4
1025.87	948.73
1026.16	951.22
1026.449	935.85
1026.739	942.18
1027.029	962.52
1027.319	889.75
1027.608	905.57
1027.898	898.11
1028.187	913.03
1028.477	881.39
1028.766	882.97
1029.055	900.82
1029.344	867.6
1029.634	870.77
1029.923	882.07
1030.212	861.28
1030.501	851.56
1030.79	858.11
1031.078	843.2
1031.367	831.9
1031.656	850.88
1031.945	838.9
1032.233	843.42
1032.522	835.74
1032.81	830.77
1033.099	809.98
1033.387	798
1033.675	827.83
1033.963	815.18
1034.251	784.22
1034.54	799.58
1034.828	779.25
1035.116	781.96
1035.403	783.54
1035.691	772.47
1035.979	742.41
1036.267	779.25
1036.554	754.16
1036.842	768.4
1037.129	762.75
1037.417	775.86
1037.704	745.8
1037.992	744.22
1038.279	759.81
1038.566	745.8
1038.853	745.8
1039.14	745.8
