Data from whiteboard_FLMS001491_00005.txt Node
Date: Wed Feb 08 11:24:55 GMT 2017
User: dcchb
Spectrometer: FLMS00149
Trigger mode: 0
Integration Time (sec): 2.000000E-2
Scans to average: 10
Electric dark correction enabled: true
Nonlinearity correction enabled: false
Boxcar width: 0
XAxis mode: Wavelengths
Number of Pixels in Spectrum: 2048
>>>>>Begin Spectral Data<<<<<
341.393	-10.61
341.776	-10.61
342.16	-10.61
342.543	-58.06
342.927	-51.51
343.31	-75.69
343.693	-48.35
344.077	-70.49
344.46	-53.32
344.843	-56.71
345.226	-25.52
345.61	-30.27
345.993	-10.16
346.376	-10.61
346.759	5.66
347.142	35.49
347.525	37.3
347.908	44.76
348.291	63.74
348.674	98.99
349.057	95.15
349.44	107.58
349.823	135.38
350.206	169.73
350.588	205.21
350.971	254.02
351.354	263.28
351.737	277.75
352.119	270.06
352.502	291.53
352.884	295.83
353.267	332.89
353.65	326.56
354.032	327.69
354.414	338.54
354.797	352.1
355.179	345.54
355.562	357.97
355.944	368.82
356.326	375.82
356.709	352.77
357.091	370.85
357.473	389.83
357.855	356.61
358.238	372.21
358.62	396.39
359.002	383.28
359.384	395.71
359.766	399.1
360.148	384.41
360.53	390.29
360.912	358.65
361.294	388.25
361.676	362.49
362.057	389.38
362.439	370.4
362.821	364.07
363.203	368.14
363.584	382.15
363.966	395.03
364.348	369.72
364.729	387.8
365.111	379.44
365.493	360.91
365.874	348.93
366.256	380.8
366.637	386.44
367.019	350.97
367.4	385.54
367.781	365.2
368.163	378.31
368.544	374.47
368.925	380.57
369.306	392.09
369.688	369.5
370.069	378.54
370.45	397.29
370.831	368.59
371.212	385.77
371.593	381.92
371.974	367.91
372.355	391.19
372.736	385.31
373.117	414.24
373.498	379.44
373.879	409.27
374.26	407.24
374.641	383.73
375.021	385.77
375.402	395.26
375.783	425.54
376.163	429.83
376.544	425.09
376.925	400.23
377.305	426.67
377.686	420.57
378.066	428.03
378.447	425.99
378.827	447.69
379.208	407.24
379.588	446.56
379.968	436.16
380.349	439.55
380.729	433.45
381.109	444.97
381.489	442.26
381.87	456.05
382.25	472.32
382.63	453.56
383.01	490.62
383.39	474.13
383.77	473.45
384.15	462.6
384.53	493.33
384.91	476.84
385.29	508.02
385.67	496.72
386.049	496.72
386.429	501.02
386.809	503.73
387.189	519.77
387.568	503.5
387.948	510.51
388.328	548.93
388.707	549.83
389.087	549.15
389.466	537.18
389.846	561.36
390.225	554.58
390.605	564.29
390.984	553.22
391.363	590.51
391.743	595.25
392.122	592.99
392.501	627.34
392.881	613.56
393.26	621.69
393.639	606.78
394.018	615.82
394.397	658.08
394.776	642.94
395.155	646.55
395.534	661.69
395.913	689.94
396.292	681.58
396.671	688.13
397.05	713.89
397.429	725.19
397.808	693.78
398.186	722.93
398.565	721.8
398.944	744.85
399.323	742.59
399.701	752.31
400.08	774.91
400.458	783.72
400.837	795.25
401.215	811.52
401.594	820.56
401.972	821.91
402.351	819.88
402.729	839.54
403.107	865.98
403.486	861.01
403.864	850.61
404.242	895.81
404.62	905.98
404.999	935.81
405.377	964.96
405.755	981.01
406.133	986.88
406.511	994.79
406.889	1007.67
407.267	1001.12
407.645	1056.94
408.023	1056.03
408.401	1086.31
408.779	1091.51
409.156	1111.85
409.534	1133.54
409.912	1173.99
410.29	1172.86
410.667	1178.97
411.045	1197.72
411.422	1257.16
411.8	1266.87
412.178	1274.78
412.555	1330.6
412.933	1342.13
413.31	1348.91
413.687	1378.06
414.065	1398.85
414.442	1402.92
414.819	1461.22
415.197	1463.48
415.574	1478.17
415.951	1503.48
416.328	1533.08
416.705	1508.9
417.082	1558.17
417.46	1584.83
417.837	1611.5
418.214	1637.26
418.591	1637.94
418.967	1637.26
419.344	1664.83
419.721	1719.06
420.098	1711.38
420.475	1748.44
420.852	1724.04
421.228	1802.68
421.605	1785.73
421.982	1822.34
422.358	1831.6
422.735	1849.68
423.111	1866.18
423.488	1936.23
423.864	1915.22
424.241	1923.35
424.617	1961.09
424.994	2002.22
425.37	2033.41
425.746	2023.24
426.123	2071.82
426.499	2077.7
426.875	2104.59
427.251	2171.26
427.627	2218.26
428.003	2200.41
428.379	2263.91
428.756	2274.76
429.132	2293.74
429.507	2391.36
429.883	2370.8
430.259	2420.52
430.635	2414.87
431.011	2482.89
431.387	2551.81
431.763	2558.36
432.138	2572.15
432.514	2637.01
432.89	2641.3
433.265	2695.31
433.641	2754.97
434.016	2783.9
434.392	2813.95
434.767	2887.17
435.143	2874.06
435.518	2898.47
435.894	2940.5
436.269	2959.03
436.644	3058.01
437.02	3068.86
437.395	3087.62
437.77	3149.76
438.145	3189.31
438.52	3215.07
438.895	3247.39
439.271	3282.19
439.646	3333.94
440.021	3372.35
440.395	3367.38
440.77	3383.2
441.145	3403.99
441.52	3453.71
441.895	3528.51
442.27	3544.55
442.645	3522.41
443.019	3597.89
443.394	3613.25
443.769	3640.14
444.143	3608.05
444.518	3689.41
444.892	3681.27
445.267	3731.89
445.641	3747.49
446.016	3806.02
446.39	3827.94
446.764	3905
447.139	3850.31
447.513	3929.18
447.887	3954.26
448.262	3966.69
448.636	4005.56
449.01	4032.9
449.384	4076.74
449.758	4128.27
450.132	4178.21
450.506	4237.64
450.88	4269.73
451.254	4218.89
451.628	4298.66
452.002	4400.58
452.376	4394.7
452.75	4421.37
453.123	4530.97
453.497	4565.32
453.871	4602.15
454.244	4738.42
454.618	4699.78
454.992	4811.87
455.365	4831.53
455.739	4960.79
456.112	5011.86
456.486	5053.21
456.859	5119.88
457.232	5211.63
457.606	5216.83
457.979	5303.15
458.352	5415.69
458.725	5465.18
459.099	5475.58
459.472	5605.29
459.845	5631.96
460.218	5701.79
460.591	5733.2
460.964	5856.36
461.337	5962.12
461.71	6019.97
462.083	6103.36
462.456	6151.72
462.829	6152.39
463.201	6338.38
463.574	6322.11
463.947	6480.52
464.32	6580.86
464.692	6682.1
465.065	6673.74
465.438	6764.58
465.81	6865.37
466.183	6952.83
466.555	7099.26
466.928	7166.15
467.3	7228.98
467.672	7340.61
468.045	7548.29
468.417	7557.1
468.789	7603.88
469.161	7738.79
469.534	7844.33
469.906	8019.92
470.278	8071.44
470.65	8129.29
471.022	8356.86
471.394	8414.26
471.766	8552.56
472.138	8645.21
472.51	8866.45
472.882	8993.9
473.253	9165.65
473.625	9209.04
473.997	9441.8
474.369	9502.36
474.74	9628.91
475.112	9841.34
475.484	9987.55
475.855	10195.45
476.227	10294.66
476.598	10486.97
476.97	10642.67
477.341	10890.35
477.713	11071.59
478.084	11096.9
478.455	11455.08
478.827	11552.48
479.198	11966.03
479.569	11873.37
479.94	12272.91
480.311	12347.71
480.682	12689.62
481.053	12877.64
481.424	13137.07
481.795	13314.47
482.166	13464.52
482.537	13671.97
482.908	13921.91
483.279	14081.9
483.65	14352.86
484.021	14675.56
484.391	14821.77
484.762	14944.71
485.133	15086.4
485.503	15394.41
485.874	15595.31
486.244	15764.12
486.615	16115.97
486.985	16270.77
487.356	16638.67
487.726	16810.65
488.097	17101.03
488.467	17115.27
488.837	17641.13
489.207	17820.11
489.578	18079.76
489.948	18279.53
490.318	18527.66
490.688	18610.82
491.058	18942.34
491.428	19234.76
491.798	19364.25
492.168	19716.78
492.538	19860.73
492.908	20067.06
493.278	20376.43
493.648	20452.36
494.017	20703.88
494.387	20951.1
494.757	21093.47
495.126	21357.42
495.496	21361.71
495.866	21559.67
496.235	21858.87
496.605	22048.93
496.974	22169.6
497.344	22384.96
497.713	22531.85
498.082	22722.81
498.452	23017.04
498.821	23081.89
499.19	23027.43
499.559	23312.17
499.928	23463.35
500.298	23615.44
500.667	23840.74
501.036	23908.99
501.405	24226.95
501.774	24083.45
502.143	24410.67
502.512	24560.5
502.88	24823.99
503.249	24855.41
503.618	24960.49
503.987	25165.23
504.356	25350.08
504.724	25467.59
505.093	25670.07
505.462	25668.04
505.83	25912.33
506.199	26127.24
506.567	26370.17
506.936	26431.86
507.304	26756.37
507.672	26934.9
508.041	27042.01
508.409	27371.05
508.777	27549.8
509.145	27642.23
509.514	27836.57
509.882	28047.19
510.25	28318.82
510.618	28507.29
510.986	28497.12
511.354	29029.76
511.722	29145.01
512.09	29363.76
512.458	29462.06
512.826	29716.75
513.193	29855.05
513.561	29968.72
513.929	30379.78
514.297	30488.03
514.664	30828.81
515.032	30885.76
515.4	31200.55
515.767	31295.24
516.135	31503.37
516.502	31449.58
516.869	31983.13
517.237	32247.3
517.604	32173.18
517.972	32623.11
518.339	32754.86
518.706	32955.53
519.073	33138.35
519.44	33286.82
519.808	33572.01
520.175	33544.22
520.542	34085.67
520.909	34054.71
521.276	34240.92
521.643	34718.2
522.009	34765.65
522.376	35014.91
522.743	35279.99
523.11	35560.44
523.477	35852.4
523.843	36060.99
524.21	36454.42
524.577	36616.9
524.943	36807.18
525.31	37003.33
525.676	37468.41
526.043	37515.41
526.409	37864.78
526.776	38265.22
527.142	38451.88
527.508	38631.31
527.874	39011.87
528.241	39132.09
528.607	39148.14
528.973	39705.64
529.339	39718.97
529.705	40140.2
530.071	40317.15
530.437	40506.75
530.803	40708.1
531.169	40950.58
531.535	40874.87
531.901	41347.18
532.267	41385.14
532.632	41807.5
532.998	41855.64
533.364	42072.81
533.73	42280.48
534.095	42732.9
534.461	42803.86
534.826	43122.04
535.192	43175.38
535.557	43385.09
535.923	43316.84
536.288	43687
536.653	43889.26
537.019	43782.37
537.384	43985.52
537.749	44275.01
538.114	44456.7
538.479	44449.01
538.845	44700.99
539.21	44636.81
539.575	44868.21
539.94	45085.83
540.305	45324.25
540.67	45269.56
541.034	45457.35
541.399	45554.3
541.764	45716.1
542.129	45906.6
542.494	45882.42
542.858	46180.49
543.223	46117.67
543.587	46356.31
543.952	46380.26
544.316	46507.72
544.681	46479.02
545.045	46791.1
545.41	46917.42
545.774	46874.49
546.138	47022.51
546.503	47128.94
546.867	47136.63
547.231	47427.24
547.595	47504.08
547.959	47620.23
548.324	47708.59
548.688	47706.78
549.052	47949.49
549.416	48078.3
549.779	48112.2
550.143	48179.54
550.507	48317.84
550.871	48525.07
551.235	48552.41
551.599	48898.84
551.962	48942.46
552.326	49115.11
552.689	49275.78
553.053	49034.66
553.417	49268.1
553.78	49732.04
554.143	49630.35
554.507	49866.27
554.87	50019.04
555.234	50333.83
555.597	50114.4
555.96	50455.18
556.323	50519.14
556.686	50708.06
557.05	50944.44
557.413	51009.75
557.776	51114.15
558.139	51417.42
558.502	51401.15
558.865	51441.15
559.228	51881.59
559.59	51932.43
559.953	51905.77
560.316	52373.33
560.679	52423.95
561.041	52578.97
561.404	52707.1
561.767	52960.66
562.129	52696.48
562.492	53181.21
562.854	53165.62
563.217	53163.14
563.579	53337.37
563.941	53574.65
564.304	53548.44
564.666	53813.97
565.028	53805.83
565.39	53957.24
565.753	53990.68
566.115	54180.51
566.477	54213.73
566.839	54314.29
567.201	54443.78
567.563	54493.27
567.925	54622.76
568.287	54649.88
568.648	54737.78
569.01	54876.09
569.372	55053.26
569.734	54837.22
570.095	55047.15
570.457	55179.13
570.819	55300.03
571.18	55214.16
571.542	55431.1
571.903	55397.43
572.265	55564.43
572.626	55533.24
572.987	55597.87
573.349	55706.8
573.71	55855.27
574.071	55867.92
574.432	55985.21
574.794	56157.18
575.155	56189.5
575.516	56047.13
575.877	56172.77
576.238	56261.59
576.599	56258.42
576.96	56364.41
577.32	56454.35
577.681	56462.71
578.042	56584.52
578.403	56606.21
578.763	56615.47
579.124	56676.26
579.485	56867.45
579.845	56831.74
580.206	56831.97
580.566	56839.2
580.927	56945.64
581.287	57021.79
581.648	56913.09
582.008	57105.18
582.368	57036.71
582.728	57124.84
583.089	57144.05
583.449	57118.96
583.809	57208.68
584.169	57243.03
584.529	57192.41
584.889	57331.39
585.249	57290.94
585.609	57162.35
585.969	57393.31
586.329	57247.77
586.688	57340.43
587.048	57268.56
587.408	57285.74
587.768	57317.6
588.127	57305.4
588.487	57262.46
588.846	57390.6
589.206	57234.22
589.565	57284.61
589.925	57422.23
590.284	57339.07
590.643	57338.85
591.003	57380.65
591.362	57433.08
591.721	57421.56
592.08	57357.15
592.44	57432.85
592.799	57384.49
593.158	57346.3
593.517	57405.28
593.876	57378.39
594.235	57347.43
594.593	57375.23
594.952	57361.67
595.311	57361.67
595.67	57421.1
596.029	57502.91
596.387	57452.74
596.746	57520.99
597.104	57346.98
597.463	57454.77
597.822	57508.11
598.18	57423.59
598.538	57403.25
598.897	57537.48
599.255	57387.43
599.613	57711.04
599.972	57495
600.33	57600.53
600.688	57492.74
601.046	57632.4
601.404	57730.02
601.762	57731.6
602.12	57750.59
602.478	57854.54
602.836	57809.57
603.194	57626.3
603.552	57669.68
603.91	57675.11
604.268	57746.07
604.625	57720.53
604.983	57843.01
605.341	57706.75
605.698	57846.4
606.056	57898.38
606.413	57823.58
606.771	57935.21
607.128	57993.52
607.485	57951.94
607.843	57951.94
608.2	58136.56
608.557	58126.4
608.914	58057.7
609.272	58213.4
609.629	58231.03
609.986	58306.5
610.343	58146.51
610.7	58405.48
611.057	58307.63
611.414	58297.69
611.771	58322.77
612.127	58414.3
612.484	58460.62
612.841	58454.75
613.198	58349.21
613.554	58352.15
613.911	58500.4
614.267	58492.26
614.624	58558.25
614.98	58570.9
615.337	58609.09
615.693	58588.3
616.05	58574.07
616.406	58751.01
616.762	58559.38
617.118	58462.21
617.475	58594.41
617.831	58728.19
618.187	58760.5
618.543	58717.57
618.899	58812.25
619.255	58756.21
619.611	58790.33
619.967	58859.03
620.323	58860.61
620.678	58785.81
621.034	58722.99
621.39	58756.44
621.746	58752.37
622.101	59057.67
622.457	58802.08
622.812	58852.7
623.168	58923.44
623.523	58890.9
623.879	58966.6
624.234	58847.28
624.589	58889.77
624.945	58919.37
625.3	58960.5
625.655	58823.55
626.01	58922.31
626.365	58946.94
626.72	58840.95
627.075	58882.76
627.43	58845.92
627.785	58801.86
628.14	58875.3
628.495	58838.24
628.85	58853.16
629.205	58737.23
629.559	58813.38
629.914	58727.28
630.269	58813.83
630.623	58774.06
630.978	58626.72
631.332	58719.6
631.687	58746.94
632.041	58598.93
632.396	58739.49
632.75	58543.79
633.104	58647.29
633.459	58419.5
633.813	58403.22
634.167	58395.77
634.521	58372.49
634.875	58395.99
635.229	58311.93
635.583	58226.51
635.937	58208.88
636.291	58141.76
636.645	58168.2
636.999	58131.59
637.352	58169.33
637.706	57992.39
638.06	58073.74
638.413	57992.16
638.767	57925.5
639.121	57958.94
639.474	57899.96
639.828	57812.51
640.181	57861.09
640.534	57876.68
640.888	57727.76
641.241	57702
641.594	57631.95
641.947	57721.21
642.301	57633.75
642.654	57617.93
643.007	57599.18
643.36	57610.7
643.713	57466.07
644.066	57580.65
644.419	57463.36
644.771	57303.82
645.124	57118.06
645.477	57083.71
645.83	56935.92
646.182	56846.88
646.535	56653.89
646.888	56705.87
647.24	56656.15
647.593	56732.08
647.945	56715.13
648.298	56572.31
648.65	56501.35
649.002	56495.7
649.355	56654.12
649.707	56625.64
650.059	56738.41
650.411	57122.13
650.763	57095.46
651.115	57327.77
651.467	57168.23
651.819	57271.28
652.171	57109.47
652.523	57090.04
652.875	57066.31
653.227	56985.18
653.578	57188.11
653.93	57190.37
654.282	57033.09
654.633	56973.43
654.985	56997.84
655.337	57005.52
655.688	56945.18
656.039	57049.14
656.391	56817.73
656.742	56970.95
657.094	56880.78
657.445	56954
657.796	56875.81
658.147	56853.89
658.498	56807.33
658.849	56835.58
659.2	56778.63
659.551	56675.13
659.902	56727.11
660.253	56650.73
660.604	56699.77
660.955	56487.12
661.306	56544.06
661.656	56543.39
662.007	56451.86
662.358	56455.48
662.708	56417.51
663.059	56401.69
663.409	56158.76
663.76	56329.61
664.11	56311.53
664.461	56345.65
664.811	56349.04
665.161	56264.98
665.511	56201.25
665.862	56161.93
666.212	56293.9
666.562	56240.34
666.912	56141.59
667.262	56172.77
667.612	56080.8
667.962	56084.42
668.312	56079.67
668.662	56096.62
669.011	56021.14
669.361	55971.88
669.711	56012.1
670.06	55969.16
670.41	55850.07
670.76	55899.56
671.109	55975.27
671.459	55944.53
671.808	55903.4
672.157	55870.41
672.507	55730.07
672.856	55731.43
673.205	55820.69
673.554	55889.62
673.904	55768.94
674.253	55885.32
674.602	55814.14
674.951	55342.29
675.3	55214.83
675.649	55718.55
675.998	55625.67
676.346	55708.38
676.695	55830.41
677.044	55577.99
677.393	55608.5
677.741	55688.04
678.09	55636.74
678.438	55539.34
678.787	55701.37
679.135	55590.87
679.484	55385.9
679.832	55544.77
680.181	55292.35
680.529	55350.2
680.877	55295.74
681.225	55337.32
681.573	55486.01
681.922	55303.42
682.27	55189.98
682.618	55220.26
682.966	55140.03
683.314	55136.42
683.661	55042.63
684.009	54844.22
684.357	54835.41
684.705	54755.41
685.053	54841.51
685.4	54755.18
685.748	54624.57
686.095	54594.74
686.443	54557.9
686.79	54470.67
687.138	54516.77
687.485	54561.97
687.832	54386.61
688.18	54325.37
688.527	54126.95
688.874	54152.94
689.221	54108.2
689.568	54056.9
689.915	53910.01
690.262	53895.09
690.609	53791.37
690.956	53734.42
691.303	53647.42
691.65	53534.65
691.997	53509.12
692.344	53269.35
692.69	53238.84
693.037	53179.86
693.383	53030.71
693.73	53160.65
694.077	52810.15
694.423	52869.81
694.769	52753.2
695.116	52621.46
695.462	52656.71
695.808	52464.4
696.155	52591.85
696.501	52275.25
696.847	52237.06
697.193	52094.01
697.539	52129.49
697.885	51981.7
698.231	51908.48
698.577	51861.02
698.923	51749.16
699.269	51553.91
699.614	51573.12
699.96	51497.19
700.306	51398.66
700.651	51309.17
700.997	51160.25
701.342	51082.51
701.688	51097.88
702.033	50937.88
702.379	50947.15
702.724	50851.78
703.069	50901.05
703.415	50505.8
703.76	50535.41
704.105	50592.58
704.45	50468.29
704.795	50261.52
705.14	50196.43
705.485	50179.94
705.83	50025.59
706.175	50019.94
706.52	49841.19
706.865	49805.48
707.209	49724.36
707.554	49542.89
707.899	49749.44
708.243	49528.66
708.588	49456.57
708.932	49275.78
709.277	49222.9
709.621	49193.3
709.966	48982
710.31	49174.54
710.654	48679.64
710.998	48772.74
711.342	48889.58
711.687	48564.84
712.031	48495.91
712.375	48427.22
712.719	48425.18
713.063	48243.27
713.407	48405.52
713.75	48153.1
714.094	48112.42
714.438	47902.48
714.782	47925.53
715.125	47789.49
715.469	47888.47
715.812	47672.88
716.156	47362.84
716.499	47512.44
716.843	47388.82
717.186	47146.57
717.53	47314.02
717.873	47088.49
718.216	47077.87
718.559	46823.64
718.902	46577.09
719.246	46635.17
719.589	46446.02
719.932	46547.49
720.275	46274.05
720.617	46279.93
720.96	46178.23
721.303	46138.01
721.646	46084.9
721.989	45898.47
722.331	45954.29
722.674	45941.63
723.016	45846.49
723.359	45701.86
723.701	45761.07
724.044	45480.85
724.386	45301.2
724.729	45429.1
725.071	45252.16
725.413	45363.57
725.755	45255.32
726.097	44955.67
726.439	44896.69
726.782	45011.94
727.124	45038.6
727.465	44796.35
727.807	44824.6
728.149	44752.51
728.491	44672.29
728.833	44681.78
729.175	44479.52
729.516	44427.77
729.858	44221
730.199	44294.44
730.541	44249.7
730.882	44215.57
731.224	44145.07
731.565	44062.58
731.906	44084.5
732.248	44081.34
732.589	43846.54
732.93	43615.59
733.271	43668.24
733.612	43577.17
733.953	43641.35
734.294	43534.46
734.635	43297.63
734.976	43422.15
735.317	43242.49
735.658	43335.82
735.999	43276.84
736.339	43210.63
736.68	43446.56
737.021	43177.18
737.361	43064.42
737.702	43276.39
738.042	42972.44
738.383	42920.02
738.723	43012.44
739.063	42709.4
739.404	42993.69
739.744	42764.09
740.084	42651.1
740.424	42616.07
740.764	42625.79
741.104	42611.32
741.444	42402.97
741.784	42333.82
742.124	42334.49
742.464	42181.96
742.804	42109.19
743.143	42130.66
743.483	42222.86
743.823	41911
744.162	41841.63
744.502	41939.93
744.841	41689.54
745.181	41772.7
745.52	41593.95
745.86	41713.04
746.199	41596.66
746.538	41484.12
746.877	41469.21
747.216	41532.71
747.556	41318.25
747.895	41250.23
748.234	41033.06
748.573	40954.87
748.911	40967.75
749.25	40803.91
749.589	40590.81
749.928	40671.04
750.267	40851.37
750.605	40652.96
750.944	40571.38
751.283	40292.06
751.621	40222.01
751.96	39973.65
752.298	40139.07
752.636	40099.52
752.975	39826.99
753.313	39828.12
753.651	40002.8
753.989	39656.82
754.327	39538.64
754.666	39264.74
755.004	39365.31
755.342	39241.69
755.679	39031.98
756.017	38951.31
756.355	38963.06
756.693	38797.19
757.031	38911.31
757.368	38487.82
757.706	38417.99
758.044	38280.82
758.381	38363.98
758.719	38178.22
759.056	38238.78
759.394	38034.95
759.731	37844.67
760.068	37667.27
760.405	37619.59
760.743	37403.78
761.08	37424.57
761.417	37146.38
761.754	37129.66
762.091	37097.34
762.428	36993.39
762.765	36738.48
763.102	36697.35
763.438	36508.43
763.775	36355.89
764.112	36455.33
764.449	36489.68
764.785	36093.75
765.122	36086.3
765.458	35974.66
765.795	35913.65
766.131	35931.95
766.467	35680.43
766.804	35551.17
767.14	35350.05
767.476	35309.59
767.812	35028.25
768.148	35197.05
768.485	35037.28
768.821	34918.87
769.157	34696.28
769.492	34649.5
769.828	34671.42
770.164	34337.87
770.5	34374.7
770.836	34204.31
771.171	34068.04
771.507	34124.09
771.842	33924.77
772.178	33790.31
772.513	33740.37
772.849	33570.88
773.184	33451.11
773.519	33419.93
773.855	33328.86
774.19	33238.46
774.525	33093.61
774.86	33072.82
775.195	32850.68
775.53	32777.68
775.865	32666.95
776.2	32226.51
776.535	32283.46
776.87	32242.78
777.205	32190.13
777.539	32030.36
777.874	32124.82
778.209	31782.46
778.543	31729.8
778.878	31628.79
779.212	31689.35
779.547	31407.78
779.881	31493.88
780.215	31179.31
780.55	31207.1
780.884	31013.89
781.218	30981.57
781.552	30902.03
781.886	30737.29
782.22	30529.15
782.554	30433.56
782.888	30130.75
783.222	30166.9
783.556	29991.54
783.889	29918.55
784.223	29701.61
784.557	29749.06
784.89	29745.67
785.224	29567.6
785.557	29324.44
785.891	29251.22
786.224	29135.29
786.558	29218.23
786.891	28929.65
787.224	28872.25
787.557	28762.42
787.891	28726.49
788.224	28644.68
788.557	28583.9
788.89	28524.46
789.223	28468.42
789.556	28216.67
789.888	28070.91
790.221	28024.14
790.554	27714.31
790.887	27708.21
791.219	27663.69
791.552	27628.44
791.884	27308.9
792.217	27340.09
792.549	27203.59
792.882	26944.16
793.214	26828.24
793.546	26948.23
793.879	26706.66
794.211	26621.46
794.543	26671.86
794.875	26425.76
795.207	26614.68
795.539	26384.63
795.871	26318.87
796.203	26003.4
796.535	25918.43
796.867	25849.5
797.198	25725.67
797.53	25693.8
797.862	25429.18
798.193	25578.78
798.525	25312.57
798.856	25332.68
799.188	25067.6
799.519	25089.98
799.85	24868.51
800.182	24854.05
800.513	24872.35
800.844	24542.65
801.175	24949.19
801.506	24693.83
801.837	24510.78
802.168	24523.44
802.499	24412.48
802.83	24345.81
803.161	24287.06
803.491	24186.27
803.822	24112.15
804.153	24005.48
804.483	23843.23
804.814	23789.67
805.145	23691.59
805.475	23818.14
805.805	23671.03
806.136	23655.66
806.466	23544.25
806.796	23600.52
807.126	23415.9
807.457	23278.72
807.787	23340.64
808.117	23230.59
808.447	23238.05
808.777	23215.22
809.107	23094.77
809.436	23099.52
809.766	22979.52
810.096	22916.47
810.426	22833.76
810.755	22968.68
811.085	22804.39
811.414	22792.64
811.744	22635.35
812.073	22622.92
812.403	22653.2
812.732	22515.35
813.061	22548.8
813.39	22446.66
813.719	22306.77
814.049	22415.24
814.378	22332.76
814.707	22316.04
815.036	22185.19
815.365	22113.78
815.693	21956.95
816.022	22002.83
816.351	21762.83
816.68	21696.84
817.008	21948.14
817.337	21737.07
817.665	21602.61
817.994	21770.29
818.322	21627.02
818.651	21589.95
818.979	21465.89
819.307	21642.61
819.636	21558.54
819.964	21393.12
820.292	21457.98
820.62	21375.27
820.948	21370.53
821.276	21472.67
821.604	21336.85
821.932	21414.82
822.259	21386.57
822.587	21361.49
822.915	21355.61
823.243	21426.57
823.57	21304.54
823.898	21440.13
824.225	21224.77
824.553	21319.68
824.88	21329.85
825.207	21334.37
825.535	21347.48
825.862	21427.7
826.189	21211.89
826.516	21378.66
826.843	21369.17
827.17	21384.31
827.497	21460.92
827.824	21356.97
828.151	21457.53
828.478	21377.31
828.805	21429.51
829.131	21217.08
829.458	21403.52
829.785	21186.58
830.111	21136.18
830.438	21356.97
830.764	21176.86
831.09	21232.9
831.417	21108.84
831.743	21209.63
832.069	21129.4
832.395	21033.36
832.722	21137.76
833.048	20954.72
833.374	21055.28
833.7	20862.29
834.026	20890.09
834.351	20920.82
834.677	20864.55
835.003	20830.65
835.329	20733.93
835.654	20731.22
835.98	20660.49
836.306	20615.52
836.631	20452.81
836.956	20660.49
837.282	20505.24
837.607	20376.88
837.932	20332.36
838.258	20442.41
838.583	20443.32
838.908	20183.21
839.233	20209.2
839.558	20195.64
839.883	20056.89
840.208	19993.84
840.533	20008.75
840.858	20042.65
841.182	19904.12
841.507	19910.68
841.832	19768.08
842.156	19778.7
842.481	19739.83
842.805	19557.01
843.13	19591.14
843.454	19609.44
843.778	19551.59
844.103	19541.65
844.427	19340.97
844.751	19419.62
845.075	19411.03
845.399	19187.76
845.723	19098.27
846.047	19084.71
846.371	19049
846.695	19010.59
847.019	18844.04
847.343	18770.37
847.666	18698.05
847.99	18605.4
848.313	18588.23
848.637	18473.2
848.96	18520.88
849.284	18369.93
849.607	18174
849.931	18155.02
850.254	18031.18
850.577	18013.78
850.9	17858.08
851.223	17851.07
851.546	17806.55
851.869	17754.12
852.192	17797.96
852.515	17625.31
852.838	17471.19
853.161	17510.06
853.483	17478.42
853.806	17370.4
854.129	17328.6
854.451	17322.27
854.774	17292.89
855.096	17246.57
855.419	17189.62
855.741	17108.49
856.063	16995.27
856.385	16963.18
856.708	16900.36
857.03	16921.38
857.352	16941.72
857.674	16898.78
857.996	16875.5
858.318	16730.65
858.64	16801.61
858.961	16701.5
859.283	16689.07
859.605	16589.41
859.926	16574.95
860.248	16592.12
860.57	16541.05
860.891	16476.87
861.212	16336.53
861.534	16415.18
861.855	16330.66
862.176	16454.95
862.498	16390.77
862.819	16276.65
863.14	16225.58
863.461	16245.01
863.782	16194.62
864.103	16180.15
864.424	16150.78
864.745	16178.8
865.065	16113.71
865.386	16112.13
865.707	16021.74
866.027	16036.65
866.348	16022.64
866.668	15986.71
866.989	15932.25
867.309	15851.12
867.63	15858.58
867.95	15915.53
868.27	15833.5
868.59	15812.25
868.91	15890.44
869.23	15819.71
869.55	15706.72
869.87	15898.13
870.19	15682.99
870.51	15807.73
870.83	15715.08
871.15	15683.44
871.469	15766.15
871.789	15737.45
872.109	15681.86
872.428	15604.8
872.748	15608.42
873.067	15523
873.386	15553.5
873.706	15575.42
874.025	15460.85
874.344	15484.58
874.663	15439.38
874.982	15468.99
875.301	15360.51
875.62	15346.73
875.939	15295.66
876.258	15272.61
876.577	15238.71
876.896	15214.08
877.214	15124.81
877.533	15177.24
877.852	15144.02
878.17	15125.94
878.489	15162.55
878.807	15047.08
879.125	15041.65
879.444	14973.18
879.762	14869.91
880.08	14942.22
880.398	14826.06
880.716	14802.34
881.034	14671.49
881.352	14692.74
881.67	14560.54
881.988	14622.91
882.306	14623.13
882.624	14612.06
882.941	14539.97
883.259	14468.11
883.577	14423.59
883.894	14399.41
884.212	14362.12
884.529	14339.98
884.846	14261.33
885.164	14230.37
885.481	14116.03
885.798	14173.43
886.115	13992.19
886.432	14058.85
886.75	13980.66
887.067	13964.39
887.383	13913.09
887.7	13891.4
888.017	13808.92
888.334	13882.13
888.651	13800.33
888.967	13759.43
889.284	13689.6
889.6	13605.08
889.917	13529.38
890.233	13601.46
890.55	13464.07
890.866	13486.67
891.182	13400.11
891.498	13423.39
891.815	13345.88
892.131	13307.01
892.447	13179.1
892.763	13196.73
893.079	13178.42
893.395	13123.06
893.71	13158.31
894.026	13016.4
894.342	13067.02
894.657	12923.74
894.973	12940.69
895.289	12942.72
895.604	12885.33
895.92	12759.23
896.235	12692.56
896.55	12702.05
896.865	12687.59
897.181	12668.61
897.496	12646.91
897.811	12548.61
898.126	12614.15
898.441	12522.17
898.756	12461.38
899.071	12395.62
899.386	12482.62
899.7	12316.07
900.015	12271.1
900.33	12277.66
900.644	12232.91
900.959	12178.9
901.273	12018.68
901.588	12040.38
901.902	11970.09
902.216	11894.39
902.531	11852.81
902.845	11846.26
903.159	11814.17
903.473	11721.51
903.787	11813.26
904.101	11633.15
904.415	11672.48
904.729	11669.99
905.042	11635.64
905.356	11602.87
905.67	11595.19
905.984	11543.89
906.297	11458.02
906.611	11481.97
906.924	11394.74
907.237	11412.37
907.551	11368.3
907.864	11241.3
908.177	11206.05
908.491	11162.66
908.804	11127.86
909.117	11053.28
909.43	10952.49
909.743	10946.17
910.056	10899.84
910.368	10827.53
910.681	10794.31
910.994	10766.06
911.307	10800.41
911.619	10708.43
911.932	10658.94
912.244	10620.3
912.557	10614.65
912.869	10627.53
913.181	10524.71
913.494	10522.9
913.806	10417.37
914.118	10423.24
914.43	10301.89
914.742	10370.59
915.054	10249.46
915.366	10273.19
915.678	10341.44
915.99	10217.6
916.302	10174.21
916.613	10133.53
916.925	10055.12
917.236	10093.99
917.548	9954.1
917.859	9942.8
918.171	9921.11
918.482	9856.03
918.794	9886.31
919.105	9877.49
919.416	9773.09
919.727	9712.98
920.038	9786.65
920.349	9620.1
920.66	9679.76
920.971	9622.59
921.282	9583.49
921.593	9469.82
921.903	9388.47
922.214	9458.52
922.525	9345.08
922.835	9411.97
923.146	9272.99
923.456	9215.14
923.767	9290.39
924.077	9234.35
924.387	9271.63
924.697	9108.7
925.008	9105.09
925.318	9080.45
925.628	9056.5
925.938	8955.48
926.248	8864.64
926.558	8818.99
926.867	8855.37
927.177	8813.57
927.487	8731.31
927.796	8675.49
928.106	8657.87
928.416	8669.84
928.725	8611.31
929.034	8587.13
929.344	8571.09
929.653	8476.18
929.962	8425.33
930.271	8354.82
930.581	8328.83
930.89	8222.4
931.199	8288.61
931.508	8216.3
931.817	8135.39
932.125	8076.64
932.434	8084.55
932.743	8039.58
933.051	8036.19
933.36	7917.32
933.669	7825.12
933.977	7838.9
934.286	7852.01
934.594	7853.37
934.902	7788.51
935.21	7739.02
935.519	7699.7
935.827	7706.7
936.135	7594.16
936.443	7533.38
936.751	7466.94
937.059	7517.78
937.367	7437.11
937.674	7419.03
937.982	7379.03
938.29	7299.71
938.597	7277.34
938.905	7206.6
939.213	7174.74
939.52	7191.24
939.827	7229.43
940.135	7143.33
940.442	7084.8
940.749	7049.55
941.056	7117.79
941.363	7001.64
941.67	7002.99
941.977	6968.42
942.284	6885.26
942.591	6942.2
942.898	6784.24
943.205	6835.09
943.511	6772.49
943.818	6718.03
944.125	6707.18
944.431	6703.57
944.738	6629.9
945.044	6624.92
945.35	6596.68
945.657	6605.72
945.963	6534.31
946.269	6527.07
946.575	6541.09
946.881	6529.33
947.187	6461.09
947.493	6405.27
947.799	6399.17
948.105	6350.13
948.41	6323.01
948.716	6350.81
949.022	6306.97
949.327	6226.97
949.633	6242.34
949.938	6265.61
950.244	6254.99
950.549	6165.5
950.854	6179.74
951.16	6161.43
951.465	6070.36
951.77	6085.73
952.075	6073.75
952.38	6023.58
952.685	6017.26
952.99	5999.4
953.294	5965.51
953.599	5887.77
953.904	5890.03
954.209	5850.03
954.513	5849.35
954.818	5828.79
955.122	5796.02
955.426	5761.22
955.731	5733.87
956.035	5718.51
956.339	5736.36
956.643	5721.22
956.948	5609.36
957.252	5605.74
957.556	5617.95
957.86	5620.66
958.163	5549.92
958.467	5560.55
958.771	5506.31
959.075	5532.3
959.378	5456.37
959.682	5408.46
959.985	5349.7
960.289	5388.57
960.592	5392.41
960.896	5326.65
961.199	5264.06
961.502	5275.13
961.805	5284.62
962.108	5254.57
962.411	5245.53
962.714	5179.31
963.017	5170.05
963.32	5142.93
963.623	5108.35
963.926	5137.05
964.228	5059.99
964.531	5065.19
964.833	5117.85
965.136	4965.31
965.438	4984.74
965.741	4982.48
966.043	4947.91
966.345	4973.67
966.648	4945.87
966.95	4917.85
967.252	4891.41
967.554	4870.85
967.856	4822.26
968.158	4821.36
968.46	4796.72
968.761	4832.43
969.063	4771.19
969.365	4778.19
969.666	4728.03
969.968	4746.1
970.269	4698.2
970.571	4687.8
970.872	4670.4
971.174	4638.31
971.475	4634.69
971.776	4635.15
972.077	4555.83
972.378	4520.35
972.679	4603.06
972.98	4509.5
973.281	4522.38
973.582	4518.09
973.883	4491.65
974.183	4493.91
974.484	4456.17
974.785	4420.69
975.085	4432.44
975.386	4396.06
975.686	4367.81
975.986	4378.2
976.287	4329.39
976.587	4337.3
976.887	4302.73
977.187	4305.44
977.487	4317.41
977.787	4268.15
978.087	4234.25
978.387	4268.83
978.687	4194.48
978.987	4150.41
979.286	4168.94
979.586	4143.86
979.885	4124.43
980.185	4102.05
980.484	4076.07
980.784	4044.65
981.083	3994.49
981.382	4022.96
981.682	4014.37
981.981	4040.13
982.28	3967.82
982.579	3918.1
982.878	3926.01
983.177	3895.73
983.475	3865.22
983.774	3867.48
984.073	3826.81
984.372	3775.06
984.67	3810.76
984.969	3765.11
985.267	3779.35
985.566	3720.37
985.864	3692.12
986.162	3712.46
986.461	3641.73
986.759	3626.13
987.057	3637.88
987.355	3604.21
987.653	3551.56
987.951	3601.05
988.249	3568.73
988.547	3547.04
988.844	3509.98
989.142	3521.28
989.44	3453.26
989.737	3414.39
990.035	3387.95
990.332	3370.55
990.63	3371.45
990.927	3367.38
991.224	3359.7
991.521	3301.85
991.819	3308.63
992.116	3301.17
992.413	3291.45
992.71	3198.57
993.006	3266.82
993.303	3194.05
993.6	3170.1
993.897	3175.98
994.193	3185.47
994.49	3166.26
994.787	3131.01
995.083	3089.2
995.379	3106.15
995.676	3106.37
995.972	3043.78
996.268	3023.44
996.565	3029.99
996.861	3012.36
997.157	2987.51
997.453	2972.37
997.749	2959.03
998.044	2926.94
998.34	2896.66
998.636	2925.81
998.932	2851.92
999.227	2849.43
999.523	2866.83
999.818	2858.02
1000.114	2828.41
1000.409	2791.81
1000.704	2816.66
1001	2771.69
1001.295	2758.59
1001.59	2773.73
1001.885	2784.12
1002.18	2759.04
1002.475	2712.94
1002.77	2653.05
1003.065	2694.63
1003.359	2665.93
1003.654	2674.52
1003.949	2649.66
1004.243	2592.49
1004.538	2624.58
1004.832	2615.31
1005.127	2588.65
1005.421	2550
1005.715	2534.86
1006.009	2539.38
1006.304	2540.29
1006.598	2499.61
1006.892	2511.59
1007.186	2486.05
1007.48	2496.45
1007.773	2470.68
1008.067	2414.41
1008.361	2422.32
1008.655	2439.27
1008.948	2411.93
1009.242	2390.46
1009.535	2380.29
1009.829	2364.25
1010.122	2356.79
1010.415	2314.76
1010.708	2307.52
1011.001	2315.21
1011.295	2296.45
1011.588	2288.54
1011.881	2267.98
1012.173	2291.93
1012.466	2278.82
1012.759	2246.96
1013.052	2228.66
1013.344	2209.45
1013.637	2196.11
1013.93	2166.74
1014.222	2159.73
1014.514	2159.73
1014.807	2158.15
1015.099	2151.6
1015.391	2095.55
1015.683	2106.4
1015.976	2085.16
1016.268	2086.06
1016.56	2076.12
1016.851	2036.57
1017.143	2019.17
1017.435	2035.21
1017.727	1993.86
1018.018	1999.96
1018.31	2013.29
1018.602	1997.25
1018.893	1945.05
1019.185	1954.09
1019.476	1935.78
1019.767	1936.91
1020.058	1939.62
1020.35	1890.13
1020.641	1887.42
1020.932	1868.21
1021.223	1824.15
1021.514	1827.31
1021.804	1831.83
1022.095	1831.15
1022.386	1799.74
1022.677	1772.17
1022.967	1777.59
1023.258	1779.63
1023.548	1716.58
1023.839	1746.63
1024.129	1716.35
1024.419	1729.01
1024.709	1719.52
1025	1723.58
1025.29	1707.77
1025.58	1687.2
1025.87	1689.46
1026.16	1649.69
1026.449	1636.58
1026.739	1645.17
1027.029	1634.1
1027.319	1613.98
1027.608	1597.26
1027.898	1580.54
1028.187	1586.19
1028.477	1608.79
1028.766	1585.51
1029.055	1552.97
1029.344	1507.09
1029.634	1539.63
1029.923	1529.01
1030.212	1523.82
1030.501	1500.09
1030.79	1516.58
1031.078	1465.74
1031.367	1477.49
1031.656	1476.59
1031.945	1489.47
1032.233	1435.68
1032.522	1423.03
1032.81	1457.6
1033.099	1453.99
1033.387	1413.99
1033.675	1421.9
1033.963	1427.32
1034.251	1407.21
1034.54	1389.58
1034.828	1398.17
1035.116	1355.46
1035.403	1386.42
1035.691	1349.13
1035.979	1343.03
1036.267	1332.86
1036.554	1333.76
1036.842	1309.13
1037.129	1343.03
1037.417	1287.44
1037.704	1295.8
1037.992	1313.2
1038.279	1305.97
1038.566	1275.23
1038.853	1275.23
1039.14	1275.23
