Data from white_poster_card_FLMS001491_00006.txt Node
Date: Wed Feb 08 11:50:57 GMT 2017
User: dcchb
Spectrometer: FLMS00149
Trigger mode: 0
Integration Time (sec): 2.000000E-2
Scans to average: 10
Electric dark correction enabled: true
Nonlinearity correction enabled: false
Boxcar width: 0
XAxis mode: Wavelengths
Number of Pixels in Spectrum: 2048
>>>>>Begin Spectral Data<<<<<
341.393	-0.03
341.776	-0.03
342.16	-0.03
342.543	-62.63
342.927	-65.34
343.31	-64.21
343.693	-70.76
344.077	-71.66
344.46	-71.21
344.843	-55.62
345.226	-29.41
345.61	-36.19
345.993	-22.63
346.376	12.85
346.759	27.54
347.142	27.54
347.525	47.43
347.908	45.39
348.291	72.51
348.674	84.72
349.057	103.7
349.44	129.23
349.823	118.61
350.206	164.26
350.588	213.98
350.971	205.62
351.354	212.4
351.737	239.97
352.119	267.76
352.502	285.84
352.884	258.95
353.267	280.64
353.65	295.56
354.032	302.79
354.414	317.93
354.797	319.06
355.179	333.75
355.562	312.96
355.944	314.54
356.326	330.81
356.709	357.48
357.091	328.1
357.473	345.05
357.855	361.54
358.238	345.05
358.62	331.04
359.002	349.79
359.384	372.84
359.766	335.33
360.148	345.27
360.53	327.65
360.912	355.67
361.294	333.75
361.676	348.89
362.057	325.84
362.439	328.78
362.821	337.59
363.203	332.84
363.584	334.88
363.966	339.62
364.348	331.94
364.729	324.93
365.111	325.84
365.493	335.56
365.874	310.02
366.256	331.49
366.637	313.18
367.019	326.97
367.4	310.7
367.781	318.61
368.163	337.59
368.544	308.89
368.925	318.38
369.306	302.56
369.688	319.51
370.069	311.15
370.45	297.14
370.831	309.79
371.212	323.81
371.593	332.62
371.974	341.21
372.355	335.78
372.736	331.49
373.117	311.15
373.498	332.62
373.879	318.83
374.26	330.58
374.641	327.65
375.021	316.8
375.402	338.49
375.783	351.83
376.163	334.2
376.544	358.38
376.925	331.49
377.305	340.3
377.686	313.64
378.066	352.05
378.447	334.2
378.827	351.37
379.208	341.21
379.588	339.17
379.968	333.07
380.349	347.99
380.729	350.25
381.109	358.83
381.489	345.73
381.87	337.82
382.25	373.97
382.63	357.7
383.01	375.78
383.39	362.45
383.77	351.6
384.15	362.9
384.53	354.76
384.91	359.51
385.29	376.23
385.67	362
386.049	357.7
386.429	377.81
386.809	374.65
387.189	382.79
387.568	397.48
387.948	383.01
388.328	394.99
388.707	367.19
389.087	422.56
389.466	390.7
389.846	378.49
390.225	388.21
390.605	404.48
390.984	396.35
391.363	429.11
391.743	412.16
392.122	400.41
392.501	401.77
392.881	416.46
393.26	411.71
393.639	415.33
394.018	430.02
394.397	439.96
394.776	431.6
395.155	423.69
395.534	436.12
395.913	448.77
396.292	415.33
396.671	438.15
397.05	435.44
397.429	432.95
397.808	465.5
398.186	440.86
398.565	483.35
398.944	454.65
399.323	454.65
399.701	473.18
400.08	464.37
400.458	461.65
400.837	477.25
401.215	451.94
401.594	465.72
401.972	483.8
402.351	503.24
402.729	478.6
403.107	498.72
403.486	480.64
403.864	488.55
404.242	499.62
404.62	491.26
404.999	525.16
405.377	523.8
405.755	524.93
406.133	523.8
406.511	552.5
406.889	552.27
407.267	589.11
407.645	559.05
408.023	577.13
408.401	583.46
408.779	604.7
409.156	626.62
409.534	617.81
409.912	660.52
410.29	623.23
410.667	644.93
411.045	665.26
411.422	661.42
411.8	673.17
412.178	703
412.555	717.92
412.933	728.99
413.31	727.41
413.687	762.44
414.065	761.99
414.442	778.03
414.819	794.98
415.197	831.14
415.574	842.44
415.951	852.83
416.328	851.7
416.705	882.66
417.082	904.58
417.46	906.16
417.837	925.37
418.214	928.31
418.591	985.71
418.967	984.13
419.344	996.56
419.721	1016.44
420.098	1053.05
420.475	1045.82
420.852	1063.22
421.228	1070.23
421.605	1093.5
421.982	1114.52
422.358	1094.41
422.735	1162.65
423.111	1138.7
423.488	1177.12
423.864	1196.78
424.241	1208.75
424.617	1235.65
424.994	1252.59
425.37	1243.33
425.746	1300.73
426.123	1285.36
426.499	1277.68
426.875	1308.19
427.251	1350.67
427.627	1384.12
428.003	1410.33
428.379	1400.16
428.756	1425.7
429.132	1432.25
429.507	1466.37
429.883	1501.85
430.259	1527.62
430.635	1526.26
431.011	1535.52
431.387	1592.25
431.763	1625.92
432.138	1625.69
432.514	1648.52
432.89	1673.15
433.265	1699.81
433.641	1732.36
434.016	1717.67
434.392	1765.35
434.767	1805.35
435.143	1768.96
435.518	1832.69
435.894	1831.79
436.269	1888.51
436.644	1885.57
437.02	1937.32
437.395	1926.7
437.77	1954.72
438.145	1981.39
438.52	2006.92
438.895	2051.44
439.271	2003.08
439.646	2072.46
440.021	2097.09
440.395	2095.74
440.77	2073.59
441.145	2100.71
441.52	2141.61
441.895	2134.6
442.27	2174.83
442.645	2179.12
443.019	2207.82
443.394	2195.17
443.769	2248.27
444.143	2196.52
444.518	2227.71
444.892	2258.67
445.267	2235.85
445.641	2306.8
446.016	2310.65
446.39	2354.71
446.764	2347.48
447.139	2334.6
447.513	2371.21
447.887	2359.91
448.262	2392.45
448.636	2369.85
449.01	2421.6
449.384	2471.09
449.758	2445.56
450.132	2492.79
450.506	2523.07
450.88	2513.13
451.254	2491.88
451.628	2565.55
452.002	2602.62
452.376	2629.73
452.75	2646.91
453.123	2670.41
453.497	2705.21
453.871	2758.54
454.244	2765.32
454.618	2783.85
454.992	2841.25
455.365	2809.16
455.739	2888.48
456.112	2907.47
456.486	2944.3
456.859	2956.05
457.232	3027.24
457.606	3030.17
457.979	3081.02
458.352	3123.96
458.725	3141.81
459.099	3175.93
459.472	3210.06
459.845	3236.72
460.218	3279.21
460.591	3318.53
460.964	3348.36
461.337	3417.51
461.71	3467.23
462.083	3521.91
462.456	3500.22
462.829	3539.54
463.201	3629.48
463.574	3629.48
463.947	3675.81
464.32	3752.64
464.692	3794.45
465.065	3810.04
465.438	3836.48
465.81	3910.15
466.183	3939.3
466.555	4033.99
466.928	4042.13
467.3	4032.18
467.672	4118.73
468.045	4210.71
468.417	4203.25
468.789	4243.25
469.161	4306.07
469.534	4355.34
469.906	4500.87
470.278	4516.24
470.65	4556.91
471.022	4611.6
471.394	4688.44
471.766	4739.51
472.138	4846.4
472.51	4881.2
472.882	4974.98
473.253	4968.65
473.625	5084.13
473.997	5198.71
474.369	5258.82
474.74	5235.77
475.112	5416.1
475.484	5463.33
475.855	5533.84
476.227	5601.86
476.598	5729.99
476.97	5801.4
477.341	5896.54
477.713	5988.06
478.084	6017.21
478.455	6174.5
478.827	6243.65
479.198	6445.23
479.569	6436.19
479.94	6630.08
480.311	6658.33
480.682	6782.17
481.053	6928.38
481.424	6990.97
481.795	7085.66
482.166	7230.29
482.537	7298.99
482.908	7470.06
483.279	7554.8
483.65	7718.19
484.021	7848.35
484.391	7964.28
484.762	8015.35
485.133	8049.25
485.503	8228.68
485.874	8403.59
486.244	8433.65
486.615	8626.41
486.985	8707.54
487.356	8910.7
487.726	8939.62
488.097	9121.31
488.467	9116.12
488.837	9356.11
489.207	9423.23
489.578	9562.43
489.948	9663.45
490.318	9757.23
490.688	9860.05
491.058	10012.36
491.428	10098.46
491.798	10284.9
492.168	10451.9
492.538	10483.54
492.908	10589.52
493.278	10709.29
493.648	10758.33
494.017	10908.39
494.387	11092.56
494.757	11165.1
495.126	11202.39
495.496	11281.03
495.866	11456.17
496.235	11463.63
496.605	11575.71
496.974	11700.46
497.344	11807.8
497.713	11915.59
498.082	11956.49
498.452	12081.69
498.821	12125.75
499.19	12233.1
499.559	12365.52
499.928	12371.4
500.298	12511.28
500.667	12696.36
501.036	12613.65
501.405	12757.15
501.774	12826.98
502.143	12971.83
502.512	12941.33
502.88	13167.76
503.249	13169.34
503.618	13178.61
503.987	13301.99
504.356	13438.04
504.724	13499.96
505.093	13609.56
505.462	13620.86
505.83	13713.74
506.199	13870.79
506.567	14049.09
506.936	14062.65
507.304	14256.09
507.672	14225.36
508.041	14400.95
508.409	14543.32
508.777	14652.92
509.145	14736.08
509.514	14659.7
509.882	14877.09
510.25	14845.23
510.618	15053.14
510.986	15134.26
511.354	15259.91
511.722	15385.1
512.09	15622.39
512.458	15557.53
512.826	15801.36
513.193	15845.43
513.561	15821.48
513.929	15950.96
514.297	16201.35
514.664	16307.34
515.032	16363.61
515.4	16511.63
515.767	16607.22
516.135	16751.17
516.502	16695.13
516.869	16958.85
517.237	17009.24
517.604	17052.63
517.972	17288.78
518.339	17378.95
518.706	17381.21
519.073	17541.43
519.44	17619.4
519.808	17858.03
520.175	17908.43
520.542	18171.25
520.909	18257.34
521.276	18329.89
521.643	18506.83
522.009	18535.76
522.376	18702.76
522.743	18919.93
523.11	19036.53
523.477	19247.38
523.843	19396.98
524.21	19516.29
524.577	19751.54
524.943	19797.19
525.31	19945.44
525.676	20189.5
526.043	20220.68
526.409	20293
526.776	20528.02
527.142	20634.68
527.508	20749.48
527.874	20960.1
528.241	21062.69
528.607	21246.19
528.973	21284.84
529.339	21326.87
529.705	21578.61
530.071	21776.35
530.437	21858.61
530.803	22033.97
531.169	22208.88
531.535	22165.49
531.901	22342.44
532.267	22457.23
532.632	22613.16
532.998	22686.38
533.364	22857.68
533.73	22907.62
534.095	23050.89
534.461	23137.22
534.826	23199.59
535.192	23367.27
535.557	23500.6
535.923	23450.88
536.288	23576.53
536.653	23831.89
537.019	23698.78
537.384	23825.33
537.749	24024.2
538.114	24154.36
538.479	24170.18
538.845	24271.42
539.21	24268.94
539.575	24476.84
539.94	24501.93
540.305	24704.41
540.67	24613.56
541.034	24855.14
541.399	24987.11
541.764	24840.9
542.129	25054.23
542.494	25123.38
542.858	25246.54
543.223	25281.79
543.587	25392.07
543.952	25590.49
544.316	25461.68
544.681	25569.69
545.045	25778.28
545.41	25752.97
545.774	25879.07
546.138	26113.86
546.503	26037.93
546.867	26025.28
547.231	26413.29
547.595	26397.47
547.959	26474.98
548.324	26434.98
548.688	26574.64
549.052	26759.04
549.416	26716.56
549.779	26862.32
550.143	26930.34
550.507	27118.81
550.871	27100.73
551.235	27051.01
551.599	27408.52
551.962	27594.95
552.326	27576.42
552.689	27719.69
553.053	27599.7
553.417	27700.94
553.78	28060.25
554.143	27949.97
554.507	28146.58
554.87	28214.37
555.234	28509.96
555.597	28355.84
555.96	28453.23
556.323	28683.29
556.686	28793.56
557.05	28976.38
557.413	29096.83
557.776	29153.56
558.139	29365.75
558.502	29335.92
558.865	29452.76
559.228	29792.41
559.59	29773.43
559.953	29847.32
560.316	30261.32
560.679	30149.69
561.041	30406.86
561.404	30461.54
561.767	30715.1
562.129	30637.58
562.492	30914.19
562.854	30891.14
563.217	31040.74
563.579	31066.05
563.941	31443.66
564.304	31464.91
564.666	31693.6
565.028	31736.99
565.39	31875.97
565.753	31981.5
566.115	32194.83
566.477	32199.58
566.839	32382.62
567.201	32589.62
567.563	32675.5
567.925	32920.91
568.287	32715.95
568.648	32993.91
569.01	33196.16
569.372	33405.87
569.734	33268.93
570.095	33521.35
570.457	33777.61
570.819	33686.77
571.18	33783.26
571.542	34030.04
571.903	33962.92
572.265	34074.1
572.626	34230.03
572.987	34331.95
573.349	34422.57
573.71	34588.67
574.071	34752.73
574.432	34745.95
574.794	35022.78
575.155	34944.59
575.516	34963.8
575.877	35097.58
576.238	35223.45
576.599	35272.72
576.96	35295.54
577.32	35274.52
577.681	35512.71
578.042	35472.94
578.403	35565.14
578.763	35637
579.124	35703.44
579.485	35784.34
579.845	35816.21
580.206	35745.92
580.566	35806.94
580.927	35956.54
581.287	35864.57
581.648	35943.43
582.008	36058.91
582.368	36069.98
582.728	36064.56
583.089	36139.13
583.449	36028.63
583.809	36112.47
584.169	36167.83
584.529	36097.1
584.889	36340.49
585.249	36161.51
585.609	36077.89
585.969	36273.37
586.329	36186.36
586.688	36236.99
587.048	36260.49
587.408	36235.63
587.768	36260.71
588.127	36156.99
588.487	36072.02
588.846	36408.96
589.206	36208.29
589.565	36279.47
589.925	36304.55
590.284	36372.8
590.643	36230.21
591.003	36387.26
591.362	36312.69
591.721	36346.36
592.08	36373.25
592.44	36512.01
592.799	36476.75
593.158	36344.55
593.517	36525.11
593.876	36540.03
594.235	36383.87
594.593	36538.9
594.952	36505.68
595.311	36417.77
595.67	36450.54
596.029	36708.84
596.387	36744.09
596.746	36722.85
597.104	36561.27
597.463	36546.58
597.822	36693.92
598.18	36652.79
598.538	36696.18
598.897	36886.91
599.255	36553.81
599.613	37076.29
599.972	36798.78
600.33	36848.04
600.688	36810.76
601.046	36951.32
601.404	37164.42
601.762	36944.31
602.12	37118.77
602.478	37246.9
602.836	37104.76
603.194	37025.66
603.552	37121.26
603.91	37067.92
604.268	37244.87
604.625	37172.33
604.983	37195.38
605.341	37206.9
605.698	37358.76
606.056	37371.19
606.413	37388.59
606.771	37429.27
607.128	37509.27
607.485	37304.53
607.843	37415.71
608.2	37588.81
608.557	37630.17
608.914	37498.19
609.272	37820.67
609.629	37863.83
609.986	38011.18
610.343	37856.6
610.7	37962.59
611.057	37915.58
611.414	37908.35
611.771	37940.67
612.127	38092.3
612.484	37963.95
612.841	38180.89
613.198	37991.97
613.554	38098.41
613.911	38249.14
614.267	38374.33
614.624	38230.6
614.98	38260.21
615.337	38423.59
615.693	38418.62
616.05	38365.74
616.406	38561.67
616.762	38394.89
617.118	38410.49
617.475	38462.01
617.831	38541.56
618.187	38502.46
618.543	38633.53
618.899	38804.83
619.255	38741.55
619.611	38616.81
619.967	38794.21
620.323	38918.5
620.678	38887.54
621.034	38683.93
621.39	38683.25
621.746	38592.18
622.101	39055.89
622.457	38616.36
622.812	38818.39
623.168	38903.13
623.523	38856.58
623.879	39042.11
624.234	38586.08
624.589	38837.37
624.945	38885.95
625.3	38853.64
625.655	38777.26
626.01	38742.91
626.365	38736.13
626.72	38715.34
627.075	38753.08
627.43	38812.28
627.785	38683.25
628.14	38773.64
628.495	38726.86
628.85	38701.1
629.205	38624.94
629.559	38850.02
629.914	38541.11
630.269	38699.75
630.623	38488.9
630.978	38499.52
631.332	38617.71
631.687	38708.78
632.041	38492.07
632.396	38510.6
632.75	38228.57
633.104	38384.27
633.459	38221.11
633.813	38313.99
634.167	38243.26
634.521	38206.65
634.875	38193.77
635.229	38155.35
635.583	37892.53
635.937	38031.51
636.291	38006.88
636.645	38007.11
636.999	37712.2
637.352	37945.64
637.706	37657.96
638.06	37876.04
638.413	37812.08
638.767	37616.38
639.121	37726.89
639.474	37428.14
639.828	37535.26
640.181	37547.23
640.534	37506.78
640.888	37443.06
641.241	37179.11
641.594	37262.95
641.947	37420.68
642.301	37369.61
642.654	37331.19
643.007	37194.02
643.36	37206
643.713	37212.33
644.066	37265.88
644.419	37045.33
644.771	36827.93
645.124	36488.05
645.477	36335.74
645.83	36119.7
646.182	35910.89
646.535	35803.55
646.888	35916.09
647.24	35680.84
647.593	35842.19
647.945	35852.14
648.298	35583.44
648.65	35465.93
649.002	35419.15
649.355	35566.49
649.707	35503.22
650.059	35656.44
650.411	36015.52
650.763	35935.3
651.115	36472.01
651.467	36277.21
651.819	36243.31
652.171	36159.02
652.523	36046.48
652.875	35966.71
653.227	35931.46
653.578	36135.29
653.93	35981.17
654.282	35856.2
654.633	35792.93
654.985	35865.92
655.337	35734.63
655.688	35880.16
656.039	35953.38
656.391	35617.11
656.742	35722.65
657.094	35682.2
657.445	35797.45
657.796	35623.67
658.147	35647.4
658.498	35661.18
658.849	35688.98
659.2	35564.91
659.551	35419.15
659.902	35524.01
660.253	35451.24
660.604	35558.58
660.955	35310.23
661.306	35414.63
661.656	35422.54
662.007	35451.69
662.358	35337.8
662.708	35338.03
663.059	35267.07
663.409	35134.19
663.76	35329.21
664.11	35267.07
664.461	35270.46
664.811	35285.15
665.161	35341.19
665.511	35267.52
665.862	35273.39
666.212	35231.59
666.562	35286.73
666.912	35146.62
667.262	35181.87
667.612	35032.5
667.962	35107.75
668.312	35058.48
668.662	35109.33
669.011	35088.54
669.361	35041.08
669.711	34972.39
670.06	34894.65
670.41	34918.6
670.76	34846.97
671.109	35084.7
671.459	34823.01
671.808	34830.47
672.157	34888.55
672.507	34491.27
672.856	34664.15
673.205	34747.08
673.554	34726.06
673.904	34680.19
674.253	34707.31
674.602	34751.6
674.951	34286.3
675.3	34055.57
675.649	34699.4
675.998	34494.21
676.346	34487.43
676.695	34554.54
677.044	34357.03
677.393	34416.47
677.741	34491.04
678.09	34280.88
678.438	34251.27
678.787	34307.77
679.135	34272.52
679.484	33980.55
679.832	34223.93
680.181	33889.02
680.529	34065.29
680.877	33994.33
681.225	33928.57
681.573	34065.97
681.922	33959.53
682.27	33675.02
682.618	33766.77
682.966	33683.83
683.314	33728.8
683.661	33710.05
684.009	33491.97
684.357	33461.69
684.705	33351.86
685.053	33566.32
685.4	33407.91
685.748	33223.96
686.095	33049.95
686.443	33022.38
686.79	33040.46
687.138	33159.1
687.485	32966.79
687.832	32998.88
688.18	32853.35
688.527	32722.05
688.874	32748.94
689.221	32645.89
689.568	32405.67
689.915	32361.38
690.262	32408.84
690.609	32261.95
690.956	32157.54
691.303	32146.02
691.65	31980.15
691.997	32082.52
692.344	31783.99
692.69	31712.58
693.037	31734.05
693.383	31466.49
693.73	31702.19
694.077	31474.62
694.423	31526.6
694.769	31362.31
695.116	31223.78
695.462	31245.93
695.808	31155.31
696.155	31182.43
696.501	30975.2
696.847	30866.73
697.193	30739.73
697.539	30881.42
697.885	30561.43
698.231	30560.75
698.577	30595.55
698.923	30432.17
699.269	30370.25
699.614	30168.9
699.96	30080.31
700.306	30122.8
700.651	29899.07
700.997	29830.6
701.342	29826.76
701.688	29741.79
702.033	29600.32
702.379	29644.62
702.724	29609.36
703.069	29607.55
703.415	29241.01
703.76	29272.42
704.105	29270.39
704.45	29283.27
704.795	28972.77
705.14	28925.31
705.485	28942.94
705.83	28733
706.175	28830.4
706.52	28807.12
706.865	28649.16
707.209	28614.59
707.554	28404.65
707.899	28488.71
708.243	28407.59
708.588	28394.71
708.932	28111.55
709.277	27993.59
709.621	28162.85
709.966	27909.07
710.31	28100.25
710.654	27790.65
710.998	27814.16
711.342	27874.04
711.687	27743.65
712.031	27587.49
712.375	27579.59
712.719	27543.2
713.063	27438.57
713.407	27547.27
713.75	27355.86
714.094	27347.05
714.438	27229.99
714.782	27352.92
715.125	27160.84
715.469	27179.6
715.812	26966.72
716.156	26818.02
716.499	26942.99
716.843	26922.88
717.186	26743.9
717.53	26930.56
717.873	26860.96
718.216	26712.49
718.559	26534.64
718.902	26524.47
719.246	26576.22
719.589	26567.86
719.932	26284.03
720.275	26251.48
720.617	26372.61
720.96	26254.65
721.303	26216.68
721.646	26260.07
721.989	25985.96
722.331	26115.9
722.674	25973.75
723.016	26016.91
723.359	25926.07
723.701	25948.22
724.044	25698.73
724.386	25736.47
724.729	25834.55
725.071	25640.88
725.413	25651.05
725.755	25581.22
726.097	25411.96
726.439	25310.04
726.782	25365.18
727.124	25564.05
727.465	25378.97
727.807	25370.6
728.149	25261.91
728.491	25185.98
728.833	25228.01
729.175	25148.46
729.516	25076.83
729.858	25044.96
730.199	25116.15
730.541	24947.56
730.882	24933.33
731.224	24982.82
731.565	24800
731.906	24834.12
732.248	24799.32
732.589	24718.19
732.93	24611.53
733.271	24591.42
733.612	24604.07
733.953	24654.24
734.294	24433.45
734.635	24497.41
734.976	24440.91
735.317	24330.86
735.658	24418.76
735.999	24359.78
736.339	24340.57
736.68	24325.89
737.021	24225.32
737.361	24081.82
737.702	24215.38
738.042	24056.51
738.383	24068.27
738.723	24024.42
739.063	23966.8
739.404	24052.67
739.744	23958.44
740.084	23844.99
740.424	23928.83
740.764	23838.67
741.104	23896.74
741.444	23675.28
741.784	23653.14
742.124	23657.88
742.464	23622.63
742.804	23611.78
743.143	23556.64
743.483	23612.91
743.823	23475.06
744.162	23467.83
744.502	23419.02
744.841	23358.45
745.181	23297.89
745.52	23207.5
745.86	23377.66
746.199	23249.08
746.538	23212.92
746.877	23207.05
747.216	23182.41
747.556	23063.32
747.895	23100.61
748.234	22932.93
748.573	22940.84
748.911	22883.21
749.25	22861.29
749.589	22767.73
749.928	22710.79
750.267	22793.04
750.605	22694.29
750.944	22633.05
751.283	22616.33
751.621	22513.73
751.96	22422.66
752.298	22414.07
752.636	22414.98
752.975	22253.17
753.313	22248.88
753.651	22291.14
753.989	22208.88
754.327	22172.95
754.666	22074.87
755.004	22114.87
755.342	22178.37
755.679	22058.37
756.017	21859.06
756.355	21926.4
756.693	21918.49
757.031	21848.21
757.368	21722.79
757.706	21687.76
758.044	21570.93
758.381	21586.52
758.719	21563.47
759.056	21553.76
759.394	21504.04
759.731	21283.48
760.068	21278.96
760.405	21144.95
760.743	21111.73
761.08	21160.32
761.417	20923.94
761.754	20966.88
762.091	20978.4
762.428	20796.04
762.765	20742.25
763.102	20855.92
763.438	20659.99
763.775	20538.64
764.112	20506.1
764.449	20518.53
764.785	20305.88
765.122	20290.51
765.458	20259.78
765.795	20213.23
766.131	20186.79
766.467	20107.69
766.804	20002.16
767.14	19933.01
767.476	19902.95
767.812	19768.49
768.148	19747.93
768.485	19700.7
768.821	19564.88
769.157	19576.86
769.492	19400.14
769.828	19458.22
770.164	19271.56
770.5	19177.55
770.836	19321.27
771.171	19111.33
771.507	19075.4
771.842	18959.25
772.178	18876.54
772.513	19017.1
772.849	18747.05
773.184	18756.31
773.519	18683.77
773.855	18549.09
774.19	18470.67
774.525	18557.68
774.86	18452.14
775.195	18509.54
775.53	18249.44
775.865	18246.27
776.2	18100.29
776.535	18107.52
776.87	17918.37
777.205	17978.93
777.539	17778.49
777.874	17887.86
778.209	17714.53
778.543	17664.14
778.878	17509.79
779.212	17618.72
779.547	17532.62
779.881	17505.73
780.215	17371.27
780.55	17370.59
780.884	17336.01
781.218	17244.04
781.552	17183.47
781.886	17136.92
782.22	17029.13
782.554	16966.53
782.888	16742.81
783.222	16804.05
783.556	16719.53
783.889	16680.89
784.223	16561.34
784.557	16496.26
784.89	16585.98
785.224	16355.7
785.557	16358.19
785.891	16287.68
786.224	16324.06
786.558	16226.21
786.891	16125.88
787.224	16077.06
787.557	15941.25
787.891	16059.66
788.224	15920.46
788.557	15934.92
788.89	15841.59
789.223	15741.03
789.556	15712.1
789.888	15628.26
790.221	15653.57
790.554	15487.25
790.887	15489.73
791.219	15454.25
791.552	15427.59
791.884	15404.99
792.217	15152.34
792.549	15187.6
792.882	15056.75
793.214	15069.18
793.546	15163.64
793.879	14992.8
794.211	14927.26
794.543	15080.71
794.875	14919.81
795.207	14946.47
795.539	14807.72
795.871	14811.11
796.203	14750.77
796.535	14625.8
796.867	14571.11
797.198	14499.7
797.53	14506.71
797.862	14447.95
798.193	14500.38
798.525	14392.59
798.856	14356.88
799.188	14167.73
799.519	14175.64
799.85	14029.66
800.182	14137.45
800.513	14059.49
800.844	13899.49
801.175	14058.81
801.506	13963.22
801.837	13838.25
802.168	13832.38
802.499	13802.09
802.83	13720.51
803.161	13657.92
803.491	13621.53
803.822	13611.37
804.153	13602.55
804.483	13513.29
804.814	13498.83
805.145	13458.15
805.475	13384.03
805.805	13371.37
806.136	13371.82
806.466	13379.28
806.796	13325.95
807.126	13228.78
807.457	13192.62
807.787	13203.47
808.117	13170.47
808.447	13071.49
808.777	13100.42
809.107	13015.22
809.436	13003.25
809.766	13003.47
810.096	12923.93
810.426	12844.15
810.755	12852.52
811.085	12793.76
811.414	12870.14
811.744	12757.15
812.073	12744.27
812.403	12688.9
812.732	12619.07
813.061	12646.64
813.39	12563.48
813.719	12500.89
814.049	12584.95
814.378	12481
814.707	12451.85
815.036	12408.91
815.365	12338.4
815.693	12287.78
816.022	12315.35
816.351	12217.05
816.68	12182.02
817.008	12130.27
817.337	12119.65
817.665	12026.1
817.994	12125.98
818.322	12106.09
818.651	12076.94
818.979	11940.67
819.307	12046.66
819.636	11932.54
819.964	11891.18
820.292	11889.6
820.62	11961.69
820.948	11836.04
821.276	11840.11
821.604	11799.89
821.932	11919.21
822.259	11903.84
822.587	11895.7
822.915	11801.02
823.243	11964.63
823.57	11849.6
823.898	11779.78
824.225	11803.5
824.553	11764.63
824.88	11811.41
825.207	11877.63
825.535	11815.03
825.862	11803.96
826.189	11775.71
826.516	11850.51
826.843	11805.31
827.17	11794.46
827.497	11812.99
827.824	11853.67
828.151	11793.33
828.478	11777.74
828.805	11853.45
829.131	11793.33
829.458	11742.71
829.785	11721.92
830.111	11639.89
830.438	11796.27
830.764	11760.34
831.09	11815.93
831.417	11681.92
831.743	11693
832.069	11725.09
832.395	11705.65
832.722	11694.58
833.048	11725.31
833.374	11711.3
833.7	11595.6
834.026	11658.2
834.351	11714.01
834.677	11624.75
835.003	11618.88
835.329	11623.62
835.654	11584.98
835.98	11495.71
836.306	11584.53
836.631	11529.16
836.956	11554.7
837.282	11578.88
837.607	11502.95
837.932	11427.24
838.258	11451.42
838.583	11430.86
838.908	11359.45
839.233	11401.48
839.558	11419.33
839.883	11321.71
840.208	11314.02
840.533	11267.02
840.858	11288.49
841.182	11268.83
841.507	11259.11
841.832	11163.07
842.156	11167.81
842.481	11212.56
842.805	11123.52
843.13	11125.55
843.454	11126.91
843.778	11043.75
844.103	11032.9
844.427	10964.2
844.751	10998.33
845.075	10985.22
845.399	11001.49
845.723	10923.53
846.047	10943.19
846.371	10864.77
846.695	10788.39
847.019	10710.2
847.343	10683.98
847.666	10659.35
847.99	10574.61
848.313	10536.42
848.637	10520.83
848.96	10459.36
849.284	10519.92
849.607	10407.16
849.931	10383.88
850.254	10278.12
850.577	10234.28
850.9	10242.87
851.223	10197.44
851.546	10140.95
851.869	10035.41
852.192	10048.52
852.515	9974.4
852.838	9948.18
853.161	9940.73
853.483	9979.82
853.806	9931.24
854.129	9855.53
854.451	9723.78
854.774	9755.2
855.096	9729.21
855.419	9757.46
855.741	9659.38
856.063	9601.75
856.385	9585.26
856.708	9613.73
857.03	9519.95
857.352	9539.83
857.674	9476.33
857.996	9486.5
858.318	9454.19
858.64	9442.89
858.961	9351.36
859.283	9385.04
859.605	9346.17
859.926	9297.58
860.248	9283.34
860.57	9261.88
860.891	9293.74
861.212	9225.94
861.534	9186.62
861.855	9180.3
862.176	9222.33
862.498	9153.63
862.819	9199.96
863.14	9117.7
863.461	9101.43
863.782	9096.91
864.103	9062.11
864.424	9041.09
864.745	9078.83
865.065	8959.96
865.386	8953.86
865.707	8986.63
866.027	8923.8
866.348	8941.88
866.668	8898.49
866.989	8880.42
867.309	8807.2
867.63	8844.48
867.95	8838.61
868.27	8810.36
868.59	8775.33
868.91	8823.47
869.23	8767.42
869.55	8733.08
869.87	8790.25
870.19	8779.4
870.51	8820.53
870.83	8759.74
871.15	8722.23
871.469	8755
871.789	8675.68
872.109	8691.95
872.428	8598.84
872.748	8598.39
873.067	8680.65
873.386	8630.25
873.706	8587.54
874.025	8518.39
874.344	8507.54
874.663	8534.89
874.982	8454.89
875.301	8565.4
875.62	8490.82
875.939	8424.61
876.258	8393.2
876.577	8470.71
876.896	8522.69
877.214	8367.66
877.533	8347.77
877.852	8354.1
878.17	8351.84
878.489	8421.67
878.807	8344.39
879.125	8344.84
879.444	8411.5
879.762	8286.99
880.08	8263.94
880.398	8286.31
880.716	8246.31
881.034	8262.58
881.352	8178.29
881.67	8204.95
881.988	8198.63
882.306	8145.07
882.624	8181.9
882.941	8075.92
883.259	8085.86
883.577	8103.26
883.894	8056.94
884.212	8052.64
884.529	8057.84
884.846	8033.88
885.164	7961.57
885.481	8022.81
885.798	7981.23
886.115	7926.54
886.432	7962.25
886.75	7880.22
887.067	7896.49
887.383	7901.01
887.7	7883.38
888.017	7880.22
888.334	7872.53
888.651	7770.16
888.967	7823.49
889.284	7722.25
889.6	7821.91
889.917	7676.15
890.233	7707.57
890.55	7626.21
890.866	7683.61
891.182	7665.31
891.498	7573.11
891.815	7548.02
892.131	7488.14
892.447	7518.42
892.763	7468.25
893.079	7546.44
893.395	7427.35
893.71	7370.63
894.026	7392.77
894.342	7414.92
894.657	7329.72
894.973	7303.06
895.289	7376.27
895.604	7335.82
895.92	7244.98
896.235	7204.3
896.55	7176.73
896.865	7156.17
897.181	7123.85
897.496	7182.38
897.811	7126.11
898.126	7103.97
898.441	7099.9
898.756	7032.78
899.071	7040.46
899.386	7020.58
899.7	6920.47
900.015	6958.21
900.33	6883.86
900.644	6833.01
900.959	6878.21
901.273	6898.32
901.588	6875.72
901.902	6777.65
902.216	6749.62
902.531	6737.42
902.845	6684.54
903.159	6683.19
903.473	6702.85
903.787	6657.88
904.101	6618.78
904.415	6642.51
904.729	6548.05
905.042	6543.75
905.356	6552.57
905.67	6490.65
905.984	6510.54
906.297	6509.63
906.611	6437.77
906.924	6458.33
907.237	6403.87
907.551	6428.28
907.864	6305.57
908.177	6333.14
908.491	6297.66
908.804	6261.5
909.117	6257.21
909.43	6205.68
909.743	6160.94
910.056	6221.96
910.368	6115.07
910.681	6129.75
910.994	6131.79
911.307	6048.17
911.619	6025.8
911.932	6031.23
912.244	6019.47
912.557	5977.89
912.869	5995.75
913.181	5895.64
913.494	5910.1
913.806	5880.04
914.118	5844.56
914.43	5835.98
914.742	5813.83
915.054	5763.89
915.366	5784.45
915.678	5759.37
915.99	5752.81
916.302	5710.56
916.613	5652.7
916.925	5622.65
917.236	5627.85
917.548	5643.44
917.859	5569.99
918.171	5595.98
918.482	5552.14
918.794	5509.88
919.105	5469.21
919.416	5470.34
919.727	5440.73
920.038	5416.1
920.349	5415.2
920.66	5382.66
920.971	5387.63
921.282	5376.78
921.593	5325.93
921.903	5255.88
922.214	5264.69
922.525	5289.78
922.835	5230.12
923.146	5191.7
923.456	5192.38
923.767	5109.67
924.077	5193.28
924.387	5094.98
924.697	5066.51
925.008	5093.17
925.318	5077.13
925.628	5027.41
925.938	5030.35
926.248	4968.2
926.558	4960.97
926.867	4946.28
927.177	4908.09
927.487	4874.42
927.796	4879.62
928.106	4821.31
928.416	4841.43
928.725	4824.7
929.034	4801.88
929.344	4838.49
929.653	4755.33
929.962	4734.76
930.271	4727.53
930.581	4726.63
930.89	4674.65
931.199	4611.38
931.508	4665.16
931.817	4658.38
932.125	4645.73
932.434	4606.86
932.743	4568.21
933.051	4558.72
933.36	4537.03
933.669	4497.25
933.977	4523.02
934.286	4485.73
934.594	4474.88
934.902	4438.95
935.21	4466.07
935.519	4421.55
935.827	4391.04
936.135	4357.37
936.443	4331.16
936.751	4325.73
937.059	4300.88
937.367	4270.59
937.674	4271.27
937.982	4239.63
938.29	4264.49
938.597	4247.77
938.905	4188.11
939.213	4168.68
939.52	4157.15
939.827	4179.3
940.135	4116.02
940.442	4125.29
940.749	4127.09
941.056	4116.02
941.363	4058.17
941.67	4015.91
941.977	4054.1
942.284	4039.87
942.591	4042.58
942.898	3984.95
943.205	3972.52
943.511	3974.1
943.818	3992.41
944.125	3876.25
944.431	3925.29
944.738	3911.73
945.044	3866.54
945.35	3865.86
945.657	3821.11
945.963	3830.15
946.269	3834
946.575	3817.72
946.881	3802.81
947.187	3745.41
947.493	3767.56
947.799	3746.99
948.105	3726.88
948.41	3676.49
948.716	3685.98
949.022	3697.05
949.327	3651.18
949.633	3601.91
949.938	3573.44
950.244	3604.85
950.549	3598.97
950.854	3539.99
951.16	3581.12
951.465	3537.96
951.77	3504.51
952.075	3505.42
952.38	3497.73
952.685	3478.75
952.99	3457.06
953.294	3438.53
953.599	3462.48
953.904	3425.19
954.209	3416.61
954.513	3364.86
954.818	3406.66
955.122	3393.33
955.426	3347.45
955.731	3379.54
956.035	3281.02
956.339	3306.33
956.643	3297.96
956.948	3300.68
957.252	3297.51
957.556	3291.41
957.86	3231.53
958.163	3217.29
958.467	3222.49
958.771	3199.44
959.075	3215.03
959.378	3183.39
959.682	3197.85
959.985	3169.83
960.289	3153.11
960.592	3136.16
960.896	3124.86
961.199	3140.91
961.502	3083.96
961.805	3058.42
962.108	3034.02
962.411	3063.62
962.714	3046.22
963.017	3001.25
963.32	3036.73
963.623	2991.53
963.926	2994.24
964.228	2928.26
964.531	2941.59
964.833	2960.8
965.136	2905.66
965.438	2917.64
965.741	2924.41
966.043	2893
966.345	2880.35
966.648	2864.76
966.95	2849.84
967.252	2836.51
967.554	2862.27
967.856	2834.47
968.158	2773.68
968.46	2823.17
968.761	2783.18
969.063	2782.05
969.365	2795.15
969.666	2753.35
969.968	2681.94
970.269	2753.12
970.571	2728.04
970.872	2692.1
971.174	2676.06
971.475	2653.69
971.776	2667.25
972.077	2672.22
972.378	2651.65
972.679	2624.76
972.98	2641.71
973.281	2650.98
973.582	2598.77
973.883	2614.37
974.183	2567.14
974.484	2584.08
974.785	2530.3
975.085	2534.59
975.386	2580.69
975.686	2540.02
975.986	2546.57
976.287	2535.72
976.587	2495.27
976.887	2530.75
977.187	2451.66
977.487	2460.92
977.787	2459.57
978.087	2422.05
978.387	2435.39
978.687	2422.51
978.987	2418.89
979.286	2433.58
979.586	2385.45
979.885	2407.14
980.185	2328.95
980.484	2352.45
980.784	2351.1
981.083	2320.81
981.382	2321.94
981.682	2373.47
981.981	2295.05
982.28	2309.52
982.579	2279.23
982.878	2306.8
983.177	2278.56
983.475	2258.22
983.774	2285.79
984.073	2238.78
984.372	2229.07
984.67	2222.74
984.969	2240.82
985.267	2212.12
985.566	2171.44
985.864	2213.47
986.162	2183.64
986.461	2175.06
986.759	2132.8
987.057	2095.96
987.355	2117.2
987.653	2103.19
987.951	2134.15
988.249	2107.03
988.547	2147.94
988.844	2083.98
989.142	2094.38
989.44	2097.77
989.737	2046.02
990.035	2043.76
990.332	2051.44
990.63	2033.59
990.927	2018.45
991.224	2018.9
991.521	2001.28
991.819	1999.92
992.116	1995.85
992.413	2009.41
992.71	1994.72
993.006	1986.13
993.303	1956.98
993.6	1967.6
993.897	1941.84
994.193	1975.51
994.49	1929.41
994.787	1910.88
995.083	1910.2
995.379	1896.65
995.676	1877.21
995.972	1850.54
996.268	1880.37
996.565	1858.23
996.861	1841.73
997.157	1836.31
997.453	1841.96
997.749	1818
998.044	1787.04
998.34	1817.1
998.636	1774.16
998.932	1783.2
999.227	1780.72
999.523	1787.95
999.818	1758.34
1000.114	1751.56
1000.409	1769.19
1000.704	1727.61
1001	1723.77
1001.295	1729.64
1001.59	1713.37
1001.885	1680.38
1002.18	1672.7
1002.475	1692.36
1002.77	1670.66
1003.065	1653.49
1003.359	1689.42
1003.654	1669.08
1003.949	1635.86
1004.243	1631.12
1004.538	1624.11
1004.832	1626.37
1005.127	1596.09
1005.421	1606.71
1005.715	1612.13
1006.009	1613.04
1006.304	1579.37
1006.598	1544.34
1006.892	1558.35
1007.186	1521.06
1007.48	1541.17
1007.773	1541.63
1008.067	1515.86
1008.361	1519.71
1008.655	1501.63
1008.948	1514.51
1009.242	1492.36
1009.535	1480.16
1009.829	1467.05
1010.122	1480.16
1010.415	1476.77
1010.708	1421.63
1011.001	1447.62
1011.295	1426.6
1011.588	1429.99
1011.881	1422.76
1012.173	1423.21
1012.466	1400.16
1012.759	1391.57
1013.052	1403.55
1013.344	1373.27
1013.637	1373.27
1013.93	1366.04
1014.222	1337.11
1014.514	1362.2
1014.807	1382.08
1015.099	1340.5
1015.391	1308.64
1015.683	1322.42
1015.976	1337.34
1016.268	1322.2
1016.56	1287.4
1016.851	1282.65
1017.143	1283.55
1017.435	1304.57
1017.727	1279.71
1018.018	1266.38
1018.31	1254.85
1018.602	1262.76
1018.893	1254.4
1019.185	1244.01
1019.476	1219.37
1019.767	1211.69
1020.058	1232.48
1020.35	1195.65
1020.641	1196.55
1020.932	1171.47
1021.223	1151.58
1021.514	1186.83
1021.804	1161.98
1022.095	1176.21
1022.386	1170.34
1022.677	1129.66
1022.967	1114.52
1023.258	1112.94
1023.548	1146.61
1023.839	1115.2
1024.129	1114.07
1024.419	1112.94
1024.709	1069.55
1025	1069.77
1025.29	1084.69
1025.58	1074.07
1025.87	1059.15
1026.16	1058.02
1026.449	1054.86
1026.739	1059.83
1027.029	1041.3
1027.319	1048.31
1027.608	1030.45
1027.898	1015.54
1028.187	1013.5
1028.477	1011.92
1028.766	993.39
1029.055	993.84
1029.344	974.41
1029.634	993.17
1029.923	1008.31
1030.212	991.13
1030.501	979.38
1030.79	956.78
1031.078	936.67
1031.367	952.04
1031.656	951.36
1031.945	934.86
1032.233	919.27
1032.522	930.79
1032.81	928.76
1033.099	917.01
1033.387	901.87
1033.675	896.67
1033.963	910.91
1034.251	898.25
1034.54	910
1034.828	869.78
1035.116	910.91
1035.403	884.92
1035.691	867.97
1035.979	860.97
1036.267	855.32
1036.554	871.59
1036.842	858.71
1037.129	848.99
1037.417	841.98
1037.704	827.52
1037.992	826.84
1038.279	840.85
1038.566	827.97
1038.853	827.97
1039.14	827.97
