Data from whiteboard_FLMS001491_00040.txt Node
Date: Wed Feb 08 11:26:17 GMT 2017
User: dcchb
Spectrometer: FLMS00149
Trigger mode: 0
Integration Time (sec): 2.000000E-2
Scans to average: 10
Electric dark correction enabled: true
Nonlinearity correction enabled: false
Boxcar width: 0
XAxis mode: Wavelengths
Number of Pixels in Spectrum: 2048
>>>>>Begin Spectral Data<<<<<
341.393	3.14
341.776	3.14
342.16	3.14
342.543	-67.37
342.927	-84.09
343.31	-35.73
343.693	-70.53
344.077	-61.95
344.46	-71.44
344.843	-59.69
345.226	-62.63
345.61	-45.9
345.993	-3.19
346.376	2.91
346.759	11.72
347.142	30.71
347.525	25.28
347.908	73.19
348.291	76.35
348.674	89.23
349.057	101.66
349.44	129.46
349.823	134.43
350.206	169.91
350.588	242.23
350.971	227.76
351.354	265.95
351.737	290.81
352.119	299.62
352.502	303.24
352.884	321.77
353.267	320.87
353.65	334.65
354.032	332.39
354.414	345.73
354.797	355.67
355.179	350.02
355.562	363.8
355.944	361.32
356.326	399.96
356.709	384.59
357.091	354.99
357.473	384.59
357.855	389.79
358.238	398.15
358.62	369.23
359.002	367.19
359.384	400.19
359.766	392.96
360.148	368.1
360.53	370.58
360.912	398.83
361.294	388.89
361.676	367.87
362.057	397.02
362.439	402
362.821	382.33
363.203	377.59
363.584	373.3
363.966	395.89
364.348	371.26
364.729	394.76
365.111	371.49
365.493	375.1
365.874	410.81
366.256	386.18
366.637	378.49
367.019	379.17
367.4	362.9
367.781	385.72
368.163	365.84
368.544	374.65
368.925	386.63
369.306	391.83
369.688	372.39
370.069	394.09
370.45	376.91
370.831	381.43
371.212	378.27
371.593	398.15
371.974	364.03
372.355	382.79
372.736	388.66
373.117	378.04
373.498	393.18
373.879	367.65
374.26	399.28
374.641	378.04
375.021	402
375.402	396.8
375.783	426.85
376.163	409.45
376.544	429.11
376.925	425.72
377.305	412.16
377.686	430.92
378.066	433.41
378.447	429.11
378.827	424.37
379.208	453.75
379.588	428.44
379.968	466.4
380.349	437.7
380.729	454.2
381.109	456.91
381.489	457.81
381.87	455.55
382.25	468.89
382.63	471.37
383.01	480.19
383.39	481.77
383.77	483.35
384.15	461.43
384.53	481.09
384.91	479.28
385.29	489.68
385.67	500.75
386.049	512.5
386.429	502.11
386.809	524.03
387.189	528.09
387.568	529.22
387.948	518.15
388.328	545.04
388.707	549.34
389.087	545.04
389.466	578.94
389.846	574.65
390.225	547.3
390.605	563.8
390.984	577.58
391.363	575.55
391.743	586.85
392.122	599.05
392.501	621.65
392.881	604.48
393.26	628.2
393.639	652.38
394.018	648.77
394.397	628.88
394.776	668.65
395.155	671.37
395.534	654.64
395.913	679.73
396.292	675.21
396.671	708.43
397.05	692.16
397.429	693.51
397.808	721.31
398.186	738.48
398.565	724.47
398.944	755.43
399.323	781.19
399.701	779.84
400.08	777.8
400.458	816
400.837	819.84
401.215	806.73
401.594	809.22
401.972	846.96
402.351	846.05
402.729	872.04
403.107	883.11
403.486	893.96
403.864	924.69
404.242	909.55
404.62	952.94
404.999	942.77
405.377	941.64
405.755	971.02
406.133	997.23
406.511	1008.53
406.889	1002.66
407.267	1045.14
407.645	1039.27
408.023	1103.9
408.401	1086.72
408.779	1125.37
409.156	1178.02
409.534	1170.11
409.912	1220.73
410.29	1210.34
410.667	1216.21
411.045	1257.34
411.422	1298.02
411.8	1297.11
412.178	1329.43
412.555	1346.6
412.933	1347.05
413.31	1396.55
413.687	1427.73
414.065	1432.25
414.442	1455.53
414.819	1491.01
415.197	1494.62
415.574	1533.49
415.951	1560.16
416.328	1577.78
416.705	1607.61
417.082	1587.95
417.46	1613.49
417.837	1644
418.214	1642.41
418.591	1672.47
418.967	1689.42
419.344	1741.85
419.721	1756.76
420.098	1791.11
420.475	1790.89
420.852	1831.56
421.228	1849.64
421.605	1891.22
421.982	1883.54
422.358	1907.49
422.735	1956.3
423.111	1925.34
423.488	1949.3
423.864	2021.39
424.241	2024.33
424.617	2078.56
424.994	2109.29
425.37	2078.79
425.746	2098.45
426.123	2145.68
426.499	2178.22
426.875	2201.27
427.251	2263.64
427.627	2278.33
428.003	2317.88
428.379	2319.91
428.756	2386.12
429.132	2401.49
429.507	2435.39
429.883	2469.06
430.259	2530.07
430.635	2535.5
431.011	2565.78
431.387	2617.53
431.763	2665.89
432.138	2690.07
432.514	2724.42
432.89	2783.18
433.265	2816.85
433.641	2874.7
434.016	2911.53
434.392	2948.37
434.767	3008.25
435.143	2994.02
435.518	3006.45
435.894	3094.81
436.269	3127.12
436.644	3192.43
437.02	3207.8
437.395	3259.1
437.77	3288.7
438.145	3337.96
438.52	3362.82
438.895	3384.06
439.271	3425.87
439.646	3488.92
440.021	3504.74
440.395	3547
440.77	3522.82
441.145	3602.36
441.52	3651.63
441.895	3640.78
442.27	3698.41
442.645	3769.82
443.019	3749.7
443.394	3767.78
443.769	3827.89
444.143	3788.57
444.518	3889.81
444.892	3879.87
445.267	3936.59
445.641	3932.98
446.016	3984.05
446.39	4063.59
446.764	4071.5
447.139	4041.45
447.513	4116.7
447.887	4111.5
448.262	4175.23
448.636	4203.7
449.01	4243.93
449.384	4329.35
449.758	4318.28
450.132	4380.42
450.506	4441.66
450.88	4461.55
451.254	4435.11
451.628	4549.23
452.002	4561.89
452.376	4643.01
452.75	4690.92
453.123	4693.18
453.497	4759.85
453.871	4804.14
454.244	4926.62
454.618	4958.94
454.992	5101.98
455.365	5092.72
455.739	5230.79
456.112	5271.47
456.486	5321.87
456.859	5327.52
457.232	5490.45
457.606	5452.03
457.979	5563.44
458.352	5688.86
458.725	5799.37
459.099	5806.82
459.472	5889.08
459.845	5959.14
460.218	6021.06
460.591	6049.08
460.964	6114.39
461.337	6235.51
461.71	6379.24
462.083	6451.1
462.456	6475.96
462.829	6526.13
463.201	6680.47
463.574	6676.18
463.947	6819
464.32	6920.92
464.692	6988.26
465.065	7092.67
465.438	7217.18
465.81	7304.64
466.183	7406.33
466.555	7556.38
466.928	7627.57
467.3	7601.35
467.672	7781.46
468.045	8011.29
468.417	7980.33
468.789	8082.47
469.161	8169.47
469.534	8318.62
469.906	8504.83
470.278	8580.09
470.65	8691.27
471.022	8866.18
471.394	9011.03
471.766	9104.82
472.138	9144.59
472.51	9379.16
472.882	9513.62
473.253	9617.12
473.625	9837.68
473.997	10060.72
474.369	10050.33
474.74	10225.92
475.112	10401.73
475.484	10575.74
475.855	10784.77
476.227	10837.2
476.598	11275.83
476.97	11297.3
477.341	11528.26
477.713	11718.31
478.084	11817.29
478.455	12170.27
478.827	12232.19
479.198	12656.59
479.569	12716.25
479.94	13033.3
480.311	13128.21
480.682	13426.29
481.053	13727.75
481.424	13905.82
481.795	14148.07
482.166	14360.05
482.537	14702.18
482.908	14833.03
483.279	14996.87
483.65	15289.29
484.021	15686.56
484.391	15691.99
484.762	15853.57
485.133	16137.4
485.503	16369.71
485.874	16684.73
486.244	16857.61
486.615	17212.4
486.985	17426.86
487.356	17774.87
487.726	17810.58
488.097	18165.6
488.467	18346.83
488.837	18680.16
489.207	18915.86
489.578	19145.01
489.948	19449.86
490.318	19629.74
490.688	19839.9
491.058	20070.63
491.428	20344.75
491.798	20508.81
492.168	20945.64
492.538	21005.52
492.908	21268.34
493.278	21670.59
493.648	21755.11
494.017	22092.95
494.387	22287.07
494.757	22467.86
495.126	22747.4
495.496	22772.03
495.866	23072.13
496.235	23213.6
496.605	23507.38
496.974	23665.79
497.344	23851.55
497.713	24063.97
498.082	24242.05
498.452	24428.93
498.821	24530.63
499.19	24664.86
499.559	24827.34
499.928	25083.61
500.298	25206.09
500.667	25555.01
501.036	25487.44
501.405	25765.17
501.774	25828.67
502.143	26092.62
502.512	26214.42
502.88	26397.92
503.249	26525.83
503.618	26674.98
503.987	26811.02
504.356	27027.74
504.724	27225.92
505.093	27329.65
505.462	27466.14
505.83	27706.14
506.199	28013.25
506.567	28407.59
506.936	28291.88
507.304	28706.34
507.672	28793.56
508.041	28908.82
508.409	29150.62
508.777	29497.5
509.145	29763.03
509.514	29788.57
509.882	30025.17
510.25	30261.77
510.618	30523.01
510.986	30531.37
511.354	30859.95
511.722	31067.63
512.09	31400.73
512.458	31477.79
512.826	31832.81
513.193	31830.77
513.561	31993.71
513.929	32340.59
514.297	32644.76
514.664	32814.02
515.032	32817.19
515.4	33162.26
515.767	33247.91
516.135	33487.45
516.502	33320.23
516.869	33998.4
517.237	34162.69
517.604	33956.37
517.972	34491.49
518.339	34602.23
518.706	34944.59
519.073	35043.57
519.44	35187.97
519.808	35735.98
520.175	35648.53
520.542	36252.58
520.909	36275.63
521.276	36532.12
521.643	36925.33
522.009	37195.6
522.376	37387.01
522.743	37528.93
523.11	37924.17
523.477	38520.99
523.843	38647.54
524.21	39076.01
524.577	39436.9
524.943	39505.15
525.31	39741.3
525.676	40288.86
526.043	40540.37
526.409	40755.28
526.776	41158.44
527.142	41200.92
527.508	41544.19
527.874	41719.55
528.241	41995.93
528.607	42256.71
528.973	42650.15
529.339	42537.16
529.705	42933.31
530.071	43182.34
530.437	43450.81
530.803	43566.96
531.169	43923.34
531.535	43785.94
531.901	43856.45
532.267	44295.98
532.632	44520.61
532.998	44619.14
533.364	44846.25
533.73	44843.09
534.095	45148.39
534.461	45173.7
534.826	45250.31
535.192	45489.17
535.557	45820.01
535.923	45815.94
536.288	46147.46
536.653	46259.32
537.019	46219.77
537.384	46418.86
537.749	46673.55
538.114	46820.21
538.479	46870.83
538.845	47055.01
539.21	47144.72
539.575	47306.98
539.94	47462.9
540.305	47815.44
540.67	47799.17
541.034	47899.05
541.399	48228.53
541.764	48330.23
542.129	48639.14
542.494	48667.84
542.858	48996.2
543.223	48887.27
543.587	49144.89
543.952	49029.42
544.316	49293.36
544.681	49356.87
545.045	49597.99
545.41	49804.09
545.774	49762.05
546.138	49892.67
546.503	50023.52
546.867	50074.14
547.231	50321.36
547.595	50432.09
547.959	50451.3
548.324	50312.77
548.688	50467.8
549.052	50640.45
549.416	50724.51
549.779	50796.83
550.143	50860.78
550.507	51057.16
550.871	51077.72
551.235	51054.9
551.599	51279.3
551.962	51380.99
552.326	51416.7
552.689	51593.64
553.053	51505.06
553.417	51528.11
553.78	52028.66
554.143	51823.24
554.507	52002.45
554.87	52104.59
555.234	52337.35
555.597	52221.42
555.96	52420.97
556.323	52707.74
556.686	52682.88
557.05	52924.46
557.413	52995.19
557.776	53082.42
558.139	53342.07
558.502	53453.03
558.865	53499.36
559.228	53811.21
559.59	53871.78
559.953	53970.98
560.316	54296.17
560.679	54329.16
561.041	54500.01
561.404	54631.53
561.767	54889.15
562.129	54812.54
562.492	55152.65
562.854	55088.69
563.217	55207.33
563.579	55267.45
563.941	55483.26
564.304	55670.6
564.666	55771.61
565.028	55844.38
565.39	55911.27
565.753	56012.06
566.115	56089.8
566.477	56299.51
566.839	56301.09
567.201	56472.16
567.563	56519.84
567.925	56628.77
568.287	56641.19
568.648	56662.44
569.01	56758.03
569.372	56921.41
569.734	56776.78
570.095	57007.06
570.457	57074.18
570.819	57096.1
571.18	57030.11
571.542	57184.91
571.903	57249.54
572.265	57356.2
572.626	57373.6
572.987	57414.51
573.349	57481.62
573.71	57563.2
574.071	57585.35
574.432	57753.93
574.794	57900.14
575.155	57840.71
575.516	57793.93
575.877	57959.58
576.238	58012.91
576.599	58086.35
576.96	58127.26
577.32	58222.62
577.681	58290.42
578.042	58328.38
578.403	58371.77
578.763	58454.71
579.124	58552.1
579.485	58627.58
579.845	58680.69
580.206	58669.39
580.566	58774.7
580.927	58789.84
581.287	58944.18
581.648	58799.1
582.008	59014.92
582.368	58981.25
582.728	59050.4
583.089	59018.08
583.449	59069.38
583.809	59090.17
584.169	59049.72
584.529	59027.57
584.889	59228.24
585.249	59108.47
585.609	59072.54
585.969	59194.35
586.329	59118.87
586.688	59143.05
587.048	59124.74
587.408	59053.79
587.768	59094.46
588.127	59047.23
588.487	58987.57
588.846	59138.53
589.206	58913.22
589.565	58937.63
589.925	59138.3
590.284	58974.24
590.643	59046.1
591.003	59073.67
591.362	59103.5
591.721	58995.03
592.08	58964.75
592.44	59025.99
592.799	59090.17
593.158	59009.04
593.517	59054.46
593.876	59100.79
594.235	58998.19
594.593	59040.68
594.952	59075.93
595.311	59033.45
595.67	59087.01
596.029	59255.14
596.387	59259.66
596.746	59202.71
597.104	59200
597.463	59130.85
597.822	59283.16
598.18	59197.06
598.538	59157.29
598.897	59329.49
599.255	59174.46
599.613	59572.64
599.972	59354.34
600.33	59514.57
600.688	59402.03
601.046	59450.16
601.404	59601.12
601.762	59568.35
602.12	59689.25
602.478	59653.77
602.836	59697.84
603.194	59634.56
603.552	59666.88
603.91	59648.8
604.268	59717.5
604.625	59681.57
604.983	59803.6
605.341	59722.24
605.698	59842.01
606.056	59886.53
606.413	59857.61
606.771	59954.78
607.128	59940.09
607.485	59828
607.843	59885.4
608.2	60051.95
608.557	60062.8
608.914	59944.61
609.272	60052.4
609.629	60071.61
609.986	60165.17
610.343	60009.92
610.7	60188.9
611.057	60128.11
611.414	60120.42
611.771	60061.9
612.127	60186.19
612.484	60108
612.841	60167.66
613.198	60046.98
613.554	60067.09
613.911	60228.67
614.267	60197.03
614.624	60173.08
614.98	60211.04
615.337	60266.64
615.693	60232.74
616.05	60125.62
616.406	60318.61
616.762	60236.58
617.118	60270.48
617.475	60243.59
617.831	60295.79
618.187	60351.38
618.543	60283.81
618.899	60503.69
619.255	60469.57
619.611	60426.41
619.967	60550.92
620.323	60547.31
620.678	60489.68
621.034	60438.16
621.39	60526.52
621.746	60444.48
622.101	60715.21
622.457	60513.41
622.812	60551.15
623.168	60670.92
623.523	60641.99
623.879	60732.84
624.234	60592.73
624.589	60692.39
624.945	60806.73
625.3	60830.91
625.655	60829.56
626.01	60804.25
626.365	60829.56
626.72	60819.62
627.075	60800.41
627.43	60827.52
627.785	60736.68
628.14	60802.44
628.495	60866.62
628.85	60752.5
629.205	60711.14
629.559	60813.29
629.914	60671.82
630.269	60644.7
630.623	60625.27
630.978	60575.55
631.332	60649.45
631.687	60665.5
632.041	60511.38
632.396	60569.9
632.75	60474.99
633.104	60498.72
633.459	60330.81
633.813	60312.28
634.167	60325.17
634.521	60279.97
634.875	60331.27
635.229	60224.15
635.583	60067.32
635.937	60086.75
636.291	60038.39
636.645	60059.86
636.999	59940.09
637.352	59986.19
637.706	59787.55
638.06	60010.15
638.413	59856.93
638.767	59801.79
639.121	59773.09
639.474	59666.65
639.828	59639.08
640.181	59681.11
640.534	59625.3
640.888	59534.68
641.241	59466.88
641.594	59471.4
641.947	59548.69
642.301	59529.93
642.654	59539.65
643.007	59575.13
643.36	59493.32
643.713	59420.78
644.066	59472.76
644.419	59391.63
644.771	59295.81
645.124	59007.91
645.477	59010.17
645.83	58863.06
646.182	58815.6
646.535	58728.15
646.888	58809.95
647.24	58647.47
647.593	58802.04
647.945	58680.24
648.298	58623.74
648.65	58661.93
649.002	58566.57
649.355	58726.34
649.707	58710.74
650.059	58819.89
650.411	59177.17
650.763	59148.02
651.115	59366.55
651.467	59218.75
651.819	59240.67
652.171	59176.72
652.523	59167.46
652.875	59185.53
653.227	59046.1
653.578	59252.88
653.93	59173.78
654.282	59035.26
654.633	58989.83
654.985	59029.38
655.337	59033.67
655.688	58996.39
656.039	59147.57
656.391	58890.63
656.742	58825.77
657.094	58830.06
657.445	58929.95
657.796	58768.82
658.147	58787.35
658.498	58686.11
658.849	58747.58
659.2	58658.77
659.551	58550.3
659.902	58625.77
660.253	58529.28
660.604	58637.07
660.955	58379.45
661.306	58476.17
661.656	58403.41
662.007	58441.37
662.358	58356.4
662.708	58352.11
663.059	58294.71
663.409	58076.41
663.76	58292
664.11	58210.19
664.461	58240.02
664.811	58169.06
665.161	58132.68
665.511	58094.26
665.862	58084.55
666.212	58100.82
666.562	58050.87
666.912	58082.74
667.262	58012.23
667.612	58018.56
667.962	58055.17
668.312	57962.74
668.662	57994.38
669.011	57933.59
669.361	57936.53
669.711	57963.19
670.06	57948.28
670.41	57921.84
670.76	57897.43
671.109	57968.39
671.459	57912.12
671.808	57833.48
672.157	57928.84
672.507	57830.77
672.856	57819.24
673.205	57939.92
673.554	58012.91
673.904	57920.93
674.253	58049.97
674.602	57981.72
674.951	57560.04
675.3	57476.65
675.649	57980.82
675.998	57882.97
676.346	57934.95
676.695	58000.71
677.044	57867.83
677.393	57898.56
677.741	58068.73
678.09	57991.89
678.438	57922.74
678.787	57924.55
679.135	57930.88
679.484	57707.15
679.832	57876.19
680.181	57695.63
680.529	57788.96
680.877	57712.58
681.225	57679.36
681.573	57760.71
681.922	57553.49
682.27	57480.49
682.618	57464
682.966	57401.17
683.314	57490.89
683.661	57278.69
684.009	57170.9
684.357	57190.78
684.705	57076.66
685.053	57133.61
685.4	57062.2
685.748	56947.4
686.095	56948.3
686.443	56827.4
686.79	56774.98
687.138	56714.86
687.485	56647.07
687.832	56514.42
688.18	56588.31
688.527	56431.48
688.874	56338.38
689.221	56292.5
689.568	56107.87
689.915	56045.5
690.262	56117.59
690.609	55957.82
690.956	55866.53
691.303	55769.35
691.65	55653.88
691.997	55504.95
692.344	55432.19
692.69	55315.81
693.037	55341.57
693.383	55189.03
693.73	55229.25
694.077	54988.13
694.423	55047.34
694.769	54853.9
695.116	54801.69
695.462	54726.44
695.808	54679.21
696.155	54722.15
696.501	54535.71
696.847	54440.8
697.193	54372.78
697.539	54527.35
697.885	54204.2
698.231	54071.32
698.577	54086.23
698.923	54048.95
699.269	54027.7
699.614	53972.34
699.96	53923.98
700.306	53871.55
700.651	53739.35
700.997	53690.31
701.342	53604.66
701.688	53659.58
702.033	53432.47
702.379	53549.07
702.724	53460.49
703.069	53574.61
703.415	53248.06
703.76	53213.49
704.105	53218.46
704.45	53218.69
704.795	53004.23
705.14	53008.97
705.485	52982.31
705.83	52964
706.175	53010.1
706.52	52776.21
706.865	52811.01
707.209	52775.99
707.554	52617.57
707.899	52642.43
708.243	52493.28
708.588	52476.33
708.932	52250.58
709.277	52303
709.621	52298.48
709.966	52115.21
710.31	52252.38
710.654	51871.38
710.998	51968.77
711.342	51898.49
711.687	51824.6
712.031	51653.75
712.375	51604.49
712.719	51594.77
713.063	51498.73
713.407	51517.26
713.75	51376.47
714.094	51304.84
714.438	51125.63
714.782	51112.3
715.125	50946.88
715.469	51008.35
715.812	50768.13
716.156	50651.07
716.499	50588.92
716.843	50599.77
717.186	50391.19
717.53	50612.2
717.873	50498.08
718.216	50333.11
718.559	50190.29
718.902	49892.9
719.246	49951.43
719.589	49805.22
719.932	49731.77
720.275	49658.55
720.617	49628.05
720.96	49609.51
721.303	49379.46
721.646	49473.47
721.989	49032.13
722.331	49167.27
722.674	49024.22
723.016	49080.04
723.359	48938.12
723.701	48886.14
724.044	48673.04
724.386	48505.59
724.729	48609.32
725.071	48473.05
725.413	48426.27
725.755	48329.32
726.097	48253.84
726.439	48064.7
726.782	48048.2
727.124	48071.02
727.465	47819.51
727.807	47699.96
728.149	47730.24
728.491	47687.98
728.833	47708.32
729.175	47628.55
729.516	47469.23
729.858	47410.93
730.199	47368.67
730.541	47290.93
730.882	47263.36
731.224	47381.1
731.565	47045.74
731.906	47012.07
732.248	47183.59
732.589	46996.93
732.93	46897.5
733.271	46963.48
733.612	46987.66
733.953	46904.05
734.294	46862.02
734.635	46704.96
734.976	46886.2
735.317	46516.04
735.658	46575.47
735.999	46721
736.339	46552.19
736.68	46641.01
737.021	46441.69
737.361	46342.71
737.702	46484.17
738.042	46358.3
738.383	46319.43
738.723	46459.54
739.063	46119.21
739.404	46221.13
739.744	46101.36
740.084	46025.43
740.424	46067.69
740.764	46058.42
741.104	46122.37
741.444	45880.12
741.784	45778.88
742.124	45883.74
742.464	45815.49
742.804	45723.29
743.143	45683.97
743.483	45665.44
743.823	45441.94
744.162	45375.05
744.502	45561.71
744.841	45236.07
745.181	45416.18
745.52	45304.77
745.86	45272.68
746.199	45112.23
746.538	45088.05
746.877	45096.41
747.216	44973.03
747.556	44920.15
747.895	45028.62
748.234	44696.2
748.573	44613.26
748.911	44687.16
749.25	44491.23
749.589	44433.15
749.928	44410.1
750.267	44351.35
750.605	44129.43
750.944	44141.18
751.283	43909.55
751.621	43947.06
751.96	43792.49
752.298	43661.87
752.636	43792.27
752.975	43516.34
753.313	43302.34
753.651	43432.73
753.989	43069.8
754.327	43184.82
754.666	42778.51
755.004	42928.33
755.342	42869.8
755.679	42633.65
756.017	42473.88
756.355	42437.5
756.693	42155.93
757.031	42228.24
757.368	42137.62
757.706	41936.27
758.044	41738.99
758.381	41767.46
758.719	41617.18
759.056	41569.27
759.394	41311.2
759.731	41080.02
760.068	41038.21
760.405	40828.28
760.743	40880.48
761.08	40816.75
761.417	40579.7
761.754	40524.56
762.091	40359.36
762.428	40266.03
762.765	40070.33
763.102	39935.42
763.438	39762.32
763.775	39746.05
764.112	39584.47
764.449	39522.77
764.785	39355.1
765.122	39107.64
765.458	38960.98
765.795	38938.16
766.131	38879.85
766.467	38715.11
766.804	38677.15
767.14	38379.75
767.476	38312.64
767.812	38259.53
768.148	38389.24
768.485	37971.4
768.821	37917.17
769.157	38075.58
769.492	37853.89
769.828	37836.72
770.164	37493.22
770.5	37492.77
770.836	37431.08
771.171	37215.94
771.507	37221.82
771.842	36975.27
772.178	36839.68
772.513	36798.55
772.849	36804.88
773.184	36563.76
773.519	36548.16
773.855	36427.49
774.19	36321.95
774.525	36180.04
774.86	36221.17
775.195	36063.66
775.53	35963.77
775.865	35761.29
776.2	35536.89
776.535	35268.65
776.87	35415.54
777.205	35185.04
777.539	34973.29
777.874	35056.23
778.209	34781.66
778.543	34838.15
778.878	34512.28
779.212	34633.41
779.547	34402.01
779.881	34387.99
780.215	34191.62
780.55	34207.21
780.884	33919.53
781.218	33853.09
781.552	33828.23
781.886	33764.28
782.22	33433.44
782.554	33395.93
782.888	33098.99
783.222	33008.14
783.556	32953.46
783.889	32664.42
784.223	32554.6
784.557	32525.9
784.89	32611.77
785.224	32313.25
785.557	32332.91
785.891	32186.24
786.224	32043.2
786.558	31980.15
786.891	31586.94
787.224	31494.28
787.557	31444.79
787.891	31367.28
788.224	31363.89
788.557	31190.11
788.89	31160.96
789.223	31125.71
789.556	30874.87
789.888	30854.98
790.221	30622.44
790.554	30361.66
790.887	30401.43
791.219	30244.37
791.552	30120.08
791.884	29998.73
792.217	30011.16
792.549	29814.78
792.882	29644.84
793.214	29619.31
793.546	29533.43
793.879	29240.11
794.211	29077.63
794.543	29310.16
794.875	29182.71
795.207	29218.19
795.539	28908.36
795.871	28996.05
796.203	28643.96
796.535	28608.49
796.867	28466.79
797.198	28441.71
797.53	28245.78
797.862	28108.39
798.193	28133.24
798.525	28017.09
798.856	28046.47
799.188	27751.11
799.519	27605.12
799.85	27543.88
800.182	27540.04
800.513	27470.89
800.844	27263.21
801.175	27327.84
801.506	27323.32
801.837	27043.33
802.168	27115.19
802.499	26976.44
802.83	26879.26
803.161	26828.19
803.491	26825.26
803.822	26839.27
804.153	26656.45
804.483	26436.56
804.814	26415.32
805.145	26409.67
805.475	26270.69
805.805	26264.14
806.136	26162.9
806.466	26123.8
806.796	26090.36
807.126	25884.04
807.457	25909.35
807.787	25916.58
808.117	25738.96
808.447	25733.31
808.777	25800.2
809.107	25748.67
809.436	25719.75
809.766	25637.49
810.096	25505.29
810.426	25363.37
810.755	25400.66
811.085	25328.8
811.414	25137.39
811.744	25136.94
812.073	25084.96
812.403	25068.69
812.732	24895.59
813.061	24950.05
813.39	24763.16
813.719	24616.73
814.049	24799.55
814.378	24773.56
814.707	24628.25
815.036	24597.07
815.365	24415.6
815.693	24170.41
816.022	24419.44
816.351	24208.37
816.68	24004.76
817.008	24219.45
817.337	24017.65
817.665	23879.34
817.994	24050.41
818.322	23985.1
818.651	23763.41
818.979	23645.68
819.307	23840.02
819.636	23766.13
819.964	23543.76
820.292	23613.14
820.62	23616.07
820.948	23472.35
821.276	23652.68
821.604	23452.46
821.932	23520.03
822.259	23484.55
822.587	23469.64
822.915	23434.38
823.243	23480.94
823.57	23332.47
823.898	23449.98
824.225	23305.35
824.553	23331.34
824.88	23314.84
825.207	23319.58
825.535	23290.66
825.862	23402.52
826.189	23272.35
826.516	23320.94
826.843	23297.89
827.17	23357.78
827.497	23366.59
827.824	23266.25
828.151	23144.67
828.478	23167.5
828.805	23301.96
829.131	23084.79
829.458	23122.08
829.785	23031.23
830.111	23168.4
830.438	23160.49
830.764	23120.95
831.09	23007.5
831.417	22947.39
831.743	23054.05
832.069	23019.48
832.395	22922.53
832.722	22955.75
833.048	22865.81
833.374	22853.38
833.7	22765.47
834.026	22821.29
834.351	22788.98
834.677	22747.4
835.003	22755.98
835.329	22673.95
835.654	22726.38
835.98	22469.44
836.306	22586.27
836.631	22568.64
836.956	22591.47
837.282	22625.37
837.607	22487.97
837.932	22505.82
838.258	22363.23
838.583	22367.97
838.908	22081.65
839.233	22208.43
839.558	22107.87
839.883	22098.15
840.208	22046.85
840.533	22158.49
840.858	22166.17
841.182	22195.32
841.507	22125.72
841.832	21996.68
842.156	21898.83
842.481	21829.23
842.805	21751.94
843.13	21766.18
843.454	21748.1
843.778	21733.19
844.103	21584.49
844.427	21619.52
844.751	21680.53
845.075	21588.33
845.399	21546.98
845.723	21341.56
846.047	21433.76
846.371	21393.08
846.695	21284.16
847.019	21039.64
847.343	21084.84
847.666	20980.21
847.99	20963.71
848.313	20840.33
848.637	20777.96
848.96	20749.26
849.284	20690.05
849.607	20468.59
849.931	20461.13
850.254	20360.34
850.577	20196.28
850.9	20101.82
851.223	20019.33
851.546	19980.69
851.869	20007.81
852.192	19947.24
852.515	19864.99
852.838	19801.03
853.161	19743.63
853.483	19636.74
853.806	19567.82
854.129	19529.85
854.451	19479.23
854.774	19343.42
855.096	19340.93
855.419	19324.21
855.741	19225
856.063	19243.99
856.385	19166.7
856.708	19042.41
857.03	18976.42
857.352	19020.71
857.674	18999.47
857.996	18952.24
858.318	18818.23
858.64	18777.78
858.961	18702.76
859.283	18665.02
859.605	18632.7
859.926	18566.04
860.248	18571.91
860.57	18534.17
860.891	18461.86
861.212	18354.74
861.534	18323.78
861.855	18365.82
862.176	18295.99
862.498	18332.15
862.819	18351.13
863.14	18138.93
863.461	18189.55
863.782	18106.16
864.103	18154.52
864.424	18023
864.745	18111.59
865.065	17951.82
865.386	17891.48
865.707	17889.44
866.027	17971.48
866.348	17854.42
866.668	17879.73
866.989	17722.67
867.309	17745.95
867.63	17746.85
867.95	17714.99
868.27	17530.13
868.59	17682.44
868.91	17588.44
869.23	17566.06
869.55	17386.86
869.87	17566.74
870.19	17486.74
870.51	17508.89
870.83	17476.57
871.15	17354.32
871.469	17365.62
871.789	17312.51
872.109	17347.09
872.428	17190.93
872.748	17248.11
873.067	17235.45
873.386	17180.54
873.706	17122.91
874.025	17033.87
874.344	17009.69
874.663	17162.91
874.982	17017.38
875.301	16931.28
875.62	16783.49
875.939	16761.11
876.258	16729.7
876.577	16758.4
876.896	16790.94
877.214	16643.83
877.533	16685.18
877.852	16565.64
878.17	16594.79
878.489	16579.42
878.807	16451.52
879.125	16448.8
879.444	16509.14
879.762	16378.07
880.08	16488.58
880.398	16254.01
880.716	16360.67
881.034	16302.82
881.352	16368.81
881.67	16187.79
881.988	16220.79
882.306	16116.38
882.624	16068.93
882.941	16062.37
883.259	15973.34
883.577	15994.35
883.894	15899.67
884.212	15901.02
884.529	15748.26
884.846	15801.36
885.164	15771.99
885.481	15757.75
885.798	15799.56
886.115	15653.8
886.432	15609.28
886.75	15548.26
887.067	15633.46
887.383	15550.98
887.7	15533.35
888.017	15496.06
888.334	15534.93
888.651	15387.82
888.967	15438.44
889.284	15353.92
889.6	15305.33
889.917	15112.12
890.233	15150.99
890.55	15087.94
890.866	15141.27
891.182	15115.96
891.498	15052.46
891.815	14960.26
892.131	14931.78
892.447	14862.41
892.763	14837.1
893.079	14806.59
893.395	14756.87
893.71	14693.37
894.026	14706.93
894.342	14620.15
894.657	14566.82
894.973	14634.16
895.289	14511
895.604	14518.01
895.92	14413.38
896.235	14310.78
896.55	14300.84
896.865	14285.25
897.181	14184.01
897.496	14242.76
897.811	14205.93
898.126	14081.64
898.441	13947.4
898.756	14048.64
899.071	13920.28
899.386	13940.17
899.7	13844.81
900.015	13732.94
900.33	13680.29
900.644	13612.72
900.959	13626.96
901.273	13559.16
901.588	13448.21
901.902	13434.19
902.216	13420.41
902.531	13493.85
902.845	13306.06
903.159	13241.66
903.473	13284.37
903.787	13315.55
904.101	13146.07
904.415	13108.1
904.729	13120.76
905.042	12996.92
905.356	12993.75
905.67	13006.18
905.984	12932.97
906.297	12974.55
906.611	12836.24
906.924	12859.07
907.237	12722.35
907.551	12625.85
907.864	12643.93
908.177	12606.19
908.491	12640.09
908.804	12491.62
909.117	12519.87
909.43	12445.29
909.743	12319.42
910.056	12363.26
910.368	12242.59
910.681	12212.08
910.994	12219.99
911.307	12105.42
911.619	12044.4
911.932	11999.66
912.244	12014.57
912.557	11921.69
912.869	11886.89
913.181	11865.65
913.494	11778.19
913.806	11757.18
914.118	11704.97
914.43	11650.51
914.742	11672.43
915.054	11560.35
915.366	11510.86
915.678	11513.34
915.99	11509.27
916.302	11303.63
916.613	11278.77
916.925	11278.09
917.236	11288.94
917.548	11198.55
917.859	11195.61
918.171	11144.31
918.482	10961.49
918.794	11048.04
919.105	11007.59
919.416	10835.17
919.727	10888.5
920.038	10890.31
920.349	10822.51
920.66	10758.56
920.971	10743.42
921.282	10775.51
921.593	10557.66
921.903	10579.13
922.214	10444.44
922.525	10479.24
922.835	10455.74
923.146	10384.56
923.456	10329.19
923.767	10300.94
924.077	10351.56
924.387	10262.98
924.697	10171.23
925.008	10160.16
925.318	10116.99
925.628	10058.24
925.938	9981.4
926.248	9914.97
926.558	9861.41
926.867	9903.67
927.177	9792.26
927.487	9783.9
927.796	9633.62
928.106	9692.37
928.416	9590
928.725	9587.29
929.034	9543.45
929.344	9524.92
929.653	9498.03
929.962	9436.33
930.271	9370.57
930.581	9284.47
930.89	9304.13
931.199	9214.42
931.508	9233.18
931.817	9182.78
932.125	9115.21
932.434	9168.54
932.743	9030.47
933.051	9004.48
933.36	8944.6
933.669	8926.29
933.977	8837.48
934.286	8789.12
934.594	8812.17
934.902	8731.95
935.21	8722.91
935.519	8744.83
935.827	8698.73
936.135	8646.07
936.443	8527.88
936.751	8550.26
937.059	8517.04
937.367	8450.6
937.674	8451.95
937.982	8418.96
938.29	8324.95
938.597	8351.16
938.905	8264.39
939.213	8264.16
939.52	8219.87
939.827	8206.31
940.135	8167.21
940.442	8059.65
940.749	8157.27
941.056	8107.78
941.363	8042.02
941.67	7959.76
941.977	7984.17
942.284	7893.1
942.591	7920.89
942.898	7865.53
943.205	7819.88
943.511	7751.86
943.818	7740.11
944.125	7676.15
944.431	7625.76
944.738	7611.52
945.044	7606.55
945.35	7512.54
945.657	7480
945.963	7473.9
946.269	7463.96
946.575	7457.63
946.881	7372.66
947.187	7348.71
947.493	7344.19
947.799	7251.53
948.105	7278.42
948.41	7233.68
948.716	7185.09
949.022	7134.93
949.327	7078.2
949.633	7080.69
949.938	7011.31
950.244	6995.49
950.549	6922.05
950.854	6968.83
951.16	6910.07
951.465	6861.03
951.77	6835.05
952.075	6772.9
952.38	6808.83
952.685	6763.41
952.99	6721.83
953.294	6716.41
953.599	6692.23
953.904	6671.43
954.209	6550.31
954.513	6576.07
954.818	6569.97
955.122	6497.2
955.426	6482.97
955.731	6392.8
956.035	6415.62
956.339	6363.65
956.643	6367.49
956.948	6329.75
957.252	6315.29
957.556	6276.87
957.86	6228.96
958.163	6226.7
958.467	6220.83
958.771	6207.94
959.075	6164.1
959.378	6119.36
959.682	6110.09
959.985	6035.29
960.289	6036.65
960.592	6021.73
960.896	5969.31
961.199	5966.82
961.502	5929.53
961.805	5903.32
962.108	5831.23
962.411	5861.06
962.714	5790.33
963.017	5818.12
963.32	5776.54
963.623	5732.7
963.926	5716.88
964.228	5707.17
964.531	5685.25
964.833	5608.86
965.136	5613.38
965.438	5592.37
965.741	5594.17
966.043	5544.01
966.345	5495.19
966.648	5505.82
966.95	5483.67
967.252	5464.01
967.554	5422.65
967.856	5400.28
968.158	5362.09
968.46	5355.31
968.761	5306.5
969.063	5304.01
969.365	5297.01
969.666	5303.79
969.968	5237.8
970.269	5241.19
970.571	5234.18
970.872	5179.72
971.174	5107.63
971.475	5114.87
971.776	5088.43
972.077	5069.89
972.378	5047.3
972.679	4988.99
972.98	5013.63
973.281	4992.16
973.582	4955.55
973.883	4928.2
974.183	4921.88
974.484	4916.23
974.785	4925.27
975.085	4864.93
975.386	4863.35
975.686	4810.92
975.986	4793.52
976.287	4789.45
976.587	4749.45
976.887	4698.38
977.187	4743.35
977.487	4679.4
977.787	4664.93
978.087	4619.06
978.387	4594.65
978.687	4600.3
978.987	4533.41
979.286	4552.17
979.586	4534.77
979.885	4512.85
980.185	4479.4
980.484	4481.21
980.784	4477.37
981.083	4460.87
981.382	4414.54
981.682	4415.67
981.981	4384.04
982.28	4364.6
982.579	4331.16
982.878	4324.6
983.177	4295.45
983.475	4259.07
983.774	4264.72
984.073	4177.94
984.372	4202.8
984.67	4198.28
984.969	4192.18
985.267	4156.25
985.566	4140.2
985.864	4138.17
986.162	4133.2
986.461	4070.6
986.759	4075.34
987.057	4038.96
987.355	4055.68
987.653	4012.97
987.951	4011.39
988.249	4010.94
988.547	3959.19
988.844	3995.57
989.142	3939.3
989.44	3915.58
989.737	3869.7
990.035	3883.49
990.332	3835.58
990.63	3823.15
990.927	3807.1
991.224	3817.72
991.521	3810.27
991.819	3775.24
992.116	3782.25
992.413	3742.47
992.71	3728.24
993.006	3725.07
993.303	3693.89
993.6	3697.73
993.897	3715.58
994.193	3682.13
994.49	3688.01
994.787	3623.38
995.083	3591.29
995.379	3589.03
995.676	3590.16
995.972	3544.06
996.268	3566.21
996.565	3537.28
996.861	3518.07
997.157	3468.36
997.453	3471.52
997.749	3451.41
998.044	3388.58
998.34	3400.33
998.636	3380.9
998.932	3339.54
999.227	3311.98
999.523	3320.34
999.818	3290.96
1000.114	3273.78
1000.409	3283.5
1000.704	3295.7
1001	3213.22
1001.295	3220.68
1001.59	3216.16
1001.885	3200.79
1002.18	3190.62
1002.475	3175.26
1002.77	3140.45
1003.065	3122.15
1003.359	3110.17
1003.654	3075.82
1003.949	3089.38
1004.243	3058.2
1004.538	3034.69
1004.832	3049.16
1005.127	2992.89
1005.421	2978.65
1005.715	3002.15
1006.009	2983.4
1006.304	2918.99
1006.598	2912.66
1006.892	2865.21
1007.186	2872.44
1007.48	2834.7
1007.773	2803.51
1008.067	2814.36
1008.361	2796.51
1008.655	2784.31
1008.948	2735.95
1009.242	2767.13
1009.535	2713.35
1009.829	2711.76
1010.122	2709.05
1010.415	2697.08
1010.708	2662.05
1011.001	2631.77
1011.295	2642.16
1011.588	2631.54
1011.881	2585.67
1012.173	2586.12
1012.466	2539.11
1012.759	2511.09
1013.052	2545.89
1013.344	2512.67
1013.637	2513.35
1013.93	2480.58
1014.222	2461.6
1014.514	2446.24
1014.807	2450.3
1015.099	2410.08
1015.391	2413.69
1015.683	2396.29
1015.976	2369.63
1016.268	2370.3
1016.56	2328.72
1016.851	2328.05
1017.143	2351.1
1017.435	2279.69
1017.727	2310.19
1018.018	2273.13
1018.31	2230.87
1018.602	2253.92
1018.893	2237.43
1019.185	2231.78
1019.476	2177.54
1019.767	2197.65
1020.058	2173.02
1020.35	2138.45
1020.641	2143.64
1020.932	2118.56
1021.223	2107.03
1021.514	2092.12
1021.804	2073.14
1022.095	2062.97
1022.386	2047.6
1022.677	2044.21
1022.967	2025.91
1023.258	2003.99
1023.548	1993.82
1023.839	1967.6
1024.129	1963.99
1024.419	1917.89
1024.709	1906.81
1025	1918.34
1025.29	1912.69
1025.58	1876.98
1025.87	1859.36
1026.16	1878.79
1026.449	1840.83
1026.739	1836.08
1027.029	1832.01
1027.319	1807.61
1027.608	1817.55
1027.898	1745.46
1028.187	1755.63
1028.477	1781.39
1028.766	1761.96
1029.055	1697.1
1029.344	1691.23
1029.634	1711.79
1029.923	1680.15
1030.212	1676.76
1030.501	1662.98
1030.79	1649.65
1031.078	1628.18
1031.367	1657.78
1031.656	1603.32
1031.945	1609.87
1032.233	1581.17
1032.522	1585.01
1032.81	1547.95
1033.099	1560.38
1033.387	1541.4
1033.675	1573.94
1033.963	1498.69
1034.251	1528.75
1034.54	1514.06
1034.828	1470.67
1035.116	1453.27
1035.403	1483.1
1035.691	1448.75
1035.979	1466.15
1036.267	1420.73
1036.554	1402.87
1036.842	1420.95
1037.129	1424.34
1037.417	1394.51
1037.704	1351.12
1037.992	1356.55
1038.279	1378.69
1038.566	1342.99
1038.853	1342.99
1039.14	1342.99
