Data from white_steel_sheet_FLMS001491_006.txt Node
Date: Tue Feb 07 10:57:18 GMT 2017
User: dcchb
Spectrometer: FLMS00149
Trigger mode: 0
Integration Time (sec): 2.000000E-2
Scans to average: 10
Electric dark correction enabled: true
Nonlinearity correction enabled: false
Boxcar width: 0
XAxis mode: Wavelengths
Number of Pixels in Spectrum: 2048
>>>>>Begin Spectral Data<<<<<
341.393	-16.36
341.776	-16.36
342.16	-16.36
342.543	-60.87
342.927	-62
343.31	-70.59
343.693	-70.14
344.077	-54.09
344.46	-39.41
344.843	-51.16
345.226	-27.65
345.61	-40.31
345.993	-20.88
346.376	-8.67
346.759	-7.32
347.142	29.97
347.525	40.14
347.908	62.06
348.291	56.18
348.674	90.99
349.057	110.87
349.44	119.91
349.823	123.98
350.206	177.09
350.588	201.94
350.971	216.86
351.354	228.38
351.737	252.34
352.119	238.55
352.502	262.96
352.884	270.42
353.267	279.46
353.65	296.4
354.032	314.71
354.414	320.58
354.797	322.84
355.179	333.24
355.562	311.32
355.944	312.9
356.326	333.92
356.709	334.6
357.091	352.45
357.473	359.45
357.855	352.67
358.238	365.33
358.62	330.75
359.002	351.09
359.384	352.9
359.766	328.04
360.148	330.75
360.53	319.68
360.912	347.02
361.294	344.99
361.676	345.67
362.057	346.8
362.439	354.93
362.821	337.31
363.203	335.27
363.584	325.1
363.966	320.36
364.348	318.78
364.729	342.05
365.111	335.73
365.493	334.37
365.874	330.75
366.256	324.2
366.637	317.65
367.019	325.78
367.4	312.22
367.781	333.92
368.163	336.4
368.544	322.39
368.925	309.96
369.306	354.03
369.688	317.2
370.069	328.04
370.45	333.01
370.831	325.56
371.212	319.91
371.593	337.08
371.974	321.94
372.355	327.59
372.736	327.14
373.117	337.53
373.498	322.39
373.879	326.69
374.26	334.6
374.641	312.22
375.021	326.46
375.402	345.44
375.783	326.69
376.163	331.43
376.544	350.64
376.925	342.05
377.305	330.53
377.686	325.1
378.066	336.63
378.447	341.83
378.827	346.57
379.208	364.65
379.588	341.83
379.968	339.12
380.349	373.92
380.729	358.55
381.109	371.66
381.489	359.68
381.87	367.82
382.25	373.01
382.63	375.05
383.01	352.9
383.39	359.23
383.77	365.33
384.15	400.58
384.53	381.15
384.91	357.87
385.29	383.41
385.67	354.03
386.049	385.44
386.429	378.44
386.809	402.39
387.189	381.37
387.568	380.7
387.948	402.84
388.328	397.64
388.707	408.04
389.087	431.77
389.466	421.37
389.846	395.39
390.225	413.92
390.605	432.22
390.984	436.29
391.363	415.05
391.743	435.61
392.122	455.5
392.501	441.49
392.881	461.82
393.26	444.2
393.639	450.75
394.018	455.72
394.397	476.96
394.776	455.27
395.155	486.46
395.534	497.3
395.913	492.78
396.292	494.14
396.671	508.6
397.05	483.52
397.429	512.22
397.808	511.09
398.186	524.87
398.565	542.27
398.944	519
399.323	538.21
399.701	537.75
400.08	556.28
400.458	563.06
400.837	568.04
401.215	559.22
401.594	562.39
401.972	575.27
402.351	593.35
402.729	599.67
403.107	605.78
403.486	617.98
403.864	612.1
404.242	635.15
404.62	636.96
404.999	662.27
405.377	672.44
405.755	693.91
406.133	675.6
406.511	690.52
406.889	675.6
407.267	695.04
407.645	728.48
408.023	769.84
408.401	737.52
408.779	771.65
409.156	749.5
409.534	782.72
409.912	763.29
410.29	797.86
410.667	821.14
411.045	828.37
411.422	840.12
411.8	850.06
412.178	865.88
412.555	861.59
412.933	888.71
413.31	911.3
413.687	911.08
414.065	901.81
414.442	929.16
414.819	931.64
415.197	949.95
415.574	961.02
415.951	969.61
416.328	988.82
416.705	986.78
417.082	1005.99
417.46	1035.59
417.837	1058.64
418.214	1065.2
418.591	1060.45
418.967	1050.06
419.344	1074.92
419.721	1076.05
420.098	1095.25
420.475	1094.35
420.852	1096.38
421.228	1116.72
421.605	1169.6
421.982	1145.65
422.358	1148.13
422.735	1153.78
423.111	1176.38
423.488	1193.1
423.864	1194.46
424.241	1219.54
424.617	1224.97
424.994	1271.52
425.37	1257.74
425.746	1251.41
426.123	1277.85
426.499	1291.86
426.875	1322.14
427.251	1332.54
427.627	1345.87
428.003	1360.33
428.379	1347.9
428.756	1419.31
429.132	1427.45
429.507	1437.62
429.883	1469.26
430.259	1488.92
430.635	1480.55
431.011	1477.16
431.387	1564.85
431.763	1568.24
432.138	1558.52
432.514	1594.45
432.89	1597.61
433.265	1645.52
433.641	1664.96
434.016	1682.58
434.392	1695.46
434.767	1715.12
435.143	1745.86
435.518	1739.76
435.894	1754.45
436.269	1806.87
436.644	1806.2
437.02	1820.88
437.395	1860.21
437.77	1874.22
438.145	1884.61
438.52	1895.68
438.895	1926.42
439.271	1951.95
439.646	1983.37
440.021	2010.94
440.395	2017.72
440.77	2031.95
441.145	2026.3
441.52	2095.68
441.895	2044.83
442.27	2074.66
442.645	2084.83
443.019	2096.36
443.394	2127.54
443.769	2161.89
444.143	2152.85
444.518	2178.16
444.892	2199.86
445.267	2197.15
445.641	2236.92
446.016	2255.68
446.39	2255.9
446.764	2296.8
447.139	2270.14
447.513	2291.61
447.887	2341.77
448.262	2331.38
448.636	2367.31
449.01	2411.6
449.384	2432.62
449.758	2419.74
450.132	2475.78
450.506	2488.21
450.88	2489.57
451.254	2489.57
451.628	2588.55
452.002	2591.94
452.376	2563.69
452.75	2594.42
453.123	2661.77
453.497	2648.66
453.871	2673.97
454.244	2774.08
454.618	2735.89
454.992	2762.78
455.365	2792.84
455.739	2826.73
456.112	2914.64
456.486	2938.6
456.859	2939.95
457.232	3000.51
457.606	3005.26
457.979	3049.55
458.352	3107.4
458.725	3141.3
459.099	3186.27
459.472	3231.92
459.845	3243.9
460.218	3279.38
460.591	3342.88
460.964	3318.47
461.337	3424.91
461.71	3457.68
462.083	3525.02
462.456	3518.92
462.829	3554.85
463.201	3592.14
463.574	3608.86
463.947	3666.03
464.32	3779.48
464.692	3741.74
465.065	3823.09
465.438	3872.13
465.81	3930.66
466.183	3954.61
466.555	4059.02
466.928	4064.67
467.3	4045.46
467.672	4106.47
468.045	4273.93
468.417	4198
468.789	4261.05
469.161	4358.9
469.534	4428.95
469.906	4483.19
470.278	4537.88
470.65	4601.6
471.022	4679.34
471.394	4746.01
471.766	4718.66
472.138	4875.04
472.51	4913.68
472.882	4986.22
473.253	5047.92
473.625	5159.78
473.997	5259.66
474.369	5251.08
474.74	5366.55
475.112	5485.87
475.484	5512.76
475.855	5614.46
476.227	5665.98
476.598	5833.43
476.97	5852.64
477.341	5992.75
477.713	6065.52
478.084	6167.44
478.455	6287.43
478.827	6355.23
479.198	6501.21
479.569	6552.51
479.94	6745.27
480.311	6751.6
480.682	6960.86
481.053	7101.88
481.424	7230.01
481.795	7225.94
482.166	7364.92
482.537	7478.59
482.908	7584.35
483.279	7756.55
483.65	7864.79
484.021	8029.08
484.391	8049.42
484.762	8202.64
485.133	8270.66
485.503	8416.19
485.874	8559.24
486.244	8660.03
486.615	8846.91
486.985	8909.29
487.356	9080.35
487.726	9147.7
488.097	9323.74
488.467	9378.43
488.837	9584.3
489.207	9707
489.578	9852.76
489.948	9942.25
490.318	10080.78
490.688	10125.98
491.058	10273.32
491.428	10382.92
491.798	10516.7
492.168	10673.31
492.538	10733.42
492.908	10875.11
493.278	11070.36
493.648	11058.61
494.017	11221.99
494.387	11291.82
494.757	11440.29
495.126	11606.39
495.496	11705.14
495.866	11691.36
496.235	11867.4
496.605	11981.07
496.974	12031.92
497.344	12129.99
497.713	12237.33
498.082	12315.3
498.452	12459.02
498.821	12528.4
499.19	12603.88
499.559	12709.64
499.928	12858.33
500.298	12898.79
500.667	13028.27
501.036	13058.33
501.405	13174.71
501.774	13171.09
502.143	13341.03
502.512	13508.94
502.88	13536.73
503.249	13515.94
503.618	13683.62
503.987	13667.8
504.356	13837.29
504.724	13948.02
505.093	14009.94
505.462	14060.34
505.83	14190.05
506.199	14364.06
506.567	14545.3
506.936	14582.81
507.304	14680.21
507.672	14737.15
508.041	14878.85
508.409	14974.89
508.777	15150.93
509.145	15245.16
509.514	15313.41
509.882	15401.32
510.25	15492.84
510.618	15604.93
510.986	15651.26
511.354	15816.67
511.722	16021.19
512.09	16052.6
512.458	16095.54
512.826	16306.61
513.193	16320.16
513.561	16471.35
513.929	16623.66
514.297	16757.44
514.664	16884.67
515.032	16996.76
515.4	17158.79
515.767	17252.79
516.135	17353.36
516.502	17283.3
516.869	17672.22
517.237	17788.83
517.604	17680.13
517.972	18019.1
518.339	18065.2
518.706	18069.72
519.073	18217.06
519.44	18449.15
519.808	18546.09
520.175	18611.63
520.542	18765.75
520.909	18995.12
521.276	18971.39
521.643	19226.08
522.009	19358.05
522.376	19558.27
522.743	19615.22
523.11	19781.99
523.477	20087.75
523.843	20082.1
524.21	20442.99
524.577	20586.49
524.943	20618.81
525.31	20751.46
525.676	21000.72
526.043	21113.03
526.409	21265.8
526.776	21503.3
527.142	21547.6
527.508	21616.97
527.874	21835.5
528.241	21909.17
528.607	22044.99
528.973	22237.97
529.339	22222.83
529.705	22464.41
530.071	22660.79
530.437	22745.53
530.803	22953.66
531.169	23113.21
531.535	23018.07
531.901	23169.25
532.267	23272.98
532.632	23540.99
532.998	23550.48
533.364	23779.18
533.73	23843.36
534.095	24087.42
534.461	24181.2
534.826	24245.83
535.192	24334.64
535.557	24503
535.923	24512.94
536.288	24641.75
536.653	24723.56
537.019	24828.19
537.384	24812.6
537.749	25027.73
538.114	25109.76
538.479	25200.61
538.845	25317.22
539.21	25350.44
539.575	25413.26
539.94	25515.85
540.305	25696.87
540.67	25727.83
541.034	25734.38
541.399	26005.33
541.764	25941.15
542.129	26135.95
542.494	26270.86
542.858	26373.91
543.223	26329.39
543.587	26500.24
543.952	26521.48
544.316	26667.69
544.681	26622.72
545.045	26852.54
545.41	26921.47
545.774	26975.7
546.138	27017.28
546.503	27113.33
546.867	27177.96
547.231	27497.05
547.595	27409.82
547.959	27565.74
548.324	27727.55
548.688	27751.73
549.052	27850.48
549.416	27827.88
549.779	27885.06
550.143	27902.91
550.507	28200.3
550.871	28262.67
551.235	28325.72
551.599	28546.96
551.962	28588.99
552.326	28708.76
552.689	28711.7
553.053	28667.18
553.417	28865.14
553.78	29237.79
554.143	29085.7
554.507	29304
554.87	29346.04
555.234	29787.61
555.597	29676.65
555.96	29685.69
556.323	29833.48
556.686	29848.62
557.05	30157.99
557.413	30243.87
557.776	30269.63
558.139	30489.28
558.502	30586.46
558.865	30602.05
559.228	30875.49
559.59	30881.59
559.953	30943.06
560.316	31293.56
560.679	31344.18
561.041	31396.83
561.404	31635.92
561.767	31719.53
562.129	31650.83
562.492	32151.61
562.854	32124.72
563.217	32202.68
563.579	32125.17
563.941	32532.85
564.304	32656.68
564.666	32855.55
565.028	32949.78
565.39	32874.31
565.753	33071.59
566.115	33181.64
566.477	33412.14
566.839	33557.45
567.201	33747.28
567.563	33832.47
567.925	33969.19
568.287	33886.71
568.648	34027.5
569.01	34218.9
569.372	34304.55
569.734	34325.79
570.095	34544.77
570.457	34693.92
570.819	34775.5
571.18	34787.02
571.542	34992.89
571.903	35001.71
572.265	35130.29
572.626	35216.39
572.987	35330.06
573.349	35526.66
573.71	35595.14
574.071	35664.74
574.432	35831.97
574.794	35971.62
575.155	35961
575.516	35772.31
575.877	36113.54
576.238	35976.37
576.599	36203.71
576.96	36130.49
577.32	36290.49
577.681	36353.54
578.042	36528.45
578.403	36334.33
578.763	36547.88
579.124	36513.53
579.485	36657.93
579.845	36673.3
580.206	36616.35
580.566	36688.22
580.927	36656.13
581.287	36844.82
581.648	36599.86
582.008	36965.72
582.368	36795.78
582.728	36808.21
583.089	36883.01
583.449	37045.95
583.809	36913.52
584.169	37084.82
584.529	36859.96
584.889	37188.99
585.249	36878.72
585.609	36825.61
585.969	37012.28
586.329	36973.18
586.688	36988.1
587.048	37004.37
587.408	36959.17
587.768	36946.29
588.127	36865.39
588.487	36912.62
588.846	37212.72
589.206	36940.86
589.565	36940.86
589.925	37158.49
590.284	36976.57
590.643	37165.72
591.003	37164.36
591.362	37291.14
591.721	37037.36
592.08	37121.2
592.44	37189.9
592.799	37175.43
593.158	37012.95
593.517	37103.35
593.876	37149.45
594.235	37068.09
594.593	37179.5
594.952	37038.49
595.311	37086.62
595.67	37138.37
596.029	37279.39
596.387	37364.13
596.746	37339.05
597.104	37138.6
597.463	37181.31
597.822	37441.87
598.18	37269.22
598.538	37158.26
598.897	37388.54
599.255	37160.29
599.613	37714.4
599.972	37351.25
600.33	37486.61
600.688	37339.95
601.046	37379.27
601.404	37539.72
601.762	37465.6
602.12	37597.34
602.478	37517.12
602.836	37666.72
603.194	37422.43
603.552	37464.92
603.91	37423.79
604.268	37576.55
604.625	37336.11
604.983	37639.15
605.341	37484.58
605.698	37608.87
606.056	37736.1
606.413	37655.65
606.771	37764.57
607.128	37902.87
607.485	37682.54
607.843	37806.83
608.2	37906.94
608.557	37931.12
608.914	37727.51
609.272	37979.93
609.629	38002.76
609.986	37995.3
610.343	38014.06
610.7	38344.9
611.057	38205.24
611.414	38211.34
611.771	38104.68
612.127	38441.62
612.484	38334.95
612.841	38398.91
613.198	38394.84
613.554	38419.7
613.911	38526.81
614.267	38506.47
614.624	38430.54
614.98	38574.95
615.337	38742.85
615.693	38729.29
616.05	38635.51
616.406	38854.26
616.762	38756.41
617.118	38669.63
617.475	38698.56
617.831	38830.53
618.187	38893.36
618.543	38893.13
618.899	39127.93
619.255	39024.88
619.611	38884.32
619.967	39193.69
620.323	39270.75
620.678	39151.65
621.034	38845.45
621.39	39116.17
621.746	39071.2
622.101	39377.64
622.457	39245.66
622.812	39293.8
623.168	39274.59
623.523	39303.06
623.879	39331.99
624.234	39071.43
624.589	39241.6
624.945	39229.62
625.3	39311.88
625.655	39302.61
626.01	39177.87
626.365	39234.14
626.72	39417.86
627.075	39061.71
627.43	39069.62
627.785	38977.42
628.14	39123.63
628.495	39043.86
628.85	39053.35
629.205	39011.09
629.559	39197.75
629.914	39026.23
630.269	39070.53
630.623	38920.02
630.978	38902.17
631.332	39107.81
631.687	39142.84
632.041	39022.17
632.396	39020.13
632.75	38798.44
633.104	38884.54
633.459	38790.08
633.813	38805.22
634.167	38603.87
634.521	38605.23
634.875	38757.09
635.229	38590.76
635.583	38479.36
635.937	38462.41
636.291	38399.58
636.645	38511.67
636.999	38202.98
637.352	38458.57
637.706	38123.43
638.06	38216.31
638.413	38053.15
638.767	37964.57
639.121	38041.85
639.474	37862.65
639.828	38004.34
640.181	37942.19
640.534	37847.73
640.888	37698.81
641.241	37633.95
641.594	37626.27
641.947	37724.35
642.301	37506.5
642.654	37698.36
643.007	37591.02
643.36	37486.84
643.713	37483.9
644.066	37605.93
644.419	37369.33
644.771	37205.49
645.124	36768.67
645.477	36750.36
645.83	36463.14
646.182	36305.18
646.535	36173.88
646.888	36358.96
647.24	36064.05
647.593	36405.06
647.945	36216.36
648.298	36059.31
648.65	35969.36
649.002	35980.21
649.355	36046.65
649.707	35980.89
650.059	35993.32
650.411	36393.99
650.763	36583.59
651.115	36781.32
651.467	36804.82
651.819	36822.68
652.171	36650.03
652.523	36627.43
652.875	36673.3
653.227	36491.16
653.578	36630.36
653.93	36499.29
654.282	36304.05
654.633	36122.81
654.985	36533.19
655.337	36393.53
655.688	36286.42
656.039	36471.72
656.391	36047.1
656.742	36078.51
657.094	36118.06
657.445	36285.06
657.796	36145.63
658.147	36083.49
658.498	35965.52
658.849	36063.6
659.2	36111.28
659.551	35809.37
659.902	36102.47
660.253	36015.69
660.604	35900.44
660.955	35725.08
661.306	35903.15
661.656	35831.06
662.007	35694.12
662.358	35707.68
662.708	35669.26
663.059	35605.98
663.409	35379.1
663.76	35559.88
664.11	35580
664.461	35542.26
664.811	35457.51
665.161	35280.34
665.511	35262.26
665.862	35161.02
666.212	35347.46
666.562	35296.16
666.912	35095.94
667.262	34837.42
667.612	34853.91
667.962	34824.76
668.312	34640.36
668.662	34858.89
669.011	34668.61
669.361	34607.37
669.711	34558.1
670.06	34359.69
670.41	34222.07
670.76	34284.89
671.109	34338.22
671.459	34195.4
671.808	34063.2
672.157	34127.61
672.507	33811.46
672.856	33869.53
673.205	33910.89
673.554	33895.75
673.904	33685.81
674.253	33926.48
674.602	33565.81
674.951	33208.99
675.3	32978.03
675.649	33517.9
675.998	33563.55
676.346	33404.91
676.695	33583.21
677.044	33128.31
677.393	33419.15
677.741	33369.43
678.09	33269.55
678.438	33113.62
678.787	33222.54
679.135	33330.79
679.484	33089.67
679.832	33165.37
680.181	33031.82
680.529	33138.48
680.877	32932.83
681.225	32974.87
681.573	33325.59
681.922	32930.57
682.27	32924.47
682.618	33128.76
682.966	32959.5
683.314	33062.32
683.661	32992.04
684.009	32882.21
684.357	32838.83
684.705	32902.33
685.053	32974.87
685.4	32936.68
685.748	32804.93
686.095	32801.99
686.443	32768.09
686.79	32823.46
687.138	32919.95
687.485	32908.43
687.832	32765.16
688.18	32834.08
688.527	32740.3
688.874	32715.67
689.221	32767.19
689.568	32813.74
689.915	32714.99
690.262	32630.92
690.609	32383.02
690.956	32557.93
691.303	32582.11
691.65	32487.42
691.997	32401.78
692.344	32297.82
692.69	32340.53
693.037	32361.55
693.383	32037.04
693.73	32292.4
694.077	32183.25
694.423	32190.48
694.769	32072.97
695.116	31933.99
695.462	32022.35
695.808	31996.14
696.155	31981.67
696.501	31756.37
696.847	31730.83
697.193	31462.14
697.539	31655.13
697.885	31413.33
698.231	31437.51
698.577	31522.25
698.923	31435.25
699.269	31281.58
699.614	31172.88
699.96	31154.58
700.306	31140.57
700.651	30999.1
700.997	30873
701.342	30797.75
701.688	30721.82
702.033	30712.78
702.379	30767.92
702.724	30639.56
703.069	30703.51
703.415	30374.48
703.76	30227.37
704.105	30437.53
704.45	30256.07
704.795	30098.11
705.14	29931.56
705.485	29929.52
705.83	29908.28
706.175	29868.28
706.52	29779.47
706.865	29824.89
707.209	29582.64
707.554	29480.04
707.899	29632.36
708.243	29401.63
708.588	29405.92
708.932	29248.86
709.277	29167.96
709.621	29203.67
709.966	29039.38
710.31	29215.19
710.654	28802.77
710.998	29009.77
711.342	28979.27
711.687	28861.08
712.031	28711.25
712.375	28572.05
712.719	28649.11
713.063	28667.64
713.407	28651.14
713.75	28420.18
714.094	28499.28
714.438	28298.38
714.782	28363.24
715.125	28286.18
715.469	28353.29
715.812	28113.53
716.156	27959.18
716.499	28106.75
716.843	28072.17
717.186	27838.28
717.53	27918.73
717.873	27847.77
718.216	27867.88
718.559	27673.76
718.902	27600.77
719.246	27749.92
719.589	27632.18
719.932	27460.21
720.275	27437.16
720.617	27463.6
720.96	27341.8
721.303	27348.35
721.646	27356.48
721.989	27158.52
722.331	27285.75
722.674	27101.12
723.016	27122.82
723.359	27010.28
723.701	27101.58
724.044	26954.69
724.386	26881.02
724.729	26927.12
725.071	26828.36
725.413	26844.41
725.755	26767.57
726.097	26702.72
726.439	26688.48
726.782	26489.84
727.124	26738.42
727.465	26424.31
727.807	26502.04
728.149	26382.72
728.491	26485.32
728.833	26416.85
729.175	26314.48
729.516	26353.12
729.858	26305.66
730.199	26283.74
730.541	26103.41
730.882	26109.96
731.224	26125.56
731.565	25998.55
731.906	25815.51
732.248	25984.99
732.589	25852.34
732.93	25762.18
733.271	25760.37
733.612	25830.87
733.953	25779.8
734.294	25722.18
734.635	25569.19
734.976	25732.12
735.317	25550.66
735.658	25652.35
735.999	25577.32
736.339	25459.13
736.68	25467.04
737.021	25333.94
737.361	25371.68
737.702	25396.08
738.042	25281.51
738.383	25326.03
738.723	25386.59
739.063	25227.05
739.404	25301.4
739.744	25112.7
740.084	25034.29
740.424	24993.83
740.764	25082.87
741.104	25046.04
741.444	24948.19
741.784	24831.35
742.124	24872.71
742.464	24782.54
742.804	24753.61
743.143	24868.19
743.483	24769.89
743.823	24655.99
744.162	24685.14
744.502	24653.73
744.841	24456.22
745.181	24617.35
745.52	24434.3
745.86	24501.19
746.199	24484.92
746.538	24355.43
746.877	24290.8
747.216	24368.77
747.556	24304.36
747.895	24283.12
748.234	24160.86
748.573	24167.19
748.911	24037.93
749.25	24006.52
749.589	23922
749.928	23941.88
750.267	23994.99
750.605	23952.96
750.944	23809.23
751.283	23733.75
751.621	23856.69
751.96	23714.77
752.298	23675
752.636	23599.97
752.975	23507.09
753.313	23488.11
753.651	23540.31
753.989	23406.76
754.327	23245.86
754.666	23116.82
755.004	23155.24
755.342	23126.31
755.679	23188.23
756.017	22908.69
756.355	23127.44
756.693	22948.01
757.031	22977.84
757.368	22754.12
757.706	22757.73
758.044	22637.96
758.381	22744.18
758.719	22538.31
759.056	22501.7
759.394	22521.58
759.731	22359.33
760.068	22323.62
760.405	22204.98
760.743	22302.15
761.08	22187.13
761.417	22134.7
761.754	22150.52
762.091	21984.65
762.428	21974.93
762.765	21825.78
763.102	21829.17
763.438	21707.82
763.775	21692.9
764.112	21646.35
764.449	21605
764.785	21543.53
765.122	21402.97
765.458	21295.85
765.795	21177.89
766.131	21185.35
766.467	21071.9
766.804	21086.82
767.14	20836.66
767.476	20955.52
767.812	20845.02
768.148	20913.72
768.485	20580.84
768.821	20678.24
769.157	20547.62
769.492	20554.18
769.828	20577.45
770.164	20250.23
770.5	20295.65
770.836	20330
771.171	20125.71
771.507	20127.75
771.842	19977.7
772.178	19900.41
772.513	19809.11
772.849	19892.5
773.184	19729.79
773.519	19733.63
773.855	19618.83
774.19	19471.49
774.525	19499.97
774.86	19485.5
775.195	19405.73
775.53	19311.95
775.865	19215.91
776.2	19017.49
776.535	18999.42
776.87	18943.37
777.205	18839.42
777.539	18882.81
777.874	18913.54
778.209	18620.44
778.543	18598.3
778.878	18530.5
779.212	18522.37
779.547	18408.92
779.881	18383.84
780.215	18275.59
780.55	18213.67
780.884	18182.26
781.218	18116.05
781.552	18029.72
781.886	17983.85
782.22	17859.11
782.554	17866.56
782.888	17700.01
783.222	17561.04
783.556	17562.17
783.889	17467.93
784.223	17494.82
784.557	17351.55
784.89	17367.82
785.224	17326.69
785.557	17149.75
785.891	17074.72
786.224	17145.68
786.558	17122.4
786.891	16953.82
787.224	16868.17
787.557	16804.67
787.891	16771.68
788.224	16823.2
788.557	16709.31
788.89	16675.41
789.223	16591.34
789.556	16523.32
789.888	16467.05
790.221	16457.56
790.554	16274.29
790.887	16275.19
791.219	16276.55
791.552	16235.87
791.884	16055.31
792.217	16084.92
792.549	15951.36
792.882	15897.35
793.214	15779.84
793.546	15854.87
793.879	15754.98
794.211	15627.07
794.543	15662.55
794.875	15625.04
795.207	15599.73
795.539	15555.21
795.871	15478.15
796.203	15416.23
796.535	15244.49
796.867	15338.72
797.198	15229.12
797.53	15244.03
797.862	15076.35
798.193	15160.65
798.525	15116.35
798.856	15122.91
799.188	14816.25
799.519	14845.85
799.85	14811.73
800.182	14794.55
800.513	14816.02
800.844	14649.02
801.175	14704.84
801.506	14665.07
801.837	14591.17
802.168	14592.98
802.499	14518.86
802.83	14459.2
803.161	14407.9
803.491	14467.56
803.822	14395.02
804.153	14298.3
804.483	14146.21
804.814	14097.85
805.145	14095.82
805.475	14131.97
805.805	14027.12
806.136	14013.33
806.466	14053.11
806.796	14005.87
807.126	13810.63
807.457	13827.12
807.787	13912.54
808.117	13810.85
808.447	13718.88
808.777	13732.21
809.107	13672.55
809.436	13612.66
809.766	13596.39
810.096	13559.56
810.426	13441.37
810.755	13495.61
811.085	13376.51
811.414	13383.07
811.744	13317.76
812.073	13310.75
812.403	13328.15
812.732	13232.56
813.061	13257.42
813.39	13045.45
813.719	13082.51
814.049	13159.12
814.378	13100.14
814.707	13067.37
815.036	13048.16
815.365	12954.6
815.693	12873.25
816.022	12870.76
816.351	12777.66
816.68	12732.91
817.008	12819.47
817.337	12697.21
817.665	12699.92
817.994	12639.81
818.322	12745.57
818.651	12568.85
818.979	12570.43
819.307	12674.38
819.636	12538.79
819.964	12507.16
820.292	12586.93
820.62	12474.16
820.948	12406.14
821.276	12482.3
821.604	12432.36
821.932	12426.71
822.259	12513.03
822.587	12505.58
822.915	12400.49
823.243	12524.78
823.57	12424.45
823.898	12417.22
824.225	12375.18
824.553	12374.96
824.88	12368.63
825.207	12445.24
825.535	12402.98
825.862	12363.66
826.189	12456.99
826.516	12425.35
826.843	12440.72
827.17	12371.34
827.497	12416.31
827.824	12411.11
828.151	12389.19
828.478	12372.92
828.805	12387.39
829.131	12374.28
829.458	12377.67
829.785	12291.34
830.111	12308.07
830.438	12345.58
830.764	12328.63
831.09	12304.9
831.417	12222.64
831.743	12338.57
832.069	12281.17
832.395	12192.36
832.722	12308.07
833.048	12251.12
833.374	12200.95
833.7	12209.76
834.026	12300.16
834.351	12174.51
834.677	12144.45
835.003	12133.38
835.329	12180.39
835.654	12149.43
835.98	12099.03
836.306	12142.65
836.631	12085.47
836.956	12095.42
837.282	12080.05
837.607	12018.36
837.932	12015.87
838.258	12040.05
838.583	12046.38
838.908	11904.46
839.233	11969.32
839.558	11924.35
839.883	11902.43
840.208	11889.77
840.533	11852.94
840.858	11895.2
841.182	11807.51
841.507	11784.46
841.832	11793.5
842.156	11702.88
842.481	11726.39
842.805	11722.77
843.13	11636.45
843.454	11659.72
843.778	11608.2
844.103	11494.53
844.427	11568.88
844.751	11575.66
845.075	11511.7
845.399	11443.23
845.723	11332.27
846.047	11426.51
846.371	11319.39
846.695	11308.77
847.019	11222.67
847.343	11080.53
847.666	11082.34
847.99	11037.14
848.313	11065.61
848.637	10978.61
848.96	11011.83
849.284	10953.75
849.607	10846.18
849.931	10839.86
850.254	10774.1
850.577	10728.22
850.9	10715.11
851.223	10609.58
851.546	10610.03
851.869	10468.11
852.192	10614.55
852.515	10435.12
852.838	10445.74
853.161	10408.68
853.483	10341.56
853.806	10356.48
854.129	10280.55
854.451	10255.46
854.774	10249.36
855.096	10221.12
855.419	10162.59
855.741	10175.92
856.063	10055.47
856.385	10043.49
856.708	10047.79
857.03	9971.18
857.352	9968.47
857.674	9937.96
857.996	9939.77
858.318	9892.76
858.64	9890.73
858.961	9852.31
859.283	9838.53
859.605	9762.14
859.926	9744.29
860.248	9675.14
860.57	9740.9
860.891	9695.93
861.212	9700.9
861.534	9644.41
861.855	9607.57
862.176	9598.76
862.498	9620.91
862.819	9589.27
863.14	9539.1
863.461	9562.6
863.782	9445.09
864.103	9535.03
864.424	9449.84
864.745	9493.68
865.065	9419.33
865.386	9337.07
865.707	9431.98
866.027	9492.55
866.348	9386.11
866.668	9384.98
866.989	9293.91
867.309	9279.67
867.63	9253.68
867.95	9291.65
868.27	9204.87
868.59	9234.47
868.91	9249.84
869.23	9287.58
869.55	9137.08
869.87	9304.98
870.19	9182.72
870.51	9189.5
870.83	9175.04
871.15	9128.49
871.469	9064.99
871.789	9188.37
872.109	9113.57
872.428	9017.98
872.748	9084.42
873.067	9078.77
873.386	9006.23
873.706	9033.12
874.025	9022.5
874.344	9014.37
874.663	8995.38
874.982	8880.36
875.301	8981.37
875.62	8937.08
875.939	8892.34
876.258	8859.57
876.577	8781.15
876.896	8869.06
877.214	8875.84
877.533	8797.2
877.852	8788.84
878.17	8790.87
878.489	8806.46
878.807	8780.25
879.125	8845.56
879.444	8811.21
879.762	8751.55
880.08	8750.65
880.398	8635.39
880.716	8654.6
881.034	8660.03
881.352	8610.54
881.67	8607.15
881.988	8574.15
882.306	8554.49
882.624	8504.32
882.941	8496.42
883.259	8512.69
883.577	8488.51
883.894	8526.24
884.212	8436.53
884.529	8508.62
884.846	8407.38
885.164	8408.96
885.481	8396.53
885.798	8368.28
886.115	8370.54
886.432	8279.92
886.75	8321.05
887.067	8281.05
887.383	8264.78
887.7	8224.78
888.017	8171.45
888.334	8188.4
888.651	8194.73
888.967	8129.19
889.284	8127.39
889.6	8169.64
889.917	8166.25
890.233	8101.4
890.55	8038.35
890.866	8082.19
891.182	8028.18
891.498	8005.13
891.815	7947.5
892.131	7927.62
892.447	7886.04
892.763	7848.75
893.079	7941.18
893.395	7815.53
893.71	7795.42
894.026	7805.59
894.342	7723.1
894.657	7766.26
894.973	7716.77
895.289	7608.08
895.604	7708.19
895.92	7633.61
896.235	7599.49
896.55	7616.89
896.865	7546.16
897.181	7524.24
897.496	7550.9
897.811	7485.14
898.126	7431.81
898.441	7455.09
898.756	7381.19
899.071	7389.1
899.386	7366.05
899.7	7322.21
900.015	7361.3
900.33	7244.24
900.644	7271.36
900.959	7230.23
901.273	7211.48
901.588	7147.3
901.902	7156.79
902.216	7135.55
902.531	7116.56
902.845	7081.54
903.159	7066.17
903.473	6916.57
903.787	6982.78
904.101	6944.82
904.415	6873.18
904.729	6900.3
905.042	6811.04
905.356	6818.04
905.67	6854.65
905.984	6797.48
906.297	6799.51
906.611	6766.74
906.924	6706.18
907.237	6687.65
907.551	6707.08
907.864	6612.4
908.177	6649.68
908.491	6642.9
908.804	6542.12
909.117	6546.86
909.43	6552.29
909.743	6470.71
910.056	6479.29
910.368	6447.66
910.681	6410.14
910.994	6403.81
911.307	6359.3
911.619	6330.14
911.932	6341.22
912.244	6296.92
912.557	6270.71
912.869	6235.91
913.181	6210.15
913.494	6238.4
913.806	6146.42
914.118	6183.26
914.43	6095.8
914.742	6096.03
915.054	6088.12
915.366	6037.5
915.678	6041.79
915.99	5978.97
916.302	5907.1
916.613	5975.58
916.925	5932.41
917.236	5908.91
917.548	5887.9
917.859	5859.87
918.171	5835.69
918.482	5834.11
918.794	5768.8
919.105	5779.88
919.416	5736.71
919.727	5709.82
920.038	5635.7
920.349	5627.79
920.66	5634.34
920.971	5628.24
921.282	5610.16
921.593	5529.71
921.903	5510.28
922.214	5471.18
922.525	5470.28
922.835	5503.5
923.146	5453.33
923.456	5462.37
923.767	5418.76
924.077	5406.1
924.387	5407.46
924.697	5312.32
925.008	5342.83
925.318	5308.02
925.628	5315.48
925.938	5259.89
926.248	5210.63
926.558	5204.3
926.867	5143.96
927.177	5117.29
927.487	5138.99
927.796	5105.32
928.106	5076.62
928.416	5063.28
928.725	5079.78
929.034	5033.91
929.344	5028.48
929.653	5005.66
929.962	5002.72
930.271	4934.93
930.581	4923.63
930.89	4885.21
931.199	4841.82
931.508	4870.3
931.817	4827.58
932.125	4804.53
932.434	4783.29
932.743	4778.09
933.051	4754.59
933.36	4743.97
933.669	4713.46
933.977	4670.07
934.286	4703.07
934.594	4670.98
934.902	4629.17
935.21	4589.17
935.519	4632.56
935.827	4552.56
936.135	4551.89
936.443	4506.69
936.751	4510.31
937.059	4509.4
937.367	4478.44
937.674	4458.78
937.982	4469.63
938.29	4426.24
938.597	4475.73
938.905	4433.7
939.213	4356.86
939.52	4369.07
939.827	4374.94
940.135	4342.63
940.442	4310.99
940.749	4281.61
941.056	4271.44
941.363	4222.4
941.67	4220.82
941.977	4224.66
942.284	4202.06
942.591	4163.87
942.898	4138.56
943.205	4153.48
943.511	4120.48
943.818	4116.64
944.125	4112.8
944.431	4088.62
944.738	4058.79
945.044	4037.32
945.35	4024.67
945.657	3990.77
945.963	3974.5
946.269	3945.8
946.575	3975.18
946.881	3922.07
947.187	3910.32
947.493	3898.12
947.799	3871.9
948.105	3863.54
948.41	3856.54
948.716	3781.51
949.022	3833.71
949.327	3816.54
949.633	3757.56
949.938	3798.69
950.244	3806.59
950.549	3769.31
950.854	3745.58
951.16	3722.76
951.465	3688.63
951.77	3674.62
952.075	3658.58
952.38	3651.34
952.685	3649.31
952.99	3651.8
953.294	3602.98
953.599	3549.88
953.904	3560.05
954.209	3514.85
954.513	3535.42
954.818	3531.12
955.122	3503.78
955.426	3467.17
955.731	3432.37
956.035	3428.98
956.339	3416.1
956.643	3434.4
956.948	3388.98
957.252	3391.69
957.556	3387.4
957.86	3376.55
958.163	3347.17
958.467	3318.92
958.771	3284.57
959.075	3287.96
959.378	3319.38
959.682	3287.74
959.985	3277.34
960.289	3238.02
960.592	3250.68
960.896	3225.37
961.199	3207.74
961.502	3215.88
961.805	3167.74
962.108	3171.58
962.411	3157.8
962.714	3146.95
963.017	3120.06
963.32	3114.86
963.623	3127.06
963.926	3068.54
964.228	3100.62
964.531	3064.69
964.833	3076.9
965.136	3029.89
965.438	3032.15
965.741	3034.64
966.043	3001.64
966.345	2964.58
966.648	2965.71
966.95	2959.16
967.252	2985.83
967.554	2951.02
967.856	2911.7
968.158	2881.42
968.46	2858.15
968.761	2897.24
969.063	2866.28
969.365	2859.28
969.666	2826.73
969.968	2819.95
970.269	2810.91
970.571	2817.69
970.872	2791.25
971.174	2801.88
971.475	2725.72
971.776	2780.41
972.077	2754.42
972.378	2765.04
972.679	2734.31
972.98	2714.42
973.281	2671.03
973.582	2718.26
973.883	2692.5
974.183	2701.77
974.484	2624.7
974.785	2659.51
975.085	2637.59
975.386	2637.36
975.686	2614.54
975.986	2588.77
976.287	2577.7
976.587	2572.95
976.887	2555.55
977.187	2536.57
977.487	2546.29
977.787	2518.04
978.087	2529.57
978.387	2504.03
978.687	2547.87
978.987	2522.56
979.286	2453.86
979.586	2451.38
979.885	2452.05
980.185	2480.75
980.484	2407.08
980.784	2429.46
981.083	2454.31
981.382	2420.87
981.682	2373.86
981.981	2390.13
982.28	2390.81
982.579	2391.04
982.878	2388.33
983.177	2347.65
983.475	2338.38
983.774	2302.91
984.073	2322.79
984.372	2299.74
984.67	2306.3
984.969	2275.11
985.267	2265.84
985.566	2247.09
985.864	2273.98
986.162	2254.32
986.461	2244.15
986.759	2216.81
987.057	2183.59
987.355	2200.31
987.653	2180.65
987.951	2153.53
988.249	2153.76
988.547	2164.15
988.844	2148.11
989.142	2154.21
989.44	2123.48
989.737	2121.89
990.035	2107.88
990.332	2080.54
990.63	2110.82
990.927	2083.93
991.224	2102.01
991.521	2055.45
991.819	2076.92
992.116	2042.12
992.413	2026.08
992.71	2055.91
993.006	2012.07
993.303	2029.69
993.6	1992.18
993.897	2014.1
994.193	1991.05
994.49	1972.74
994.787	1975.68
995.083	1929.36
995.379	1931.84
995.676	1936.36
995.972	1934.55
996.268	1951.73
996.565	1900.88
996.861	1925.97
997.157	1882.35
997.453	1885.29
997.749	1875.57
998.044	1862.01
998.34	1826.31
998.636	1858.4
998.932	1836.48
999.227	1795.57
999.523	1793.77
999.818	1821.56
1000.114	1801.68
1000.409	1786.08
1000.704	1761.22
1001	1760.09
1001.295	1757.84
1001.59	1733.2
1001.885	1738.17
1002.18	1737.04
1002.475	1730.49
1002.77	1730.27
1003.065	1715.12
1003.359	1703.6
1003.654	1698.4
1003.949	1687.55
1004.243	1676.26
1004.538	1644.39
1004.832	1667.22
1005.127	1641.68
1005.421	1657.72
1005.715	1637.61
1006.009	1642.13
1006.304	1603.71
1006.598	1650.95
1006.892	1604.62
1007.186	1570.5
1007.48	1568.91
1007.773	1549.71
1008.067	1563.94
1008.361	1532.08
1008.655	1513.32
1008.948	1524.62
1009.242	1509.48
1009.535	1512.64
1009.829	1488.69
1010.122	1485.07
1010.415	1473.1
1010.708	1471.06
1011.001	1481.91
1011.295	1481.68
1011.588	1456.15
1011.881	1462.48
1012.173	1446.66
1012.466	1423.38
1012.759	1415.47
1013.052	1449.37
1013.344	1414.34
1013.637	1430.84
1013.93	1395.58
1014.222	1401.01
1014.514	1357.62
1014.807	1396.94
1015.099	1339.54
1015.391	1342.03
1015.683	1329.37
1015.976	1321.46
1016.268	1323.72
1016.56	1323.5
1016.851	1292.08
1017.143	1310.39
1017.435	1321.69
1017.727	1297.28
1018.018	1289.15
1018.31	1269.71
1018.602	1262.71
1018.893	1284.85
1019.185	1239.88
1019.476	1261.58
1019.767	1238.98
1020.058	1205.08
1020.35	1204.18
1020.641	1218.41
1020.932	1230.39
1021.223	1214.12
1021.514	1193.78
1021.804	1169.6
1022.095	1178.19
1022.386	1165.76
1022.677	1170.96
1022.967	1167.12
1023.258	1132.77
1023.548	1156.04
1023.839	1139.55
1024.129	1128.93
1024.419	1135.48
1024.709	1134.12
1025	1114.91
1025.29	1095.48
1025.58	1116.95
1025.87	1121.69
1026.16	1089.15
1026.449	1075.37
1026.739	1099.32
1027.029	1061.13
1027.319	1064.52
1027.608	1058.19
1027.898	1053.9
1028.187	1014.58
1028.477	1046.22
1028.766	1029.27
1029.055	1013.9
1029.344	1025.88
1029.634	1007.57
1029.923	1009.38
1030.212	977.74
1030.501	968.03
1030.79	982.04
1031.078	962.83
1031.367	970.06
1031.656	944.98
1031.945	949.72
1032.233	934.35
1032.522	980.45
1032.81	924.86
1033.099	935.94
1033.387	935.26
1033.675	925.31
1033.963	918.99
1034.251	933.9
1034.54	910.63
1034.828	925.99
1035.116	905.65
1035.403	899.33
1035.691	889.16
1035.979	880.12
1036.267	872.43
1036.554	893
1036.842	853.23
1037.129	845.09
1037.417	853.45
1037.704	839.22
1037.992	841.7
1038.279	845.77
1038.566	818.65
1038.853	818.65
1039.14	818.65
