Data from White_paper_FLMS001491_079.txt Node
Date: Tue Feb 07 10:35:33 GMT 2017
User: dcchb
Spectrometer: FLMS00149
Trigger mode: 0
Integration Time (sec): 2.000000E-2
Scans to average: 10
Electric dark correction enabled: true
Nonlinearity correction enabled: false
Boxcar width: 0
XAxis mode: Wavelengths
Number of Pixels in Spectrum: 2048
>>>>>Begin Spectral Data<<<<<
341.393	1.41
341.776	1.41
342.16	1.41
342.543	-53.28
342.927	-51.24
343.31	-69.09
343.693	-73.39
344.077	-66.16
344.46	-81.75
344.843	-72.03
345.226	-53.28
345.61	-31.36
345.993	-18.7
346.376	4.58
346.759	21.75
347.142	31.69
347.525	46.83
347.908	69.43
348.291	93.39
348.674	90.68
349.057	107.4
349.44	101.97
349.823	151.24
350.206	155.53
350.588	227.17
350.971	247.96
351.354	258.81
351.737	267.85
352.119	271.69
352.502	309.88
352.884	280.5
353.267	307.17
353.65	334.06
354.032	329.99
354.414	336.09
354.797	345.13
355.179	362.08
355.562	342.65
355.944	355.3
356.326	356.21
356.709	348.52
357.091	356.43
357.473	341.06
357.855	363.66
358.238	378.13
358.62	372.02
359.002	376.77
359.384	405.24
359.766	387.84
360.148	378.13
360.53	369.31
360.912	372.25
361.294	362.31
361.676	364.79
362.057	386.04
362.439	356.21
362.821	375.41
363.203	375.19
363.584	365.47
363.966	366.6
364.348	368.86
364.729	372.7
365.111	360.95
365.493	360.27
365.874	348.52
366.256	336.77
366.637	374.96
367.019	374.28
367.4	367.73
367.781	368.63
368.163	364.57
368.544	366.37
368.925	360.27
369.306	359.37
369.688	383.1
370.069	374.06
370.45	357.56
370.831	366.15
371.212	378.35
371.593	346.94
371.974	373.38
372.355	384.23
372.736	382.65
373.117	357.79
373.498	353.04
373.879	369.54
374.26	371.57
374.641	371.12
375.021	379.26
375.402	366.37
375.783	401.85
376.163	393.94
376.544	399.59
376.925	392.14
377.305	386.94
377.686	386.94
378.066	395.75
378.447	379.26
378.827	403.44
379.208	400.05
379.588	388.29
379.968	402.76
380.349	396.66
380.729	409.31
381.109	417.45
381.489	403.21
381.87	427.84
382.25	428.75
382.63	416.77
383.01	438.24
383.39	445.24
383.77	449.31
384.15	426.03
384.53	427.16
384.91	452.02
385.29	458.35
385.67	434.85
386.049	471.23
386.429	474.85
386.809	468.07
387.189	479.14
387.568	459.25
387.948	472.59
388.328	487.73
388.707	480.5
389.087	491.34
389.466	491.34
389.846	478.69
390.225	490.67
390.605	511
390.984	506.94
391.363	510.1
391.743	543.32
392.122	523.21
392.501	518.69
392.881	536.31
393.26	550.78
393.639	547.84
394.018	549.42
394.397	550.1
394.776	547.84
395.155	577.22
395.534	561.85
395.913	574.05
396.292	582.87
396.671	572.47
397.05	620.38
397.429	585.8
397.808	602.75
398.186	589.19
398.565	605.69
398.944	611.57
399.323	643.2
399.701	595.97
400.08	626.48
400.458	623.54
400.837	650.21
401.215	638.23
401.594	684.11
401.972	661.73
402.351	704.9
402.729	693.37
403.107	714.84
403.486	743.99
403.864	717.55
404.242	756.87
404.62	747.61
404.999	759.36
405.377	765.23
405.755	805.01
406.133	795.74
406.511	812.46
406.889	841.84
407.267	880.03
407.645	863.31
408.023	900.37
408.401	900.15
408.779	921.16
409.156	971.56
409.534	972.46
409.912	1031.22
410.29	1031.44
410.667	1062.63
411.045	1082.06
411.422	1121.38
411.8	1132.23
412.178	1169.74
412.555	1167.26
412.933	1213.36
413.31	1250.19
413.687	1270.53
414.065	1293.81
414.442	1310.76
414.819	1379.91
415.197	1344.2
415.574	1419.68
415.951	1430.08
416.328	1454.93
416.705	1483.86
417.082	1483.18
417.46	1543.52
417.837	1564.99
418.214	1595.04
418.591	1618.55
418.967	1660.58
419.344	1676.4
419.721	1690.18
420.098	1693.35
420.475	1742.16
420.852	1780.8
421.228	1800.24
421.605	1821.25
421.982	1854.92
422.358	1870.52
422.735	1874.13
423.111	1920.23
423.488	1971.98
423.864	1958.65
424.241	1994.35
424.617	2042.71
424.994	2023.28
425.37	2113
425.746	2129.04
426.123	2156.84
426.499	2135.14
426.875	2190.06
427.251	2217.4
427.627	2307.11
428.003	2304.63
428.379	2352.09
428.756	2398.64
429.132	2403.16
429.507	2412.2
429.883	2462.59
430.259	2510.95
430.635	2512.08
431.011	2534.91
431.387	2649.93
431.763	2673.43
432.138	2678.18
432.514	2753.66
432.89	2760.66
433.265	2828.68
433.641	2823.03
434.016	2886.08
434.392	2951.84
434.767	3018.51
435.143	2974.67
435.518	3025.74
435.894	3093.31
436.269	3110.03
436.644	3166.3
437.02	3243.36
437.395	3198.39
437.77	3252.63
438.145	3331.49
438.52	3371.72
438.895	3414.43
439.271	3392.28
439.646	3474.77
440.021	3468.21
440.395	3546.4
440.77	3499.17
441.145	3545.05
441.52	3633.63
441.895	3583.69
442.27	3680.41
442.645	3641.09
443.019	3697.13
443.394	3687.42
443.769	3754.08
444.143	3723.8
444.518	3847.64
444.892	3853.29
445.267	3814.42
445.641	3883.8
446.016	3868.2
446.39	3931.93
446.764	3935.32
447.139	3917.47
447.513	3986.39
447.887	4008.31
448.262	4020.52
448.636	4047.18
449.01	4086.5
449.384	4186.39
449.758	4182.77
450.132	4196.78
450.506	4245.37
450.88	4270.23
451.254	4266.38
451.628	4319.94
452.002	4368.53
452.376	4442.2
452.75	4470.9
453.123	4460.5
453.497	4531.01
453.871	4608.97
454.244	4684.91
454.618	4731.91
454.992	4759.03
455.365	4782.98
455.739	4942.75
456.112	4930.1
456.486	4987.27
456.859	5050.32
457.232	5146.81
457.606	5088.06
457.979	5172.58
458.352	5276.53
458.725	5396.52
459.099	5379.35
459.472	5516.07
459.845	5547.26
460.218	5603.07
460.591	5667.93
460.964	5681.04
461.337	5823.18
461.71	5886.91
462.083	5939.34
462.456	5975.04
462.829	6000.35
463.201	6107.69
463.574	6149.73
463.947	6218.65
464.32	6365.09
464.692	6445.31
465.065	6428.14
465.438	6541.81
465.81	6644.18
466.183	6710.84
466.555	6852.98
466.928	6949.48
467.3	6904.28
467.672	7019.76
468.045	7209.81
468.417	7276.93
468.789	7304.05
469.161	7421.56
469.534	7499.75
469.906	7702.45
470.278	7759.85
470.65	7820.64
471.022	8013.18
471.394	8139.96
471.766	8118.26
472.138	8303.34
472.51	8453.62
472.882	8599.38
473.253	8730.22
473.625	8828.52
473.997	9033.72
474.369	9061.51
474.74	9141.06
475.112	9323.2
475.484	9500.15
475.855	9684.55
476.227	9733.36
476.598	10014.26
476.97	10112.11
477.341	10325.21
477.713	10429.39
478.084	10548.03
478.455	10756.38
478.827	10906.21
479.198	11212.87
479.569	11314.34
479.94	11503.03
480.311	11631.16
480.682	11934.43
481.053	12135.33
481.424	12280.41
481.795	12479.28
482.166	12638.14
482.537	12793.17
482.908	13102.99
483.279	13140.05
483.65	13489.87
484.021	13805.34
484.391	13812.12
484.762	13919.69
485.133	14116.97
485.503	14201.27
485.874	14608.03
486.244	14735.94
486.615	15106.78
486.985	15203.95
487.356	15494.11
487.726	15608.23
488.097	15918.73
488.467	15884.38
488.837	16282.79
489.207	16417.03
489.578	16615.66
489.948	16822.21
490.318	16998.03
490.688	17075.31
491.058	17498.58
491.428	17659.71
491.798	17788.52
492.168	18197.32
492.538	18200.93
492.908	18370.87
493.278	18674.37
493.648	18655.61
494.017	18961.59
494.387	19055.37
494.757	19233.9
495.126	19501.46
495.496	19503.72
495.866	19601.8
496.235	19790.72
496.605	19972.86
496.974	20174.89
497.344	20320.88
497.713	20406.53
498.082	20602
498.452	20777.82
498.821	20802.45
499.19	20916.57
499.559	21239.05
499.928	21306.39
500.298	21451.92
500.667	21664.12
501.036	21577.34
501.405	21921.74
501.774	21945.47
502.143	22054.39
502.512	22171.9
502.88	22443.76
503.249	22377.32
503.618	22617.54
503.987	22721.04
504.356	22866.57
504.724	22958.32
505.093	23098.43
505.462	23228.6
505.83	23422.27
506.199	23558.08
506.567	23811.63
506.936	23870.84
507.304	24152.87
507.672	24286.42
508.041	24330.04
508.409	24481.67
508.777	24695.45
509.145	24792.62
509.514	24836.01
509.882	25127.08
510.25	25172.28
510.618	25327.3
510.986	25494.53
511.354	25687.52
511.722	25921.41
512.09	26155.3
512.458	26116.88
512.826	26409.08
513.193	26543.31
513.561	26559.13
513.929	26892.91
514.297	27059.01
514.664	27180.58
515.032	27230.07
515.4	27643.85
515.767	27633.23
516.135	27756.84
516.502	27615.15
516.869	28188.92
517.237	28330.16
517.604	28204.74
517.972	28608.8
518.339	28760.66
518.706	28884.95
519.073	29076.13
519.44	29271.83
519.808	29530.58
520.175	29490.58
520.542	29954.3
520.909	29980.06
521.276	30088.76
521.643	30420.5
522.009	30635.64
522.376	30721.28
522.743	31166.47
523.11	31292.57
523.477	31590.86
523.843	31736.62
524.21	32063.85
524.577	32194.92
524.943	32461.58
525.31	32494.57
525.676	32819.98
526.043	33100.88
526.409	33181.56
526.776	33544.71
527.142	33622.9
527.508	33911.26
527.874	34150.12
528.241	34234.41
528.607	34363.67
528.973	34726.38
529.339	34713.72
529.705	35107.83
530.071	35427.37
530.437	35479.8
530.803	35633.47
531.169	35722.51
531.535	35845.22
531.901	36021.71
532.267	36232.78
532.632	36421.7
532.998	36473.9
533.364	36825.53
533.73	36890.16
534.095	37100.1
534.461	37372.41
534.826	37463.48
535.192	37571.27
535.557	37931.26
535.923	37986.85
536.288	38110.92
536.653	38325.15
537.019	38267.3
537.384	38463.68
537.749	38611.47
538.114	38558.82
538.479	38785.7
538.845	39014.85
539.21	38969.65
539.575	39328.74
539.94	39355.63
540.305	39530.54
540.67	39519.47
541.034	39677.66
541.399	39994.03
541.764	39989.51
542.129	40225.89
542.494	40292.56
542.858	40478.54
543.223	40560.35
543.587	40677.41
543.952	40736.39
544.316	41014.35
544.681	40937.74
545.045	41100.44
545.41	41606.19
545.774	41620.21
546.138	41553.99
546.503	41575.91
546.867	41832.63
547.231	42167.76
547.595	42142.23
547.959	42458.83
548.324	42264.93
548.688	42295.22
549.052	42539.95
549.416	42560.29
549.779	42823.11
550.143	42818.14
550.507	43204.8
550.871	43195.53
551.235	43298.13
551.599	43532.47
551.962	43706.48
552.326	43803.65
552.689	43967.94
553.053	44020.59
553.417	44066.69
553.78	44568.6
554.143	44396.18
554.507	44535.16
554.87	44793.23
555.234	44940.57
555.597	44957.74
555.96	45072.77
556.323	45264.18
556.686	45280.67
557.05	45639.08
557.413	45814.45
557.776	46007.21
558.139	46140.76
558.502	46121.1
558.865	46152.74
559.228	46459.17
559.59	46627.76
559.953	46805.15
560.316	47121.08
560.679	47176.67
561.041	47311.58
561.404	47640.61
561.767	47718.8
562.129	47712.02
562.492	48042.18
562.854	47952.02
563.217	48078.34
563.579	48198.79
563.941	48570.98
564.304	48693.69
564.666	48867.92
565.028	48905.66
565.39	49219.55
565.753	49259.33
566.115	49378.42
566.477	49573.89
566.839	49792.42
567.201	50057.95
567.563	49893.21
567.925	50166.87
568.287	50171.39
568.648	50291.16
569.01	50504.04
569.372	50682.11
569.734	50615.67
570.095	50847.31
570.457	51054.53
570.819	51151.03
571.18	51068.54
571.542	51328.88
571.903	51410.23
572.265	51482.54
572.626	51631.69
572.987	51744.23
573.349	51821.52
573.71	51894.06
574.071	51984
574.432	52139.48
574.794	52311
575.155	52409.07
575.516	52224.67
575.877	52415.4
576.238	52435.51
576.599	52614.27
576.96	52630.76
577.32	52676.41
577.681	52867.59
578.042	52821.27
578.403	52852.68
578.763	52999.79
579.124	53001.15
579.485	53108.49
579.845	53277.75
580.206	53118.43
580.566	53248.6
580.927	53303.74
581.287	53441.59
581.648	53315.72
582.008	53534.47
582.368	53461.25
582.728	53535.82
583.089	53506.9
583.449	53477.07
583.809	53515.26
584.169	53602.26
584.529	53565.43
584.889	53859.88
585.249	53639.55
585.609	53588.7
585.969	53775.37
586.329	53705.09
586.688	53784.41
587.048	53688.81
587.408	53643.62
587.768	53773.78
588.127	53812.43
588.487	53833.44
588.846	53913.67
589.206	53776.5
589.565	53833.67
589.925	54003.16
590.284	53877.96
590.643	53935.59
591.003	54011.52
591.362	54121.8
591.721	54009.03
592.08	54081.57
592.44	54184.39
592.799	54135.58
593.158	54125.19
593.517	54188.01
593.876	54211.74
594.235	54157.5
594.593	54143.94
594.952	54301
595.311	54238.4
595.67	54273.43
596.029	54360.66
596.387	54363.15
596.746	54517.04
597.104	54319.98
597.463	54363.37
597.822	54498.28
598.18	54420.77
598.538	54410.83
598.897	54547.77
599.255	54270.72
599.613	54703.25
599.972	54531.28
600.33	54579.86
600.688	54510.94
601.046	54585.74
601.404	54802.01
601.762	54657.6
602.12	54779.18
602.478	54807.2
602.836	54861.44
603.194	54707.54
603.552	54756.13
603.91	54714.32
604.268	54784.83
604.625	54729.69
604.983	54890.14
605.341	54733.53
605.698	54932.4
606.056	54957.48
606.413	54925.84
606.771	55016.91
607.128	55060.98
607.485	54954.77
607.843	54973.07
608.2	55157.7
608.557	55211.26
608.914	55072.51
609.272	55274.99
609.629	55261.88
609.986	55323.57
610.343	55197.7
610.7	55370.58
611.057	55379.39
611.414	55376
611.771	55392.5
612.127	55395.44
612.484	55395.21
612.841	55543.68
613.198	55403.35
613.554	55481.08
613.911	55581.19
614.267	55593.17
614.624	55528.31
614.98	55618.26
615.337	55683.79
615.693	55656.67
616.05	55611.48
616.406	55858.47
616.762	55648.99
617.118	55666.39
617.475	55690.57
617.831	55766.27
618.187	55702.77
618.543	55781.64
618.899	55949.32
619.255	55870.23
619.611	55862.99
619.967	55983.22
620.323	55994.52
620.678	55823.22
621.034	55871.13
621.39	55851.02
621.746	55876.78
622.101	56139.37
622.457	55808.31
622.812	55918.81
623.168	56006.27
623.523	55934.63
623.879	56053.5
624.234	55838.59
624.589	56030.9
624.945	56060.05
625.3	56036.55
625.655	56080.39
626.01	55963.33
626.365	56081.29
626.72	56020.05
627.075	56011.24
627.43	55997.91
627.785	55949.55
628.14	56088.3
628.495	56078.81
628.85	55995.65
629.205	55974.18
629.559	56080.84
629.914	55938.92
630.269	56013.5
630.623	55932.82
630.978	55834.97
631.332	56041.52
631.687	56072.48
632.041	55912.94
632.396	55989.32
632.75	55904.58
633.104	55914.74
633.459	55851.7
633.813	55769.21
634.167	55866.38
634.521	55846.27
634.875	55822.09
635.229	55790.68
635.583	55682.89
635.937	55795.65
636.291	55640.4
636.645	55687.86
636.999	55581.87
637.352	55754.07
637.706	55509.11
638.06	55681.53
638.413	55563.79
638.767	55599.27
639.121	55627.75
639.474	55437.02
639.828	55500.97
640.181	55524.92
640.534	55493.29
640.888	55481.76
641.241	55310.69
641.594	55461.2
641.947	55498.48
642.301	55329.9
642.654	55385.94
643.007	55439.95
643.36	55333.29
643.713	55371.71
644.066	55411.03
644.419	55236.34
644.771	55041.55
645.124	54804.04
645.477	54766.07
645.83	54624.61
646.182	54515.91
646.535	54416.7
646.888	54461.22
647.24	54335.35
647.593	54558.62
647.945	54411.73
648.298	54288.8
648.65	54314.56
649.002	54204.51
649.355	54302.13
649.707	54226.65
650.059	54346.65
650.411	54745.28
650.763	54842.46
651.115	55027.76
651.467	54947.76
651.819	54951.15
652.171	54880.42
652.523	54848.33
652.875	54838.16
653.227	54716.81
653.578	54963.13
653.93	54846.07
654.282	54810.59
654.633	54686.08
654.985	54713.65
655.337	54795.23
655.688	54737.6
656.039	54839.52
656.391	54575.57
656.742	54673.87
657.094	54575.8
657.445	54698.73
657.796	54620.09
658.147	54577.6
658.498	54597.49
658.849	54682.69
659.2	54628
659.551	54469.58
659.902	54638.85
660.253	54601.78
660.604	54597.72
660.955	54419.64
661.306	54521.33
661.656	54495.35
662.007	54543.71
662.358	54539.41
662.708	54521.33
663.059	54436.82
663.409	54307.1
663.76	54489.47
664.11	54494.67
664.461	54493.31
664.811	54448.34
665.161	54449.25
665.511	54301.68
665.862	54400.66
666.212	54378.51
666.562	54386.42
666.912	54366.99
667.262	54308.91
667.612	54227.11
667.962	54360.89
668.312	54310.94
668.662	54358.63
669.011	54299.87
669.361	54277.5
669.711	54200.21
670.06	54160.67
670.41	54129.71
670.76	54127.9
671.109	54204.96
671.459	54140.1
671.808	54076.6
672.157	54151.63
672.507	53889.94
672.856	53924.51
673.205	53918.86
673.554	54032.99
673.904	53969.71
674.253	54038.86
674.602	53922.71
674.951	53487.24
675.3	53362.72
675.649	53835.48
675.998	53785.76
676.346	53862.82
676.695	53869.6
677.044	53673.45
677.393	53788.92
677.741	53786.89
678.09	53690.17
678.438	53564.07
678.787	53567.69
679.135	53639.55
679.484	53521.81
679.832	53493.57
680.181	53307.58
680.529	53448.59
680.877	53341.7
681.225	53250.63
681.573	53434.36
681.922	53194.14
682.27	53101.71
682.618	53088.83
682.966	53023.07
683.314	53083.18
683.661	52986.69
684.009	52917.08
684.357	52754.83
684.705	52766.58
685.053	52655.85
685.4	52599.13
685.748	52529.07
686.095	52460.6
686.443	52313.03
686.79	52314.39
687.138	52422.18
687.485	52373.14
687.832	52132.92
688.18	52159.36
688.527	52219.47
688.874	52009.76
689.221	51893.83
689.568	51846.38
689.915	51723.89
690.262	51776.77
690.609	51592.37
690.956	51554.18
691.303	51494.97
691.65	51361.87
691.997	51407.07
692.344	51037.13
692.69	51196.68
693.037	51079.39
693.383	50858.38
693.73	50863.13
694.077	50811.15
694.423	50632.17
694.769	50670.59
695.116	50431.95
695.462	50532.97
695.808	50377.94
696.155	50441.89
696.501	50155.12
696.847	50231.05
697.193	49902.93
697.539	49918.74
697.885	49711.52
698.231	49619.32
698.577	49649.82
698.923	49539.09
699.269	49410.96
699.614	49353.79
699.96	49093.23
700.306	49149.05
700.651	49044.87
700.997	49003.06
701.342	48803.52
701.688	48737.31
702.033	48713.35
702.379	48696.86
702.724	48439.23
703.069	48594.94
703.415	48137.55
703.76	48072.69
704.105	48154.5
704.45	47960.6
704.795	47824.79
705.14	47713.83
705.485	47720.38
705.83	47503.89
706.175	47512.25
706.52	47402.65
706.865	47317.46
707.209	47201.3
707.554	47150.91
707.899	47216.44
708.243	46927.64
708.588	47055.54
708.932	46688.55
709.277	46758.15
709.621	46758.38
709.966	46237.71
710.31	46563.8
710.654	46133.76
710.998	46318.84
711.342	46220.08
711.687	46162.46
712.031	45980.32
712.375	45811.28
712.719	45930.83
713.063	45924.27
713.407	45901.45
713.75	45668.69
714.094	45579.65
714.438	45439.31
714.782	45447.68
715.125	45277.74
715.469	45420.78
715.812	45040.23
716.156	44790.52
716.499	45092.88
716.843	45014.24
717.186	44604.08
717.53	44986.9
717.873	44849.72
718.216	44682.05
718.559	44533.12
718.902	44335.61
719.246	44471.66
719.589	44217.42
719.932	44096.07
720.275	44218.1
720.617	44125.68
720.96	44105.11
721.303	44075.06
721.646	44096.52
721.989	43749.41
722.331	43782.18
722.674	43730.66
723.016	43737.89
723.359	43626.93
723.701	43678.68
724.044	43388.75
724.386	43168.19
724.729	43374.74
725.071	43254.51
725.413	43243.89
725.755	43133.84
726.097	43013.84
726.439	42839.16
726.782	42881.19
727.124	43005.48
727.465	42757.12
727.807	42771.59
728.149	42696.11
728.491	42561.42
728.833	42737.01
729.175	42520.07
729.516	42356.23
729.858	42318.72
730.199	42480.75
730.541	42098.38
730.882	42176.12
731.224	42303.8
731.565	42024.26
731.906	41986.07
732.248	41909.46
732.589	41767.32
732.93	41739.07
733.271	41718.06
733.612	41679.41
733.953	41736.81
734.294	41571.62
734.635	41482.36
734.976	41540.66
735.317	41358.97
735.658	41381.57
735.999	41277.84
736.339	41243.72
736.68	41369.36
737.021	41128.24
737.361	41063.38
737.702	41317.16
738.042	41057.51
738.383	40827.46
738.723	40939.09
739.063	40798.31
739.404	41010.96
739.744	40693.22
740.084	40582.04
740.424	40694.58
740.764	40490.29
741.104	40672.89
741.444	40499.56
741.784	40300.69
742.124	40426.79
742.464	40505.43
742.804	40182.95
743.143	40218.43
743.483	40027.93
743.823	39956.75
744.162	40047.59
744.502	40125.78
744.841	39815.73
745.181	40014.37
745.52	39734.15
745.86	39842.4
746.199	39859.35
746.538	39693.48
746.877	39657.09
747.216	39654.83
747.556	39533.48
747.895	39452.35
748.234	39281.51
748.573	39352.47
748.911	39285.8
749.25	39289.42
749.589	38966.26
749.928	39075.87
750.267	39090.1
750.605	39081.29
750.944	38973.5
751.283	38639.04
751.621	38697.57
751.96	38552.72
752.298	38547.97
752.636	38620.51
752.975	38399.95
753.313	38314.3
753.651	38559.72
753.989	38348.2
754.327	38066.17
754.666	37885.16
755.004	37938.27
755.342	38155.21
755.679	37930.13
756.017	37751.38
756.355	37800.64
756.693	37575.11
757.031	37759.97
757.368	37306.19
757.706	37363.82
758.044	37184.62
758.381	37299.87
758.719	37198.4
759.056	37086.76
759.394	36955.24
759.731	36794.12
760.068	36710.5
760.405	36599.09
760.743	36565.2
761.08	36626.44
761.417	36297.86
761.754	36331.53
762.091	36068.26
762.428	36138.09
762.765	35988.49
763.102	35995.04
763.438	35743.75
763.775	35548.5
764.112	35605
764.449	35617.43
764.785	35280.71
765.122	35186.93
765.458	35280.71
765.795	35018.12
766.131	34995.07
766.467	34986.26
766.804	34812.25
767.14	34588.07
767.476	34559.6
767.812	34385.37
768.148	34405.93
768.485	34171.14
768.821	34106.28
769.157	34082.55
769.492	33925.27
769.828	33893.85
770.164	33594.88
770.5	33455.67
770.836	33503.36
771.171	33347.43
771.507	33160.54
771.842	33039.19
772.178	33084.84
772.513	32972.52
772.849	32831.06
773.184	32698.63
773.519	32601.23
773.855	32480.11
774.19	32351.75
774.525	32265.87
774.86	32368.24
775.195	32207.57
775.53	31947.92
775.865	31793.12
776.2	31557.64
776.535	31329.4
776.87	31545.22
777.205	31427.25
777.539	31158.79
777.874	31175.06
778.209	30870.88
778.543	30773.48
778.878	30693.71
779.212	30822.07
779.547	30536.43
779.881	30550.89
780.215	30372.59
780.55	30419.14
780.884	30412.36
781.218	30122.2
781.552	30146.61
781.886	29897.8
782.22	29763.79
782.554	29663.68
782.888	29437.93
783.222	29293.3
783.556	29230.25
783.889	29121.55
784.223	28973.31
784.557	28915.91
784.89	28944.83
785.224	28887.66
785.557	28498.06
785.891	28587.33
786.224	28521.57
786.558	28442.92
786.891	28140.33
787.224	28109.37
787.557	28018.3
787.891	28016.49
788.224	27952.32
788.557	28012.2
788.89	27769.5
789.223	27821.25
789.556	27493.8
789.888	27461.03
790.221	27393.69
790.554	27112.79
790.887	27248.38
791.219	27139
791.552	27088.84
791.884	26850.42
792.217	26702.86
792.549	26636.19
792.882	26532.69
793.214	26500.83
793.546	26448.4
793.879	26387.39
794.211	26208.86
794.543	26250.89
794.875	26083.89
795.207	26086.38
795.539	25963.67
795.871	25890.45
796.203	25688.42
796.535	25572.94
796.867	25666.5
797.198	25535.2
797.53	25438.71
797.862	25281.88
798.193	25316.45
798.525	25100.87
798.856	25228.55
799.188	24902
799.519	24745.39
799.85	24698.16
800.182	24799.63
800.513	24760.31
800.844	24527.32
801.175	24617.26
801.506	24546.53
801.837	24409.58
802.168	24321.68
802.499	24353.99
802.83	24200.55
803.161	24118.97
803.491	24201.91
803.822	24115.58
804.153	23946.55
804.483	23780.45
804.814	23681.47
805.145	23622.26
805.475	23609.61
805.805	23505.88
806.136	23470.4
806.466	23443.73
806.796	23457.07
807.126	23297.07
807.457	23201.25
807.787	23238.09
808.117	23082.61
808.447	23011.88
808.777	23026.12
809.107	22856.4
809.436	22839
809.766	22802.39
810.096	22637.65
810.426	22521.05
810.755	22654.38
811.085	22533.02
811.414	22494.83
811.744	22311.33
812.073	22339.36
812.403	22304.55
812.732	22175.07
813.061	22139.59
813.39	22072.47
813.719	21964
814.049	22113.15
814.378	22004
814.707	21840.39
815.036	21867.5
815.365	21796.09
815.693	21507.51
816.022	21609.66
816.351	21562.88
816.68	21499.15
817.008	21491.24
817.337	21258.03
817.665	21287.63
817.994	21407.4
818.322	21248.31
818.651	21098.03
818.979	21072.72
819.307	21232.94
819.636	20988.21
819.964	20916.57
820.292	21074.08
820.62	21045.38
820.948	20808.32
821.276	20988.43
821.604	20843.8
821.932	20909.79
822.259	20919.28
822.587	20810.58
822.915	20775.56
823.243	21008.32
823.57	20821.88
823.898	20921.09
824.225	20788.89
824.553	20728.55
824.88	20851.26
825.207	20959.96
825.535	20819.4
825.862	20903.91
826.189	20733.97
826.516	20914.08
826.843	20888.32
827.17	20787.31
827.497	20882.67
827.824	20794.09
828.151	20898.04
828.478	20874.99
828.805	20870.69
829.131	20728.55
829.458	20686.29
829.785	20648.1
830.111	20731.04
830.438	20762.22
830.764	20863.46
831.09	20693.98
831.417	20649.01
831.743	20759.74
832.069	20647.2
832.395	20639.97
832.722	20744.14
833.048	20580.31
833.374	20707.08
833.7	20433.87
834.026	20496.24
834.351	20587.31
834.677	20506.18
835.003	20515.22
835.329	20555.67
835.654	20412.4
835.98	20345.28
836.306	20385.74
836.631	20274.33
836.956	20303.25
837.282	20400.88
837.607	20281.78
837.932	20227.77
838.258	20197.72
838.583	20144.16
838.908	20006.76
839.233	19999.98
839.558	20046.76
839.883	19875.69
840.208	19967.22
840.533	19879.31
840.858	19869.36
841.182	19958.18
841.507	19838.86
841.832	19766.09
842.156	19675.25
842.481	19755.24
842.805	19658.3
843.13	19581.24
843.454	19548.24
843.778	19469.83
844.103	19496.72
844.427	19370.85
844.751	19320.68
845.075	19360.68
845.399	19328.36
845.723	19209.49
846.047	19223.28
846.371	19037.3
846.695	19110.97
847.019	18822.84
847.343	18744.42
847.666	18804.53
847.99	18645.22
848.313	18604.54
848.637	18521.15
848.96	18470.08
849.284	18436.41
849.607	18238.9
849.931	18326.35
850.254	18110.54
850.577	17990.77
850.9	17894.05
851.223	17869.64
851.546	17826.93
851.869	17699.7
852.192	17857.44
852.515	17584
852.838	17558.24
853.161	17586.71
853.483	17464.23
853.806	17301.52
854.129	17291.58
854.451	17294.29
854.774	17163.22
855.096	17122.54
855.419	17071.25
855.741	17095.43
856.063	16949.67
856.385	16893.85
856.708	16794.19
857.03	16738.83
857.352	16799.84
857.674	16709.45
857.996	16688.43
858.318	16595.55
858.64	16545.61
858.961	16546.74
859.283	16528.66
859.605	16372.06
859.926	16508.77
860.248	16402.56
860.57	16309.91
860.891	16308.55
861.212	16147.2
861.534	16195.56
861.855	16147.2
862.176	16195.11
862.498	16168.22
862.819	16109.24
863.14	16120.76
863.461	16055.23
863.782	15944.5
864.103	15904.72
864.424	15867.89
864.745	15949.47
865.065	15812.52
865.386	15724.61
865.707	15791.73
866.027	15783.6
866.348	15714.22
866.668	15721.9
866.989	15548.35
867.309	15571.4
867.63	15538.63
867.95	15640.55
868.27	15488.24
868.59	15520.78
868.91	15574.11
869.23	15485.07
869.55	15441.91
869.87	15532.08
870.19	15418.41
870.51	15424.51
870.83	15469.03
871.15	15210.73
871.469	15266.55
871.789	15238.3
872.109	15207.11
872.428	15087.34
872.748	15240.56
873.067	15135.25
873.386	15197.62
873.706	15126.44
874.025	15125.99
874.344	14986.56
874.663	15064.97
874.982	15011.41
875.301	15054.8
875.62	14942.49
875.939	14939.1
876.258	14973
876.577	14837.18
876.896	14876.28
877.214	14698.43
877.533	14888.25
877.852	14787.01
878.17	14764.87
878.489	14813.68
878.807	14751.31
879.125	14708.14
879.444	14652.78
879.762	14677.41
880.08	14535.49
880.398	14513.8
880.716	14531.2
881.034	14502.27
881.352	14490.3
881.67	14392.67
881.988	14461.15
882.306	14421.6
882.624	14351.54
882.941	14272
883.259	14221.83
883.577	14215.95
883.894	14191.55
884.212	14099.57
884.529	14065.9
884.846	14057.54
885.164	14091.66
885.481	14016.19
885.798	14097.99
886.115	13913.81
886.432	13988.16
886.75	13857.32
887.067	14026.13
887.383	13781.84
887.7	13782.29
888.017	13724.44
888.334	13730.99
888.651	13704.55
888.967	13624.33
889.284	13667.72
889.6	13567.38
889.917	13460.95
890.233	13552.92
890.55	13406.94
890.866	13439.03
891.182	13408.07
891.498	13325.13
891.815	13270.67
892.131	13207.39
892.447	13228.41
892.763	13258.92
893.079	13112.03
893.395	13100.05
893.71	13103.44
894.026	13082.65
894.342	12990.9
894.657	12875.42
894.973	12994.97
895.289	12928.08
895.604	12856.89
895.92	12791.58
896.235	12785.93
896.55	12683.56
896.865	12674.53
897.181	12631.36
897.496	12628.2
897.811	12517.69
898.126	12504.13
898.441	12492.16
898.756	12411.03
899.071	12364.7
899.386	12355.21
899.7	12197.93
900.015	12231.37
900.33	12160.41
900.644	12126.97
900.959	12144.14
901.273	12039.51
901.588	11972.62
901.902	11875.68
902.216	11878.39
902.531	11830.03
902.845	11842.68
903.159	11768.79
903.473	11672.97
903.787	11589.58
904.101	11632.97
904.415	11606.53
904.729	11591.84
905.042	11493.09
905.356	11464.84
905.67	11345.97
905.984	11437.95
906.297	11248.8
906.611	11272.53
906.924	11248.8
907.237	11211.74
907.551	11186.88
907.864	11174.23
908.177	11061.91
908.491	11113.89
908.804	10976.27
909.117	10914.57
909.43	10867.12
909.743	10784.63
910.056	10804.74
910.368	10722.03
910.681	10715.48
910.994	10635.71
911.307	10644.07
911.619	10490.85
911.932	10514.58
912.244	10423.29
912.557	10435.71
912.869	10345.32
913.181	10287.02
913.494	10294.02
913.806	10215.83
914.118	10229.62
914.43	10153.46
914.742	10122.5
915.054	10089.28
915.366	10001.15
915.678	9965.67
915.99	9917.31
916.302	9901.94
916.613	9840.93
916.925	9820.59
917.236	9765
917.548	9732.46
917.859	9641.16
918.171	9715.06
918.482	9560.71
918.794	9599.58
919.105	9516.64
919.416	9396.65
919.727	9501.28
920.038	9433.93
920.349	9353.48
920.66	9363.88
920.971	9318.91
921.282	9301.28
921.593	9172.7
921.903	9199.36
922.214	9172.92
922.525	9136.77
922.835	9073.26
923.146	9010.89
923.456	8957.79
923.767	8918.01
924.077	8923.89
924.387	8882.76
924.697	8901.29
925.008	8783.1
925.318	8759.37
925.628	8791.92
925.938	8636.89
926.248	8583.56
926.558	8566.61
926.867	8541.98
927.177	8512.38
927.487	8475.54
927.796	8378.59
928.106	8343.34
928.416	8431.25
928.725	8357.35
929.034	8266.73
929.344	8195.55
929.653	8222.89
929.962	8241.65
930.271	8168.66
930.581	8127.3
930.89	8077.13
931.199	8023.57
931.508	7965.27
931.817	8058.6
932.125	7933.63
932.434	7938.6
932.743	7852.51
933.051	7826.07
933.36	7798.72
933.669	7764.6
933.977	7756.69
934.286	7690.25
934.594	7681.21
934.902	7585.62
935.21	7623.13
935.519	7588.78
935.827	7545.17
936.135	7476.92
936.443	7385.63
936.751	7460.2
937.059	7359.41
937.367	7357.6
937.674	7340.2
937.982	7238.96
938.29	7305.18
938.597	7285.06
938.905	7175.24
939.213	7165.29
939.52	7130.49
939.827	7126.42
940.135	7070.15
940.442	7017.27
940.749	7029.93
941.056	6995.8
941.363	6900.21
941.67	6913.77
941.977	6866.77
942.284	6785.87
942.591	6775.92
942.898	6775.02
943.205	6710.84
943.511	6716.04
943.818	6716.04
944.125	6649.15
944.431	6587.45
944.738	6620.45
945.044	6584.97
945.35	6601.69
945.657	6505.87
945.963	6482.15
946.269	6394.69
946.575	6445.31
946.881	6398.08
947.187	6345.2
947.493	6280.12
947.799	6336.61
948.105	6282.15
948.41	6211.19
948.716	6274.69
949.022	6207.12
949.327	6224.3
949.633	6057.98
949.938	6132.55
950.244	6095.72
950.549	6027.47
950.854	6013.01
951.16	6039.22
951.465	5937.98
951.77	5995.15
952.075	5883.74
952.38	5850.75
952.685	5901.82
952.99	5787.7
953.294	5809.85
953.599	5742.05
953.904	5711.54
954.209	5733.24
954.513	5744.76
954.818	5705.22
955.122	5638.33
955.426	5612.79
955.731	5583.86
956.035	5582.06
956.339	5532.57
956.643	5519.69
956.948	5471.55
957.252	5459.35
957.556	5443.53
957.86	5445.56
958.163	5453.25
958.467	5374.83
958.771	5378.67
959.075	5342.51
959.378	5313.82
959.682	5295.74
959.985	5249.64
960.289	5258.22
960.592	5209.41
960.896	5217.09
961.199	5166.25
961.502	5152.24
961.805	5101.62
962.108	5097.55
962.411	5109.53
962.714	5041.73
963.017	5042.18
963.32	5018
963.623	4973.49
963.926	4980.49
964.228	4927.84
964.531	4925.12
964.833	4885.35
965.136	4870.66
965.438	4821.4
965.741	4810.1
966.043	4813.26
966.345	4789.99
966.648	4766.03
966.95	4714.28
967.252	4712.02
967.554	4721.97
967.856	4687.84
968.158	4638.58
968.46	4653.49
968.761	4601.29
969.063	4565.81
969.365	4572.14
969.666	4525.14
969.968	4524.68
970.269	4518.58
970.571	4474.06
970.872	4499.37
971.174	4440.39
971.475	4453.72
971.776	4391.35
972.077	4345.7
972.378	4347.06
972.679	4336.44
972.98	4335.76
973.281	4299.6
973.582	4292.15
973.883	4224.58
974.183	4267.51
974.484	4236.33
974.785	4191.58
975.085	4179.83
975.386	4226.84
975.686	4143.45
975.986	4144.35
976.287	4105.26
976.587	4116.33
976.887	4057.35
977.187	4072.04
977.487	4044.02
977.787	4006.05
978.087	4017.8
978.387	3998.37
978.687	3997.24
978.987	3945.04
979.286	3934.87
979.586	3930.57
979.885	3860.97
980.185	3832.5
980.484	3853.74
980.784	3811.71
981.083	3821.42
981.382	3790.01
981.682	3781.43
981.981	3764.7
982.28	3731.03
982.579	3712.05
982.878	3682.9
983.177	3661.2
983.475	3707.53
983.774	3622.11
984.073	3617.36
984.372	3598.61
984.67	3618.72
984.969	3609.68
985.267	3538.95
985.566	3581.21
985.864	3512.73
986.162	3501.89
986.461	3486.74
986.759	3505.05
987.057	3490.36
987.355	3446.97
987.653	3447.2
987.951	3427.54
988.249	3404.94
988.547	3402.9
988.844	3387.54
989.142	3349.12
989.44	3325.39
989.737	3374.43
990.035	3327.65
990.332	3327.88
990.63	3277.94
990.927	3282
991.224	3250.14
991.521	3222.8
991.819	3234.55
992.116	3253.53
992.413	3236.58
992.71	3166.75
993.006	3140.99
993.303	3166.3
993.6	3138.51
993.897	3099.41
994.193	3098.96
994.49	3053.76
994.787	3076.36
995.083	3068.68
995.379	3016.02
995.676	2992.07
995.972	2997.94
996.268	2981.9
996.565	2945.06
996.861	2960.43
997.157	2959.98
997.453	2941.22
997.749	2935.35
998.044	2877.04
998.34	2881.56
998.636	2890.38
998.932	2835.69
999.227	2825.52
999.523	2824.61
999.818	2771.06
1000.114	2779.19
1000.409	2769.93
1000.704	2789.36
1001	2774.22
1001.295	2710.27
1001.59	2691.74
1001.885	2698.74
1002.18	2705.07
1002.475	2667.56
1002.77	2649.03
1003.065	2601.8
1003.359	2669.59
1003.654	2592.53
1003.949	2582.59
1004.243	2566.77
1004.538	2550.5
1004.832	2558.41
1005.127	2530.16
1005.421	2530.61
1005.715	2498.3
1006.009	2473.66
1006.304	2459.43
1006.598	2453.33
1006.892	2445.87
1007.186	2419.43
1007.48	2411.07
1007.773	2378.53
1008.067	2383.04
1008.361	2339.2
1008.655	2343.5
1008.948	2337.62
1009.242	2327.9
1009.535	2272.99
1009.829	2275.7
1010.122	2279.09
1010.415	2255.82
1010.708	2270.73
1011.001	2246.1
1011.295	2217.4
1011.588	2200
1011.881	2223.05
1012.173	2155.71
1012.466	2190.06
1012.759	2145.54
1013.052	2164.97
1013.344	2156.38
1013.637	2094.92
1013.93	2115.26
1014.222	2098.31
1014.514	2084.07
1014.807	2074.8
1015.099	2061.02
1015.391	2051.08
1015.683	2011.08
1015.976	2018.76
1016.268	1998.42
1016.56	1970.85
1016.851	1957.75
1017.143	1971.3
1017.435	1938.76
1017.727	1914.81
1018.018	1914.13
1018.31	1926.56
1018.602	1938.08
1018.893	1873.68
1019.185	1849.05
1019.476	1880.23
1019.767	1846.79
1020.058	1835.26
1020.35	1787.35
1020.641	1803.4
1020.932	1752.1
1021.223	1780.8
1021.514	1755.04
1021.804	1789.61
1022.095	1769.28
1022.386	1723.4
1022.677	1746.45
1022.967	1721.37
1023.258	1693.35
1023.548	1677.98
1023.839	1672.55
1024.129	1650.86
1024.419	1656.96
1024.709	1648.15
1025	1601.82
1025.29	1624.42
1025.58	1624.87
1025.87	1610.64
1026.16	1589.17
1026.449	1590.98
1026.739	1583.29
1027.029	1572.67
1027.319	1538.77
1027.608	1537.64
1027.898	1531.54
1028.187	1502.62
1028.477	1499.23
1028.766	1503.07
1029.055	1483.41
1029.344	1488.15
1029.634	1451.32
1029.923	1438.66
1030.212	1415.39
1030.501	1397.76
1030.79	1412.9
1031.078	1401.83
1031.367	1375.84
1031.656	1382.84
1031.945	1382.62
1032.233	1334.71
1032.522	1360.7
1032.81	1341.26
1033.099	1343.75
1033.387	1327.03
1033.675	1336.52
1033.963	1284.32
1034.251	1292
1034.54	1306.46
1034.828	1292
1035.116	1286.12
1035.403	1295.39
1035.691	1245.67
1035.979	1265.11
1036.267	1220.14
1036.554	1212
1036.842	1224.43
1037.129	1220.14
1037.417	1217.88
1037.704	1231.21
1037.992	1191.89
1038.279	1198.22
1038.566	1160.48
1038.853	1160.48
1039.14	1160.48
