Data from white_steel_sheet_FLMS001491_013.txt Node
Date: Tue Feb 07 10:57:27 GMT 2017
User: dcchb
Spectrometer: FLMS00149
Trigger mode: 0
Integration Time (sec): 2.000000E-2
Scans to average: 10
Electric dark correction enabled: true
Nonlinearity correction enabled: false
Boxcar width: 0
XAxis mode: Wavelengths
Number of Pixels in Spectrum: 2048
>>>>>Begin Spectral Data<<<<<
341.393	5.31
341.776	5.31
342.16	5.31
342.543	-61.81
342.927	-64.07
343.31	-78.08
343.693	-85.99
344.077	-54.35
344.46	-37.63
344.843	-65.2
345.226	-49.38
345.61	-43.5
345.993	1.02
346.376	-0.79
346.759	7.34
347.142	24.52
347.525	42.6
347.908	52.77
348.291	70.85
348.674	94.57
349.057	121.24
349.44	132.54
349.823	154.46
350.206	163.72
350.588	205.53
350.971	208.92
351.354	225.64
351.737	252.99
352.119	252.31
352.502	276.72
352.884	271.29
353.267	285.08
353.65	295.02
354.032	295.47
354.414	303.38
354.797	294.79
355.179	317.84
355.562	319.88
355.944	337.51
356.326	335.92
356.709	342.25
357.091	342.02
357.473	351.29
357.855	336.83
358.238	368.01
358.62	344.28
359.002	329.6
359.384	353.55
359.766	335.25
360.148	325.3
360.53	344.74
360.912	342.93
361.294	351.74
361.676	351.29
362.057	335.47
362.439	324.17
362.821	339.54
363.203	349.48
363.584	358.52
363.966	329.6
364.348	336.38
364.729	321.69
365.111	330.05
365.493	349.71
365.874	328.92
366.256	323.49
366.637	327.34
367.019	314.23
367.4	319.43
367.781	307.22
368.163	332.08
368.544	344.06
368.925	337.28
369.306	321.23
369.688	318.3
370.069	335.02
370.45	335.47
370.831	341.12
371.212	319.88
371.593	329.37
371.974	338.41
372.355	329.82
372.736	318.97
373.117	329.6
373.498	306.77
373.879	339.99
374.26	341.12
374.641	328.24
375.021	337.73
375.402	339.09
375.783	331.18
376.163	327.34
376.544	362.59
376.925	337.28
377.305	331.4
377.686	328.47
378.066	325.75
378.447	342.02
378.827	339.09
379.208	346.77
379.588	348.13
379.968	351.74
380.349	343.38
380.729	359.2
381.109	361.91
381.489	375.24
381.87	364.17
382.25	358.07
382.63	354.45
383.01	355.36
383.39	363.72
383.77	384.28
384.15	347.22
384.53	365.53
384.91	366.43
385.29	388.8
385.67	375.02
386.049	369.37
386.429	394.68
386.809	382.93
387.189	384.74
387.568	401.91
387.948	387.9
388.328	398.52
388.707	377.5
389.087	394.68
389.466	401.46
389.846	410.5
390.225	419.31
390.605	407.33
390.984	409.82
391.363	429.93
391.743	430.38
392.122	436.94
392.501	435.13
392.881	442.36
393.26	439.88
393.639	445.07
394.018	470.38
394.397	445.75
394.776	452.76
395.155	456.15
395.534	492.08
395.913	479.87
396.292	488.01
396.671	466.54
397.05	467.67
397.429	485.75
397.808	499.53
398.186	506.09
398.565	509.48
398.944	512.87
399.323	507.22
399.701	545.64
400.08	544.05
400.458	556.26
400.837	551.51
401.215	573.66
401.594	569.59
401.972	549.03
402.351	539.08
402.729	596.93
403.107	585.18
403.486	593.54
403.864	612.53
404.242	605.07
404.62	608.01
404.999	607.1
405.377	630.38
405.755	643.94
406.133	671.96
406.511	641.23
406.889	663.15
407.267	681.68
407.645	688.91
408.023	695.46
408.401	696.82
408.779	687.55
409.156	712.18
409.534	731.85
409.912	748.57
410.29	782.01
410.667	763.93
411.045	774.78
411.422	813.42
411.8	804.16
412.178	837.15
412.555	838.74
412.933	831.5
413.31	854.1
413.687	876.7
414.065	877.83
414.442	872.41
414.819	911.05
415.197	914.44
415.574	912.18
415.951	932.52
416.328	945.17
416.705	942.46
417.082	957.15
417.46	957.15
417.837	974.55
418.214	999.63
418.591	979.52
418.967	1000.09
419.344	1005.06
419.721	1029.69
420.098	1038.05
420.475	1035.34
420.852	1055.23
421.228	1106.98
421.605	1073.53
421.982	1089.12
422.358	1096.13
422.735	1107.88
423.111	1119.41
423.488	1140.2
423.864	1144.26
424.241	1172.06
424.617	1175.9
424.994	1166.86
425.37	1185.62
425.746	1199.63
426.123	1203.92
426.499	1225.17
426.875	1241.21
427.251	1270.59
427.627	1279.4
428.003	1303.36
428.379	1291.15
428.756	1311.04
429.132	1332.06
429.507	1354.2
429.883	1375.9
430.259	1370.25
430.635	1400.08
431.011	1388.33
431.387	1440.75
431.763	1469
432.138	1473.07
432.514	1493.41
432.89	1534.31
433.265	1539.28
433.641	1581.31
434.016	1561.2
434.392	1598.04
434.767	1636.23
435.143	1604.82
435.518	1666.96
435.894	1660.86
436.269	1672.84
436.644	1670.58
437.02	1717.81
437.395	1726.62
437.77	1733.4
438.145	1783.12
438.52	1797.58
438.895	1835.09
439.271	1817.92
439.646	1869.22
440.021	1889.78
440.395	1888.42
440.77	1865.37
441.145	1905.15
441.52	1978.82
441.895	1959.38
442.27	1969.78
442.645	1960.97
443.019	1995.54
443.394	1992.83
443.769	2017.24
444.143	2039.83
444.518	2082.32
444.892	2048.65
445.267	2078.93
445.641	2054.97
446.016	2102.88
446.39	2157.8
446.764	2158.02
447.139	2133.16
447.513	2170.68
447.887	2179.49
448.262	2169.77
448.636	2220.39
449.01	2237.79
449.384	2280.51
449.758	2271.92
450.132	2304.91
450.506	2317.57
450.88	2334.97
451.254	2369.09
451.628	2373.61
452.002	2400.95
452.376	2441.4
452.75	2473.49
453.123	2491.35
453.497	2492.7
453.871	2508.52
454.244	2578.8
454.618	2560.05
454.992	2604.11
455.365	2618.58
455.739	2733.15
456.112	2708.74
456.486	2745.13
456.859	2760.04
457.232	2817.44
457.606	2785.35
457.979	2856.76
458.352	2896.31
458.725	2948.06
459.099	2952.35
459.472	2991.9
459.845	3027.15
460.218	3056.98
460.591	3062.86
460.964	3148.73
461.337	3187.6
461.71	3209.07
462.083	3242.97
462.456	3303.98
462.829	3292.46
463.201	3316.18
463.574	3380.59
463.947	3427.14
464.32	3522.28
464.692	3504.88
465.065	3577.87
465.438	3609.96
465.81	3658.1
466.183	3676.63
466.555	3724.76
466.928	3731.77
467.3	3761.37
467.672	3842.27
468.045	3929.28
468.417	3954.36
468.789	3954.13
469.161	4059.44
469.534	4079.33
469.906	4154.58
470.278	4196.16
470.65	4254.01
471.022	4340.79
471.394	4388.92
471.766	4416.27
472.138	4495.59
472.51	4576.04
472.882	4638.86
473.253	4647.67
473.625	4752.3
473.997	4869.82
474.369	4847.44
474.74	4949.81
475.112	5005.86
475.484	5115.01
475.855	5245.4
476.227	5206.53
476.598	5391.84
476.97	5438.16
477.341	5574.88
477.713	5618.95
478.084	5693.07
478.455	5822.33
478.827	5896.46
479.198	6028.66
479.569	6045.15
479.94	6190.46
480.311	6256.22
480.682	6419.15
481.053	6556.78
481.424	6688.3
481.795	6691.69
482.166	6820.95
482.537	6926.26
482.908	7081.73
483.279	7144.11
483.65	7241.73
484.021	7448.73
484.391	7470.43
484.762	7588.61
485.133	7630.19
485.503	7725.79
485.874	7891.43
486.244	8011.43
486.615	8220.46
486.985	8233.79
487.356	8425.2
487.726	8443.05
488.097	8638.08
488.467	8648.47
488.837	8891.18
489.207	8952.19
489.578	9136.37
489.948	9162.58
490.318	9306.99
490.688	9336.82
491.058	9505.63
491.428	9608.67
491.798	9671.95
492.168	9869.46
492.538	9903.81
492.908	10055.44
493.278	10218.15
493.648	10224.25
494.017	10313.29
494.387	10459.95
494.757	10518.25
495.126	10629.89
495.496	10661.53
495.866	10787.17
496.235	10879.83
496.605	10905.36
496.974	11080.95
497.344	11268.29
497.713	11336.31
498.082	11358.01
498.452	11468.06
498.821	11535.18
499.19	11595.97
499.559	11718.22
499.928	11816.75
500.298	11879.35
500.667	12003.64
501.036	12007.48
501.405	12205.44
501.774	12124.77
502.143	12310.75
502.512	12371.99
502.88	12421.48
503.249	12524.08
503.618	12630.06
503.987	12720.91
504.356	12800
504.724	12947.57
505.093	12996.61
505.462	13015.36
505.83	13141.46
506.199	13229.37
506.567	13367.22
506.936	13324.28
507.304	13616.48
507.672	13681.11
508.041	13642.92
508.409	13843.14
508.777	13936.02
509.145	14056.01
509.514	14016.47
509.882	14181.21
510.25	14198.84
510.618	14385.27
510.986	14437.7
511.354	14506.17
511.722	14665.26
512.09	14868.87
512.458	14845.37
512.826	14926.27
513.193	15077.46
513.561	15045.59
513.929	15402.42
514.297	15393.38
514.664	15522.87
515.032	15710.89
515.4	15822.97
515.767	15846.02
516.135	15923.99
516.502	15925.12
516.869	16244.43
517.237	16286.01
517.604	16246.47
517.972	16468.83
518.339	16581.15
518.706	16620.92
519.073	16778.43
519.44	16943.62
519.808	17148.14
520.175	17058.42
520.542	17341.58
520.909	17406.21
521.276	17455.02
521.643	17692.98
522.009	17839.19
522.376	17976.82
522.743	18168.45
523.11	18209.8
523.477	18406.86
523.843	18591.49
524.21	18706.97
524.577	18924.59
524.943	18918.49
525.31	19176.33
525.676	19314.63
526.043	19489.32
526.409	19501.75
526.776	19778.58
527.142	19824.45
527.508	19960.49
527.874	20134.27
528.241	20212.46
528.607	20258.11
528.973	20573.81
529.339	20523.42
529.705	20814.48
530.071	20902.39
530.437	21002.05
530.803	21144.19
531.169	21287.46
531.535	21253.79
531.901	21386.9
532.267	21570.39
532.632	21672.76
532.998	21721.12
533.364	21901.91
533.73	21967.22
534.095	22095.13
534.461	22166.08
534.826	22243.6
535.192	22430.26
535.557	22629.8
535.923	22554.77
536.288	22787.76
536.653	22784.6
537.019	22742.11
537.384	23013.07
537.749	22967.87
538.114	23155.89
538.479	23201.08
538.845	23325.6
539.21	23302.33
539.575	23569.89
539.94	23489.44
540.305	23657.12
540.67	23767.85
541.034	23830.45
541.399	23815.98
541.764	23866.6
542.129	24014.4
542.494	24088.52
542.858	24211.45
543.223	24208.29
543.587	24474.72
543.952	24432.01
544.316	24492.35
544.681	24562.18
545.045	24696.86
545.41	24803.98
545.774	24854.15
546.138	24859.12
546.503	24943.86
546.867	24994.26
547.231	25275.15
547.595	25245.78
547.959	25242.84
548.324	25360.12
548.688	25555.37
549.052	25635.6
549.416	25733.22
549.779	25726.89
550.143	25842.37
550.507	25998.75
550.871	26124.85
551.235	26109.48
551.599	26277.39
551.962	26237.39
552.326	26391.74
552.689	26553.99
553.053	26492.75
553.417	26538.17
553.78	26990.36
554.143	26846.64
554.507	26950.36
554.87	27105.16
555.234	27301.99
555.597	27215.44
555.96	27292.73
556.323	27470.35
556.686	27521.88
557.05	27741.98
557.413	27745.82
557.776	27785.6
558.139	28067.17
558.502	28131.35
558.865	28226.72
559.228	28445.24
559.59	28389.87
559.953	28434.39
560.316	28753.71
560.679	28741.73
561.041	28932.46
561.404	29142.62
561.767	29295.61
562.129	29220.36
562.492	29482.95
562.854	29553.46
563.217	29610.63
563.579	29665.32
563.941	29899.21
564.304	29971.3
564.666	30181.24
565.028	30081.36
565.39	30344.63
565.753	30415.58
566.115	30546.2
566.477	30896.7
566.839	30875.01
567.201	31108.9
567.563	31107.32
567.925	31275.67
568.287	31216.92
568.648	31360.64
569.01	31505.95
569.372	31739.84
569.734	31684.25
570.095	31902.33
570.457	32053.28
570.819	32012.38
571.18	32117.23
571.542	32322.43
571.903	32282.88
572.265	32496.66
572.626	32597.67
572.987	32626.83
573.349	32653.49
573.71	32858.46
574.071	32853.49
574.432	32882.41
574.794	33184.33
575.155	33028.62
575.516	32981.17
575.877	33247.15
576.238	33293.93
576.599	33427.48
576.96	33389.97
577.32	33408.73
577.681	33543.41
578.042	33708.83
578.403	33644.88
578.763	33660.47
579.124	33755.61
579.485	33881.26
579.845	33964.87
580.206	33829.28
580.566	33811.88
580.927	33827.7
581.287	34138.65
581.648	33922.61
582.008	34161.47
582.368	33992.44
582.728	34103.85
583.089	34192.66
583.449	34117.18
583.809	34019.78
584.169	34069.95
584.529	34130.74
584.889	34305.88
585.249	34116.96
585.609	34060.69
585.969	34274.47
586.329	34056.62
586.688	34156.73
587.048	34047.13
587.408	34144.53
587.768	34183.17
588.127	34080.8
588.487	34233.79
588.846	34298.42
589.206	34098.65
589.565	34200.57
589.925	34258.65
590.284	34126.22
590.643	34215.03
591.003	34195.15
591.362	34333.45
591.721	34135.49
592.08	34315.59
592.44	34310.4
592.799	34323.96
593.158	34069.5
593.517	34163.51
593.876	34372.54
594.235	34289.83
594.593	34216.16
594.952	34187.91
595.311	34202.15
595.67	34158.76
596.029	34436.72
596.387	34349.04
596.746	34454.12
597.104	34391.98
597.463	34392.88
597.822	34305.43
598.18	34304.52
598.538	34268.36
598.897	34365.76
599.255	34096.39
599.613	34627.68
599.972	34488.25
600.33	34394.46
600.688	34264.75
601.046	34542.03
601.404	34579.77
601.762	34458.87
602.12	34526.21
602.478	34628.36
602.836	34633.78
603.194	34471.3
603.552	34575.25
603.91	34350.4
604.268	34627.68
604.625	34493.22
604.983	34619.54
605.341	34442.82
605.698	34668.81
606.056	34659.99
606.413	34771.18
606.771	34817.73
607.128	34810.5
607.485	34649.37
607.843	34737.96
608.2	34866.09
608.557	34941.79
608.914	34916.03
609.272	34930.49
609.629	34957.39
609.986	35274.89
610.343	34830.84
610.7	35170.49
611.057	35196.48
611.414	35040.1
611.771	35202.58
612.127	35247.32
612.484	35282.8
612.841	35412.06
613.198	35226.08
613.554	35417.49
613.911	35569.35
614.267	35459.97
614.624	35573.41
614.98	35479.63
615.337	35731.15
615.693	35600.08
616.05	35586.75
616.406	35894.54
616.762	35779.29
617.118	35559.4
617.475	35663.36
617.831	35866.97
618.187	35787.19
618.543	35914.65
618.899	36112.61
619.255	35964.14
619.611	35999.39
619.967	36111.25
620.323	36165.72
620.678	35984.7
621.034	35976.79
621.39	35881.43
621.746	35913.52
622.101	36429.44
622.457	36226.73
622.812	36200.29
623.168	36276
623.523	36130.01
623.879	36386.73
624.234	36033.97
624.589	36185.83
624.945	36252.27
625.3	36195.32
625.655	36299.05
626.01	36238.93
626.365	36244.81
626.72	36234.64
627.075	36167.75
627.43	36123
627.785	36082.55
628.14	36153.06
628.495	36216.11
628.85	36098.15
629.205	36031.48
629.559	36228.31
629.914	36043.01
630.269	36046.4
630.623	35970.69
630.978	35884.37
631.332	36060.86
631.687	36071.93
632.041	35951.71
632.396	35937.7
632.75	35714.88
633.104	35796.01
633.459	35675.56
633.813	35744.26
634.167	35675.11
634.521	35596.01
634.875	35629.01
635.229	35570.25
635.583	35368.22
635.937	35408.9
636.291	35387.43
636.645	35316.25
636.999	35306.98
637.352	35322.8
637.706	35064.73
638.06	35183.59
638.413	35225.63
638.767	35111.73
639.121	35094.56
639.474	34817.95
639.828	34878.52
640.181	35036.03
640.534	34997.84
640.888	34729.14
641.241	34696.83
641.594	34647.56
641.947	34827.67
642.301	34678.3
642.654	34681.01
643.007	34598.75
643.36	34615.93
643.713	34483.05
644.066	34585.87
644.419	34311.3
644.771	34173.23
645.124	33819.11
645.477	33747.47
645.83	33504.99
646.182	33271.33
646.535	33332.8
646.888	33267.26
647.24	33156.98
647.593	33365.34
647.945	33272.01
648.298	33220.26
648.65	33090.32
649.002	32980.94
649.355	33130.32
649.707	32958.12
650.059	33163.76
650.411	33510.42
650.763	33533.24
651.115	33848.49
651.467	33805.55
651.819	33804.87
652.171	33771.2
652.523	33681.49
652.875	33611.43
653.227	33450.53
653.578	33736.63
653.93	33470.65
654.282	33454.6
654.633	33414.15
654.985	33518.55
655.337	33464.77
655.688	33455.5
656.039	33564.65
656.391	33129.64
656.742	33253.25
657.094	33133.48
657.445	33455.05
657.796	33194.72
658.147	33289.41
658.498	33064.55
658.849	33288.05
659.2	33170.09
659.551	33047.61
659.902	33117.21
660.253	32983.65
660.604	33086.02
660.955	32809.65
661.306	32919.25
661.656	32865.24
662.007	32719.93
662.358	32900.04
662.708	32592.93
663.059	32773.94
663.409	32456.66
663.76	32663.43
664.11	32627.5
664.461	32583.66
664.811	32553.61
665.161	32585.24
665.511	32449.88
665.862	32421.63
666.212	32494.85
666.562	32392.48
666.912	32220.06
667.262	32070.68
667.612	32072.72
667.962	32062.09
668.312	32028.88
668.662	31963.11
669.011	31776.45
669.361	31749.33
669.711	31624.14
670.06	31612.84
670.41	31425.73
670.76	31448.78
671.109	31488.78
671.459	31389.34
671.808	31237.03
672.157	31351.83
672.507	30951.84
672.856	31048.34
673.205	31069.8
673.554	31091.95
673.904	30923.37
674.253	30936.47
674.602	30962.69
674.951	30411.97
675.3	30280.9
675.649	30826.87
675.998	30664.62
676.346	30598.63
676.695	30752.98
677.044	30583.26
677.393	30644.96
677.741	30689.25
678.09	30603.83
678.438	30330.39
678.787	30465.75
679.135	30579.2
679.484	30355.47
679.832	30498.07
680.181	30220.56
680.529	30364.96
680.877	30285.19
681.225	30374.68
681.573	30528.58
681.922	30274.35
682.27	30282.03
682.618	30260.56
682.966	30181.47
683.314	30375.81
683.661	30281.58
684.009	30257.17
684.357	30206.32
684.705	30327.68
685.053	30236.61
685.4	30375.59
685.748	30072.54
686.095	30166.78
686.443	30067.12
686.79	30112.32
687.138	30162.03
687.485	30226.21
687.832	30089.72
688.18	30187.57
688.527	30000
688.874	30208.36
689.221	30072.32
689.568	30005.88
689.915	29868.03
690.262	29929.04
690.609	29925.2
690.956	29831.19
691.303	29818.99
691.65	29798.65
691.997	29875.71
692.344	29732.89
692.69	29815.37
693.037	29725.43
693.383	29525.21
693.73	29733.12
694.077	29536.51
694.423	29581.48
694.769	29521.14
695.116	29406.12
695.462	29479.34
695.808	29516.63
696.155	29421.71
696.501	29089.52
696.847	29168.84
697.193	28958.22
697.539	29037.32
697.885	28972.68
698.231	28835.51
698.577	28811.56
698.923	28812.01
699.269	28669.87
699.614	28553.03
699.96	28533.15
700.306	28559.59
700.651	28249.77
700.997	28286.37
701.342	28243.66
701.688	28290.22
702.033	28063.56
702.379	28104.91
702.724	28047.74
703.069	28081.41
703.415	27760.51
703.76	27726.84
704.105	27845.26
704.45	27723.68
704.795	27507.64
705.14	27458.83
705.485	27461.31
705.83	27332.28
706.175	27422.67
706.52	27323.69
706.865	27214.31
707.209	27208.66
707.554	27107.87
707.899	27089.34
708.243	26983.58
708.588	26948.33
708.932	26731.39
709.277	26782.69
709.621	26717.83
709.966	26529.81
710.31	26695.46
710.654	26503.37
710.998	26579.08
711.342	26591.28
711.687	26457.27
712.031	26327.1
712.375	26269.03
712.719	26359.87
713.063	26189.71
713.407	26220.21
713.75	26145.19
714.094	26153.55
714.438	25953.55
714.782	26019.77
715.125	25900
715.469	26030.16
715.812	25741.58
716.156	25736.61
716.499	25647.57
716.843	25680.34
717.186	25503.4
717.53	25656.61
717.873	25643.05
718.216	25498.65
718.559	25399.45
718.902	25227.02
719.246	25392.21
719.589	25297.07
719.932	25108.38
720.275	25238.32
720.617	25036.06
720.96	25016.63
721.303	25046.01
721.646	24980.93
721.989	24961.04
722.331	24956.74
722.674	24820.93
723.016	24878.55
723.359	24835.62
723.701	24899.35
724.044	24643.98
724.386	24634.04
724.729	24669.07
725.071	24618.9
725.413	24411.67
725.755	24438.34
726.097	24436.31
726.439	24385.01
726.782	24354.27
727.124	24436.53
727.465	24210.1
727.807	24375.07
728.149	24180.72
728.491	24302.98
728.833	24170.78
729.175	23987.05
729.516	24107.28
729.858	24028.86
730.199	24055.3
730.541	24033.38
730.882	23881.29
731.224	23971.91
731.565	23772.37
731.906	23747.06
732.248	23808.75
732.589	23616.22
732.93	23569.44
733.271	23571.02
733.612	23535.54
733.953	23489.89
734.294	23431.59
734.635	23401.53
734.976	23504.35
735.317	23343.45
735.658	23295.55
735.999	23246.51
736.339	23253.96
736.68	23313.85
737.021	23244.93
737.361	23254.87
737.702	23216
738.042	23118.6
738.383	23106.85
738.723	23176
739.063	23100.07
739.404	23069.56
739.744	22963.8
740.084	22914.76
740.424	22976.01
740.764	22875.22
741.104	22832.51
741.444	22807.87
741.784	22677.03
742.124	22847.42
742.464	22731.04
742.804	22723.36
743.143	22607.88
743.483	22663.02
743.823	22522.68
744.162	22479.97
744.502	22497.15
744.841	22386.19
745.181	22542.35
745.52	22283.37
745.86	22409.92
746.199	22296.48
746.538	22261.45
746.877	22248.57
747.216	22141
747.556	22078.85
747.895	22091.51
748.234	22068.01
748.573	21979.42
748.911	22018.29
749.25	21990.5
749.589	21744.4
749.928	21918.41
750.267	21830.05
750.605	21737.62
750.944	21735.59
751.283	21609.26
751.621	21761.57
751.96	21538.76
752.298	21558.19
752.636	21512.54
752.975	21508.93
753.313	21347.8
753.651	21544.18
753.989	21331.98
754.327	21234.13
754.666	21121.59
755.004	21254.92
755.342	21136.28
755.679	21236.62
756.017	21019.9
756.355	21176.73
756.693	21010.63
757.031	20951.65
757.368	20804.31
757.706	20766.35
758.044	20716.63
758.381	20761.15
758.719	20736.74
759.056	20619.01
759.394	20516.64
759.731	20464.43
760.068	20336.98
760.405	20319.35
760.743	20282.52
761.08	20214.5
761.417	20085.01
761.754	20160.03
762.091	20078.91
762.428	19949.42
762.765	19761.4
763.102	19881.17
763.438	19793.72
763.775	19647.51
764.112	19668.07
764.449	19625.13
764.785	19569.54
765.122	19368.19
765.458	19353.95
765.795	19247.06
766.131	19380.85
766.467	19264.01
766.804	19070.57
767.14	19066.73
767.476	19065.6
767.812	18956.45
768.148	19036
768.485	18854.98
768.821	18775.21
769.157	18767.3
769.492	18706.74
769.828	18639.4
770.164	18638.94
770.5	18513.98
770.836	18465.62
771.171	18370.03
771.507	18392.4
771.842	18184.72
772.178	18201.22
772.513	18082.35
772.849	18133.65
773.184	17982.92
773.519	18055.46
773.855	17887.78
774.19	17769.14
774.525	17793.77
774.86	17668.12
775.195	17700.89
775.53	17608.46
775.865	17448.92
776.2	17407.79
776.535	17250.73
776.87	17312.88
777.205	17224.97
777.539	17208.47
777.874	17248.47
778.209	16906.34
778.543	16877.18
778.878	16881.7
779.212	16836.73
779.547	16778.88
779.881	16860.46
780.215	16636.74
780.55	16624.53
780.884	16536.18
781.218	16462.28
781.552	16499.34
781.886	16419.34
782.22	16314.49
782.554	16239.46
782.888	16136.86
783.222	16134.15
783.556	16059.35
783.889	16034.95
784.223	15980.94
784.557	15887.15
784.89	15834.27
785.224	15711.34
785.557	15728.74
785.891	15604.45
786.224	15632.7
786.558	15542.53
786.891	15398.58
787.224	15482.42
787.557	15402.65
787.891	15353.38
788.224	15215.08
788.557	15270.45
788.89	15257.79
789.223	15164.91
789.556	15077
789.888	14960.85
790.221	15017.8
790.554	14804.02
790.887	14864.81
791.219	14822.32
791.552	14755.21
791.884	14651.71
792.217	14599.73
792.549	14571.93
792.882	14469.79
793.214	14520.41
793.546	14503.91
793.879	14312.28
794.211	14289.45
794.543	14301.21
794.875	14221.21
795.207	14258.95
795.539	14153.41
795.871	14195.45
796.203	14039.52
796.535	13999.52
796.867	13996.81
797.198	13987.77
797.53	13873.19
797.862	13850.37
798.193	13760.66
798.525	13710.03
798.856	13775.34
799.188	13616.93
799.519	13625.07
799.85	13539.19
800.182	13481.34
800.513	13531.51
800.844	13402.25
801.175	13346.65
801.506	13412.87
801.837	13244.96
802.168	13245.41
802.499	13225.08
802.83	13122.25
803.161	13171.07
803.491	13158.19
803.822	13147.79
804.153	12990.96
804.483	12913.67
804.814	12891.53
805.145	12922.94
805.475	12837.74
805.805	12756.16
806.136	12823.96
806.466	12812.21
806.796	12735.82
807.126	12705.32
807.457	12641.36
807.787	12560.46
808.117	12545.55
808.447	12519.78
808.777	12556.62
809.107	12428.03
809.436	12360.69
809.766	12314.37
810.096	12317.08
810.426	12262.39
810.755	12276.63
811.085	12317.98
811.414	12244.76
811.744	12083.19
812.073	12134.26
812.403	12111.43
812.732	12093.13
813.061	12033.24
813.39	11976.07
813.719	11968.16
814.049	12016.29
814.378	11970.42
814.707	11871.67
815.036	11833.7
815.365	11901.27
815.693	11683.2
816.022	11682.52
816.351	11676.42
816.68	11594.16
817.008	11714.38
817.337	11540.15
817.665	11482.75
817.994	11610.66
818.322	11530.88
818.651	11475.74
818.979	11426.03
819.307	11493.14
819.636	11495.63
819.964	11373.15
820.292	11403.65
820.62	11377.89
820.948	11361.62
821.276	11411.79
821.604	11309.19
821.932	11379.7
822.259	11382.64
822.587	11346.48
822.915	11357.78
823.243	11319.59
823.57	11293.38
823.898	11355.97
824.225	11240.04
824.553	11237.78
824.88	11331.79
825.207	11316.43
825.535	11280.27
825.862	11233.26
826.189	11284.34
826.516	11282.08
826.843	11306.26
827.17	11318.46
827.497	11327.05
827.824	11330.44
828.151	11313.71
828.478	11274.17
828.805	11288.63
829.131	11259.7
829.458	11254.05
829.785	11290.21
830.111	11243.21
830.438	11292.02
830.764	11268.97
831.09	11260.16
831.417	11217.22
831.743	11219.03
832.069	11205.24
832.395	11125.47
832.722	11227.61
833.048	11090.67
833.374	11206.82
833.7	11170.21
834.026	11131.57
834.351	11104.91
834.677	11109.88
835.003	11124.79
835.329	11045.25
835.654	11092.48
835.98	11019.03
836.306	11094.06
836.631	10978.81
836.956	11009.09
837.282	10945.81
837.607	10954.63
837.932	10953.27
838.258	10936.32
838.583	10913.27
838.908	10806.16
839.233	10890.67
839.558	10899.49
839.883	10837.12
840.208	10821.52
840.533	10805.93
840.858	10780.17
841.182	10736.55
841.507	10791.69
841.832	10680.96
842.156	10747.18
842.481	10659.95
842.805	10651.13
843.13	10610.68
843.454	10557.8
843.778	10572.04
844.103	10588.99
844.427	10478.26
844.751	10498.82
845.075	10390.8
845.399	10433.06
845.723	10378.15
846.047	10330.24
846.371	10223.35
846.695	10266.96
847.019	10178.83
847.343	10156.91
847.666	10198.49
847.99	10146.06
848.313	10109.9
848.637	10020.19
848.96	10022
849.284	10026.97
849.607	9968.21
849.931	9912.85
850.254	9820.65
850.577	9772.29
850.9	9662.01
851.223	9723.47
851.546	9625.4
851.869	9647.99
852.192	9692.06
852.515	9482.12
852.838	9520.54
853.161	9466.76
853.483	9516.92
853.806	9446.87
854.129	9362.35
854.451	9362.35
854.774	9346.31
855.096	9292.07
855.419	9320.77
855.741	9280.77
856.063	9143.83
856.385	9190.38
856.708	9127.78
857.03	9102.25
857.352	9150.61
857.674	9127.56
857.996	9031.06
858.318	9022.02
858.64	8978.18
858.961	8967.79
859.283	8974.34
859.605	8915.81
859.926	8952.87
860.248	8838.3
860.57	8880.56
860.891	8924.85
861.212	8881.01
861.534	8841.24
861.855	8773.67
862.176	8793.55
862.498	8704.74
862.819	8720.56
863.14	8698.42
863.461	8648.93
863.782	8654.8
864.103	8660.45
864.424	8665.87
864.745	8681.47
865.065	8616.84
865.386	8504.75
865.707	8552.66
866.027	8591.3
866.348	8559.89
866.668	8510.85
866.989	8543.39
867.309	8456.61
867.63	8456.61
867.95	8498.65
868.27	8432.43
868.59	8426.33
868.91	8381.81
869.23	8374.58
869.55	8371.64
869.87	8352.89
870.19	8314.92
870.51	8327.13
870.83	8386.33
871.15	8210.29
871.469	8292.32
871.789	8332.78
872.109	8336.16
872.428	8233.57
872.748	8220.69
873.067	8187.92
873.386	8231.53
873.706	8183.85
874.025	8166
874.344	8168.49
874.663	8158.77
874.982	8138.43
875.301	8144.53
875.62	8068.83
875.939	8127.81
876.258	8093.69
876.577	8027.25
876.896	8004.2
877.214	8030.41
877.533	8069.96
877.852	8011.88
878.17	8011.2
878.489	8031.31
878.807	8036.51
879.125	8013.01
879.444	8015.95
879.762	7869.06
880.08	7931.88
880.398	7912.22
880.716	7928.49
881.034	7894.14
881.352	7902.28
881.67	7804.2
881.988	7879.45
882.306	7842.39
882.624	7750.64
882.941	7754.03
883.259	7711.1
883.577	7732.57
883.894	7704.77
884.212	7738.44
884.529	7697.54
884.846	7614.6
885.164	7668.61
885.481	7662.28
885.798	7625.22
886.115	7617.31
886.432	7589.29
886.75	7553.36
887.067	7581.38
887.383	7475.17
887.7	7467.04
888.017	7467.49
888.334	7469.07
888.651	7428.84
888.967	7399.69
889.284	7411.9
889.6	7368.05
889.917	7353.14
890.233	7349.07
890.55	7290.54
890.866	7270.66
891.182	7250.09
891.498	7260.04
891.815	7203.09
892.131	7198.57
892.447	7155.41
892.763	7132.58
893.079	7156.53
893.395	7032.7
893.71	7106.59
894.026	7063.43
894.342	7064.33
894.657	7022.98
894.973	6996.31
895.289	6929.65
895.604	6964
895.92	6975.52
896.235	6840.61
896.55	6908.86
896.865	6900.04
897.181	6814.17
897.496	6916.09
897.811	6816.2
898.126	6792.48
898.441	6704.12
898.756	6726.26
899.071	6675.42
899.386	6721.74
899.7	6679.49
900.015	6621.18
900.33	6560.84
900.644	6629.54
900.959	6574.63
901.273	6590.9
901.588	6552.94
901.902	6498.02
902.216	6458.02
902.531	6493.5
902.845	6458.02
903.159	6413.73
903.473	6401.98
903.787	6333.28
904.101	6320.4
904.415	6374.86
904.729	6269.33
905.042	6232.94
905.356	6236.11
905.67	6236.56
905.984	6237.92
906.297	6180.06
906.611	6144.58
906.924	6217.58
907.237	6108.2
907.551	6068.65
907.864	6057.13
908.177	5995.44
908.491	6013.51
908.804	5951.59
909.117	5975.32
909.43	5908.21
909.743	5917.25
910.056	5917.92
910.368	5863.46
910.681	5861.43
910.994	5816.46
911.307	5799.96
911.619	5786.18
911.932	5763.58
912.244	5720.41
912.557	5702.56
912.869	5663.47
913.181	5681.09
913.494	5630.7
913.806	5642.22
914.118	5585.73
914.43	5516.13
914.742	5563.13
915.054	5496.47
915.366	5498.95
915.678	5483.36
915.99	5462.12
916.302	5442.91
916.613	5399.52
916.925	5412.63
917.236	5375.11
917.548	5345.96
917.859	5387.54
918.171	5313.87
918.482	5291.73
918.794	5262.57
919.105	5283.36
919.416	5205.17
919.727	5245.62
920.038	5240.43
920.349	5203.37
920.66	5096.25
920.971	5136.02
921.282	5109.58
921.593	5056.93
921.903	5069.81
922.214	5014.9
922.525	5035.91
922.835	4990.49
923.146	4964.73
923.456	4951.4
923.767	4939.64
924.077	4897.39
924.387	4885.41
924.697	4880.89
925.008	4868.69
925.318	4866.2
925.628	4847.9
925.938	4838.4
926.248	4707.79
926.558	4777.39
926.867	4717.05
927.177	4680.89
927.487	4711.85
927.796	4636.6
928.106	4613.33
928.416	4622.14
928.725	4608.81
929.034	4543.72
929.344	4594.34
929.653	4554.12
929.962	4531.75
930.271	4471.18
930.581	4470.5
930.89	4471.18
931.199	4399.32
931.508	4431.41
931.817	4376.5
932.125	4389.6
932.434	4383.05
932.743	4352.31
933.051	4292.88
933.36	4273.67
933.669	4276.61
933.977	4273.45
934.286	4248.81
934.594	4244.3
934.902	4207.01
935.21	4188.93
935.519	4202.49
935.827	4176.95
936.135	4179.44
936.443	4105.09
936.751	4131.53
937.059	4123.39
937.367	4071.19
937.674	4063.51
937.982	4091.98
938.29	4035.71
938.597	4009.95
938.905	4006.79
939.213	4001.14
939.52	3938.99
939.827	3967.69
940.135	3983.96
940.442	3919.11
940.749	3888.15
941.056	3908.03
941.363	3871.65
941.67	3879.56
941.977	3870.75
942.284	3860.35
942.591	3850.86
942.898	3775.61
943.205	3742.84
943.511	3731.99
943.818	3729.51
944.125	3668.04
944.431	3667.81
944.738	3681.37
945.044	3703.52
945.35	3683.63
945.657	3638.44
945.963	3641.6
946.269	3602.96
946.575	3576.97
946.881	3566.35
947.187	3579.45
947.493	3523.41
947.799	3579.45
948.105	3514.37
948.41	3510.3
948.716	3469.4
949.022	3483.64
949.327	3506.01
949.633	3421.04
949.938	3415.39
950.244	3457.88
950.549	3366.58
950.854	3385.33
951.16	3353.92
951.465	3356.41
951.77	3346.47
952.075	3343.98
952.38	3301.5
952.685	3293.36
952.99	3260.59
953.294	3279.35
953.599	3288.16
953.904	3207.49
954.209	3214.49
954.513	3234.15
954.818	3210.65
955.122	3242.74
955.426	3153.02
955.731	3167.26
956.035	3154.38
956.339	3136.98
956.643	3136.08
956.948	3098.34
957.252	3096.08
957.556	3078.45
957.86	3048.39
958.163	3049.98
958.467	3030.32
958.771	3056.08
959.075	3019.24
959.378	3000.71
959.682	2999.81
959.985	2968.85
960.289	2977.21
960.592	2944.22
960.896	2962.29
961.199	2918
961.502	2947.15
961.805	2878.68
962.108	2950.54
962.411	2836.42
962.714	2834.84
963.017	2821.73
963.32	2874.84
963.623	2826.93
963.926	2803.2
964.228	2812.24
964.531	2807.72
964.833	2788.06
965.136	2767.05
965.438	2728.4
965.741	2742.87
966.043	2740.83
966.345	2688.86
966.648	2694.28
966.95	2722.08
967.252	2740.61
967.554	2656.31
967.856	2669.65
968.158	2637.78
968.46	2663.77
968.761	2631.23
969.063	2627.16
969.365	2609.99
969.666	2629.87
969.968	2562.08
970.269	2565.47
970.571	2572.93
970.872	2527.05
971.174	2537.9
971.475	2537
971.776	2503.78
972.077	2498.58
972.378	2505.58
972.679	2489.31
972.98	2497.67
973.281	2489.09
973.582	2460.16
973.883	2454.29
974.183	2444.57
974.484	2462.65
974.785	2393.27
975.085	2391.01
975.386	2421.97
975.686	2344.46
975.986	2381.29
976.287	2367.28
976.587	2381.75
976.887	2371.12
977.187	2345.59
977.487	2368.41
977.787	2312.14
978.087	2305.14
978.387	2282.54
978.687	2299.04
978.987	2254.52
979.286	2281.86
979.586	2272.82
979.885	2229.21
980.185	2210.68
980.484	2226.72
980.784	2226.04
981.083	2203.44
981.382	2195.99
981.682	2205.7
981.981	2168.87
982.28	2173.39
982.579	2184.46
982.878	2169.32
983.177	2125.25
983.475	2162.32
983.774	2129.55
984.073	2118.93
984.372	2098.14
984.67	2113.05
984.969	2131.36
985.267	2102.88
985.566	2066.73
985.864	2074.63
986.162	2033.73
986.461	2068.08
986.759	2029.44
987.057	2013.85
987.355	2021.53
987.653	1990.8
987.951	1976.78
988.249	2012.49
988.547	1972.49
988.844	1962.32
989.142	1972.72
989.44	1950.57
989.737	1934.98
990.035	1952.83
990.332	1941.53
990.63	1929.33
990.927	1915.32
991.224	1894.75
991.521	1894.75
991.819	1906.5
992.116	1885.71
992.413	1943.11
992.71	1867.86
993.006	1831.25
993.303	1846.62
993.6	1829.9
993.897	1830.35
994.193	1823.34
994.49	1782.89
994.787	1815.88
995.083	1783.12
995.379	1766.62
995.676	1753.51
995.972	1758.26
996.268	1754.19
996.565	1748.99
996.861	1746.28
997.157	1742.89
997.453	1728.2
997.749	1740.18
998.044	1696.34
998.34	1704.02
998.636	1733.63
998.932	1690.24
999.227	1653.85
999.523	1689.11
999.818	1665.15
1000.114	1669.9
1000.409	1618.83
1000.704	1633.06
1001	1624.25
1001.295	1629.22
1001.59	1612.05
1001.885	1632.39
1002.18	1574.99
1002.475	1601.65
1002.77	1608.21
1003.065	1564.59
1003.359	1557.59
1003.654	1571.37
1003.949	1570.47
1004.243	1552.16
1004.538	1556
1004.832	1539.96
1005.127	1527.76
1005.421	1519.62
1005.715	1505.84
1006.009	1489.34
1006.304	1472.62
1006.598	1435.56
1006.892	1468.55
1007.186	1462.9
1007.48	1447.98
1007.773	1419.06
1008.067	1416.57
1008.361	1428.55
1008.655	1422.22
1008.948	1403.69
1009.242	1414.77
1009.535	1377.93
1009.829	1393.52
1010.122	1380.42
1010.415	1372.05
1010.708	1382.45
1011.001	1341.32
1011.295	1343.81
1011.588	1354.43
1011.881	1356.91
1012.173	1319.4
1012.466	1323.24
1012.759	1328.67
1013.052	1332.96
1013.344	1309.68
1013.637	1307.2
1013.93	1298.61
1014.222	1282.79
1014.514	1281.89
1014.807	1254.09
1015.099	1287.54
1015.391	1268.78
1015.683	1249.8
1015.976	1245.96
1016.268	1261.55
1016.56	1203.02
1016.851	1229.69
1017.143	1228.1
1017.435	1216.35
1017.727	1168.9
1018.018	1172.74
1018.31	1212.74
1018.602	1187.2
1018.893	1152.4
1019.185	1153.08
1019.476	1144.26
1019.767	1137.94
1020.058	1146.75
1020.35	1139.74
1020.641	1144.94
1020.932	1142
1021.223	1130.03
1021.514	1108.78
1021.804	1128.9
1022.095	1109.69
1022.386	1095.9
1022.677	1065.17
1022.967	1087.54
1023.258	1062.01
1023.548	1060.65
1023.839	1085.73
1024.129	1048.67
1024.419	1025.62
1024.709	1052.97
1025	1032.4
1025.29	1019.07
1025.58	1017.26
1025.87	1004.15
1026.16	1028.56
1026.449	996.92
1026.739	988.34
1027.029	981.33
1027.319	983.14
1027.608	978.62
1027.898	953.08
1028.187	988.79
1028.477	975.23
1028.766	962.35
1029.055	941.33
1029.344	944.49
1029.634	963.48
1029.923	934.1
1030.212	925.51
1030.501	928.45
1030.79	909.92
1031.078	914.89
1031.367	915.57
1031.656	910.37
1031.945	887.55
1032.233	894.1
1032.522	873.99
1032.81	868.56
1033.099	865.85
1033.387	871.95
1033.675	866.53
1033.963	860.2
1034.251	853.42
1034.54	860.2
1034.828	854.33
1035.116	809.58
1035.403	841.45
1035.691	810.71
1035.979	813.65
1036.267	831.5
1036.554	823.82
1036.842	804.16
1037.129	817.27
1037.417	768.91
1037.704	790.6
1037.992	777.27
1038.279	817.72
1038.566	780.66
1038.853	780.66
1039.14	780.66
