Data from white_steel_sheet_FLMS001491_083.txt Node
Date: Tue Feb 07 10:58:36 GMT 2017
User: dcchb
Spectrometer: FLMS00149
Trigger mode: 0
Integration Time (sec): 2.000000E-2
Scans to average: 10
Electric dark correction enabled: true
Nonlinearity correction enabled: false
Boxcar width: 0
XAxis mode: Wavelengths
Number of Pixels in Spectrum: 2048
>>>>>Begin Spectral Data<<<<<
341.393	-23.7
341.776	-23.7
342.16	-23.7
342.543	-46.52
342.927	-72.51
343.31	-65.05
343.693	-44.72
344.077	-58.28
344.46	-71.61
344.843	-59.41
345.226	-35.9
345.61	-52.63
345.993	-2.91
346.376	-2.46
346.759	4.77
347.142	42.29
347.525	37.54
347.908	51.33
348.291	79.12
348.674	78.22
349.057	99.69
349.44	137.65
349.823	125.9
350.206	172
350.588	208.84
350.971	208.16
351.354	229.85
351.737	268.04
352.119	264.43
352.502	274.6
352.884	281.38
353.267	278.21
353.65	313.01
354.032	309.17
354.414	319.57
354.797	332.22
355.179	312.34
355.562	320.02
355.944	349.17
356.326	345.78
356.709	344.2
357.091	352.11
357.473	351.66
357.855	350.53
358.238	342.84
358.62	332.22
359.002	359.11
359.384	360.24
359.766	347.14
360.148	342.62
360.53	347.82
360.912	372.45
361.294	348.72
361.676	336.97
362.057	339
362.439	357.31
362.821	334.26
363.203	347.36
363.584	355.27
363.966	329.96
364.348	337.42
364.729	332.67
365.111	332
365.493	332
365.874	350.3
366.256	339.91
366.637	339.23
367.019	339.91
367.4	339.45
367.781	350.08
368.163	324.09
368.544	334.26
368.925	332.9
369.306	321.38
369.688	323.41
370.069	334.93
370.45	342.62
370.831	349.4
371.212	307.82
371.593	359.11
371.974	339.68
372.355	336.06
372.736	342.17
373.117	331.77
373.498	334.71
373.879	352.11
374.26	329.06
374.641	343.3
375.021	305.1
375.402	346.69
375.783	351.21
376.163	377.42
376.544	354.37
376.925	372.22
377.305	351.66
377.686	372.9
378.066	350.3
378.447	342.39
378.827	360.7
379.208	369.06
379.588	361.6
379.968	377.19
380.349	361.37
380.729	374.93
381.109	362.28
381.489	392.11
381.87	389.62
382.25	367.93
382.63	376.06
383.01	405.89
383.39	390.53
383.77	377.42
384.15	404.76
384.53	382.39
384.91	408.15
385.29	393.92
385.67	398.66
386.049	410.41
386.429	382.62
386.809	409.73
387.189	405.89
387.568	420.13
387.948	394.82
388.328	435.05
388.707	429.4
389.087	417.87
389.466	420.81
389.846	444.76
390.225	455.38
390.605	442.28
390.984	430.98
391.363	452.9
391.743	445.21
392.122	448.38
392.501	456.74
392.881	464.2
393.26	505.33
393.639	472.78
394.018	454.71
394.397	466.91
394.776	494.48
395.155	503.74
395.534	519.34
395.913	494.03
396.292	515.27
396.671	533.57
397.05	520.01
397.429	518.43
397.808	528.6
398.186	526.12
398.565	526.12
398.944	541.71
399.323	553.46
399.701	553.46
400.08	564.31
400.458	553.46
400.837	572.44
401.215	564.99
401.594	574.93
401.972	614.02
402.351	617.87
402.729	618.32
403.107	618.77
403.486	628.49
403.864	668.03
404.242	654.47
404.62	641.14
404.999	666
405.377	657.86
405.755	695.15
406.133	701.93
406.511	685.43
406.889	734.02
407.267	735.38
407.645	748.71
408.023	744.19
408.401	773.79
408.779	776.51
409.156	788.26
409.534	810.18
409.912	830.97
410.29	842.49
410.667	832.55
411.045	859.21
411.422	874.81
411.8	881.59
412.178	886.78
412.555	911.64
412.933	931.53
413.31	938.08
413.687	937.63
414.065	957.97
414.442	960.68
414.819	986.67
415.197	996.61
415.574	1008.36
415.951	992.09
416.328	1040.23
416.705	1057.63
417.082	1026.22
417.46	1051.53
417.837	1061.92
418.214	1094.91
418.591	1093.33
418.967	1099.89
419.344	1102.15
419.721	1133.33
420.098	1124.29
420.475	1142.6
420.852	1156.83
421.228	1164.07
421.605	1166.78
421.982	1199.77
422.358	1204.29
422.735	1218.53
423.111	1197.96
423.488	1250.39
423.864	1271.63
424.241	1269.15
424.617	1283.84
424.994	1265.53
425.37	1294.68
425.746	1317.06
426.123	1331.29
426.499	1361.35
426.875	1378.75
427.251	1386.66
427.627	1390.73
428.003	1410.39
428.379	1439.09
428.756	1457.39
429.132	1474.34
429.507	1499.2
429.883	1500.33
430.259	1533.1
430.635	1546.2
431.011	1547.78
431.387	1571.96
431.763	1631.17
432.138	1660.78
432.514	1652.19
432.89	1626.2
433.265	1715.01
433.641	1719.98
434.016	1730.83
434.392	1743.94
434.767	1805.4
435.143	1818.51
435.518	1844.73
435.894	1811.96
436.269	1898.28
436.644	1876.59
437.02	1950.49
437.395	1911.62
437.77	1956.59
438.145	2003.14
438.52	2012.18
438.895	2025.29
439.271	2020.77
439.646	2060.99
440.021	2112.52
440.395	2101.22
440.77	2088.33
441.145	2135.57
441.52	2148.67
441.895	2152.29
442.27	2163.36
442.645	2206.52
443.019	2220.99
443.394	2253.98
443.769	2274.77
444.143	2244.26
444.518	2265.96
444.892	2270.03
445.267	2309.8
445.641	2334.2
446.016	2340.31
446.39	2340.98
446.764	2388.89
447.139	2406.29
447.513	2408.55
447.887	2419.85
448.262	2451.49
448.636	2437.03
449.01	2484.71
449.384	2484.03
449.758	2544.59
450.132	2600.41
450.506	2590.92
450.88	2587.08
451.254	2596.57
451.628	2618.94
452.002	2672.05
452.376	2695.78
452.75	2715.21
453.123	2750.46
453.497	2779.62
453.871	2814.87
454.244	2878.37
454.618	2915.66
454.992	2941.42
455.365	2910.23
455.739	3008.99
456.112	3042.89
456.486	3047.63
456.859	3087.4
457.232	3171.24
457.606	3132.15
457.979	3206.72
458.352	3241.98
458.725	3276.55
459.099	3327.4
459.472	3357
459.845	3398.36
460.218	3462.99
460.591	3467.73
460.964	3518.13
461.337	3568.52
461.71	3601.52
462.083	3688.29
462.456	3672.25
462.829	3667.73
463.201	3773.49
463.574	3734.39
463.947	3802.19
464.32	3902.98
464.692	3942.07
465.065	3964.9
465.438	4011.67
465.81	4118.34
466.183	4130.09
466.555	4246.02
466.928	4232.91
467.3	4237.66
467.672	4315.62
468.045	4428.16
468.417	4413.02
468.789	4477.65
469.161	4500.7
469.534	4603.97
469.906	4657.98
470.278	4730.53
470.65	4755.84
471.022	4892.78
471.394	4990.86
471.766	5045.55
472.138	5076.28
472.51	5182.04
472.882	5250.74
473.253	5296.16
473.625	5392.2
473.997	5504.52
474.369	5528.7
474.74	5615.47
475.112	5707.22
475.484	5753.55
475.855	5836.26
476.227	5878.74
476.598	6044.16
476.97	6151.5
477.341	6289.81
477.713	6376.13
478.084	6392.18
478.455	6634.66
478.827	6609.12
479.198	6856.57
479.569	6864.48
479.94	7023.12
480.311	7114.87
480.682	7287.97
481.053	7443.9
481.424	7527.74
481.795	7603.9
482.166	7706.72
482.537	7801.18
482.908	8019.7
483.279	8112.58
483.65	8204.78
484.021	8410.43
484.391	8445.23
484.762	8508.73
485.133	8598.45
485.503	8808.16
485.874	8974.48
486.244	9048.15
486.615	9197.98
486.985	9343.29
487.356	9547.12
487.726	9588.25
488.097	9788.25
488.467	9788.47
488.837	9982.14
489.207	10101.01
489.578	10331.73
489.948	10378.06
490.318	10524.27
490.688	10574.21
491.058	10775.79
491.428	10944.83
491.798	11017.14
492.168	11206.29
492.538	11255.33
492.908	11359.5
493.278	11539.16
493.648	11673.39
494.017	11761.3
494.387	11849.66
494.757	11929.88
495.126	12161.97
495.496	12180.05
495.866	12301.4
496.235	12404.45
496.605	12492.36
496.974	12588.85
497.344	12661.39
497.713	12786.58
498.082	12888.73
498.452	12996.97
498.821	13137.99
499.19	13101.6
499.559	13297.98
499.928	13427.92
500.298	13423.18
500.667	13570.29
501.036	13613.46
501.405	13735.03
501.774	13780.46
502.143	13910.62
502.512	14055.7
502.88	14166.21
503.249	14213.67
503.618	14320.56
503.987	14456.6
504.356	14561.68
504.724	14619.76
505.093	14677.16
505.462	14793.99
505.83	14792.41
506.199	14964.38
506.567	15166.86
506.936	15158.73
507.304	15451.37
507.672	15427.87
508.041	15549.68
508.409	15624.7
508.777	15813.62
509.145	15889.55
509.514	15983.34
509.882	16121.19
510.25	16318.92
510.618	16277.79
510.986	16308.07
511.354	16638.46
511.722	16754.39
512.09	16875.74
512.458	16866.93
512.826	17015.17
513.193	17081.16
513.561	17218.11
513.929	17328.84
514.297	17543.3
514.664	17736.51
515.032	17750.3
515.4	17857.86
515.767	17959.56
516.135	18119.33
516.502	18049.05
516.869	18428.24
517.237	18446.1
517.604	18452.65
517.972	18742.81
518.339	18837.95
518.706	18938.06
519.073	18954.33
519.44	19181.9
519.808	19385.96
520.175	19348.22
520.542	19734.88
520.909	19763.58
521.276	19940.97
521.643	20167.18
522.009	20266.61
522.376	20427.29
522.743	20493.5
523.11	20705.25
523.477	20933.26
523.843	20996.31
524.21	21307.26
524.577	21452.12
524.943	21507.71
525.31	21601.27
525.676	21916.29
526.043	22038.77
526.409	22160.8
526.776	22480.34
527.142	22462.26
527.508	22514.24
527.874	22807.11
528.241	22937.05
528.607	22995.36
528.973	23227.21
529.339	23287.33
529.705	23582.46
530.071	23735
530.437	23859.74
530.803	23941.55
531.169	24036.68
531.535	24190.35
531.901	24348.54
532.267	24385.38
532.632	24517.8
532.998	24681.64
533.364	24868.3
533.73	24829.21
534.095	25065.13
534.461	25165.92
534.826	25404.56
535.192	25322.3
535.557	25577.21
535.923	25522.97
536.288	25826.47
536.653	25928.16
537.019	25964.32
537.384	25992.11
537.749	26190.07
538.114	26220.58
538.479	26277.08
538.845	26535.6
539.21	26560.01
539.575	26523.4
539.94	26639.55
540.305	26941.47
540.67	26808.14
541.034	26895.14
541.399	27001.13
541.764	27193.89
542.129	27316.15
542.494	27405.18
542.858	27512.07
543.223	27563.15
543.587	27733.54
543.952	27610.6
544.316	27789.81
544.681	27803.82
545.045	28021.21
545.41	28204.26
545.774	28104.37
546.138	28246.97
546.503	28327.19
546.867	28315.44
547.231	28675.43
547.595	28670.46
547.959	28769.44
548.324	28736.45
548.688	28829.1
549.052	28962.2
549.416	29079.04
549.779	29263.21
550.143	29246.49
550.507	29451.46
550.871	29564.9
551.235	29653.71
551.599	29669.98
551.962	29818.91
552.326	29856.64
552.689	30186.58
553.053	29985
553.417	30081.05
553.78	30616.17
554.143	30417.08
554.507	30682.61
554.87	30711.99
555.234	30986.78
555.597	30730.29
555.96	30988.82
556.323	31156.72
556.686	31192.88
557.05	31441.69
557.413	31525.98
557.776	31603.94
558.139	31877.16
558.502	31834.67
558.865	31961.45
559.228	32274.43
559.59	32357.82
559.953	32378.39
560.316	32807.3
560.679	32733.63
561.041	32948.99
561.404	33033.96
561.767	33295.65
562.129	33280.51
562.492	33674.17
562.854	33554.85
563.217	33688.86
563.579	33759.82
563.941	33984.45
564.304	34087.27
564.666	34212.69
565.028	34292.91
565.39	34404.55
565.753	34577.42
566.115	34753.69
566.477	34924.31
566.839	34953.23
567.201	35157.97
567.563	35274.35
567.925	35496.27
568.287	35418.76
568.648	35494.01
569.01	35790.5
569.372	35875.47
569.734	35875.02
570.095	36241.11
570.457	36266.42
570.819	36351.39
571.18	36465.74
571.542	36571.5
571.903	36572.4
572.265	36798.38
572.626	36823.47
572.987	36899.62
573.349	36998.38
573.71	37061.2
574.071	37281.08
574.432	37251.93
574.794	37633.61
575.155	37568.08
575.516	37475.43
575.877	37670.68
576.238	37626.61
576.599	37862.08
576.96	37769.43
577.32	37839.71
577.681	38032.47
578.042	38133.26
578.403	38145.47
578.763	38072.25
579.124	38189.31
579.485	38140.04
579.845	38427.49
580.206	38303.65
580.566	38326.93
580.927	38296.87
581.287	38572.35
581.648	38344.78
582.008	38539.13
582.368	38498.45
582.728	38582.29
583.089	38525.57
583.449	38487.38
583.809	38510.2
584.169	38686.69
584.529	38637.88
584.889	38790.19
585.249	38688.05
585.609	38578
585.969	38734.83
586.329	38539.35
586.688	38643.98
587.048	38644.44
587.408	38684.21
587.768	38662.06
588.127	38725.79
588.487	38593.59
588.846	38714.04
589.206	38489.19
589.565	38635.62
589.925	38743.87
590.284	38606.7
590.643	38632.01
591.003	38745.22
591.362	38854.37
591.721	38752.68
592.08	38885.11
592.44	38846.01
592.799	38867.48
593.158	38792.23
593.517	38780.25
593.876	38745.45
594.235	38678.33
594.593	38732.12
594.952	38874.49
595.311	38694.83
595.67	38722.17
596.029	39036.74
596.387	38967.37
596.746	39041.26
597.104	38834.94
597.463	38808.05
597.822	38984.31
598.18	38854.6
598.538	38838.78
598.897	38954.03
599.255	38676.98
599.613	39214.82
599.972	39024.31
600.33	39027.48
600.688	38912.45
601.046	39132.78
601.404	39239.9
601.762	39068.38
602.12	39360.8
602.478	39202.84
602.836	39231.77
603.194	38983.18
603.552	39173.24
603.91	39032.22
604.268	39232.89
604.625	39026.8
604.983	39269.28
605.341	39060.92
605.698	39262.27
606.056	39401.25
606.413	39257.3
606.771	39541.59
607.128	39611.19
607.485	39309.73
607.843	39339.78
608.2	39545.43
608.557	39617.07
608.914	39344.98
609.272	39649.16
609.629	39740
609.986	39792.2
610.343	39583.62
610.7	39944.51
611.057	39889.83
611.414	39957.62
611.771	39941.35
612.127	40044.4
612.484	39993.55
612.841	40183.15
613.198	40048.47
613.554	39996.72
613.911	40248.01
614.267	40235.58
614.624	40152.64
614.98	40352.19
615.337	40492.52
615.693	40361.68
616.05	40299.31
616.406	40512.41
616.762	40362.13
617.118	40557.38
617.475	40447.78
617.831	40543.82
618.187	40626.3
618.543	40625.63
618.899	40766.41
619.255	40676.7
619.611	40760.09
619.967	40833.76
620.323	40890.48
620.678	40742.46
621.034	40599.19
621.39	40725.74
621.746	40691.16
622.101	41086.86
622.457	40742.01
622.812	40819.52
623.168	40927.54
623.523	40879.18
623.879	41074.2
624.234	40790.82
624.589	40893.42
624.945	40991.04
625.3	41065.62
625.655	40883.93
626.01	40914.43
626.365	41036.46
626.72	40966.86
627.075	40904.49
627.43	40897.71
627.785	40725.29
628.14	40835.11
628.495	40867.65
628.85	40838.73
629.205	40781.1
629.559	40884.6
629.914	40629.47
630.269	40749.69
630.623	40728.9
630.978	40747.66
631.332	40741.33
631.687	40801.44
632.041	40628.79
632.396	40694.33
632.75	40496.14
633.104	40515.57
633.459	40378.18
633.813	40324.62
634.167	40192.64
634.521	40198.97
634.875	40312.64
635.229	40248.91
635.583	40083.72
635.937	40104.06
636.291	40128.92
636.645	40082.59
636.999	40011.41
637.352	40064.74
637.706	39770.28
638.06	39833.33
638.413	39760.56
638.767	39737.51
639.121	39673.79
639.474	39457.75
639.828	39484.19
640.181	39629.72
640.534	39543.62
640.888	39476.28
641.241	39290.97
641.594	39452.78
641.947	39437.41
642.301	39377.75
642.654	39336.62
643.007	39356.96
643.36	39290.29
643.713	39087.59
644.066	39312.67
644.419	38988.61
644.771	38826.13
645.124	38418.45
645.477	38219.59
645.83	37994.51
646.182	37862.99
646.535	37813.5
646.888	37960.16
647.24	37747.74
647.593	37982.08
647.945	37995.19
648.298	37711.13
648.65	37695.53
649.002	37522.43
649.355	37724.23
649.707	37482.43
650.059	37665.93
650.411	38084.9
650.763	38088.07
651.115	38527.15
651.467	38287.38
651.819	38388.62
652.171	38119.48
652.523	38307.04
652.875	38140.72
653.227	37957.67
653.578	38201.51
653.93	38166.26
654.282	37991.12
654.633	37926.71
654.985	37933.95
655.337	37934.85
655.688	38045.81
656.039	38049.65
656.391	37663.67
656.742	37869.77
657.094	37874.74
657.445	37841.97
657.796	37717.68
658.147	37787.96
658.498	37667.74
658.849	37771.46
659.2	37628.87
659.551	37580.06
659.902	37536.22
660.253	37444.24
660.604	37427.52
660.955	37228.43
661.306	37327.63
661.656	37219.16
662.007	37158.83
662.358	37286.73
662.708	37208.99
663.059	37119.73
663.409	36884.71
663.76	37144.81
664.11	37036.79
664.461	37027.98
664.811	36976.68
665.161	36926.74
665.511	36622.57
665.862	36617.82
666.212	36887.87
666.562	36642.23
666.912	36448.34
667.262	36427.09
667.612	36353.65
667.962	36297.15
668.312	36243.37
668.662	36244.5
669.011	36245.85
669.361	35996.82
669.711	35980.55
670.06	35749.82
670.41	35697.85
670.76	35649.49
671.109	35772.87
671.459	35605.42
671.808	35589.37
672.157	35515.03
672.507	35237.07
672.856	35396.39
673.205	35280
673.554	35294.92
673.904	35143.06
674.253	35320
674.602	35155.71
674.951	34621.26
675.3	34433.7
675.649	34882.05
675.998	34916.4
676.346	34940.35
676.695	35056.51
677.044	34664.65
677.393	34844.76
677.741	34814.25
678.09	34700.36
678.438	34649.74
678.787	34651.32
679.135	34734.26
679.484	34497.2
679.832	34583.3
680.181	34339.01
680.529	34634.15
680.877	34471.44
681.225	34419.46
681.573	34671.88
681.922	34471.21
682.27	34431.21
682.618	34452.68
682.966	34438.44
683.314	34439.57
683.661	34375.62
684.009	34263.99
684.357	34282.97
684.705	34381.95
685.053	34333.36
685.4	34332.68
685.748	34185.8
686.095	34379.01
686.443	34141.73
686.79	34198
687.138	34393.93
687.485	34393.93
687.832	34101.96
688.18	34262.18
688.527	34106.02
688.874	34233.7
689.221	34108.74
689.568	34102.86
689.915	34017.21
690.262	34140.6
690.609	33978.12
690.956	34001.62
691.303	33901.74
691.65	33851.34
691.997	33828.97
692.344	33594.63
692.69	33743.1
693.037	33763.66
693.383	33554.85
693.73	33620.39
694.077	33441.63
694.423	33552.14
694.769	33307.63
695.116	33384.91
695.462	33420.84
695.808	33167.29
696.155	33305.82
696.501	33098.59
696.847	33098.14
697.193	32838.03
697.539	33116.45
697.885	32793.97
698.231	32724.59
698.577	32741.09
698.923	32577.02
699.269	32529.57
699.614	32452.06
699.96	32325.73
700.306	32310.82
700.651	32324.38
700.997	32247.32
701.342	32027.43
701.688	32127.77
702.033	31980.2
702.379	31911.51
702.724	31911.28
703.069	32046.42
703.415	31545.64
703.76	31710.83
704.105	31562.59
704.45	31539.09
704.795	31354.23
705.14	31220.22
705.485	31300.45
705.83	31048.7
706.175	31241.47
706.52	31009.38
706.865	30991.53
707.209	30958.54
707.554	30854.81
707.899	30893.23
708.243	30812.55
708.588	30649.39
708.932	30440.81
709.277	30392
709.621	30538.43
709.966	30283.75
710.31	30368.04
710.654	30101.61
710.998	30299.12
711.342	30313.58
711.687	30055.06
712.031	29975.96
712.375	29866.81
712.719	29995.85
713.063	29814.84
713.407	29933.25
713.75	29611.91
714.094	29757.89
714.438	29524.45
714.782	29652.58
715.125	29481.29
715.469	29437.67
715.812	29345.25
716.156	29360.84
716.499	29338.47
716.843	29191.35
717.186	29082.88
717.53	29230.67
717.873	29123.78
718.216	29108.64
718.559	28972.83
718.902	28820.74
719.246	28921.75
719.589	28706.17
719.932	28623.68
720.275	28677.69
720.617	28603.34
720.96	28566.96
721.303	28588.43
721.646	28541.2
721.989	28320.41
722.331	28393.41
722.674	28364.93
723.016	28286.74
723.359	28237.03
723.701	28342.11
724.044	28129.68
724.386	27963.81
724.729	28068.89
725.071	28062.34
725.413	27971.5
725.755	27853.31
726.097	27846.3
726.439	27752.29
726.782	27677.72
727.124	27853.76
727.465	27682.46
727.807	27639.53
728.149	27581.45
728.491	27579.19
728.833	27561.11
729.175	27472.98
729.516	27398.4
729.858	27348.69
730.199	27298.29
730.541	27322.47
730.882	27227.33
731.224	27213.1
731.565	27143.04
731.906	27135.81
732.248	27070.73
732.589	26941.69
732.93	26923.61
733.271	26852.2
733.612	26847.23
733.953	26833.67
734.294	26853.33
734.635	26756.16
734.976	26850.62
735.317	26703.73
735.658	26543.74
735.999	26582.61
736.339	26554.13
736.68	26671.87
737.021	26590.06
737.361	26381.26
737.702	26509.39
738.042	26446.34
738.383	26317.75
738.723	26309.17
739.063	26249.73
739.404	26267.59
739.744	26111.43
740.084	26067.82
740.424	26160.92
740.764	26096.74
741.104	26120.47
741.444	26011.1
741.784	25831.44
742.124	26037.54
742.464	25874.38
742.804	25699.24
743.143	25696.98
743.483	25745.34
743.823	25687.04
744.162	25702.18
744.502	25724.78
744.841	25504.22
745.181	25566.14
745.52	25412.69
745.86	25558.45
746.199	25506.25
746.538	25365.69
746.877	25451.56
747.216	25353.26
747.556	25277.33
747.895	25278.46
748.234	25181.96
748.573	25128.63
748.911	25128.63
749.25	25126.15
749.589	24888.64
749.928	24937.9
750.267	24908.53
750.605	24896.32
750.944	24818.58
751.283	24787.17
751.621	24771.58
751.96	24678.02
752.298	24590.79
752.636	24534.98
752.975	24528.42
753.313	24299.95
753.651	24500.85
753.989	24342.89
754.327	24346.28
754.666	24086.85
755.004	24253.63
755.342	24195.55
755.679	24125.5
756.017	24080.3
756.355	24001.88
756.693	23948.55
757.031	24041.88
757.368	23782.45
757.706	23703.13
758.044	23610.71
758.381	23693.87
758.719	23524.61
759.056	23654.1
759.394	23521.22
759.731	23283.71
760.068	23308.12
760.405	23196.71
760.743	23100.21
761.08	23070.38
761.417	22918.97
761.754	22971.4
762.091	22989.25
762.428	22841.69
762.765	22660.9
763.102	22703.84
763.438	22639.21
763.775	22458.42
764.112	22505.43
764.449	22461.81
764.785	22294.36
765.122	22201.48
765.458	22269.73
765.795	22151.31
766.131	22076.28
766.467	22055.95
766.804	21974.59
767.14	21826.35
767.476	21752
767.812	21657.31
768.148	21722.85
768.485	21632
768.821	21422.97
769.157	21398.79
769.492	21488.05
769.828	21363.08
770.164	21057.55
770.5	21109.76
770.836	21068.85
771.171	21038.12
771.507	20929.2
771.842	20732.82
772.178	20805.36
772.513	20641.52
772.849	20679.26
773.184	20468.87
773.519	20494.86
773.855	20514.74
774.19	20354.3
774.525	20229.1
774.86	20202.66
775.195	20174.87
775.53	20082.21
775.865	20010.58
776.2	19872.73
776.535	19765.84
776.87	19791.37
777.205	19667.08
777.539	19505.5
777.874	19584.6
778.209	19442.68
778.543	19366.3
778.878	19278.39
779.212	19219.18
779.547	19221.67
779.881	19151.84
780.215	18957.95
780.55	18968.34
780.884	18938.51
781.218	18922.02
781.552	18784.39
781.886	18698.29
782.22	18661.46
782.554	18589.37
782.888	18325.42
783.222	18313.67
783.556	18294.01
783.889	18226.44
784.223	18118.87
784.557	18130.17
784.89	18021.7
785.224	18126.78
785.557	17943.29
785.891	17895.6
786.224	17845.66
786.558	17809.5
786.891	17644.31
787.224	17598.66
787.557	17623.07
787.891	17491.32
788.224	17461.72
788.557	17462.85
788.89	17369.52
789.223	17390.53
789.556	17148.28
789.888	17130.2
790.221	17045.46
790.554	16979.69
790.887	16954.38
791.219	16910.77
791.552	16835.74
791.884	16814.73
792.217	16659.93
792.549	16673.71
792.882	16468.52
793.214	16521.18
793.546	16477.34
793.879	16373.38
794.211	16330.45
794.543	16304.01
794.875	16211.35
795.207	16241.18
795.539	16114.41
795.871	16238.02
796.203	15956.9
796.535	15923.45
796.867	15885.71
797.198	15852.49
797.53	15851.14
797.862	15668.77
798.193	15796.22
798.525	15609.11
798.856	15618.83
799.188	15540.41
799.519	15401.66
799.85	15293.41
800.182	15413.41
800.513	15407.08
800.844	15180.42
801.175	15374.77
801.506	15317.59
801.837	15140.2
802.168	15229.68
802.499	15136.13
802.83	15051.61
803.161	14931.16
803.491	14950.14
803.822	14922.35
804.153	14813.88
804.483	14738.17
804.814	14738.62
805.145	14718.29
805.475	14667.44
805.805	14605.07
806.136	14615.46
806.466	14617.95
806.796	14513.54
807.126	14408.69
807.457	14395.13
807.787	14425.86
808.117	14411.85
808.447	14368.24
808.777	14276.72
809.107	14200.78
809.436	14208.02
809.766	14150.84
810.096	14081.01
810.426	14069.04
810.755	13991.75
811.085	13976.61
811.414	13930.28
811.744	13867.69
812.073	13766.22
812.403	13810.06
812.732	13745.43
813.061	13725.09
813.39	13643.29
813.719	13609.84
814.049	13730.51
814.378	13693.91
814.707	13580.24
815.036	13557.64
815.365	13502.05
815.693	13361.71
816.022	13401.26
816.351	13302.73
816.68	13282.62
817.008	13309.28
817.337	13195.16
817.665	13152
817.994	13261.6
818.322	13209.62
818.651	13161.72
818.979	13089.18
819.307	13113.13
819.636	13071.32
819.964	12982.51
820.292	13000.36
820.62	12967.37
820.948	12996.75
821.276	13055.05
821.604	12974.6
821.932	13009.18
822.259	13011.89
822.587	12955.39
822.915	12900.71
823.243	12979.57
823.57	12876.07
823.898	13014.83
824.225	12816.19
824.553	12826.36
824.88	12912.68
825.207	12942.29
825.535	12862.97
825.862	12919.69
826.189	12868.62
826.516	12852.35
826.843	12963.3
827.17	12955.62
827.497	12981.16
827.824	13006.24
828.151	12920.14
828.478	12834.95
828.805	12942.51
829.131	12865.45
829.458	12846.92
829.785	12787.71
830.111	12813.7
830.438	12835.17
830.764	12808.05
831.09	12775.51
831.417	12755.17
831.743	12799.24
832.069	12826.81
832.395	12754.04
832.722	12712.01
833.048	12669.75
833.374	12792.91
833.7	12694.16
834.026	12699.58
834.351	12732.57
834.677	12742.29
835.003	12700.71
835.329	12641.73
835.654	12584.78
835.98	12615.74
836.306	12586.36
836.631	12567.61
836.956	12530.09
837.282	12579.81
837.607	12486.93
837.932	12507.72
838.258	12542.3
838.583	12472.02
838.908	12358.8
839.233	12491.68
839.558	12422.53
839.883	12370.78
840.208	12269.31
840.533	12387.5
840.858	12297.78
841.182	12275.86
841.507	12294.17
841.832	12227.73
842.156	12170.33
842.481	12206.71
842.805	12179.37
843.13	12164.23
843.454	12056.89
843.778	11978.47
844.103	12115.64
844.427	12022.09
844.751	12029.32
845.075	11893.27
845.399	11902.54
845.723	11860.96
846.047	11832.26
846.371	11715.43
846.695	11717.01
847.019	11658.7
847.343	11720.4
847.666	11579.16
847.99	11552.94
848.313	11573.74
848.637	11460.29
848.96	11467.75
849.284	11415.55
849.607	11382.1
849.931	11260.3
850.254	11233.86
850.577	11195.44
850.9	11101.43
851.223	11048.55
851.546	10997.71
851.869	10856.47
852.192	11011.26
852.515	10892.17
852.838	10813.08
853.161	10781.67
853.483	10795.68
853.806	10707.32
854.129	10727.88
854.451	10667.32
854.774	10668.67
855.096	10552.07
855.419	10537.38
855.741	10547.55
856.063	10445.18
856.385	10468.91
856.708	10457.15
857.03	10346.42
857.352	10453.09
857.674	10334.22
857.996	10321.34
858.318	10324.73
858.64	10189.82
858.961	10237.5
859.283	10190.27
859.605	10109.82
859.926	10228.91
860.248	10137.16
860.57	10031.18
860.891	10129.48
861.212	10025.08
861.534	9996.6
861.855	9963.38
862.176	10014.68
862.498	9974.23
862.819	9951.86
863.14	9942.59
863.461	9888.81
863.782	9856.94
864.103	9877.96
864.424	9810.84
864.745	9832.09
865.065	9801.58
865.386	9800.9
865.707	9808.36
866.027	9793.9
866.348	9682.26
866.668	9730.85
866.989	9607.46
867.309	9616.72
867.63	9636.84
867.95	9600.23
868.27	9589.38
868.59	9551.64
868.91	9591.41
869.23	9521.13
869.55	9507.8
869.87	9496.05
870.19	9465.32
870.51	9527.91
870.83	9441.59
871.15	9414.47
871.469	9464.86
871.789	9412.21
872.109	9402.27
872.428	9416.28
872.748	9400.23
873.067	9398.2
873.386	9387.13
873.706	9289.05
874.025	9286.79
874.344	9241.37
874.663	9305.09
874.982	9206.11
875.301	9291.76
875.62	9209.5
875.939	9166.11
876.258	9161.82
876.577	9147.81
876.896	9158.66
877.214	9117.75
877.533	9188.71
877.852	9098.32
878.17	9099.22
878.489	9154.36
878.807	9086.79
879.125	9121.14
879.444	9115.04
879.762	8977.19
880.08	9019
880.398	8965.89
880.716	9044.31
881.034	8989.4
881.352	8933.8
881.67	8911.66
881.988	8927.48
882.306	8916.63
882.624	8889.96
882.941	8805.9
883.259	8760.7
883.577	8831.21
883.894	8760.25
884.212	8769.29
884.529	8797.76
884.846	8693.36
885.164	8721.61
885.481	8648.39
885.798	8764.77
886.115	8602.51
886.432	8639.8
886.75	8546.02
887.067	8567.03
887.383	8528.62
887.7	8519.35
888.017	8523.87
888.334	8426.47
888.651	8466.92
888.967	8444.55
889.284	8387.6
889.6	8372.24
889.917	8389.41
890.233	8323.88
890.55	8310.32
890.866	8319.36
891.182	8332.01
891.498	8293.14
891.815	8193.26
892.131	8187.61
892.447	8241.39
892.763	8184.67
893.079	8104
893.395	8111.91
893.71	8046.82
894.026	8102.64
894.342	8062.64
894.657	8046.37
894.973	7991
895.289	7980.84
895.604	7977.67
895.92	7928.18
896.235	7887.28
896.55	7888.41
896.865	7842.08
897.181	7906.26
897.496	7799.6
897.811	7782.42
898.126	7740.39
898.441	7797.34
898.756	7715.53
899.071	7765.47
899.386	7717.11
899.7	7508.08
900.015	7567.29
900.33	7502.88
900.644	7495.42
900.959	7526.61
901.273	7489.1
901.588	7485.93
901.902	7388.76
902.216	7440.74
902.531	7432.6
902.845	7346.73
903.159	7287.97
903.473	7328.88
903.787	7250.23
904.101	7198.94
904.415	7157.58
904.729	7143.34
905.042	7092.72
905.356	7110.35
905.67	7053.85
905.984	7060.41
906.297	6975.89
906.611	6958.94
906.924	6982.22
907.237	6947.64
907.551	6909.68
907.864	6878.04
908.177	6895.89
908.491	6897.47
908.804	6845.5
909.117	6763.69
909.43	6737.03
909.743	6703.58
910.056	6714.88
910.368	6724.15
910.681	6687.08
910.994	6619.97
911.307	6604.6
911.619	6522.57
911.932	6546.75
912.244	6511.72
912.557	6478.05
912.869	6527.54
913.181	6428.11
913.494	6397.6
913.806	6366.87
914.118	6357.15
914.43	6328
914.742	6252.75
915.054	6270.37
915.366	6245.29
915.678	6215.46
915.99	6208.9
916.302	6182.01
916.613	6116.93
916.925	6101.11
917.236	6123.03
917.548	6066.99
917.859	6111.51
918.171	6037.61
918.482	6020.21
918.794	5987.67
919.105	5995.58
919.416	5909.7
919.727	5955.8
920.038	5857.05
920.349	5837.16
920.66	5850.04
920.971	5807.33
921.282	5763.04
921.593	5760.55
921.903	5697.51
922.214	5687.11
922.525	5667
922.835	5649.15
923.146	5617.06
923.456	5615.7
923.767	5614.12
924.077	5563.5
924.387	5568.02
924.697	5487.34
925.008	5547.45
925.318	5444.63
925.628	5456.16
925.938	5459.77
926.248	5430.62
926.558	5339.32
926.867	5392.65
927.177	5320.34
927.487	5270.4
927.796	5260.91
928.106	5278.53
928.416	5306.56
928.725	5221.13
929.034	5188.59
929.344	5216.16
929.653	5198.54
929.962	5104.98
930.271	5093.45
930.581	5097.97
930.89	5044.19
931.199	5041.03
931.508	4984.53
931.817	5028.37
932.125	4944.08
932.434	4945.43
932.743	4934.14
933.051	4901.59
933.36	4885.1
933.669	4829.96
933.977	4838.77
934.286	4789.28
934.594	4820.01
934.902	4821.37
935.21	4761.48
935.519	4785.89
935.827	4718.55
936.135	4716.29
936.443	4673.35
936.751	4704.09
937.059	4662.73
937.367	4608.49
937.674	4588.16
937.982	4656.63
938.29	4555.84
938.597	4555.84
938.905	4537.08
939.213	4533.92
939.52	4504.54
939.827	4475.39
940.135	4491.44
940.442	4432.23
940.749	4412.12
941.056	4482.62
941.363	4395.84
941.67	4376.18
941.977	4334.15
942.284	4298.9
942.591	4309.29
942.898	4284.21
943.205	4283.31
943.511	4247.15
943.818	4223.42
944.125	4190.43
944.431	4227.94
944.738	4159.69
945.044	4170.99
945.35	4141.61
945.657	4131.22
945.963	4119.92
946.269	4062.52
946.575	4028.62
946.881	4040.15
947.187	4071.79
947.493	4012.13
947.799	4012.35
948.105	3952.69
948.41	3971.68
948.716	3959.92
949.022	3960.38
949.327	3896.42
949.633	3852.36
949.938	3882.19
950.244	3841.96
950.549	3800.38
950.854	3821.62
951.16	3783.21
951.465	3782.98
951.77	3781.62
952.075	3742.3
952.38	3750.44
952.685	3726.94
952.99	3710.21
953.294	3739.14
953.599	3693.72
953.904	3681.06
954.209	3665.69
954.513	3656.66
954.818	3604.68
955.122	3591.57
955.426	3615.3
955.731	3555.64
956.035	3512.93
956.339	3573.27
956.643	3536.66
956.948	3506.15
957.252	3507.73
957.556	3461.63
957.86	3482.42
958.163	3451.01
958.467	3431.58
958.771	3428.41
959.075	3401.52
959.378	3380.28
959.682	3397
959.985	3332.82
960.289	3370.56
960.592	3361.52
960.896	3329.88
961.199	3294.4
961.502	3289.43
961.805	3269.55
962.108	3234.52
962.411	3238.14
962.714	3239.27
963.017	3217.57
963.32	3224.8
963.623	3198.59
963.926	3167.4
964.228	3179.61
964.531	3105.71
964.833	3127.86
965.136	3117.46
965.438	3110.68
965.741	3100.29
966.043	3074.07
966.345	3116.56
966.648	3034.52
966.95	3062.32
967.252	3026.16
967.554	3012.15
967.856	3022.55
968.158	3021.19
968.46	2981.42
968.761	3008.99
969.063	2959.27
969.365	2956.79
969.666	2938.03
969.968	2924.02
970.269	2882.66
970.571	2870.46
970.872	2871.82
971.174	2838.15
971.475	2844.47
971.776	2840.86
972.077	2818.49
972.378	2815.32
972.679	2800.41
972.98	2805.38
973.281	2792.05
973.582	2725.83
973.883	2743.46
974.183	2743.68
974.484	2728.54
974.785	2700.52
975.085	2717.7
975.386	2717.24
975.686	2649
975.986	2673.63
976.287	2687.42
976.587	2642.22
976.887	2657.13
977.187	2629.79
977.487	2625.72
977.787	2598.6
978.087	2593.63
978.387	2587.3
978.687	2557.93
978.987	2563.8
979.286	2540.75
979.586	2528.78
979.885	2531.26
980.185	2501.21
980.484	2499.85
980.784	2506.18
981.083	2454.2
981.382	2455.1
981.682	2466.18
981.981	2451.04
982.28	2457.82
982.579	2407.42
982.878	2410.81
983.177	2434.31
983.475	2399.29
983.774	2373.98
984.073	2384.82
984.372	2333.75
984.67	2366.52
984.969	2342.57
985.267	2315.9
985.566	2331.72
985.864	2260.31
986.162	2330.14
986.461	2285.62
986.759	2258.27
987.057	2246.3
987.355	2269.57
987.653	2248.56
987.951	2225.05
988.249	2246.07
988.547	2235.9
988.844	2205.62
989.142	2220.08
989.44	2181.21
989.737	2189.8
990.035	2197.03
990.332	2181.89
990.63	2162.91
990.927	2150.48
991.224	2152.06
991.521	2128.11
991.819	2134.44
992.116	2104.83
992.413	2096.24
992.71	2076.58
993.006	2094.89
993.303	2039.97
993.6	2101.44
993.897	2063.48
994.193	2050.37
994.49	2041.1
994.787	2002.69
995.083	2001.33
995.379	1984.16
995.676	1981.67
995.972	2012.18
996.268	1979.64
996.565	1945.29
996.861	1945.51
997.157	1970.37
997.453	1957.94
997.749	1918.62
998.044	1919.98
998.34	1886.76
998.636	1918.4
998.932	1890.83
999.227	1878.85
999.523	1819.19
999.818	1842.47
1000.114	1848.57
1000.409	1845.63
1000.704	1811.96
1001	1842.47
1001.295	1808.57
1001.59	1814.44
1001.885	1825.07
1002.18	1759.3
1002.475	1779.87
1002.77	1769.47
1003.065	1743.49
1003.359	1766.08
1003.654	1743.94
1003.949	1712.07
1004.243	1733.99
1004.538	1691.06
1004.832	1700.55
1005.127	1683.83
1005.421	1675.24
1005.715	1693.77
1006.009	1643.6
1006.304	1656.93
1006.598	1647.89
1006.892	1627.78
1007.186	1604.28
1007.48	1622.81
1007.773	1593.21
1008.067	1593.43
1008.361	1580.33
1008.655	1600.44
1008.948	1581.23
1009.242	1573.77
1009.535	1545.75
1009.829	1561.34
1010.122	1558.63
1010.415	1534.68
1010.708	1509.14
1011.001	1510.95
1011.295	1516.6
1011.588	1514.56
1011.881	1494.23
1012.173	1463.04
1012.466	1449.48
1012.759	1499.42
1013.052	1452.87
1013.344	1439.09
1013.637	1403.61
1013.93	1432.53
1014.222	1389.6
1014.514	1421.01
1014.807	1413.78
1015.099	1408.35
1015.391	1383.95
1015.683	1357.05
1015.976	1356.38
1016.268	1354.12
1016.56	1373.78
1016.851	1363.83
1017.143	1352.54
1017.435	1342.59
1017.727	1319.32
1018.018	1335.13
1018.31	1294.01
1018.602	1304.63
1018.893	1305.76
1019.185	1300.11
1019.476	1276.15
1019.767	1270.96
1020.058	1267.79
1020.35	1264.63
1020.641	1243.16
1020.932	1268.02
1021.223	1224.18
1021.514	1237.28
1021.804	1232.99
1022.095	1194.35
1022.386	1197.28
1022.677	1181.47
1022.967	1192.31
1023.258	1177.17
1023.548	1165.42
1023.839	1158.42
1024.129	1146.44
1024.419	1143.28
1024.709	1127.91
1025	1129.72
1025.29	1123.16
1025.58	1093.11
1025.87	1096.95
1026.16	1102.82
1026.449	1107.57
1026.739	1086.78
1027.029	1096.27
1027.319	1070.96
1027.608	1064.63
1027.898	1057.63
1028.187	1038.87
1028.477	1074.8
1028.766	1033.45
1029.055	1042.71
1029.344	1030.74
1029.634	1005.43
1029.923	1023.96
1030.212	996.16
1030.501	1005.2
1030.79	991.64
1031.078	993.67
1031.367	979.89
1031.656	974.69
1031.945	977.18
1032.233	971.98
1032.522	956.39
1032.81	967.69
1033.099	960.23
1033.387	938.08
1033.675	936.05
1033.963	932.43
1034.251	946.22
1034.54	945.54
1034.828	925.43
1035.116	904.19
1035.403	893.79
1035.691	922.26
1035.979	914.35
1036.267	901.93
1036.554	894.24
1036.842	865.32
1037.129	876.16
1037.417	861.25
1037.704	867.8
1037.992	855.37
1038.279	858.54
1038.566	869.84
1038.853	869.84
1039.14	869.84
