Data from white_wall_FLMS001491_019.txt Node
Date: Tue Feb 07 11:03:43 GMT 2017
User: dcchb
Spectrometer: FLMS00149
Trigger mode: 0
Integration Time (sec): 2.000000E-2
Scans to average: 10
Electric dark correction enabled: true
Nonlinearity correction enabled: false
Boxcar width: 0
XAxis mode: Wavelengths
Number of Pixels in Spectrum: 2048
>>>>>Begin Spectral Data<<<<<
341.393	8.71
341.776	8.71
342.16	8.71
342.543	-54.79
342.927	-56.59
343.31	-75.58
343.693	-76.48
344.077	-73.54
344.46	-56.37
344.843	-48.91
345.226	-38.29
345.61	-20.21
345.993	-32.19
346.376	3.29
346.759	17.3
347.142	7.36
347.525	35.15
347.908	67.47
348.291	83.51
348.674	101.82
349.057	105.66
349.44	138.88
349.823	151.99
350.206	173.68
350.588	215.26
350.971	269.72
351.354	252.55
351.737	282.15
352.119	266.79
352.502	293.23
352.884	291.87
353.267	311.98
353.65	311.53
354.032	332.77
354.414	329.61
354.797	345.88
355.179	358.99
355.562	353.34
355.944	355.15
356.326	359.89
356.709	356.05
357.091	356.5
357.473	374.13
357.855	384.07
358.238	391.98
358.62	368.7
359.002	365.32
359.384	370.96
359.766	362.38
360.148	373.9
360.53	365.54
360.912	359.89
361.294	362.83
361.676	373
362.057	365.09
362.439	351.08
362.821	339.1
363.203	355.37
363.584	360.8
363.966	351.08
364.348	350.17
364.729	370.29
365.111	346.33
365.493	354.47
365.874	351.98
366.256	369.83
366.637	345.2
367.019	344.52
367.4	347.91
367.781	344.75
368.163	367.12
368.544	358.54
368.925	358.54
369.306	366.9
369.688	331.64
370.069	326.22
370.45	345.2
370.831	358.54
371.212	349.04
371.593	364.19
371.974	368.25
372.355	361.47
372.736	361.93
373.117	359.44
373.498	369.61
373.879	365.09
374.26	357.86
374.641	359.44
375.021	373.22
375.402	352.43
375.783	358.76
376.163	371.64
376.544	369.38
376.925	379.55
377.305	384.07
377.686	389.5
378.066	392.66
378.447	371.87
378.827	360.34
379.208	386.33
379.588	381.36
379.968	392.89
380.349	381.81
380.729	390.85
381.109	403.73
381.489	392.21
381.87	393.79
382.25	391.53
382.63	403.51
383.01	399.44
383.39	409.16
383.77	416.84
384.15	419.78
384.53	428.36
384.91	431.98
385.29	435.37
385.67	424.3
386.049	429.27
386.429	418.65
386.809	432.21
387.189	441.92
387.568	438.08
387.948	422.71
388.328	445.77
388.707	443.05
389.087	471.98
389.466	485.09
389.846	475.14
390.225	483.96
390.605	468.82
390.984	480.11
391.363	493.45
391.743	523.05
392.122	488.93
392.501	500.9
392.881	527.8
393.26	529.15
393.639	530.06
394.018	542.94
394.397	545.65
394.776	534.8
395.155	549.94
395.534	549.27
395.913	545.65
396.292	578.19
396.671	590.17
397.05	577.29
397.429	616.61
397.808	621.13
398.186	616.16
398.565	611.41
398.944	638.75
399.323	645.99
399.701	660.45
400.08	647.79
400.458	681.47
400.837	675.14
401.215	718.98
401.594	709.26
401.972	710.84
402.351	739.32
402.729	763.72
403.107	756.49
403.486	784.06
403.864	816.38
404.242	797.85
404.62	820.67
404.999	836.04
405.377	853.44
405.755	855.25
406.133	869.93
406.511	896.37
406.889	885.75
407.267	909.03
407.645	927.11
408.023	946.32
408.401	971.4
408.779	974.79
409.156	1015.02
409.534	1017.28
409.912	1055.24
410.29	1076.26
410.667	1067.22
411.045	1095.47
411.422	1073.09
411.8	1126.43
412.178	1135.69
412.555	1167.33
412.933	1170.72
413.31	1213.88
413.687	1229.93
414.065	1221.11
414.442	1267.44
414.819	1260.21
415.197	1257.27
415.574	1288.91
415.951	1332.52
416.328	1332.52
416.705	1317.61
417.082	1354.89
417.46	1379.98
417.837	1387.89
418.214	1438.28
418.591	1412.75
418.967	1438.96
419.344	1454.1
419.721	1481.22
420.098	1477.6
420.475	1509.69
420.852	1519.41
421.228	1535.45
421.605	1553.53
421.982	1568.67
422.358	1588.11
422.735	1619.29
423.111	1620.88
423.488	1643.93
423.864	1670.82
424.241	1685.05
424.617	1689.8
424.994	1703.36
425.37	1721.89
425.746	1774.54
426.123	1801.44
426.499	1819.06
426.875	1767.54
427.251	1843.69
427.627	1891.6
428.003	1883.24
428.379	1929.34
428.756	1943.13
429.132	1955.1
429.507	2002.79
429.883	2034.42
430.259	2078.26
430.635	2073.52
431.011	2066.74
431.387	2176.12
431.763	2193.74
432.138	2194.42
432.514	2227.87
432.89	2212.72
433.265	2284.36
433.641	2294.08
434.016	2323.46
434.392	2377.47
434.767	2433.96
435.143	2402.55
435.518	2418.37
435.894	2495.2
436.269	2516.22
436.644	2539.04
437.02	2574.52
437.395	2618.82
437.77	2615.88
438.145	2659.49
438.52	2699.04
438.895	2727.96
439.271	2735.2
439.646	2809.77
440.021	2823.56
440.395	2828.75
440.77	2841.86
441.145	2875.53
441.52	2903.1
441.895	2925.02
442.27	2955.53
442.645	2974.96
443.019	3021.74
443.394	2995.3
443.769	3072.81
444.143	3056.09
444.518	3126.15
444.892	3075.75
445.267	3114.85
445.641	3143.1
446.016	3181.96
446.39	3170.67
446.764	3187.16
447.139	3197.33
447.513	3266.71
447.887	3274.62
448.262	3311.9
448.636	3334.73
449.01	3425.57
449.384	3441.84
449.758	3423.54
450.132	3471.22
450.506	3510.54
450.88	3545.34
451.254	3530.88
451.628	3569.75
452.002	3682.97
452.376	3701.27
452.75	3729.52
453.123	3757.09
453.497	3835.96
453.871	3843.42
454.244	3914.6
454.618	3913.02
454.992	4030.08
455.365	4032.56
455.739	4100.13
456.112	4144.88
456.486	4204.54
456.859	4219
457.232	4284.76
457.606	4308.04
457.979	4374.48
458.352	4522.49
458.725	4522.49
459.099	4610.85
459.472	4671.64
459.845	4703.28
460.218	4705.77
460.591	4753
460.964	4821.92
461.337	4902.6
461.71	4989.83
462.083	5093.78
462.456	5105.76
462.829	5104.85
463.201	5228.46
463.574	5275.47
463.947	5355.01
464.32	5488.34
464.692	5503.94
465.065	5583.71
465.438	5657.61
465.81	5674.55
466.183	5758.62
466.555	5912.29
466.928	5928.33
467.3	5963.36
467.672	6037.03
468.045	6219.62
468.417	6197.48
468.789	6254.88
469.161	6400.18
469.534	6505.04
469.906	6632.72
470.278	6696.22
470.65	6741.42
471.022	6858.03
471.394	7053.05
471.766	7140.05
472.138	7144.12
472.51	7373.04
472.882	7491.68
473.253	7566.93
473.625	7680.6
473.997	7849.19
474.369	7914.5
474.74	7970.31
475.112	8176.41
475.484	8225.45
475.855	8464.09
476.227	8471.09
476.598	8774.13
476.97	8850.97
477.341	9073.56
477.713	9239.88
478.084	9218.42
478.455	9547.9
478.827	9609.37
479.198	9902.47
479.569	9914.22
479.94	10203.7
480.311	10242.57
480.682	10517.36
481.053	10779.05
481.424	10960.97
481.795	11071.7
482.166	11142.88
482.537	11336.78
482.908	11651.35
483.279	11801.85
483.65	11942.86
484.021	12242.29
484.391	12407.94
484.762	12512.79
485.133	12652.45
485.503	12873.91
485.874	13153
486.244	13199.78
486.615	13460.34
486.985	13693.55
487.356	13987.33
487.726	14004.05
488.097	14321.11
488.467	14443.82
488.837	14752.51
489.207	14852.62
489.578	15166.51
489.948	15293.96
490.318	15563.56
490.688	15506.84
491.058	15879.71
491.428	16083.32
491.798	16180.94
492.168	16535.96
492.538	16650.54
492.908	16719.69
493.278	17061.15
493.648	17097.53
494.017	17363.51
494.387	17527.35
494.757	17716.95
495.126	17898.41
495.496	17825.42
495.866	18081.01
496.235	18328.91
496.605	18519.41
496.974	18585.4
497.344	18803.7
497.713	19084.82
498.082	19246.17
498.452	19358.26
498.821	19421.54
499.19	19624.92
499.559	19818.36
499.928	19913.05
500.298	20020.84
500.667	20207.51
501.036	20221.52
501.405	20499.02
501.774	20546.03
502.143	20743.76
502.512	20826.47
502.88	21023.98
503.249	21165.9
503.618	21312.79
503.987	21421.26
504.356	21532.44
504.724	21808.59
505.093	21894.24
505.462	21983.5
505.83	22163.16
506.199	22366.09
506.567	22642.7
506.936	22658.06
507.304	22874.1
507.672	23140.76
508.041	23227.76
508.409	23397.03
508.777	23608.55
509.145	23743.91
509.514	23764.93
509.882	23945.71
510.25	24128.08
510.618	24314.74
510.986	24450.78
511.354	24875.86
511.722	24908.4
512.09	25161.5
512.458	25126.25
512.826	25385.22
513.193	25593.8
513.561	25644.2
513.929	25919.67
514.297	26180.23
514.664	26325.99
515.032	26441.92
515.4	26641.69
515.767	26765.98
516.135	27042.35
516.502	26798.97
516.869	27419.07
517.237	27429.46
517.604	27487.77
517.972	27845.27
518.339	27960.07
518.706	28233.74
519.073	28404.58
519.44	28501.75
519.808	28835.75
520.175	28870.55
520.542	29210.66
520.909	29545.11
521.276	29479.8
521.643	29842.96
522.009	30062.39
522.376	30242.72
522.743	30433.45
523.11	30774.69
523.477	31003.15
523.843	31253.32
524.21	31437.27
524.577	31711.38
524.943	31905.73
525.31	32028.89
525.676	32372.16
526.043	32529.44
526.409	32732.83
526.776	33098.69
527.142	33214.4
527.508	33446.71
527.874	33612.8
528.241	33937.31
528.607	33969.63
528.973	34272.45
529.339	34354.48
529.705	34865.65
530.071	34857.29
530.437	35125.53
530.803	35331.4
531.169	35440.1
531.535	35506.31
531.901	35703.14
532.267	35863.59
532.632	36157.37
532.998	36271.49
533.364	36382
533.73	36567.75
534.095	36848.88
534.461	36960.29
534.826	37141.98
535.192	37306.49
535.557	37537.45
535.923	37500.84
536.288	37751.22
536.653	37917.77
537.019	37972.24
537.384	38141.05
537.749	38319.35
538.114	38362.06
538.479	38472.79
538.845	38797.98
539.21	38758.66
539.575	38882.49
539.94	39135.6
540.305	39371.3
540.67	39312.77
541.034	39590.72
541.399	39623.94
541.764	39863.49
542.129	40064.38
542.494	40094.21
542.858	40296.69
543.223	40429.12
543.587	40514.77
543.952	40609.68
544.316	40715.44
544.681	40745.04
545.045	41109.55
545.41	41330.34
545.774	41352.94
546.138	41369.21
546.503	41697.11
546.867	41569.2
547.231	41969.87
547.595	42128.51
547.959	42287.38
548.324	42326.47
548.688	42541.38
549.052	42501.16
549.416	42579.8
549.779	42858.89
550.143	43012.78
550.507	43276.96
550.871	43414.35
551.235	43533.45
551.599	43919.2
551.962	43845.53
552.326	44118.97
552.689	44353.54
553.053	44256.59
553.417	44491.39
553.78	44872.62
554.143	44749.46
554.507	45031.94
554.87	45193.29
555.234	45664.01
555.597	45417.46
555.96	45659.49
556.323	45863.78
556.686	46009.99
557.05	46255.18
557.413	46327.27
557.776	46682.97
558.139	46750.54
558.502	47030.98
558.865	46958.44
559.228	47315.04
559.59	47501.7
559.953	47649.5
560.316	47868.47
560.679	48035.47
561.041	48142.82
561.404	48524.05
561.767	48702.35
562.129	48559.98
562.492	48996.8
562.854	48980.31
563.217	49074.32
563.579	49241.32
563.941	49398.83
564.304	49664.36
564.666	49800.4
565.028	49846.5
565.39	50098.02
565.753	50147.51
566.115	50364.45
566.477	50521.74
566.839	50636.76
567.201	50779.81
567.563	50864.1
567.925	51155.84
568.287	51032.23
568.648	51251.21
569.01	51414.59
569.372	51678.09
569.734	51492.78
570.095	51766.45
570.457	51922.38
570.819	51972.55
571.18	51972.55
571.542	52194.46
571.903	52231.07
572.265	52315.81
572.626	52298.86
572.987	52508.35
573.349	52580.67
573.71	52726.42
574.071	52802.81
574.432	52949.02
574.794	53024.04
575.155	52995.8
575.516	52989.69
575.877	53230.14
576.238	53187.2
576.599	53343.13
576.96	53350.81
577.32	53435.56
577.681	53542.9
578.042	53477.37
578.403	53593.52
578.763	53690.69
579.124	53606.4
579.485	53756
579.845	53778.6
580.206	53726.85
580.566	53805.72
580.927	53880.52
581.287	53974.75
581.648	53865.38
582.008	54006.62
582.368	53963
582.728	53956.9
583.089	53867.19
583.449	53920.97
583.809	53929.56
584.169	54051.81
584.529	53986.5
584.889	54121.64
585.249	54001.65
585.609	54037.58
585.969	54085.48
586.329	54013.4
586.688	54099.95
587.048	54024.7
587.408	54012.94
587.768	54119.61
588.127	54018.82
588.487	53955.32
588.846	54146.73
589.206	54019.72
589.565	54082.77
589.925	54247.29
590.284	54167.74
590.643	54241.19
591.003	54214.97
591.362	54401.41
591.721	54290.45
592.08	54284.58
592.44	54338.13
592.799	54327.29
593.158	54273.05
593.517	54265.82
593.876	54243.67
594.235	54194.41
594.593	54336.33
594.952	54355.08
595.311	54244.12
595.67	54326.16
596.029	54511.24
596.387	54459.03
596.746	54415.42
597.104	54311.92
597.463	54333.16
597.822	54490.22
598.18	54276.44
598.538	54438.24
598.897	54485.25
599.255	54343.11
599.613	54784.22
599.972	54560.5
600.33	54563.66
600.688	54484.34
601.046	54696.77
601.404	54729.99
601.762	54656.32
602.12	54833.94
602.478	54748.07
602.836	54779.93
603.194	54617.9
603.552	54736.09
603.91	54647.05
604.268	54841.85
604.625	54755.52
604.983	54931.11
605.341	54702.19
605.698	54932.24
606.056	54954.84
606.413	54883.88
606.771	55017.89
607.128	55006.36
607.485	54985.12
607.843	54888.85
608.2	55083.42
608.557	55160.48
608.914	55068.74
609.272	55285.91
609.629	55234.61
609.986	55400.03
610.343	55253.36
610.7	55435.73
611.057	55420.59
611.414	55379.24
611.771	55349.18
612.127	55503.53
612.484	55510.08
612.841	55585.78
613.198	55482.06
613.554	55519.12
613.911	55617.42
614.267	55567.48
614.624	55578.55
614.98	55645.67
615.337	55769.51
615.693	55703.3
616.05	55695.61
616.406	55872.1
616.762	55746.91
617.118	55765.89
617.475	55771.32
617.831	55886.57
618.187	55827.81
618.543	55890.63
618.899	55991.65
619.255	55977.64
619.611	55951.88
619.967	56044.08
620.323	56081.14
620.678	56037.3
621.034	55981.71
621.39	55988.26
621.746	55903.29
622.101	56232.77
622.457	55981.25
622.812	56107.35
623.168	56159.55
623.523	56105.32
623.879	56188.25
624.234	55966.57
624.589	56114.58
624.945	56162.04
625.3	56209.27
625.655	56177.63
626.01	56155.49
626.365	56208.82
626.72	56192.32
627.075	56209.95
627.43	56150.74
627.785	56004.53
628.14	56163.17
628.495	56103.06
628.85	56121.59
629.205	56128.59
629.559	56286.33
629.914	56046.34
630.269	56090.63
630.623	56048.6
630.978	55997.3
631.332	56026.9
631.687	56105.77
632.041	56039.78
632.396	55964.53
632.75	55924.08
633.104	55984.19
633.459	55823.07
633.813	55832.56
634.167	55855.83
634.521	55805.44
634.875	55835.72
635.229	55841.6
635.583	55691.09
635.937	55719.11
636.291	55635.95
636.645	55651.55
636.999	55621.49
637.352	55776.06
637.706	55649.96
638.06	55647.03
638.413	55594.6
638.767	55517.09
639.121	55587.82
639.474	55383.3
639.828	55366.35
640.181	55420.14
640.534	55319.35
640.888	55264.66
641.241	55148.51
641.594	55233.25
641.947	55257.43
642.301	55176.98
642.654	55123.65
643.007	55135.63
643.36	55111.9
643.713	55048.17
644.066	55103.76
644.419	54915.07
644.771	54778.35
645.124	54524.8
645.477	54517.34
645.83	54372.71
646.182	54197.8
646.535	54170.45
646.888	54114.41
647.24	53957.35
647.593	54133.17
647.945	54085.48
648.298	53936.11
648.65	53887.98
649.002	53746.06
649.355	53960.06
649.707	53826.51
650.059	54022.21
650.411	54392.14
650.763	54353.73
651.115	54657.22
651.467	54539.71
651.819	54421.52
652.171	54478.92
652.523	54391.01
652.875	54397.79
653.227	54278.02
653.578	54385.82
653.93	54326.61
654.282	54220.4
654.633	54155.31
654.985	54147.86
655.337	54279.6
655.688	54112.6
656.039	54203
656.391	53970.91
656.742	54068.76
657.094	54149.21
657.445	54157.8
657.796	54031.7
658.147	53998.26
658.498	53927.97
658.849	53986.05
659.2	53951.93
659.551	53916
659.902	54039.61
660.253	53967.97
660.604	53977.24
660.955	53821.31
661.306	53968.2
661.656	53892.27
662.007	53799.62
662.358	53865.38
662.708	53819.05
663.059	53758.71
663.409	53641.88
663.76	53778.6
664.11	53794.87
664.461	53769.11
664.811	53746.96
665.161	53733.18
665.511	53633.07
665.862	53690.92
666.212	53689.79
666.562	53777.24
666.912	53683.46
667.262	53569.57
667.612	53606.63
667.962	53576.35
668.312	53542
668.662	53713.52
669.011	53616.57
669.361	53469
669.711	53450.93
670.06	53447.54
670.41	53405.28
670.76	53389.23
671.109	53459.74
671.459	53313.75
671.808	53311.72
672.157	53399.63
672.507	53147.66
672.856	53275.34
673.205	53285.96
673.554	53275.56
673.904	53136.36
674.253	53327.09
674.602	53143.81
674.951	52689.36
675.3	52547.22
675.649	53093.87
675.998	53009.35
676.346	53027.21
676.695	53040.99
677.044	52868.57
677.393	53003.48
677.741	52951.96
678.09	52861.11
678.438	52789.02
678.787	52815.46
679.135	52811.62
679.484	52685.97
679.832	52744.05
680.181	52531.85
680.529	52585.64
680.877	52611.4
681.225	52446.21
681.573	52726.65
681.922	52415.92
682.27	52298.64
682.618	52396.94
682.966	52355.59
683.314	52461.8
683.661	52319.2
684.009	52077.4
684.357	52021.81
684.705	51944.75
685.053	52017.06
685.4	51946.33
685.748	51669.05
686.095	51757.18
686.443	51588.38
686.79	51545.21
687.138	51629.96
687.485	51656.62
687.832	51533.24
688.18	51490.75
688.527	51303.86
688.874	51225.67
689.221	51198.33
689.568	51119.01
689.915	50837.89
690.262	50907.49
690.609	50809.86
690.956	50756.31
691.303	50690.77
691.65	50594.73
691.997	50516.09
692.344	50361.97
692.69	50417.11
693.037	50307.96
693.383	49922.88
693.73	50105.93
694.077	49961.75
694.423	49853.73
694.769	49825.48
695.116	49626.84
695.462	49586.39
695.808	49539.62
696.155	49453.97
696.501	49245.16
696.847	49314.54
697.193	49131.04
697.539	49163.58
697.885	48915.23
698.231	48816.47
698.577	48833.87
698.923	48678.4
699.269	48566.08
699.614	48353.88
699.96	48298.74
700.306	48458.51
700.651	48108.47
700.997	48103.95
701.342	48011.29
701.688	47970.39
702.033	47785.54
702.379	47741.47
702.724	47794.12
703.069	47665.54
703.415	47292.67
703.76	47386.23
704.105	47319.56
704.45	47160.92
704.795	46858.33
705.14	46851.55
705.485	46837.99
705.83	46615.4
706.175	46681.16
706.52	46562.07
706.865	46333.82
707.209	46347.38
707.554	46199.59
707.899	46422.41
708.243	46065.81
708.588	46097.45
708.932	45688.19
709.277	45848.64
709.621	45772.71
709.966	45587.63
710.31	45593.5
710.654	45259.28
710.998	45303.79
711.342	45507.86
711.687	45287.3
712.031	44961.43
712.375	45032.16
712.719	45197.36
713.063	44918.04
713.407	44992.16
713.75	44854.99
714.094	44590.82
714.438	44636.69
714.782	44528
715.125	44423.37
715.469	44465.85
715.812	44208.68
716.156	43944.28
716.499	44248.23
716.843	44061.57
717.186	43751.97
717.53	44050.27
717.873	43877.62
718.216	43748.13
718.559	43696.61
718.902	43335.71
719.246	43527.57
719.589	43367.35
719.932	43121.48
720.275	43192.21
720.617	43110.86
720.96	43127.35
721.303	43085.77
721.646	42982.05
721.989	42836.74
722.331	42925.33
722.674	42744.99
723.016	42737.53
723.359	42634.26
723.701	42717.2
724.044	42313.82
724.386	42238.34
724.729	42432.68
725.071	42253.48
725.413	42181.62
725.755	42091.45
726.097	42093.26
726.439	41867.95
726.782	41961.96
727.124	42008.29
727.465	41889.2
727.807	41812.36
728.149	41727.62
728.491	41542.09
728.833	41495.31
729.175	41394.74
729.516	41412.82
729.858	41398.36
730.199	41396.78
730.541	41441.07
730.882	41350.45
731.224	41288.31
731.565	41046.96
731.906	41119.05
732.248	41037.01
732.589	40948.88
732.93	40756.34
733.271	40818.94
733.612	40850.8
733.953	40705.05
734.294	40641.54
734.635	40551.38
734.976	40675.67
735.317	40448.78
735.658	40344.83
735.999	40334.89
736.339	40359.52
736.68	40384.83
737.021	40213.76
737.361	40028.68
737.702	40252.85
738.042	40108.23
738.383	40039.3
738.723	40055.12
739.063	39772.19
739.404	39750.95
739.744	39679.54
740.084	39446.32
740.424	39569.03
740.764	39499.88
741.104	39510.95
741.444	39429.82
741.784	39329.94
742.124	39294.69
742.464	39204.97
742.804	39245.87
743.143	39110.06
743.483	39158.87
743.823	39008.14
744.162	38987.35
744.502	39105.54
744.841	38733.57
745.181	38789.62
745.52	38653.35
745.86	38776.28
746.199	38681.82
746.538	38563.86
746.877	38842.5
747.216	38638.66
747.556	38564.54
747.895	38569.73
748.234	38294.04
748.573	38135.17
748.911	38198.44
749.25	38123.87
749.589	38011.11
749.928	38050.43
750.267	38115.28
750.605	37830.77
750.944	37821.51
751.283	37694.05
751.621	37654.05
751.96	37404.34
752.298	37445.7
752.636	37423.55
752.975	37217.45
753.313	37242.31
753.651	37195.31
753.989	36995.31
754.327	36966.16
754.666	36865.37
755.004	36849.1
755.342	36916.44
755.679	36753.29
756.017	36509.45
756.355	36614.53
756.693	36398.49
757.031	36544.48
757.368	36245.28
757.706	36271.72
758.044	36024.94
758.381	36139.97
758.719	36058.84
759.056	35997.82
759.394	35812.97
759.731	35637.83
760.068	35508.8
760.405	35537.05
760.743	35309.48
761.08	35448.69
761.417	35089.15
761.754	35118.3
762.091	35105.64
762.428	34972.09
762.765	34590.4
763.102	34835.82
763.438	34683.28
763.775	34528.48
764.112	34457.98
764.449	34338.43
764.785	34269.51
765.122	34126.01
765.458	33881.95
765.795	33949.52
766.131	33947.26
766.467	33815.28
766.804	33598.57
767.14	33431.34
767.476	33527.83
767.812	33350.44
768.148	33397.44
768.485	33114.74
768.821	32905.48
769.157	32867.96
769.492	32733.28
769.828	32721.07
770.164	32361.76
770.5	32303.46
770.836	32261.43
771.171	32142.56
771.507	32036.8
771.842	31899.85
772.178	31814.88
772.513	31750.03
772.849	31709.58
773.184	31479.98
773.519	31481.11
773.855	31287.21
774.19	31145.3
774.525	31017.39
774.86	31052.42
775.195	30945.75
775.53	30769.94
775.865	30643.84
776.2	30306
776.535	30225.55
776.87	30336.05
777.205	30048.6
777.539	30038.66
777.874	30147.58
778.209	29800.93
778.543	29740.36
778.878	29647.26
779.212	29495.4
779.547	29353.48
779.881	29439.13
780.215	29199.36
780.55	29315.97
780.884	29103.99
781.218	29088.4
781.552	28969.08
781.886	28868.52
782.22	28648.19
782.554	28570.45
782.888	28470.11
783.222	28275.54
783.556	28245.49
783.889	28175.43
784.223	27893.18
784.557	27861.77
784.89	27911.03
785.224	27758.04
785.557	27537.48
785.891	27493.64
786.224	27429.91
786.558	27311.5
786.891	27071.96
787.224	27059.08
787.557	26846.43
787.891	26882.58
788.224	26879.65
788.557	26757.16
788.89	26692.08
789.223	26637.17
789.556	26440.11
789.888	26436.04
790.221	26252.32
790.554	26052.1
790.887	26027.47
791.219	25932.55
791.552	25834.93
791.884	25873.35
792.217	25677.19
792.549	25681.26
792.882	25460.02
793.214	25373.7
793.546	25497.76
793.879	25206.7
794.211	25148.84
794.543	25178
794.875	25063.42
795.207	25125.79
795.539	24879.02
795.871	24907.72
796.203	24751.79
796.535	24679.48
796.867	24550.67
797.198	24442.2
797.53	24552.48
797.862	24300.73
798.193	24407.62
798.525	24111.36
798.856	24303.89
799.188	23968.31
799.519	23903.68
799.85	23778.48
800.182	23797.69
800.513	23752.95
800.844	23538.49
801.175	23655.32
801.506	23559.96
801.837	23408.55
802.168	23323.36
802.499	23313.41
802.83	23132.85
803.161	23202.45
803.491	23105.73
803.822	23142.8
804.153	22971.27
804.483	22826.19
804.814	22724.05
805.145	22647.67
805.475	22675.92
805.805	22530.16
806.136	22579.42
806.466	22522.47
806.796	22408.35
807.126	22298.07
807.457	22295.36
807.787	22207.68
808.117	22102.14
808.447	22060.56
808.777	22117.51
809.107	21914.81
809.436	21904.86
809.766	21749.84
810.096	21799.78
810.426	21643.17
810.755	21701.48
811.085	21620.8
811.414	21561.37
811.744	21426.68
812.073	21265.78
812.403	21328.38
812.732	21254.94
813.061	21172.45
813.39	21124.54
813.719	21144.66
814.049	21132.9
814.378	21046.13
814.707	20989.18
815.036	20936.53
815.365	20807.04
815.693	20659.24
816.022	20686.36
816.351	20581.51
816.68	20406.14
817.008	20581.96
817.337	20320.72
817.665	20388.74
817.994	20357.11
818.322	20381.96
818.651	20152.82
818.979	20183.55
819.307	20336.99
819.636	20112.37
819.964	20019.04
820.292	20124.12
820.62	20146.49
820.948	20080.05
821.276	20127.73
821.604	20019.71
821.932	20133.84
822.259	20128.64
822.587	19968.87
822.915	20032.14
823.243	20112.82
823.57	19934.52
823.898	20113.95
824.225	19914.18
824.553	19946.72
824.88	19946.95
825.207	19937.46
825.535	19884.12
825.862	20038.92
826.189	19895.2
826.516	19866.5
826.843	19955.53
827.17	19931.35
827.497	20011.35
827.824	20075.76
828.151	19953.05
828.478	19855.88
828.805	20001.18
829.131	19920.06
829.458	19889.77
829.785	19870.57
830.111	19848.64
830.438	19921.41
830.764	19845.93
831.09	19917.34
831.417	19775.2
831.743	19825.14
832.069	19947.85
832.395	19750.34
832.722	19807.29
833.048	19774.3
833.374	19758.03
833.7	19553.51
834.026	19735.88
834.351	19733.85
834.677	19679.84
835.003	19652.94
835.329	19671.47
835.654	19582.89
835.98	19402.55
836.306	19445.94
836.631	19416.11
836.956	19451.82
837.282	19475.77
837.607	19320.75
837.932	19336.34
838.258	19374.53
838.583	19280.3
838.908	19236.23
839.233	19275.78
839.558	19252.5
839.883	19134.31
840.208	19062.68
840.533	19102.45
840.858	19072.85
841.182	19144.03
841.507	19081.89
841.832	18830.59
842.156	18919.63
842.481	18844.83
842.805	18829.24
843.13	18755.34
843.454	18756.24
843.778	18714.66
844.103	18621.11
844.427	18551.5
844.751	18592.18
845.075	18465.86
845.399	18582.69
845.723	18340.66
846.047	18414.33
846.371	18226.77
846.695	18238.52
847.019	18048.24
847.343	18028.35
847.666	17873.56
847.99	17848.7
848.313	17805.31
848.637	17661.81
848.96	17655.26
849.284	17707.01
849.607	17438.09
849.931	17491.64
850.254	17265.89
850.577	17269.28
850.9	17093.69
851.223	17170.3
851.546	17077.64
851.869	16934.82
852.192	17009.17
852.515	16720.59
852.838	16787.71
853.161	16825.45
853.483	16698.22
853.806	16640.14
854.129	16727.37
854.451	16518.11
854.774	16446.47
855.096	16412.58
855.419	16347.49
855.741	16278.8
856.063	16214.84
856.385	16174.84
856.708	16131.23
857.03	16085.58
857.352	16133.94
857.674	16012.59
857.996	15885.13
858.318	15803.78
858.64	15809.88
858.961	15830.45
859.283	15753.16
859.605	15697.34
859.926	15729.66
860.248	15668.64
860.57	15568.76
860.891	15600.85
861.212	15423.45
861.534	15451.25
861.855	15354.07
862.176	15386.62
862.498	15427.74
862.819	15370.12
863.14	15324.7
863.461	15259.84
863.782	15167.41
864.103	15201.08
864.424	15196.34
864.745	15213.51
865.065	15050.8
865.386	15057.58
865.707	14939.62
866.027	15118.83
866.348	15003.12
866.668	15001.77
866.989	15033.4
867.309	14893.29
867.63	14832.05
867.95	14922.67
868.27	14818.04
868.59	14840.41
868.91	14724.26
869.23	14851.49
869.55	14697.59
869.87	14832.96
870.19	14770.81
870.51	14745.73
870.83	14689.68
871.15	14560.87
871.469	14516.13
871.789	14654.21
872.109	14577.6
872.428	14422.8
872.748	14523.14
873.067	14481.33
873.386	14505.73
873.706	14502.12
874.025	14373.99
874.344	14378.05
874.663	14401.78
874.982	14292.18
875.301	14349.35
875.62	14182.13
875.939	14265.97
876.258	14303.03
876.577	14206.31
876.896	14177.61
877.214	14162.69
877.533	14147.78
877.852	14163.82
878.17	14150.94
878.489	14111.39
878.807	14089.93
879.125	14039.08
879.444	14085.86
879.762	13992.98
880.08	13994.79
880.398	13907.78
880.716	13880.67
881.034	13893.77
881.352	13816.49
881.67	13749.37
881.988	13819.42
882.306	13769.48
882.624	13697.85
882.941	13678.41
883.259	13640.22
883.577	13650.16
883.894	13533.56
884.212	13557.51
884.529	13468.02
884.846	13538.98
885.164	13497.63
885.481	13381.24
885.798	13475.25
886.115	13289.5
886.432	13364.07
886.75	13273.22
887.067	13279.33
887.383	13216.5
887.7	13226.67
888.017	13199.1
888.334	13136.96
888.651	13104.64
888.967	13181.48
889.284	13062.38
889.6	12993.23
889.917	12906
890.233	12827.36
890.55	12741.26
890.866	12845.21
891.182	12844.54
891.498	12791.2
891.815	12682.73
892.131	12626.91
892.447	12613.13
892.763	12573.81
893.079	12576.29
893.395	12530.87
893.71	12515.05
894.026	12513.47
894.342	12439.8
894.657	12370.42
894.973	12360.25
895.289	12359.12
895.604	12312.57
895.92	12220.37
896.235	12196.42
896.55	12170.88
896.865	12152.8
897.181	12147.6
897.496	12073.26
897.811	11940.38
898.126	11921.17
898.441	11877.1
898.756	11817.44
899.071	11814.28
899.386	11802.75
899.7	11705.13
900.015	11584
900.33	11514.85
900.644	11506.27
900.959	11584.91
901.273	11534.97
901.588	11448.41
901.902	11438.92
902.216	11362.77
902.531	11337.68
902.845	11241.19
903.159	11267.18
903.473	11172.49
903.787	11120.96
904.101	11109.44
904.415	11115.32
904.729	11049.33
905.042	11043
905.356	10937.69
905.67	10963.45
905.984	10930.69
906.297	10830.35
906.611	10798.71
906.924	10734.08
907.237	10746.96
907.551	10657.47
907.864	10686.85
908.177	10600.3
908.491	10606.4
908.804	10489.79
909.117	10407.99
909.43	10382.23
909.743	10349.01
910.056	10357.14
910.368	10328.67
910.681	10227.65
910.994	10253.87
911.307	10179.52
911.619	10121.22
911.932	10200.99
912.244	10079.41
912.557	10070.37
912.869	9934.1
913.181	10018.62
913.494	9885.74
913.806	9768.01
914.118	9849.13
914.43	9774.11
914.742	9723.94
915.054	9680.1
915.366	9602.59
915.678	9620.67
915.99	9559.88
916.302	9471.52
916.613	9396.26
916.925	9476.26
917.236	9405.3
917.548	9323.95
917.859	9427
918.171	9265.42
918.482	9285.53
918.794	9236.95
919.105	9197.4
919.416	9082.6
919.727	9099.32
920.038	9041.92
920.349	8967.35
920.66	8928.03
920.971	8936.84
921.282	8899.33
921.593	8832.66
921.903	8832.44
922.214	8795.15
922.525	8793.34
922.835	8705.89
923.146	8694.14
923.456	8624.31
923.767	8616.4
924.077	8531.65
924.387	8520.13
924.697	8491.66
925.008	8503.63
925.318	8415.73
925.628	8446.23
925.938	8336.86
926.248	8306.35
926.558	8260.02
926.867	8261.15
927.177	8142.29
927.487	8195.17
927.796	8012.8
928.106	8060.25
928.416	8054.6
928.725	8026.58
929.034	7949.07
929.344	7975.96
929.653	7960.6
929.962	7948.62
930.271	7767.61
930.581	7829.07
930.89	7815.74
931.199	7697.78
931.508	7735.52
931.817	7667.27
932.125	7712.47
932.434	7650.77
932.743	7551.12
933.051	7567.39
933.36	7500.49
933.669	7437.9
933.977	7437.67
934.286	7423.43
934.594	7419.37
934.902	7373.72
935.21	7322.42
935.519	7295.08
935.827	7306.6
936.135	7189.54
936.443	7161.07
936.751	7166.94
937.059	7133.95
937.367	7100.05
937.674	7090.11
937.982	7052.37
938.29	7004.24
938.597	6969.66
938.905	6870.23
939.213	6866.61
939.52	6817.12
939.827	6863.22
940.135	6788.42
940.442	6777.58
940.749	6776.9
941.056	6768.08
941.363	6639.05
941.67	6625.72
941.977	6597.69
942.284	6480.86
942.591	6542.55
942.898	6512.5
943.205	6524.93
943.511	6465.04
943.818	6500.3
944.125	6400.41
944.431	6405.38
944.738	6390.24
945.044	6351.6
945.35	6276.35
945.657	6248.1
945.963	6224.82
946.269	6177.37
946.575	6163.35
946.881	6152.28
947.187	6150.7
947.493	6050.14
947.799	6058.72
948.105	6031.38
948.41	6008.78
948.716	6018.95
949.022	5877.03
949.327	5880.2
949.633	5884.49
949.938	5829.8
950.244	5885.4
950.549	5775.34
950.854	5782.35
951.16	5751.84
951.465	5721.33
951.77	5698.51
952.075	5638.17
952.38	5691.95
952.685	5659.41
952.99	5627.55
953.294	5644.95
953.599	5556.82
953.904	5534.9
954.209	5580.77
954.513	5506.42
954.818	5462.58
955.122	5462.81
955.426	5421.45
955.731	5431.17
956.035	5369.25
956.339	5331.74
956.643	5361.12
956.948	5307.33
957.252	5302.36
957.556	5288.58
957.86	5270.27
958.163	5204.28
958.467	5243.15
958.771	5133.78
959.075	5169.26
959.378	5145.08
959.682	5116.6
959.985	5084.74
960.289	5080.67
960.592	5072.99
960.896	5002.48
961.199	4976.95
961.502	4952.77
961.805	4931.07
962.108	4881.81
962.411	4845.42
962.714	4876.84
963.017	4901.92
963.32	4865.99
963.623	4841.13
963.926	4802.71
964.228	4736.05
964.531	4775.14
964.833	4730.4
965.136	4672.77
965.438	4704.18
965.741	4662.83
966.043	4659.89
966.345	4620.57
966.648	4645.88
966.95	4596.84
967.252	4576.05
967.554	4594.81
967.856	4525.43
968.158	4481.37
968.46	4497.64
968.761	4507.81
969.063	4432.33
969.365	4421.71
969.666	4433.68
969.968	4357.3
970.269	4349.39
970.571	4351.88
970.872	4308.04
971.174	4302.84
971.475	4291.09
971.776	4234.59
972.077	4255.38
972.378	4228.94
972.679	4222.16
972.98	4212.9
973.281	4206.34
973.582	4160.7
973.883	4121.83
974.183	4097.65
974.484	4086.35
974.785	4114.6
975.085	4049.29
975.386	4057.42
975.686	4035.5
975.986	4011.77
976.287	4035.28
976.587	3956.18
976.887	3940.81
977.187	3918.22
977.487	3924.54
977.787	3892.91
978.087	3901.27
978.387	3855.62
978.687	3846.81
978.987	3853.81
979.286	3852.46
979.586	3784.89
979.885	3776.3
980.185	3755.96
980.484	3746.24
980.784	3694.27
981.083	3705.11
981.382	3690.43
981.682	3661.5
981.981	3670.54
982.28	3638.45
982.579	3577.43
982.878	3631.22
983.177	3598.45
983.475	3584.67
983.774	3534.05
984.073	3575.63
984.372	3503.31
984.67	3547.83
984.969	3513.48
985.267	3488.4
985.566	3496.53
985.864	3455.4
986.162	3411.11
986.461	3436.19
986.759	3411.79
987.057	3376.08
987.355	3309.19
987.653	3359.81
987.951	3344.9
988.249	3347.61
988.547	3301.51
988.844	3254.73
989.142	3338.34
989.44	3262.41
989.737	3221.51
990.035	3264.22
990.332	3201.4
990.63	3163.66
990.927	3180.61
991.224	3176.77
991.521	3183.55
991.819	3098.8
992.116	3121.17
992.413	3120.27
992.71	3080.72
993.006	3078.24
993.303	3071.91
993.6	3052.02
993.897	3033.72
994.193	3031.46
994.49	2995.75
994.787	2965.02
995.083	2956.43
995.379	2921.41
995.676	2958.92
995.972	2958.92
996.268	2918.69
996.565	2890.9
996.861	2878.7
997.157	2882.31
997.453	2827.62
997.749	2819.26
998.044	2773.39
998.34	2801.41
998.636	2783.33
998.932	2793.27
999.227	2728.19
999.523	2700.17
999.818	2731.35
1000.114	2737.46
1000.409	2666.5
1000.704	2671.02
1001	2674.63
1001.295	2660.85
1001.59	2695.2
1001.885	2650.23
1002.18	2623.11
1002.475	2575.65
1002.77	2575.43
1003.065	2569.33
1003.359	2576.56
1003.654	2577.01
1003.949	2517.12
1004.243	2513.28
1004.538	2473.28
1004.832	2463.79
1005.127	2496.56
1005.421	2471.93
1005.715	2436.22
1006.009	2430.35
1006.304	2422.66
1006.598	2383.12
1006.892	2377.24
1007.186	2368.65
1007.48	2381.08
1007.773	2325.72
1008.067	2304.47
1008.361	2306.51
1008.655	2303.57
1008.948	2318.03
1009.242	2276
1009.535	2284.36
1009.829	2232.84
1010.122	2204.59
1010.415	2196
1010.708	2229.67
1011.001	2179.73
1011.295	2174.53
1011.588	2170.47
1011.881	2162.78
1012.173	2118.04
1012.466	2133.18
1012.759	2093.18
1013.052	2108.32
1013.344	2113.29
1013.637	2054.54
1013.93	2085.72
1014.222	2101.77
1014.514	2051.15
1014.807	2005.5
1015.099	2001.88
1015.391	2019.06
1015.683	2008.89
1015.976	1978.15
1016.268	1976.8
1016.56	1944.93
1016.851	1917.14
1017.143	1899.74
1017.435	1915.56
1017.727	1898.16
1018.018	1872.17
1018.31	1891.38
1018.602	1887.54
1018.893	1857.93
1019.185	1873.52
1019.476	1827.2
1019.767	1831.94
1020.058	1776.58
1020.35	1785.39
1020.641	1786.52
1020.932	1744.04
1021.223	1781.55
1021.514	1755.56
1021.804	1724.38
1022.095	1724.6
1022.386	1708.33
1022.677	1717.37
1022.967	1682.57
1023.258	1661.55
1023.548	1678.5
1023.839	1671.95
1024.129	1643.02
1024.419	1617.26
1024.709	1636.47
1025	1607.54
1025.29	1609.35
1025.58	1588.56
1025.87	1584.49
1026.16	1563.25
1026.449	1559.63
1026.739	1509.92
1027.029	1544.72
1027.319	1534.55
1027.608	1479.18
1027.898	1495.46
1028.187	1478.73
1028.477	1491.16
1028.766	1469.69
1029.055	1454.78
1029.344	1448.22
1029.634	1458.85
1029.923	1431.5
1030.212	1414.55
1030.501	1407.1
1030.79	1376.59
1031.078	1389.24
1031.367	1375.23
1031.656	1359.87
1031.945	1367.32
1032.233	1379.07
1032.522	1332.07
1032.81	1342.46
1033.099	1342.01
1033.387	1304.5
1033.675	1323.71
1033.963	1313.99
1034.251	1280.55
1034.54	1265.86
1034.828	1278.06
1035.116	1234.9
1035.403	1232.64
1035.691	1249.36
1035.979	1236.7
1036.267	1234.67
1036.554	1202.58
1036.842	1193.09
1037.129	1205.29
1037.417	1209.13
1037.704	1192.64
1037.992	1180.66
1038.279	1181.34
1038.566	1194.9
1038.853	1194.9
1039.14	1194.9
