Data from White_paper_FLMS001491_059.txt Node
Date: Tue Feb 07 10:35:17 GMT 2017
User: dcchb
Spectrometer: FLMS00149
Trigger mode: 0
Integration Time (sec): 2.000000E-2
Scans to average: 10
Electric dark correction enabled: true
Nonlinearity correction enabled: false
Boxcar width: 0
XAxis mode: Wavelengths
Number of Pixels in Spectrum: 2048
>>>>>Begin Spectral Data<<<<<
341.393	-26.28
341.776	-26.28
342.16	-26.28
342.543	-51.59
342.927	-80.97
343.31	-59.5
343.693	-72.39
344.077	-63.57
344.46	-66.06
344.843	-46.62
345.226	-60.86
345.61	-21.76
345.993	-4.36
346.376	7.61
346.759	13.04
347.142	30.21
347.525	30.44
347.908	40.61
348.291	75.41
348.674	94.84
349.057	102.98
349.44	120.6
349.823	135.29
350.206	175.29
350.588	213.71
350.971	250.54
351.354	268.4
351.737	262.07
352.119	264.1
352.502	296.42
352.884	310.43
353.267	311.11
353.65	318.34
354.032	331.45
354.414	342.52
354.797	332.58
355.179	343.2
355.562	336.64
355.944	367.83
356.326	361.73
356.709	357.66
357.091	366.93
357.473	376.19
357.855	376.19
358.238	362.86
358.62	393.37
359.002	366.7
359.384	382.07
359.766	374.38
360.148	368.51
360.53	383.87
360.912	378
361.294	359.47
361.676	373.93
362.057	356.98
362.439	372.35
362.821	369.19
363.203	373.7
363.584	363.08
363.966	371.67
364.348	361.28
364.729	352.69
365.111	345.68
365.493	366.7
365.874	342.29
366.256	359.02
366.637	359.47
367.019	351.33
367.4	368.51
367.781	364.21
368.163	365.8
368.544	357.66
368.925	379.81
369.306	357.66
369.688	350.88
370.069	363.08
370.45	367.83
370.831	370.99
371.212	364.67
371.593	375.74
371.974	387.72
372.355	361.5
372.736	371.9
373.117	374.83
373.498	369.19
373.879	363.54
374.26	360.37
374.641	374.16
375.021	381.61
375.402	395.17
375.783	401.05
376.163	374.61
376.544	369.86
376.925	390.65
377.305	374.61
377.686	417.77
378.066	417.77
378.447	400.6
378.827	403.08
379.208	403.53
379.588	405.79
379.968	396.3
380.349	406.47
380.729	425.45
381.109	422.07
381.489	408.05
381.87	442.18
382.25	408.96
382.63	419.13
383.01	439.01
383.39	439.01
383.77	443.53
384.15	432.91
384.53	437.43
384.91	429.07
385.29	439.47
385.67	469.3
386.049	465.23
386.429	438.56
386.809	452.8
387.189	451.44
387.568	471.33
387.948	454.61
388.328	477.88
388.707	481.27
389.087	498
389.466	482.85
389.846	489.41
390.225	477.88
390.605	497.77
390.984	520.14
391.363	505.9
391.743	516.07
392.122	529.41
392.501	531.89
392.881	522.85
393.26	538.45
393.639	559.46
394.018	532.34
394.397	530.76
394.776	552.01
395.155	543.19
395.534	538.22
395.913	564.89
396.292	556.07
396.671	591.55
397.05	587.71
397.429	593.59
397.808	607.6
398.186	611.21
398.565	617.77
398.944	613.02
399.323	609.4
399.701	627.03
400.08	639.91
400.458	658.44
400.837	652.57
401.215	644.66
401.594	655.51
401.972	671.78
402.351	700.7
402.729	685.34
403.107	721.27
403.486	737.31
403.864	727.59
404.242	727.59
404.62	777.31
404.999	747.71
405.377	759.23
405.755	792.9
406.133	799.46
406.511	836.29
406.889	852.79
407.267	868.38
407.645	874.26
408.023	905.67
408.401	924.65
408.779	940.02
409.156	985.67
409.534	965.78
409.912	1000.58
410.29	1045.78
410.667	1068.15
411.045	1084.87
411.422	1106.34
411.8	1117.87
412.178	1150.63
412.555	1186.56
412.933	1235.15
413.31	1250.97
413.687	1302.27
414.065	1339.1
414.442	1321.93
414.819	1379.78
415.197	1394.69
415.574	1428.59
415.951	1436.5
416.328	1446.9
416.705	1504.07
417.082	1517.18
417.46	1551.75
417.837	1591.53
418.214	1585.65
418.591	1646.67
418.967	1659.09
419.344	1696.16
419.721	1710.39
420.098	1735.25
420.475	1752.65
420.852	1791.07
421.228	1836.27
421.605	1843.27
421.982	1854.12
422.358	1888.02
422.735	1890.28
423.111	1920.33
423.488	1975.24
423.864	2001.91
424.241	2037.84
424.617	2068.12
424.994	2068.35
425.37	2090.72
425.746	2124.39
426.123	2161.68
426.499	2138.63
426.875	2184.96
427.251	2254.79
427.627	2285.97
428.003	2301.11
428.379	2354.67
428.756	2382.47
429.132	2424.27
429.507	2431.5
429.883	2485.74
430.259	2529.13
430.635	2552.63
431.011	2587.21
431.387	2697.26
431.763	2701.1
432.138	2725.06
432.514	2753.53
432.89	2789.01
433.265	2828.1
433.641	2877.82
434.016	2897.03
434.392	2944.03
434.767	3024.26
435.143	3003.01
435.518	3102.9
435.894	3108.32
436.269	3158.04
436.644	3247.98
437.02	3254.99
437.395	3251.82
437.77	3334.76
438.145	3342.67
438.52	3386.28
438.895	3430.57
439.271	3433.96
439.646	3483.45
440.021	3528.42
440.395	3542.66
440.77	3535.66
441.145	3599.38
441.52	3643
441.895	3647.97
442.27	3694.52
442.645	3693.84
443.019	3703.56
443.394	3725.48
443.769	3798.7
444.143	3788.98
444.518	3865.82
444.892	3851.35
445.267	3852.94
445.641	3900.39
446.016	3953.5
446.39	3953.05
446.764	4016.09
447.139	3966.6
447.513	4014.51
447.887	4016.77
448.262	4084.79
448.636	4053.16
449.01	4134.96
449.384	4143.78
449.758	4204.34
450.132	4230.78
450.506	4261.06
450.88	4378.12
451.254	4271.23
451.628	4388.97
452.002	4431.68
452.376	4379.7
452.75	4524.56
453.123	4499.7
453.497	4624.44
453.871	4662.41
454.244	4733.59
454.618	4769.52
454.992	4809.52
455.365	4837.09
455.739	4978.1
456.112	4990.53
456.486	5054.26
456.859	5055.16
457.232	5147.82
457.606	5173.13
457.979	5257.19
458.352	5318.43
458.725	5338.09
459.099	5440.24
459.472	5531.54
459.845	5638.88
460.218	5671.19
460.591	5659.67
460.964	5722.94
461.337	5838.42
461.71	6010.62
462.083	6021.24
462.456	6020.11
462.829	6038.87
463.201	6190.05
463.574	6199.31
463.947	6328.8
464.32	6449.93
464.692	6443.6
465.065	6524.96
465.438	6637.72
465.81	6737.15
466.183	6757.94
466.555	6971.95
466.928	7004.72
467.3	6968.11
467.672	7152.74
468.045	7366.06
468.417	7312.05
468.789	7436.12
469.161	7529.45
469.534	7655.55
469.906	7810.35
470.278	7832.72
470.65	7989.1
471.022	8061.64
471.394	8155.65
471.766	8277.23
472.138	8357.22
472.51	8557.67
472.882	8670.44
473.253	8751.56
473.625	8887.38
473.997	9107.03
474.369	9209.18
474.74	9283.3
475.112	9425.9
475.484	9643.29
475.855	9721.03
476.227	9833.8
476.598	10111.98
476.97	10205.54
477.341	10434.91
477.713	10558.07
478.084	10604.62
478.455	11010.94
478.827	10963.03
479.198	11363.47
479.569	11328.9
479.94	11620.41
480.311	11825.83
480.682	12012.72
481.053	12253.39
481.424	12468.75
481.795	12570.9
482.166	12809.76
482.537	13003.43
482.908	13185.8
483.279	13361.39
483.65	13574.71
484.021	13835.5
484.391	14026.23
484.762	14097.41
485.133	14228.93
485.503	14483.84
485.874	14736.49
486.244	14850.84
486.615	15197.72
486.985	15346.19
487.356	15599.75
487.726	15720.65
488.097	16044.71
488.467	16103.69
488.837	16404.7
489.207	16653.05
489.578	16827.06
489.948	17051.46
490.318	17214.62
490.688	17247.16
491.058	17547.49
491.428	17867.48
491.798	17954.94
492.168	18268.38
492.538	18405.1
492.908	18615.03
493.278	18822.94
493.648	18871.3
494.017	19018.86
494.387	19342.47
494.757	19429.93
495.126	19609.13
495.496	19700.43
495.866	19799.41
496.235	20111.49
496.605	20165.5
496.974	20294.99
497.344	20437.13
497.713	20672.38
498.082	20732.27
498.452	21003.67
498.821	21111.69
499.19	21153.72
499.559	21387.84
499.928	21497.44
500.298	21715.29
500.667	21861.95
501.036	21729.08
501.405	22062.4
501.774	22086.13
502.143	22292.22
502.512	22400.7
502.88	22649.5
503.249	22696.06
503.618	22864.64
503.987	22933.56
504.356	23084.52
504.724	23209.04
505.093	23277.96
505.462	23422.59
505.83	23658.52
506.199	23850.15
506.567	24147.09
506.936	24064.16
507.304	24371.72
507.672	24441.55
508.041	24592.28
508.409	24832.72
508.777	24935.09
509.145	25126.5
509.514	25087.86
509.882	25357.68
510.25	25348.19
510.618	25670.67
510.986	25714.51
511.354	26030.43
511.722	26147.49
512.09	26498.67
512.458	26267.26
512.826	26622.28
513.193	26726.23
513.561	26804.87
513.929	27128.71
514.297	27288.48
514.664	27553.78
515.032	27699.99
515.4	27887.78
515.767	27963.49
516.135	28134.78
516.502	28033.77
516.869	28621.78
517.237	28709.46
517.604	28595.34
517.972	28917.81
518.339	29054.08
518.706	29114.64
519.073	29334.3
519.44	29471.7
519.808	29928.86
520.175	29855.64
520.542	30212.24
520.909	30480.48
521.276	30519.8
521.643	30866.01
522.009	31010.64
522.376	31191.2
522.743	31403.62
523.11	31593.9
523.477	32002.48
523.843	32084.51
524.21	32321.57
524.577	32690.37
524.943	32770.14
525.31	32920.65
525.676	33242.45
526.043	33360.63
526.409	33509.1
526.776	33880.85
527.142	33979.15
527.508	34150.22
527.874	34407.61
528.241	34549.53
528.607	34763.31
528.973	35039.46
529.339	35162.39
529.705	35386.12
530.071	35650.29
530.437	35763.96
530.803	35920.34
531.169	36304.06
531.535	36376.15
531.901	36350.16
532.267	36694.78
532.632	36753.54
532.998	37036.47
533.364	37137.03
533.73	37293.41
534.095	37589.9
534.461	37691.82
534.826	37895.88
535.192	37996.67
535.557	38338.36
535.923	38271.47
536.288	38398.69
536.653	38600.95
537.019	38553.72
537.384	38802.75
537.749	39106.47
538.114	39056.08
538.479	39259.69
538.845	39388.5
539.21	39400.02
539.575	39536.97
539.94	39689.51
540.305	40076.16
540.67	39832.78
541.034	40171.08
541.399	40318.87
541.764	40402.48
542.129	40600.9
542.494	40834.56
542.858	40850.15
543.223	41006.99
543.587	41230.48
543.952	41071.62
544.316	41314.1
544.681	41303.02
545.045	41678.38
545.41	41767.19
545.774	41864.59
546.138	41905.72
546.503	42013.51
546.867	42112.49
547.231	42520.17
547.595	42524.01
547.959	42645.81
548.324	42765.58
548.688	42744.57
549.052	43043.77
549.416	43016.88
549.779	43147.27
550.143	43128.96
550.507	43575.51
550.871	43688.27
551.235	43549.07
551.599	43923.07
551.962	44129.62
552.326	44331.87
552.689	44473.79
553.053	44331.87
553.417	44408.71
553.78	44979.54
554.143	44794.01
554.507	45050.72
554.87	45164.84
555.234	45420.2
555.597	45427.89
555.96	45536.59
556.323	45696.58
556.686	45637.37
557.05	45931.38
557.413	46125.04
557.776	46170.69
558.139	46523
558.502	46466.28
558.865	46546.28
559.228	46860.17
559.59	46959.37
559.953	46960.95
560.316	47368.4
560.679	47489.3
561.041	47685.46
561.404	47933.81
561.767	48065.33
562.129	48072.79
562.492	48432.1
562.854	48402.5
563.217	48394.59
563.579	48582.15
563.941	48889.94
564.304	48964.07
564.666	49178.75
565.028	49197.73
565.39	49381.91
565.753	49639.98
566.115	49702.35
566.477	49858.28
566.839	49955.9
567.201	50235.67
567.563	50320.19
567.925	50432.5
568.287	50570.35
568.648	50587.53
569.01	50844.47
569.372	50990.45
569.734	50841.53
570.095	51160.84
570.457	51299.82
570.819	51379.6
571.18	51455.07
571.542	51569.87
571.903	51684.45
572.265	51839.7
572.626	51893.48
572.987	51977.55
573.349	52097.54
573.71	52170.31
574.071	52289.63
574.432	52403.75
574.794	52595.38
575.155	52543.41
575.516	52547.47
575.877	52651.65
576.238	52818.88
576.599	52940.91
576.96	52924.64
577.32	52911.08
577.681	53208.25
578.042	53261.58
578.403	53132.54
578.763	53203.05
579.124	53271.07
579.485	53487.79
579.845	53588.58
580.206	53479.43
580.566	53485.75
580.927	53529.82
581.287	53718.74
581.648	53565.53
582.008	53796.03
582.368	53643.72
582.728	53761.23
583.089	53800.55
583.449	53861.34
583.809	53911.73
584.169	53897.72
584.529	53881
584.889	54185.85
585.249	53881.68
585.609	53832.19
585.969	54066.76
586.329	54033.99
586.688	54057.72
587.048	53957.15
587.408	54110.82
587.768	54047.1
588.127	54011.39
588.487	54071.28
588.846	54252.29
589.206	54109.69
589.565	54111.05
589.925	54325.05
590.284	54222.91
590.643	54264.94
591.003	54278.05
591.362	54410.7
591.721	54343.13
592.08	54295.22
592.44	54333.42
592.799	54431.49
593.158	54412.06
593.517	54401.44
593.876	54490.25
594.235	54445.73
594.593	54428.55
594.952	54522.79
595.311	54453.41
595.67	54555.78
596.029	54738.15
596.387	54775.89
596.746	54730.92
597.104	54692.73
597.463	54611.6
597.822	54763.46
598.18	54657.48
598.538	54691.37
598.897	54836.68
599.255	54662.45
599.613	55018.82
599.972	54894.08
600.33	54933.85
600.688	54883.46
601.046	54871.25
601.404	55097.69
601.762	54906.73
602.12	55090.91
602.478	55112.38
602.836	55061.31
603.194	54954.19
603.552	55091.81
603.91	54959.84
604.268	55132.49
604.625	55028.54
604.983	55157.8
605.341	55062.89
605.698	55155.77
606.056	55171.59
606.413	55160.96
606.771	55265.59
607.128	55308.08
607.485	55225.14
607.843	55294.07
608.2	55393.73
608.557	55452.93
608.914	55356.67
609.272	55433.95
609.629	55453.84
609.986	55563.89
610.343	55435.76
610.7	55647.96
611.057	55606.6
611.414	55604.34
611.771	55661.74
612.127	55772.93
612.484	55710.33
612.841	55831.46
613.198	55656.09
613.554	55693.83
613.911	55831.68
614.267	55812.02
614.624	55821.96
614.98	55818.35
615.337	56016.31
615.693	55962.07
616.05	55935.18
616.406	56068.74
616.762	55959.14
617.118	55920.94
617.475	55942.19
617.831	56063.09
618.187	55979.25
618.543	56028.74
618.899	56220.82
619.255	56157.77
619.611	56166.59
619.967	56242.29
620.323	56249.3
620.678	56172.01
621.034	56111.45
621.39	56110.54
621.746	56120.04
622.101	56399.12
622.457	56134.05
622.812	56225.8
623.168	56283.87
623.523	56241.84
623.879	56308.51
624.234	56155.51
624.589	56314.83
624.945	56302.18
625.3	56266.25
625.655	56301.5
626.01	56302.86
626.365	56333.82
626.72	56288.39
627.075	56326.36
627.43	56244.1
627.785	56162.52
628.14	56264.21
628.495	56329.07
628.85	56290.43
629.205	56202.52
629.559	56308.28
629.914	56224.89
630.269	56257.66
630.623	56229.64
630.978	56116.65
631.332	56265.57
631.687	56339.92
632.041	56279.81
632.396	56240.26
632.75	56149.64
633.104	56183.54
633.459	56092.92
633.813	56084.33
634.167	56040.49
634.521	56030.77
634.875	56144.22
635.229	55993.49
635.583	55941.06
635.937	55856.09
636.291	55989.19
636.645	55938.57
636.999	55885.47
637.352	55973.37
637.706	55751.01
638.06	55929.08
638.413	55923.66
638.767	55809.99
639.121	55895.41
639.474	55724.79
639.828	55802.53
640.181	55810.21
640.534	55833.26
640.888	55662.42
641.241	55610.9
641.594	55703.78
641.947	55728.63
642.301	55677.11
642.654	55711.91
643.007	55663.32
643.36	55666.71
643.713	55568.19
644.066	55762.53
644.419	55559.6
644.771	55341.98
645.124	55075.77
645.477	55013.4
645.83	54934.98
646.182	54797.36
646.535	54700.41
646.888	54786.74
647.24	54703.8
647.593	54829.67
647.945	54750.13
648.298	54704.71
648.65	54617.48
649.002	54501.32
649.355	54666.06
649.707	54671.49
650.059	54839.62
650.411	55068.09
650.763	55175.88
651.115	55406.61
651.467	55304.92
651.819	55317.8
652.171	55268.76
652.523	55163.22
652.875	55169.55
653.227	55061.08
653.578	55259.95
653.93	55218.59
654.282	55160.51
654.633	55002.55
654.985	55031.48
655.337	55092.94
655.688	55074.87
656.039	55234.41
656.391	54882.1
656.742	54941.31
657.094	55028.09
657.445	55056.56
657.796	54950.8
658.147	54982.89
658.498	54955.09
658.849	54996
659.2	54965.04
659.551	54879.62
659.902	55036.45
660.253	54939.5
660.604	54979.05
660.955	54769.11
661.306	54880.97
661.656	54811.14
662.007	54815.89
662.358	54808.88
662.708	54880.52
663.059	54821.09
663.409	54640.07
663.76	54890.46
664.11	54853.63
664.461	54796.68
664.811	54829.67
665.161	54816.79
665.511	54692.5
665.862	54715.55
666.212	54753.29
666.562	54801.43
666.912	54664.25
667.262	54699.28
667.612	54694.08
667.962	54768.66
668.312	54652.73
668.662	54696.8
669.011	54670.58
669.361	54582.9
669.711	54500.19
670.06	54562.56
670.41	54528.21
670.76	54487.08
671.109	54583.35
671.459	54490.47
671.808	54451.6
672.157	54484.82
672.507	54313.08
672.856	54396.24
673.205	54332.96
673.554	54383.58
673.904	54271.95
674.253	54421.32
674.602	54368.67
674.951	53905.4
675.3	53749.02
675.649	54226.07
675.998	54127.55
676.346	54160.54
676.695	54307.88
677.044	53978.17
677.393	54059.3
677.741	54157.38
678.09	54036.25
678.438	53861.79
678.787	54020.88
679.135	53963.71
679.484	53768.91
679.832	53914.22
680.181	53664.06
680.529	53698.4
680.877	53659.31
681.225	53617.73
681.573	53839.64
681.922	53559.65
682.27	53460.9
682.618	53483.49
682.966	53364.85
683.314	53435.81
683.661	53382.03
684.009	53241.92
684.357	53098.42
684.705	53077.4
685.053	53121.47
685.4	53062.71
685.748	52912.89
686.095	52854.81
686.443	52814.13
686.79	52715.38
687.138	52733.91
687.485	52660.47
687.832	52599.9
688.18	52614.37
688.527	52407.82
688.874	52481.71
689.221	52325.33
689.568	52236.3
689.915	52137.54
690.262	52025.45
690.609	52033.14
690.956	51914.04
691.303	51933.93
691.65	51825.69
691.997	51783.43
692.344	51558.57
692.69	51486.03
693.037	51499.82
693.383	51294.63
693.73	51388.18
694.077	51137.34
694.423	51179.37
694.769	51027.74
695.116	50912.26
695.462	50907.97
695.808	50716.34
696.155	50817.35
696.501	50576.68
696.847	50539.17
697.193	50363.8
697.539	50438.83
697.885	50203.81
698.231	50105.28
698.577	49919.07
698.923	50005.39
699.269	49802.24
699.614	49743.48
699.96	49530.38
700.306	49612.64
700.651	49526.76
700.997	49346.2
701.342	49233.89
701.688	49241.8
702.033	49058.75
702.379	49023.27
702.724	48961.13
703.069	49000.67
703.415	48527.24
703.76	48617.63
704.105	48630.29
704.45	48473.01
704.795	48281.15
705.14	48121.83
705.485	48148.04
705.83	47957.76
706.175	48092.45
706.52	47945.56
706.865	47802.51
707.209	47828.28
707.554	47540.6
707.899	47794.83
708.243	47395.29
708.588	47388.97
708.932	47223.77
709.277	47171.57
709.621	47201.17
709.966	46937.23
710.31	47093.15
710.654	46790.56
710.998	46786.5
711.342	46774.07
711.687	46667.18
712.031	46503.34
712.375	46293.85
712.719	46309.9
713.063	46387.64
713.407	46410.46
713.75	46063.58
714.094	46188.32
714.438	45939.96
714.782	46080.07
715.125	45755.79
715.469	45942.9
715.812	45578.17
716.156	45363.26
716.499	45586.98
716.843	45499.98
717.186	45123.71
717.53	45612.97
717.873	45397.15
718.216	45206.42
718.559	45101.57
718.902	44841.46
719.246	44944.06
719.589	44852.99
719.932	44635.59
720.275	44664.97
720.617	44654.35
720.96	44465.88
721.303	44493.9
721.646	44491.64
721.989	44327.13
722.331	44504.07
722.674	44214.13
723.016	44270.4
723.359	44199.45
723.701	44185.43
724.044	43986.12
724.386	43723.3
724.729	44025.21
725.071	43701.38
725.413	43700.48
725.755	43669.52
726.097	43461.39
726.439	43314.04
726.782	43342.97
727.124	43670.42
727.465	43346.59
727.807	43312.24
728.149	43070.89
728.491	43075.86
728.833	43105.24
729.175	43094.62
729.516	42950.44
729.858	42773.95
730.199	42945.92
730.541	42824.11
730.882	42740.27
731.224	42764.91
731.565	42562.65
731.906	42586.38
732.248	42623.89
732.589	42476.78
732.93	42241.08
733.271	42286.5
733.612	42337.12
733.953	42370.11
734.294	42205.37
734.635	42154.3
734.976	42260.29
735.317	41882.44
735.658	41874.53
735.999	41886.51
736.339	41883.35
736.68	41963.12
737.021	41783.69
737.361	41557.93
737.702	41899.17
738.042	41614.65
738.383	41571.72
738.723	41636.8
739.063	41502.11
739.404	41446.98
739.744	41480.19
740.084	41154.78
740.424	41311.61
740.764	41150.94
741.104	41355.45
741.444	41062.35
741.784	41102.58
742.124	40979.19
742.464	41006.08
742.804	41054.22
743.143	40794.56
743.483	40715.47
743.823	40612.87
744.162	40491.75
744.502	40664.17
744.841	40522.48
745.181	40652.42
745.52	40532.42
745.86	40481.58
746.199	40251.98
746.538	40303.73
746.877	40336.27
747.216	40304.41
747.556	40130.4
747.895	40127.24
748.234	40041.81
748.573	39927.24
748.911	39871.42
749.25	39854.02
749.589	39590.3
749.928	39823.52
750.267	39822.39
750.605	39569.96
750.944	39470.3
751.283	39532.9
751.621	39548.04
751.96	39172.23
752.298	39212.68
752.636	39141.5
752.975	39076.42
753.313	38866.25
753.651	39084.78
753.989	38841.62
754.327	38754.16
754.666	38738.57
755.004	38564.79
755.342	38663.77
755.679	38419.03
756.017	38443.66
756.355	38554.17
756.693	38293.61
757.031	38303.1
757.368	37950.8
757.706	37997.35
758.044	37833.28
758.381	38007.97
758.719	37706.06
759.056	37675.32
759.394	37591.71
759.731	37354.43
760.068	37309.68
760.405	37236.69
760.743	37094.55
761.08	37258.16
761.417	36935.46
761.754	36841.67
762.091	36862.01
762.428	36683.26
762.765	36584.05
763.102	36579.08
763.438	36288.92
763.775	36191.52
764.112	36238.07
764.449	36204.85
764.785	36148.36
765.122	35841.25
765.458	35644.19
765.795	35702.95
766.131	35611.2
766.467	35554.25
766.804	35262.05
767.14	35235.39
767.476	35167.14
767.812	35111.32
768.148	35064.09
768.485	34772.57
768.821	34573.48
769.157	34511.11
769.492	34535.52
769.828	34385.24
770.164	34111.35
770.5	34224.79
770.836	34056.89
771.171	33782.54
771.507	33825.03
771.842	33554.98
772.178	33580.52
772.513	33408.99
772.849	33506.84
773.184	33239.28
773.519	33239.51
773.855	33028.44
774.19	32923.36
774.525	32801.33
774.86	32771.05
775.195	32719.07
775.53	32515.46
775.865	32323.37
776.2	32170.61
776.535	31880.67
776.87	31891.97
777.205	31934
777.539	31756.83
777.874	31772.2
778.209	31463.06
778.543	31467.58
778.878	31264.19
779.212	31189.62
779.547	30936.74
779.881	31140.81
780.215	30827.59
780.55	30822.85
780.884	30692.23
781.218	30666.24
781.552	30569.3
781.886	30489.98
782.22	30357.55
782.554	30185.58
782.888	29894.28
783.222	29769.99
783.556	29649.77
783.889	29659.71
784.223	29473.96
784.557	29463.11
784.89	29451.13
785.224	29239.61
785.557	29021.77
785.891	29084.14
786.224	29064.25
786.558	28982.9
786.891	28660.42
787.224	28584.71
787.557	28375.91
787.891	28472.63
788.224	28426.75
788.557	28401.67
788.89	28255.68
789.223	28251.84
789.556	27905.86
789.888	27947.44
790.221	27706.09
790.554	27677.17
790.887	27571.63
791.219	27468.81
791.552	27448.47
791.884	27258.65
792.217	27276.5
792.549	27152.66
792.882	26813.24
793.214	26923.74
793.546	26888.94
793.879	26788.6
794.211	26550.19
794.543	26563.07
794.875	26512.45
795.207	26566.46
795.539	26410.99
795.871	26411.66
796.203	26114.27
796.535	25981.39
796.867	26044.67
797.198	25870.66
797.53	25815.3
797.862	25688.07
798.193	25700.95
798.525	25566.04
798.856	25683.1
799.188	25256.21
799.519	25287.4
799.85	25104.35
800.182	25240.85
800.513	25081.76
800.844	24872.04
801.175	25125.14
801.506	24943.45
801.837	24804.93
802.168	24707.3
802.499	24680.64
802.83	24633.86
803.161	24576.68
803.491	24401.55
803.822	24563.8
804.153	24269.8
804.483	24214.66
804.814	24017.38
805.145	24053.76
805.475	23983.03
805.805	23798.63
806.136	23905.97
806.466	23884.27
806.796	23775.12
807.126	23611.06
807.457	23612.19
807.787	23665.07
808.117	23414.23
808.447	23355.93
808.777	23473.89
809.107	23331.29
809.436	23197.06
809.766	23276.15
810.096	23058.31
810.426	22987.12
810.755	23111.19
811.085	22969.04
811.414	22874.58
811.744	22699.9
812.073	22678.43
812.403	22694.7
812.732	22558.88
813.061	22498.55
813.39	22413.13
813.719	22428.72
814.049	22475.95
814.378	22297.2
814.707	22216.52
815.036	22091.55
815.365	22063.53
815.693	21939.01
816.022	21943.53
816.351	21905.79
816.68	21767.49
817.008	21746.7
817.337	21603.66
817.665	21587.61
817.994	21584.67
818.322	21607.5
818.651	21495.64
818.979	21447.28
819.307	21597.78
819.636	21452.7
819.964	21234.85
820.292	21409.31
820.62	21284.12
820.948	21241.63
821.276	21356.88
821.604	21262.65
821.932	21228.75
822.259	21338.58
822.587	21200.95
822.915	21274.17
823.243	21183.55
823.57	21077.57
823.898	21188.07
824.225	21112.59
824.553	21087.74
824.88	21125.48
825.207	21125.25
825.535	21189.88
825.862	21282.08
826.189	21025.14
826.516	21215.19
826.843	21200.05
827.17	21097.91
827.497	21085.25
827.824	21160.28
828.151	21220.84
828.478	21111.01
828.805	21235.53
829.131	21067.85
829.458	21000.06
829.785	21006.83
830.111	20968.87
830.438	21115.08
830.764	21088.87
831.09	21029.88
831.417	21006.16
831.743	21149.2
832.069	20957.57
832.395	20899.94
832.722	20949.66
833.048	20974.29
833.374	20910.11
833.7	20835.77
834.026	20823.34
834.351	20848.42
834.677	20925.93
835.003	20973.16
835.329	20833.51
835.654	20758.93
835.98	20671.93
836.306	20709.44
836.631	20792.15
836.956	20840.29
837.282	20720.06
837.607	20498.83
837.932	20511.93
838.258	20527.53
838.583	20493.63
838.908	20308.1
839.233	20421.31
839.558	20398.72
839.883	20389.45
840.208	20283.92
840.533	20269.68
840.858	20226.06
841.182	20204.37
841.507	20250.24
841.832	20128.67
842.156	20149.91
842.481	20015.9
842.805	20058.61
843.13	19979.07
843.454	19942
843.778	19777.94
844.103	19811.39
844.427	19636.48
844.751	19737.94
845.075	19650.03
845.399	19643.93
845.723	19559.64
846.047	19524.16
846.371	19333.88
846.695	19343.38
847.019	19130.05
847.343	19071.29
847.666	18908.36
847.99	18940
848.313	18839.89
848.637	18704.3
848.96	18743.84
849.284	18676.95
849.607	18598.31
849.931	18491.42
850.254	18527.58
850.577	18334.36
850.9	18197.19
851.223	18227.92
851.546	18139.34
851.869	18008.95
852.192	17988.83
852.515	17839.01
852.838	17794.26
853.161	17712.46
853.483	17696.87
853.806	17640.14
854.129	17719.01
854.451	17559.47
854.774	17496.87
855.096	17533.93
855.419	17302.3
855.741	17362.18
856.063	17285.12
856.385	17188.63
856.708	17117.67
857.03	17063.89
857.352	17100.04
857.674	16941.63
857.996	16938.47
858.318	16914.06
858.64	16894.85
858.961	16760.62
859.283	16712.48
859.605	16633.62
859.926	16715.2
860.248	16678.81
860.57	16630
860.891	16532.15
861.212	16490.34
861.534	16493.73
861.855	16445.82
862.176	16336.67
862.498	16355.43
862.819	16407.41
863.14	16253.06
863.461	16190.24
863.782	16189.11
864.103	16172.16
864.424	16141.2
864.745	16106.62
865.065	16032.05
865.386	16080.41
865.707	16025.72
866.027	15995.89
866.348	15998.83
866.668	15904.37
866.989	15868.44
867.309	15794.77
867.63	15836.12
867.95	15794.99
868.27	15725.84
868.59	15751.83
868.91	15682
869.23	15686.07
869.55	15639.07
869.87	15779.18
870.19	15693.3
870.51	15703.92
870.83	15619.63
871.15	15477.26
871.469	15546.19
871.789	15520.43
872.109	15468.68
872.428	15463.03
872.748	15490.37
873.067	15450.6
873.386	15397.04
873.706	15463.93
874.025	15319.98
874.344	15301.67
874.663	15282.47
874.982	15153.88
875.301	15283.14
875.62	15106.88
875.939	15191.62
876.258	15098.06
876.577	15094.22
876.896	15042.92
877.214	15028.91
877.533	15012.87
877.852	14982.81
878.17	14935.81
878.489	15026.2
878.807	14908.46
879.125	14984.17
879.444	14873.89
879.762	14839.31
880.08	14869.82
880.398	14765.87
880.716	14761.12
881.034	14675.93
881.352	14807.45
881.67	14629.15
881.988	14702.82
882.306	14559.32
882.624	14504.86
882.941	14510.73
883.259	14456.95
883.577	14441.81
883.894	14386.67
884.212	14405.2
884.529	14340.57
884.846	14350.96
885.164	14329.27
885.481	14287.92
885.798	14273.9
886.115	14148.03
886.432	14187.8
886.75	14162.95
887.067	14123.63
887.383	13955.49
887.7	14050.41
888.017	13914.82
888.334	13983.52
888.651	13884.54
888.967	13913.24
889.284	13832.56
889.6	13828.49
889.917	13656.29
890.233	13762.28
890.55	13648.38
890.866	13686.8
891.182	13590.08
891.498	13546.01
891.815	13470.08
892.131	13440.25
892.447	13368.17
892.763	13414.72
893.079	13369.3
893.395	13312.57
893.71	13297.66
894.026	13196.64
894.342	13223.31
894.657	13067.83
894.973	13051.56
895.289	13071.9
895.604	13043.43
895.92	13017.44
896.235	12894.28
896.55	12894.28
896.865	12876.88
897.181	12812.25
897.496	12851.12
897.811	12748.97
898.126	12633.95
898.441	12694.74
898.756	12564.57
899.071	12567.28
899.386	12540.16
899.7	12418.59
900.015	12423.33
900.33	12316.67
900.644	12352.37
900.959	12297.69
901.273	12328.19
901.588	12139.72
901.902	12078.03
902.216	12083
902.531	12007.07
902.845	11944.47
903.159	11910.8
903.473	11843.46
903.787	11799.62
904.101	11779.51
904.415	11728.43
904.729	11659.51
905.042	11660.64
905.356	11642.79
905.67	11539.29
905.984	11516.01
906.297	11516.69
906.611	11419.06
906.924	11411.15
907.237	11392.17
907.551	11321.67
907.864	11237.83
908.177	11185.62
908.491	11215
908.804	11128
909.117	11083.93
909.43	11022.92
909.743	11014.78
910.056	10983.82
910.368	10917.38
910.681	10828.12
910.994	10826.31
911.307	10839.42
911.619	10695.92
911.932	10729.82
912.244	10580.89
912.557	10626.32
912.869	10552.19
913.181	10399.88
913.494	10401.69
913.806	10397.17
914.118	10382.03
914.43	10274.46
914.742	10223.39
915.054	10214.58
915.366	10165.76
915.678	10163.96
915.99	10072.66
916.302	9983.17
916.613	10048.03
916.925	10033.11
917.236	9968.48
917.548	9918.54
917.859	9918.76
918.171	9772.78
918.482	9755.61
918.794	9729.84
919.105	9714.7
919.416	9594.48
919.727	9684.87
920.038	9626.79
920.349	9490.53
920.66	9439.46
920.971	9526.91
921.282	9432.9
921.593	9357.42
921.903	9284.66
922.214	9243.08
922.525	9191.55
922.835	9194.49
923.146	9181.38
923.456	9130.54
923.767	9057.32
924.077	9050.09
924.387	9035.62
924.697	9003.76
925.008	8944.1
925.318	8909.98
925.628	8876.76
925.938	8803.31
926.248	8696.65
926.558	8688.97
926.867	8702.98
927.177	8572.59
927.487	8589.31
927.796	8516.54
928.106	8497.33
928.416	8487.84
928.725	8475.41
929.034	8391.8
929.344	8371.91
929.653	8374.85
929.962	8288.98
930.271	8222.31
930.581	8178.7
930.89	8187.28
931.199	8178.47
931.508	8128.98
931.817	8061.19
932.125	8098.02
932.434	8013.05
932.743	7997.46
933.051	7896.9
933.36	7862.32
933.669	7871.59
933.977	7853.28
934.286	7833.4
934.594	7783.68
934.902	7740.74
935.21	7687.86
935.519	7658.71
935.827	7688.31
936.135	7696
936.443	7545.49
936.751	7468.21
937.059	7508.66
937.367	7463.46
937.674	7459.39
937.982	7441.77
938.29	7363.58
938.597	7335.1
938.905	7246.97
939.213	7256.24
939.52	7176.01
939.827	7190.02
940.135	7161.77
940.442	7090.82
940.749	7117.03
941.056	7097.37
941.363	6989.58
941.67	7039.52
941.977	6994.32
942.284	6957.49
942.591	6859.18
942.898	6836.59
943.205	6837.72
943.511	6779.19
943.818	6754.1
944.125	6731.05
944.431	6707.55
944.738	6661.68
945.044	6619.64
945.35	6606.54
945.657	6592.98
945.963	6593.65
946.269	6573.09
946.575	6526.99
946.881	6466.88
947.187	6479.31
947.493	6398.41
947.799	6356.82
948.105	6347.56
948.41	6375.35
948.716	6326.77
949.022	6274.34
949.327	6269.37
949.633	6225.98
949.938	6176.72
950.244	6152.76
950.549	6149.37
950.854	6134.68
951.16	6072.54
951.465	6061.24
951.77	6009.26
952.075	5991.64
952.38	5948.93
952.685	6015.14
952.99	5893.33
953.294	5922.71
953.599	5881.81
953.904	5844.3
954.209	5724.07
954.513	5785.09
954.818	5748.93
955.122	5735.15
955.426	5699.21
955.731	5684.53
956.035	5636.39
956.339	5637.97
956.643	5586.45
956.948	5561.14
957.252	5529.73
957.556	5612.66
957.86	5503.51
958.163	5449.5
958.467	5469.62
958.771	5450.41
959.075	5438.88
959.378	5378.55
959.682	5377.42
959.985	5329.28
960.289	5298.1
960.592	5287.93
960.896	5288.38
961.199	5259.23
961.502	5271.88
961.805	5188.95
962.108	5085.67
962.411	5114.82
962.714	5118.44
963.017	5081.83
963.32	5045.9
963.623	5051.1
963.926	5034.83
964.228	4994.37
964.531	4934.04
964.833	4974.26
965.136	4914.6
965.438	4897.43
965.741	4869.41
966.043	4894.72
966.345	4856.3
966.648	4797.54
966.95	4809.07
967.252	4756.64
967.554	4765
967.856	4741.27
968.158	4667.83
968.46	4659.02
968.761	4668.51
969.063	4645.68
969.365	4670.77
969.666	4638.9
969.968	4647.94
970.269	4560.49
970.571	4550.09
970.872	4544.22
971.174	4461.96
971.475	4422.64
971.776	4406.59
972.077	4444.78
972.378	4419.93
972.679	4422.64
972.98	4422.19
973.281	4360.27
973.582	4347.84
973.883	4341.96
974.183	4306.48
974.484	4274.39
974.785	4297.67
975.085	4253.38
975.386	4243.21
975.686	4258.12
975.986	4171.8
976.287	4172.02
976.587	4158.69
976.887	4132.48
977.187	4145.81
977.487	4092.03
977.787	4104.45
978.087	4101.29
978.387	4015.64
978.687	4056.55
978.987	4020.39
979.286	3932.03
979.586	3994.63
979.885	3966.15
980.185	3894.52
980.484	3909.88
980.784	3883.44
981.083	3878.25
981.382	3855.87
981.682	3843.44
981.981	3851.81
982.28	3792.37
982.579	3798.25
982.878	3774.75
983.177	3698.59
983.475	3716.67
983.774	3693.17
984.073	3656.33
984.372	3646.16
984.67	3650.91
984.969	3639.38
985.267	3598.7
985.566	3591.02
985.864	3605.03
986.162	3577.01
986.461	3561.19
986.759	3534.98
987.057	3513.06
987.355	3530.46
987.653	3511.02
987.951	3485.04
988.249	3459.27
988.547	3452.04
988.844	3428.54
989.142	3441.42
989.44	3392.38
989.737	3375.21
990.035	3329.56
990.332	3344.47
990.63	3336.79
990.927	3327.53
991.224	3299.28
991.521	3297.92
991.819	3288.2
992.116	3245.04
992.413	3241.2
992.71	3199.17
993.006	3228.09
993.303	3192.39
993.6	3211.14
993.897	3169.79
994.193	3155.78
994.49	3089.34
994.787	3076.46
995.083	3082.33
995.379	3050.92
995.676	3042.56
995.972	2988.55
996.268	2992.17
996.565	3013.18
996.861	2983.58
997.157	2971.38
997.453	2952.62
997.749	2940.19
998.044	2901.77
998.34	2919.4
998.636	2882.79
998.932	2902.45
999.227	2836.69
999.523	2880.76
999.818	2845.73
1000.114	2832.4
1000.409	2815.9
1000.704	2767.99
1001	2811.15
1001.295	2763.25
1001.59	2721.67
1001.885	2741.33
1002.18	2717.82
1002.475	2705.85
1002.77	2704.72
1003.065	2636.47
1003.359	2666.75
1003.654	2635.11
1003.949	2636.47
1004.243	2592.63
1004.538	2579.52
1004.832	2592.4
1005.127	2553.76
1005.421	2550.37
1005.715	2553.76
1006.009	2501.56
1006.304	2456.81
1006.598	2471.73
1006.892	2455.46
1007.186	2480.54
1007.48	2429.02
1007.773	2403.03
1008.067	2364.16
1008.361	2377.72
1008.655	2362.81
1008.948	2344.05
1009.242	2323.71
1009.535	2357.16
1009.829	2316.25
1010.122	2306.54
1010.415	2313.31
1010.708	2255.92
1011.001	2265.41
1011.295	2267.89
1011.588	2239.64
1011.881	2187.44
1012.173	2191.96
1012.466	2197.39
1012.759	2195.35
1013.052	2181.11
1013.344	2175.01
1013.637	2160.78
1013.93	2170.72
1014.222	2118.97
1014.514	2097.5
1014.807	2088.91
1015.099	2080.1
1015.391	2071.74
1015.683	2041.01
1015.976	2018.86
1016.268	2042.36
1016.56	2018.18
1016.851	2002.81
1017.143	1984.06
1017.435	1958.07
1017.727	1954.23
1018.018	1967.56
1018.31	1921.69
1018.602	1949.48
1018.893	1915.36
1019.185	1901.8
1019.476	1885.76
1019.767	1870.61
1020.058	1878.75
1020.35	1864.51
1020.641	1853.21
1020.932	1817.96
1021.223	1828.81
1021.514	1790.39
1021.804	1781.35
1022.095	1751.52
1022.386	1752.65
1022.677	1769.6
1022.967	1712.88
1023.258	1734.12
1023.548	1734.35
1023.839	1714.46
1024.129	1706.55
1024.419	1672.65
1024.709	1655.93
1025	1647.8
1025.29	1641.47
1025.58	1618.19
1025.87	1617.29
1026.16	1615.93
1026.449	1587.01
1026.739	1589.27
1027.029	1584.97
1027.319	1547.46
1027.608	1525.54
1027.898	1522.38
1028.187	1514.69
1028.477	1530.06
1028.766	1493.22
1029.055	1470.85
1029.344	1485.09
1029.634	1480.79
1029.923	1464.52
1030.212	1441.7
1030.501	1431.98
1030.79	1402.83
1031.078	1438.54
1031.367	1419.33
1031.656	1400.8
1031.945	1397.86
1032.233	1386.56
1032.522	1377.52
1032.81	1382.27
1033.099	1366
1033.387	1361.25
1033.675	1383.4
1033.963	1336.62
1034.251	1330.97
1034.54	1260.46
1034.828	1291.42
1035.116	1295.71
1035.403	1277.86
1035.691	1277.18
1035.979	1297.07
1036.267	1263.85
1036.554	1246.22
1036.842	1237.18
1037.129	1225.21
1037.417	1242.61
1037.704	1185.66
1037.992	1199.9
1038.279	1198.77
1038.566	1202.61
1038.853	1202.61
1039.14	1202.61
