Data from whiteboard_FLMS001491_00008.txt Node
Date: Wed Feb 08 11:24:56 GMT 2017
User: dcchb
Spectrometer: FLMS00149
Trigger mode: 0
Integration Time (sec): 2.000000E-2
Scans to average: 10
Electric dark correction enabled: true
Nonlinearity correction enabled: false
Boxcar width: 0
XAxis mode: Wavelengths
Number of Pixels in Spectrum: 2048
>>>>>Begin Spectral Data<<<<<
341.393	-33.9
341.776	-33.9
342.16	-33.9
342.543	-60.56
342.927	-66.21
343.31	-44.74
343.693	-72.99
344.077	-56.5
344.46	-46.33
344.843	-60.56
345.226	-59.43
345.61	-34.58
345.993	-34.58
346.376	-21.69
346.759	8.14
347.142	18.76
347.525	66.66
347.908	54.46
348.291	89.26
348.674	108.7
349.057	85.42
349.44	136.72
349.823	151.63
350.206	166.55
350.588	228.02
350.971	242.71
351.354	259.43
351.737	275.02
352.119	288.13
352.502	278.18
352.884	311.63
353.267	325.19
353.65	311.63
354.032	327.67
354.414	339.65
354.797	346.43
355.179	348.24
355.562	355.7
355.944	357.28
356.326	379.88
356.709	399.09
357.091	371.52
357.473	380.78
357.855	362.48
358.238	359.31
358.62	384.85
359.002	402.25
359.384	381.68
359.766	381.68
360.148	353.89
360.53	388.92
360.912	385.3
361.294	379.2
361.676	360.22
362.057	372.87
362.439	377.17
362.821	371.52
363.203	379.2
363.584	372.19
363.966	378.07
364.348	380.55
364.729	367
365.111	376.49
365.493	384.85
365.874	385.98
366.256	375.58
366.637	348.92
367.019	366.54
367.4	389.14
367.781	378.52
368.163	367.45
368.544	372.87
368.925	368.35
369.306	386.43
369.688	381.91
370.069	375.81
370.45	364.06
370.831	386.66
371.212	421.68
371.593	393.21
371.974	385.98
372.355	389.37
372.736	392.31
373.117	397.96
373.498	374.45
373.879	410.16
374.26	380.55
374.641	403.15
375.021	391.18
375.402	388.69
375.783	411.29
376.163	428.69
376.544	434.34
376.925	425.75
377.305	410.61
377.686	416.26
378.066	406.77
378.447	435.47
378.827	454
379.208	435.02
379.588	435.92
379.968	451.29
380.349	435.47
380.729	440.89
381.109	457.84
381.489	456.26
381.87	454.23
382.25	441.34
382.63	477.95
383.01	472.08
383.39	460.1
383.77	467.78
384.15	479.99
384.53	484.06
384.91	485.86
385.29	483.6
385.67	497.61
386.049	508.91
386.429	496.71
386.809	521.12
387.189	543.04
387.568	519.99
387.948	533.32
388.328	534.22
388.707	524.73
389.087	550.04
389.466	580.55
389.846	556.82
390.225	556.14
390.605	567.89
390.984	572.64
391.363	598.63
391.743	591.4
392.122	593.66
392.501	604.05
392.881	619.64
393.26	616.03
393.639	613.77
394.018	640.89
394.397	638.18
394.776	671.62
395.155	659.42
395.534	640.21
395.913	657.38
396.292	698.29
396.671	683.15
397.05	698.51
397.429	696.48
397.808	715.24
398.186	701.9
398.565	708.91
398.944	718.17
399.323	766.08
399.701	773.31
400.08	780.54
400.458	784.84
400.837	802.24
401.215	813.76
401.594	817.83
401.972	821.45
402.351	853.31
402.729	860.99
403.107	867.77
403.486	884.04
403.864	897.83
404.242	901.45
404.62	922.46
404.999	936.47
405.377	944.61
405.755	962.23
406.133	973.08
406.511	980.09
406.889	1013.08
407.267	1041.1
407.645	1058.5
408.023	1074.55
408.401	1093.76
408.779	1109.8
409.156	1138.5
409.534	1140.53
409.912	1168.33
410.29	1187.54
410.667	1207.43
411.045	1249.01
411.422	1272.96
411.8	1282.68
412.178	1313.19
412.555	1324.48
412.933	1331.94
413.31	1360.64
413.687	1347.99
414.065	1375.33
414.442	1442.67
414.819	1427.53
415.197	1459.17
415.574	1497.59
415.951	1523.35
416.328	1527.64
416.705	1543.24
417.082	1555.44
417.46	1573.52
417.837	1618.71
418.214	1611.03
418.591	1649.45
418.967	1669.56
419.344	1680.63
419.721	1717.02
420.098	1712.72
420.475	1729.67
420.852	1739.62
421.228	1775.32
421.605	1815.09
421.982	1806.51
422.358	1849.44
422.735	1904.81
423.111	1880.18
423.488	1901.19
423.864	1919.27
424.241	1964.69
424.617	1980.74
424.994	1973.28
425.37	2029.78
425.746	2024.58
426.123	2078.14
426.499	2086.72
426.875	2105.26
427.251	2162.43
427.627	2231.35
428.003	2220.28
428.379	2251.47
428.756	2272.71
429.132	2304.12
429.507	2360.84
429.883	2388.19
430.259	2416.21
430.635	2458.24
431.011	2470.22
431.387	2533.27
431.763	2528.07
432.138	2572.14
432.514	2615.52
432.89	2662.08
433.265	2683.55
433.641	2735.3
434.016	2751.57
434.392	2827.95
434.767	2893.03
435.143	2891.9
435.518	2920.83
435.894	2932.35
436.269	3005.34
436.644	3031.78
437.02	3094.38
437.395	3085.79
437.77	3139.8
438.145	3225.45
438.52	3243.3
438.895	3258.45
439.271	3267.94
439.646	3363.53
440.021	3378.22
440.395	3380.02
440.77	3391.55
441.145	3429.74
441.52	3513.35
441.895	3487.37
442.27	3533.01
442.645	3507.93
443.019	3587.7
443.394	3600.58
443.769	3680.13
444.143	3603.52
444.518	3691.65
444.892	3664.31
445.267	3766.45
445.641	3775.72
446.016	3791.09
446.39	3830.41
446.764	3852.33
447.139	3873.57
447.513	3935.72
447.887	3920.35
448.262	3958.31
448.636	4033.34
449.01	4079.89
449.384	4116.95
449.758	4148.14
450.132	4199.66
450.506	4209.83
450.88	4235.82
451.254	4292.77
451.628	4337.74
452.002	4362.82
452.376	4412.09
452.75	4499.54
453.123	4521.92
453.497	4603.49
453.871	4637.62
454.244	4705.19
454.618	4756.71
454.992	4804.62
455.365	4837.16
455.739	4959.87
456.112	4993.09
456.486	5077.61
456.859	5093.2
457.232	5183.14
457.606	5156.47
457.979	5302.46
458.352	5368.45
458.725	5445.05
459.099	5541.1
459.472	5640.53
459.845	5730.47
460.218	5722.34
460.591	5792.39
460.964	5772.05
461.337	6003.91
461.71	6078.26
462.083	6109.44
462.456	6156
462.829	6198.71
463.201	6271.25
463.574	6307.63
463.947	6446.61
464.32	6513.73
464.692	6633.5
465.065	6703.55
465.438	6795.53
465.81	6898.12
466.183	7004.56
466.555	7107.16
466.928	7121.39
467.3	7141.06
467.672	7318.23
468.045	7524.55
468.417	7491.78
468.789	7590.76
469.161	7713.7
469.534	7874.14
469.906	7999.56
470.278	8098.09
470.65	8112.56
471.022	8310.97
471.394	8498.31
471.766	8602.03
472.138	8735.82
472.51	8898.52
472.882	9098.07
473.253	9157.05
473.625	9299.87
473.997	9501.45
474.369	9550.03
474.74	9656.02
475.112	9913.41
475.484	9983.01
475.855	10202.22
476.227	10309.33
476.598	10525.82
476.97	10721.53
477.341	10894.4
477.713	11055.08
478.084	11152.93
478.455	11501.84
478.827	11602.18
479.198	11956.75
479.569	11943.87
479.94	12258.21
480.311	12375.27
480.682	12671.98
481.053	12963.5
481.424	13136.83
481.795	13277.39
482.166	13523.49
482.537	13692.07
482.908	14002.34
483.279	14135.45
483.65	14404.59
484.021	14666.51
484.391	14745.38
484.762	15028.76
485.133	15094.74
485.503	15381.97
485.874	15640.72
486.244	15836.65
486.615	16111.21
486.985	16375.39
487.356	16634.36
487.726	16811.31
488.097	17186.21
488.467	17240.22
488.837	17744.62
489.207	17764.73
489.578	18096.25
489.948	18211.72
490.318	18515.67
490.688	18613.97
491.058	19042.21
491.428	19137.12
491.798	19265.26
492.168	19824.79
492.538	19811.23
492.908	20061.85
493.278	20361.72
493.648	20406.47
494.017	20666.12
494.387	20866.57
494.757	21060.92
495.126	21303.17
495.496	21452.09
495.866	21588.13
496.235	21815.92
496.605	22066.99
496.974	22237.61
497.344	22482.12
497.713	22602.8
498.082	22735
498.452	22951.03
498.821	23119.62
499.19	23167.07
499.559	23407.75
499.928	23651.36
500.298	23656.1
500.667	23983.78
501.036	23773.61
501.405	24133.6
501.774	24283.66
502.143	24354.61
502.512	24528.62
502.88	24847.71
503.249	24761.16
503.618	24969.51
503.987	25007.48
504.356	25272.33
504.724	25460.35
505.093	25614.69
505.462	25705.54
505.83	25999.09
506.199	26101.23
506.567	26480.89
506.936	26457.38
507.304	26906.41
507.672	26949.57
508.041	27179.17
508.409	27350.69
508.777	27631.14
509.145	27880.17
509.514	27829.55
509.882	28087.62
510.25	28229.54
510.618	28527.16
510.986	28572.36
511.354	28943.19
511.722	29101.38
512.09	29361.26
512.458	29417.98
512.826	29840.57
513.193	29817.3
513.561	29993.11
513.929	30237.4
514.297	30596.94
514.664	30765.52
515.032	30788.79
515.4	31182.23
515.767	31268.33
516.135	31497.48
516.502	31434.2
516.869	32163.67
517.237	32196.67
517.604	32128.65
517.972	32599.37
518.339	32818.57
518.706	32863.99
519.073	33037.55
519.44	33260.59
519.808	33659
520.175	33569.96
520.542	34100.57
520.909	34177.41
521.276	34195.71
521.643	34580.56
522.009	34970.83
522.376	35137.61
522.743	35253.76
523.11	35546.64
523.477	35870.7
523.843	36092.38
524.21	36497.57
524.577	36597.68
524.943	36870.44
525.31	37054.84
525.676	37581.61
526.043	37580.93
526.409	37881.49
526.776	38280.58
527.142	38337.75
527.508	38632.66
527.874	38834.23
528.241	39176.82
528.607	39242.13
528.973	39648.67
529.339	39656.58
529.705	40012.06
530.071	40474.19
530.437	40537.24
530.803	40865.59
531.169	41055.64
531.535	41112.59
531.901	41367.73
532.267	41480.49
532.632	41704.89
532.998	41949.86
533.364	42271.43
533.73	42327.47
534.095	42824.18
534.461	42872.55
534.826	43045.87
535.192	43109.6
535.557	43488.12
535.923	43509.36
536.288	43678.17
536.653	43773.09
537.019	43848.79
537.384	44153.64
537.749	44298.72
538.114	44396.35
538.479	44472.28
538.845	44675.66
539.21	44698.26
539.575	44879.27
539.94	45114.29
540.305	45290.11
540.67	45348.19
541.034	45552.25
541.399	45697.33
541.764	45823.65
542.129	45905.91
542.494	46029.52
542.858	46093.48
543.223	46104.78
543.587	46448.95
543.952	46278.33
544.316	46457.54
544.681	46502.05
545.045	46859.78
545.41	46973.23
545.774	47039.67
546.138	47062.94
546.503	47203.28
546.867	47133.22
547.231	47619.99
547.595	47540.67
547.959	47664.06
548.324	47723.72
548.688	47707.9
549.052	47876.71
549.416	48134.33
549.779	48072.41
550.143	48199.64
550.507	48518.95
550.871	48592.17
551.235	48680.75
551.599	48974.08
551.962	48940.18
552.326	49094.08
552.689	49281.64
553.053	49030.8
553.417	49368.19
553.78	49725.47
554.143	49597.11
554.507	49951.68
554.87	50010.89
555.234	50425.57
555.597	50244.78
555.96	50323.42
556.323	50667.82
556.686	50625.56
557.05	50986
557.413	51013.57
557.776	51040.24
558.139	51349.84
558.502	51464.41
558.865	51480.68
559.228	51735.36
559.59	51955.7
559.953	52057.84
560.316	52442.24
560.679	52436.36
561.041	52545.29
561.404	52740.99
561.767	52925.61
562.129	52798.61
562.492	53195.89
562.854	53144.14
563.217	53199.05
563.579	53393.17
563.941	53507.07
564.304	53685.82
564.666	53809.43
565.028	53848.08
565.39	53875.19
565.753	54109.99
566.115	54243.55
566.477	54321.51
566.839	54244.22
567.201	54512.01
567.563	54492.58
567.925	54695.06
568.287	54668.85
568.648	54813.7
569.01	54873.81
569.372	55108.61
569.734	54939.8
570.095	55103.41
570.457	55210.07
570.819	55268.83
571.18	55330.97
571.542	55447.81
571.903	55465.66
572.265	55535.71
572.626	55619.78
572.987	55647.12
573.349	55733.22
573.71	55928.92
574.071	55901.81
574.432	55949.49
574.794	56145.42
575.155	56089.37
575.516	56069.71
575.877	56217.05
576.238	56251.63
576.599	56370.27
576.96	56367.56
577.32	56482.58
577.681	56476.71
578.042	56648.91
578.403	56646.87
578.763	56643.03
579.124	56731.39
579.485	56767.77
579.845	56920.31
580.206	56904.27
580.566	56840.31
580.927	56889.13
581.287	57031.72
581.648	56977.48
582.008	57079.86
582.368	57127.76
582.728	57121.66
583.089	57166.41
583.449	57182.23
583.809	57170.7
584.169	57272.17
584.529	57170.02
584.889	57453.86
585.249	57245.5
585.609	57262
585.969	57393.52
586.329	57293.18
586.688	57377.93
587.048	57367.76
587.408	57280.53
587.768	57351.03
588.127	57305.39
588.487	57296.35
588.846	57498.6
589.206	57269.45
589.565	57315.33
589.925	57489.11
590.284	57323.92
590.643	57356.23
591.003	57340.19
591.362	57460.86
591.721	57426.06
592.08	57393.75
592.44	57479.17
592.799	57495.21
593.158	57398.72
593.517	57401.65
593.876	57450.01
594.235	57389.45
594.593	57408.89
594.952	57459.73
595.311	57382.9
595.67	57391.71
596.029	57534.31
596.387	57551.03
596.746	57553.06
597.104	57430.13
597.463	57459.28
597.822	57534.31
598.18	57412.5
598.538	57435.55
598.897	57623.12
599.255	57431.26
599.613	57737.46
599.972	57583.8
600.33	57599.62
600.688	57514.87
601.046	57659.05
601.404	57727.52
601.762	57720.06
602.12	57780.4
602.478	57862.43
602.836	57823.34
603.194	57642.1
603.552	57689.78
603.91	57678.48
604.268	57753.96
604.625	57682.1
604.983	57804.36
605.341	57741.31
605.698	57872.15
606.056	57935.2
606.413	57898.82
606.771	57968.87
607.128	58025.37
607.485	57901.3
607.843	57967.74
608.2	58134.29
608.557	58119.83
608.914	58079.15
609.272	58249.77
609.629	58274.63
609.986	58328.64
610.343	58192.59
610.7	58398.69
611.057	58293.61
611.414	58277.79
611.771	58394.17
612.127	58430.78
612.484	58401.18
612.841	58551.45
613.198	58357.34
613.554	58392.36
613.911	58516.65
614.267	58565.47
614.624	58539.93
614.98	58560.95
615.337	58628.29
615.693	58626.48
616.05	58584.22
616.406	58699.25
616.762	58584
617.118	58584
617.475	58637.78
617.831	58687.27
618.187	58717.33
618.543	58789.19
618.899	58868.73
619.255	58780.6
619.611	58700.83
619.967	58835.29
620.323	58910.09
620.678	58760.49
621.034	58779.25
621.39	58795.97
621.746	58740.15
622.101	59118.67
622.457	58895.85
622.812	58934.95
623.168	58942.18
623.523	58961.84
623.879	58985.79
624.234	58911.45
624.589	58901.05
624.945	58957.32
625.3	59011.78
625.655	58897.66
626.01	58975.62
626.365	58909.19
626.72	58936.08
627.075	58965.68
627.43	58871.45
627.785	58861.73
628.14	58904.44
628.495	58930.43
628.85	58901.95
629.205	58800.04
629.559	58972.46
629.914	58799.36
630.269	58824.22
630.623	58755.52
630.978	58658.57
631.332	58837.77
631.687	58787.83
632.041	58663.32
632.396	58766.59
632.75	58591
633.104	58675.07
633.459	58496.77
633.813	58452.02
634.167	58464.9
634.521	58386.26
634.875	58449.54
635.229	58313.27
635.583	58209.77
635.937	58241.41
636.291	58255.87
636.645	58218.58
636.999	58188.3
637.352	58090.22
637.706	58044.58
638.06	58154.63
638.413	58078.02
638.767	57967.52
639.121	57977.68
639.474	57854.98
639.828	57845.94
640.181	57887.07
640.534	57853.17
640.888	57771.14
641.241	57730.46
641.594	57657.02
641.947	57712.83
642.301	57601.88
642.654	57651.59
643.007	57597.36
643.36	57639.84
643.713	57589.67
644.066	57615.21
644.419	57380.41
644.771	57309.91
645.124	57057.71
645.477	57074.66
645.83	56956.02
646.182	56869.47
646.535	56733.2
646.888	56735.91
647.24	56613.88
647.593	56846.41
647.945	56745.4
648.298	56593.31
648.65	56613.43
649.002	56500.89
649.355	56649.36
649.707	56634.44
650.059	56775.23
650.411	57064.26
650.763	57087.54
651.115	57327.31
651.467	57151.94
651.819	57191.04
652.171	57147.42
652.523	57170.47
652.875	57172.06
653.227	56969.12
653.578	57241.43
653.93	57178.84
654.282	57111.49
654.633	57004.15
654.985	57095.22
655.337	57076.69
655.688	57070.14
656.039	57140.42
656.391	56899.52
656.742	56984.72
657.094	56963.47
657.445	57070.82
657.796	56896.58
658.147	56819.3
658.498	56838.05
658.849	56855.23
659.2	56812.52
659.551	56724.38
659.902	56679.19
660.253	56709.47
660.604	56725.29
660.955	56528.01
661.306	56612.75
661.656	56475.8
662.007	56513.77
662.358	56509.25
662.708	56539.08
663.059	56462.7
663.409	56314.9
663.76	56414.34
664.11	56403.04
664.461	56418.4
664.811	56300.21
665.161	56288.69
665.511	56262.02
665.862	56267
666.212	56257.96
666.562	56197.62
666.912	56186.55
667.262	56126.66
667.612	56108.13
667.962	56152.2
668.312	56029.26
668.662	56165.08
669.011	56004.4
669.361	56023.39
669.711	55944.07
670.06	55955.59
670.41	55909.49
670.76	55873.79
671.109	55912.2
671.459	55905.87
671.808	55872.43
672.157	55995.36
672.507	55795.82
672.856	55755.82
673.205	55825.42
673.554	55957.17
673.904	55747.23
674.253	55884.86
674.602	55755.37
674.951	55378.2
675.3	55248.26
675.649	55742.72
675.998	55645.77
676.346	55632.89
676.695	55791.53
677.044	55520.35
677.393	55644.19
677.741	55675.37
678.09	55624.3
678.438	55558.99
678.787	55662.72
679.135	55604.87
679.484	55373.91
679.832	55535.71
680.181	55327.13
680.529	55424.08
680.877	55361.26
681.225	55264.99
681.573	55473.8
681.922	55262.95
682.27	55169.85
682.618	55173.01
682.966	55171.2
683.314	55258.66
683.661	55052.11
684.009	54880.82
684.357	54829.74
684.705	54865.68
685.053	54843.76
685.4	54768.28
685.748	54574.38
686.095	54614.84
686.443	54569.41
686.79	54531.45
687.138	54538
687.485	54466.36
687.832	54402.41
688.18	54395.41
688.527	54095.75
688.874	54205.35
689.221	54226.37
689.568	54133.94
689.915	53862.76
690.262	53981.63
690.609	53841.75
690.956	53725.37
691.303	53611.47
691.65	53444.24
691.997	53484.7
692.344	53318.15
692.69	53289.9
693.037	53308.88
693.383	53053.75
693.73	53128.77
694.077	52911.6
694.423	52923.81
694.769	52714.55
695.116	52718.16
695.462	52739.18
695.808	52593.65
696.155	52630.03
696.501	52285.18
696.847	52324.05
697.193	52066.2
697.539	52245.41
697.885	51959.99
698.231	51908.47
698.577	51877.96
698.923	51742.82
699.269	51701.01
699.614	51532.88
699.96	51480.68
700.306	51535.59
700.651	51343.73
700.997	51217.64
701.342	51125.66
701.688	51018.32
702.033	50869.4
702.379	50907.81
702.724	50818.55
703.069	50926.8
703.415	50743.75
703.76	50671.21
704.105	50674.15
704.45	50467.6
704.795	50403.87
705.14	50221.96
705.485	50197.78
705.83	50023.09
706.175	50122.07
706.52	49861.51
706.865	49772.7
707.209	49752.59
707.554	49716.66
707.899	49844.57
708.243	49632.37
708.588	49444.12
708.932	49259.27
709.277	49233.06
709.621	49245.03
709.966	49096.56
710.31	49219.5
710.654	48776.12
710.998	48948.77
711.342	48773.41
711.687	48765.27
712.031	48475.56
712.375	48517.37
712.719	48457.26
713.063	48318.28
713.407	48482.12
713.75	48132.97
714.094	48243.7
714.438	47864.05
714.782	48028.79
715.125	47815.92
715.469	47884.84
715.812	47601.46
716.156	47441.92
716.499	47407.57
716.843	47463.84
717.186	47094.58
717.53	47175.71
717.873	47039.67
718.216	47091.87
718.559	46893.23
718.902	46614.37
719.246	46711.09
719.589	46421.38
719.932	46356.52
720.275	46337.09
720.617	46262.74
720.96	46214.38
721.303	46252.57
721.646	46226.58
721.989	46070.43
722.331	46045.57
722.674	45869.75
723.016	45976.64
723.359	45816.42
723.701	45908.62
724.044	45585.24
724.386	45377.56
724.729	45575.07
725.071	45272.93
725.413	45236.55
725.755	45264.35
726.097	45140.96
726.439	44992.72
726.782	45121.75
727.124	45023.45
727.465	44865.49
727.807	44796.79
728.149	44711.14
728.491	44736.68
728.833	44556.57
729.175	44396.12
729.516	44410.81
729.858	44269.57
730.199	44462.79
730.541	44356.57
730.882	44290.36
731.224	44235.22
731.565	43954.55
731.906	44109.12
732.248	44166.97
732.589	43870.03
732.93	43689.7
733.271	43541.23
733.612	43592.07
733.953	43765.85
734.294	43544.84
734.635	43422.14
734.976	43503.26
735.317	43282.03
735.658	43393.21
735.999	43334.45
736.339	43155.7
736.68	43216.04
737.021	43082.71
737.361	43102.14
737.702	43134.91
738.042	42972.43
738.383	42947.12
738.723	43044.97
739.063	42729.5
739.404	43051.07
739.744	42888.36
740.084	42645.66
740.424	42763.62
740.764	42608.82
741.104	42626.22
741.444	42401.37
741.784	42291.32
742.124	42320.7
742.464	42234.37
742.804	42211.09
743.143	42095.62
743.483	42183.52
743.823	41874.38
744.162	41853.36
744.502	41917.99
744.841	41820.6
745.181	41865.79
745.52	41607.04
745.86	41789.64
746.199	41613.37
746.538	41451.34
746.877	41598.91
747.216	41576.08
747.556	41435.97
747.895	41381.51
748.234	41196.88
748.573	41038.92
748.911	40829.43
749.25	40992.59
749.589	40781.3
749.928	40810.45
750.267	40850.23
750.605	40695.43
750.944	40603.9
751.283	40300.41
751.621	40496.11
751.96	40172.73
752.298	40199.62
752.636	40193.07
752.975	39876.47
753.313	39906.52
753.651	39936.35
753.989	39642.12
754.327	39612.97
754.666	39396.25
755.004	39416.82
755.342	39174.56
755.679	39212.08
756.017	38997.62
756.355	39068.13
756.693	38788.58
757.031	38796.27
757.368	38648.48
757.706	38556.27
758.044	38261.59
758.381	38297.75
758.719	38199
759.056	38203.29
759.394	38216.4
759.731	37661.83
760.068	37473.14
760.405	37543.19
760.743	37453.7
761.08	37482.86
761.417	37089.87
761.754	37106.14
762.091	37171.45
762.428	36914.06
762.765	36710.45
763.102	36677.23
763.438	36650.56
763.775	36409.21
764.112	36471.81
764.449	36477.46
764.785	36291.7
765.122	35971.48
765.458	35956.57
765.795	35928.55
766.131	35920.19
766.467	35741.89
766.804	35496.02
767.14	35285.63
767.476	35384.61
767.812	35024.39
768.148	35152.75
768.485	35004.5
768.821	34701.46
769.157	34724.51
769.492	34697.84
769.828	34679.77
770.164	34252.88
770.5	34415.59
770.836	34287.01
771.171	34028.26
771.507	34076.62
771.842	33882.05
772.178	33876.17
772.513	33764.54
772.849	33670.3
773.184	33395.96
773.519	33476.86
773.855	33309.41
774.19	33148.96
774.525	33102.86
774.86	32954.84
775.195	32897.44
775.53	32711.91
775.865	32708.74
776.2	32541.29
776.535	32327.06
776.87	32290.45
777.205	32231.92
777.539	32000.29
777.874	32117.8
778.209	31946.28
778.543	31915.54
778.878	31666.06
779.212	31653.86
779.547	31486.4
779.881	31554.2
780.215	31273.53
780.55	31361.21
780.884	31124.38
781.218	30941.79
781.552	31015.46
781.886	30782.24
782.22	30634.9
782.554	30424.74
782.888	30219.32
783.222	30105.2
783.556	30011.41
783.889	29925.31
784.223	29787.92
784.557	29701.59
784.89	29834.7
785.224	29549.51
785.557	29404.42
785.891	29318.78
786.224	29189.06
786.558	29191.1
786.891	28897.09
787.224	29060.7
787.557	28831.11
787.891	28665.01
788.224	28767.61
788.557	28665.01
788.89	28505.01
789.223	28551.11
789.556	28289.43
789.888	28126.72
790.221	28006.27
790.554	27844.69
790.887	27690.35
791.219	27783.45
791.552	27592.49
791.884	27450.8
792.217	27324.71
792.549	27241.09
792.882	26960.87
793.214	26943.25
793.546	26972.62
793.879	26850.82
794.211	26607.66
794.543	26775.34
794.875	26517.95
795.207	26688.79
795.539	26332.64
795.871	26360.21
796.203	26050.39
796.535	25904.4
796.867	25766.1
797.198	25807.23
797.53	25755.93
797.862	25411.31
798.193	25574.69
798.525	25410.41
798.856	25427.58
799.188	25264.42
799.519	25100.36
799.85	24923.41
800.182	24961.15
800.513	24811.1
800.844	24555.74
801.175	24748.95
801.506	24708.73
801.837	24577.66
802.168	24454.72
802.499	24448.85
802.83	24370.66
803.161	24349.64
803.491	24239.59
803.822	24071.46
804.153	23933.61
804.483	23802.31
804.814	23812.93
805.145	23774.29
805.475	23800.28
805.805	23686.83
806.136	23566.84
806.466	23600.51
806.796	23590.34
807.126	23345.6
807.457	23339.95
807.787	23297.47
808.117	23222.67
808.447	23268.77
808.777	23170.69
809.107	23175.66
809.436	23041.2
809.766	23095.44
810.096	22996.01
810.426	22974.54
810.755	22901.09
811.085	22802.56
811.414	22734.09
811.744	22641.89
812.073	22616.81
812.403	22632.4
812.732	22488.22
813.061	22663.36
813.39	22360.99
813.719	22354.21
814.049	22430.82
814.378	22403.7
814.707	22334.55
815.036	22253.43
815.365	22123.71
815.693	21880.78
816.022	21952.64
816.351	21938.41
816.68	21833.32
817.008	21832.87
817.337	21751.07
817.665	21798.07
817.994	21756.72
818.322	21711.07
818.651	21715.59
818.979	21535.48
819.307	21566.89
819.636	21551.98
819.964	21427.69
820.292	21532.99
820.62	21417.52
820.948	21424.75
821.276	21500.23
821.604	21497.06
821.932	21501.13
822.259	21466.33
822.587	21326.67
822.915	21241.02
823.243	21471.3
823.57	21362.15
823.898	21446.22
824.225	21373.9
824.553	21444.18
824.88	21440.34
825.207	21514.69
825.535	21332.09
825.862	21374.58
826.189	21407.12
826.516	21491.41
826.843	21561.47
827.17	21463.16
827.497	21425.43
827.824	21432.43
828.151	21384.97
828.478	21378.19
828.805	21463.39
829.131	21345.88
829.458	21352.21
829.785	21201.25
830.111	21220.91
830.438	21414.58
830.764	21278.31
831.09	21251.42
831.417	21160.8
831.743	21315.82
832.069	21273.11
832.395	21022.95
832.722	21154.25
833.048	21025.21
833.374	20986.57
833.7	20959.22
834.026	20903.18
834.351	20952.22
834.677	20810.3
835.003	20956.96
835.329	20820.7
835.654	20776.18
835.98	20594.49
836.306	20643.3
836.631	20558.33
836.956	20698.21
837.282	20621.15
837.607	20566.24
837.932	20433.14
838.258	20454.38
838.583	20415.51
838.908	20210.09
839.233	20293.7
839.558	20183.88
839.883	20181.39
840.208	20043.09
840.533	20088.74
840.858	19955.86
841.182	19929.87
841.507	19947.5
841.832	19785.47
842.156	19780.72
842.481	19674.06
842.805	19588.41
843.13	19708.41
843.454	19660.27
843.778	19539.37
844.103	19548.64
844.427	19446.27
844.751	19438.36
845.075	19354.75
845.399	19262.32
845.723	19105.26
846.047	19113.85
846.371	19021.19
846.695	18993.62
847.019	18761.31
847.343	18762.22
847.666	18770.35
847.99	18611.94
848.313	18562
848.637	18464.37
848.96	18457.82
849.284	18330.82
849.607	18262.57
849.931	18196.58
850.254	18172.63
850.577	17983.03
850.9	17850.15
851.223	17863.71
851.546	17786.88
851.869	17699.2
852.192	17818.74
852.515	17693.09
852.838	17614.45
853.161	17630.72
853.483	17520.67
853.806	17358.19
854.129	17416.94
854.451	17287.23
854.774	17271.41
855.096	17227.34
855.419	17167.91
855.741	17193.22
856.063	17085.65
856.385	16944.87
856.708	17006.78
857.03	16946.9
857.352	16966.33
857.674	16858.09
857.996	16835.04
858.318	16735.15
858.64	16768.37
858.961	16746.68
859.283	16611.77
859.605	16553.46
859.926	16657.87
860.248	16528.38
860.57	16463.52
860.891	16513.01
861.212	16483.63
861.534	16462.17
861.855	16337.65
862.176	16488.83
862.498	16449.29
862.819	16470.98
863.14	16284.09
863.461	16183.76
863.782	16200.03
864.103	16183.98
864.424	16169.74
864.745	16203.87
865.065	16111.89
865.386	16108.73
865.707	16088.39
866.027	16024.21
866.348	15993.7
866.668	15968.62
866.989	15944.21
867.309	15773.37
867.63	15899.24
867.95	15934.27
868.27	15863.99
868.59	15880.26
868.91	15996.42
869.23	15876.42
869.55	15819.02
869.87	15874.84
870.19	15743.31
870.51	15829.87
870.83	15830.77
871.15	15733.15
871.469	15697.67
871.789	15692.92
872.109	15692.47
872.428	15619.48
872.748	15615.18
873.067	15614.05
873.386	15737.67
873.706	15626.26
874.025	15572.47
874.344	15569.08
874.663	15472.81
874.982	15517.33
875.301	15442.98
875.62	15399.82
875.939	15311.46
876.258	15329.09
876.577	15242.31
876.896	15296.77
877.214	15178.13
877.533	15255.64
877.852	15150.56
878.17	15141.52
878.489	15170
878.807	15080.28
879.125	15014.75
879.444	14997.12
879.762	14903.56
880.08	14934.97
880.398	14805.71
880.716	14810.23
881.034	14759.84
881.352	14759.39
881.67	14757.8
881.988	14796.9
882.306	14607.98
882.624	14630.35
882.941	14542.22
883.259	14502.67
883.577	14402.56
883.894	14420.19
884.212	14486.85
884.529	14403.46
884.846	14334.31
885.164	14283.47
885.481	14222.22
885.798	14186.97
886.115	14078.5
886.432	13982.23
886.75	14038.5
887.067	13998.5
887.383	13888.22
887.7	13881.44
888.017	13810.03
888.334	13904.49
888.651	13793.99
888.967	13788.56
889.284	13662.01
889.6	13630.38
889.917	13516.71
890.233	13522.36
890.55	13523.71
890.866	13541.34
891.182	13459.08
891.498	13375.02
891.815	13370.04
892.131	13310.38
892.447	13191.07
892.763	13171.63
893.079	13175.02
893.395	13080.33
893.71	13062.03
894.026	13064.97
894.342	13017.96
894.657	12910.17
894.973	12900
895.289	12881.47
895.604	12827.91
895.92	12723.06
896.235	12732.09
896.55	12670.85
896.865	12765.99
897.181	12646
897.496	12561.48
897.811	12545.88
898.126	12624.75
898.441	12557.41
898.756	12558.77
899.071	12413.23
899.386	12440.8
899.7	12295.72
900.015	12245.78
900.33	12214.37
900.644	12107.48
900.959	12189.28
901.273	12132.11
901.588	12168.72
901.902	12020.02
902.216	11998.33
902.531	11948.16
902.845	11854.38
903.159	11872.46
903.473	11773.48
903.787	11768.73
904.101	11759.01
904.415	11734.83
904.729	11656.64
905.042	11650.77
905.356	11708.17
905.67	11611.22
905.984	11512.47
906.297	11516.99
906.611	11434.28
906.924	11406.48
907.237	11409.42
907.551	11384.79
907.864	11253.04
908.177	11245.81
908.491	11233.38
908.804	11116.32
909.117	11087.17
909.43	10996.77
909.743	10937.79
910.056	10871.35
910.368	10890.79
910.681	10879.94
910.994	10763.56
911.307	10780.06
911.619	10712.49
911.932	10734.86
912.244	10649.66
912.557	10642.21
912.869	10610.79
913.181	10554.3
913.494	10570.8
913.806	10456.9
914.118	10488.31
914.43	10384.59
914.742	10404.02
915.054	10317.02
915.366	10355.89
915.678	10286.06
915.99	10301.65
916.302	10173.52
916.613	10114.54
916.925	10106.17
917.236	10136.46
917.548	10035.44
917.859	9964.71
918.171	9961.32
918.482	9942.11
918.794	9842.68
919.105	9999.51
919.416	9807.88
919.727	9761.78
920.038	9709.12
920.349	9692.4
920.66	9651.05
920.971	9579.41
921.282	9621.89
921.593	9545.51
921.903	9482.24
922.214	9470.71
922.525	9373.31
922.835	9357.04
923.146	9329.7
923.456	9288.12
923.767	9307.55
924.077	9299.19
924.387	9207.44
924.697	9180.32
925.008	9160.21
925.318	9054.45
925.628	9011.74
925.938	8964.51
926.248	8946.66
926.558	8868.92
926.867	8841.58
927.177	8858.3
927.487	8759.09
927.796	8631.19
928.106	8649.72
928.416	8692.88
928.725	8675.03
929.034	8552.77
929.344	8560.23
929.653	8506.89
929.962	8487.46
930.271	8397.75
930.581	8341.25
930.89	8201.14
931.199	8275.71
931.508	8224.64
931.817	8177.19
932.125	8074.59
932.434	8073.91
932.743	8036.4
933.051	8033.91
933.36	7946.46
933.669	7910.75
933.977	7863.52
934.286	7899.45
934.594	7788.04
934.902	7813.35
935.21	7766.8
935.519	7695.16
935.827	7658.78
936.135	7645.67
936.443	7589.4
936.751	7491.1
937.059	7510.99
937.367	7416.98
937.674	7368.17
937.982	7346.25
938.29	7268.51
938.597	7329.98
938.905	7229.19
939.213	7233.93
939.52	7192.81
939.827	7174.05
940.135	7142.41
940.442	7110.77
940.749	7062.41
941.056	7038.91
941.363	7011.12
941.67	7067.84
941.977	6922.53
942.284	6867.84
942.591	6937.22
942.898	6874.4
943.205	6842.31
943.511	6755.08
943.818	6718.92
944.125	6695.19
944.431	6685.93
944.738	6701.52
945.044	6634.63
945.35	6611.58
945.657	6543.1
945.963	6557.34
946.269	6519.83
946.575	6530
946.881	6459.72
947.187	6471.02
947.493	6424.69
947.799	6413.39
948.105	6313.73
948.41	6289.1
948.716	6304.24
949.022	6316.67
949.327	6230.34
949.633	6224.24
949.938	6235.99
950.244	6295.43
950.549	6216.33
950.854	6160.97
951.16	6107.41
951.465	6092.72
951.77	6098.37
952.075	6014.08
952.38	5992.38
952.685	6048.65
952.99	5949.22
953.294	5896.79
953.599	5887.75
953.904	5849.34
954.209	5842.11
954.513	5835.55
954.818	5798.72
955.122	5788.77
955.426	5783.12
955.731	5699.06
956.035	5701.09
956.339	5716.91
956.643	5701.77
956.948	5613.86
957.252	5564.37
957.556	5572.73
957.86	5589.01
958.163	5535.45
958.467	5561.21
958.771	5531.38
959.075	5467.88
959.378	5459.29
959.682	5496.13
959.985	5433.3
960.289	5401.44
960.592	5360.76
960.896	5320.54
961.199	5306.3
961.502	5307.88
961.805	5245.96
962.108	5226.53
962.411	5248.45
962.714	5196.7
963.017	5222.24
963.32	5166.42
963.623	5157.83
963.926	5105.18
964.228	5095.23
964.531	5106.31
964.833	5095.91
965.136	5011.62
965.438	5016.14
965.741	5016.59
966.043	4969.59
966.345	5008.23
966.648	4951.51
966.95	4972.07
967.252	4933.43
967.554	4912.19
967.856	4876.93
968.158	4836.03
968.46	4843.71
968.761	4794.22
969.063	4782.93
969.365	4755.13
969.666	4759.42
969.968	4698.41
970.269	4703.61
970.571	4702.7
970.872	4685.75
971.174	4648.92
971.475	4620.67
971.776	4612.31
972.077	4590.84
972.378	4600.78
972.679	4619.09
972.98	4607.56
973.281	4556.72
973.582	4564.63
973.883	4504.06
974.183	4499.32
974.484	4461.13
974.785	4434.01
975.085	4465.19
975.386	4440.56
975.686	4379.77
975.986	4373.67
976.287	4366.89
976.587	4300
976.887	4363.28
977.187	4325.08
977.487	4337.06
977.787	4262.49
978.087	4254.58
978.387	4253.67
978.687	4235.59
978.987	4217.74
979.286	4193.34
979.586	4193.79
979.885	4095.03
980.185	4112.21
980.484	4127.8
980.784	4110.63
981.083	4055.94
981.382	4040.12
981.682	4015.94
981.981	3975.26
982.28	4003.51
982.579	4006.9
982.878	3940.69
983.177	3902.95
983.475	3886.45
983.774	3847.81
984.073	3814.59
984.372	3817.3
984.67	3809.62
984.969	3813.46
985.267	3813.46
985.566	3756.51
985.864	3679.68
986.162	3721.71
986.461	3713.57
986.759	3679.23
987.057	3588.61
987.355	3619.57
987.653	3633.12
987.951	3623.41
988.249	3578.44
988.547	3555.84
988.844	3514.94
989.142	3501.38
989.44	3466.35
989.737	3436.52
990.035	3378.67
990.332	3416.63
990.63	3358.78
990.927	3351.32
991.224	3345.22
991.521	3286.02
991.819	3319.46
992.116	3309.07
992.413	3329.63
992.71	3283.98
993.006	3243.3
993.303	3211.21
993.6	3204.66
993.897	3206.24
994.193	3169.63
994.49	3145.68
994.787	3124.44
995.083	3098.22
995.379	3079.69
995.676	3077.66
995.972	3089.64
996.268	3051.9
996.565	3034.72
996.861	2996.98
997.157	2968.51
997.453	2980.49
997.749	2966.25
998.044	2965.8
998.34	2938
998.636	2912.47
998.932	2873.82
999.227	2871.56
999.523	2862.52
999.818	2820.26
1000.114	2828.17
1000.409	2828.85
1000.704	2790.89
1001	2791.57
1001.295	2774.62
1001.59	2792.24
1001.885	2785.01
1002.18	2702.98
1002.475	2716.31
1002.77	2694.84
1003.065	2662.98
1003.359	2691
1003.654	2650.1
1003.949	2626.37
1004.243	2613.26
1004.538	2597.45
1004.832	2591.57
1005.127	2589.76
1005.421	2575.98
1005.715	2554.06
1006.009	2531.23
1006.304	2519.48
1006.598	2507.05
1006.892	2545.24
1007.186	2478.58
1007.48	2449.65
1007.773	2459.6
1008.067	2449.2
1008.361	2399.71
1008.655	2403.33
1008.948	2389.54
1009.242	2384.8
1009.535	2359.49
1009.829	2354.29
1010.122	2314.97
1010.415	2298.24
1010.708	2333.05
1011.001	2297.11
1011.295	2287.4
1011.588	2269.77
1011.881	2266.38
1012.173	2248.53
1012.466	2242.88
1012.759	2220.51
1013.052	2252.14
1013.344	2218.7
1013.637	2196.78
1013.93	2186.61
1014.222	2138.93
1014.514	2148.64
1014.807	2114.07
1015.099	2133.5
1015.391	2144.12
1015.683	2104.35
1015.976	2073.17
1016.268	2058.25
1016.56	2020.96
1016.851	2034.97
1017.143	2045.14
1017.435	2029.55
1017.727	1989.1
1018.018	2023
1018.31	2020.29
1018.602	1979.61
1018.893	1926.5
1019.185	1947.75
1019.476	1919.95
1019.767	1894.41
1020.058	1918.37
1020.35	1919.5
1020.641	1869.56
1020.932	1854.64
1021.223	1874.98
1021.514	1859.84
1021.804	1811.48
1022.095	1794.98
1022.386	1814.42
1022.677	1790.69
1022.967	1745.72
1023.258	1760.18
1023.548	1746.39
1023.839	1737.81
1024.129	1709.56
1024.419	1736.9
1024.709	1700.97
1025	1704.36
1025.29	1709.56
1025.58	1657.13
1025.87	1629.34
1026.16	1659.17
1026.449	1675.89
1026.739	1613.52
1027.029	1623.01
1027.319	1644.7
1027.608	1613.29
1027.898	1588.88
1028.187	1556.8
1028.477	1588.66
1028.766	1553.63
1029.055	1536.23
1029.344	1550.24
1029.634	1541.2
1029.923	1531.26
1030.212	1532.39
1030.501	1511.37
1030.79	1480.19
1031.078	1466.4
1031.367	1496.23
1031.656	1462.79
1031.945	1470.24
1032.233	1474.76
1032.522	1466.4
1032.81	1461.88
1033.099	1433.18
1033.387	1424.6
1033.675	1438.15
1033.963	1411.71
1034.251	1408.1
1034.54	1409
1034.828	1384.6
1035.116	1358.16
1035.403	1380.53
1035.691	1359.06
1035.979	1332.62
1036.267	1328.78
1036.554	1314.99
1036.842	1310.25
1037.129	1283.58
1037.417	1285.39
1037.704	1279.74
1037.992	1289.23
1038.279	1282
1038.566	1262.57
1038.853	1262.57
1039.14	1262.57
