Data from whiteboard_FLMS001491_00097.txt Node
Date: Wed Feb 08 11:28:45 GMT 2017
User: dcchb
Spectrometer: FLMS00149
Trigger mode: 0
Integration Time (sec): 2.000000E-2
Scans to average: 10
Electric dark correction enabled: true
Nonlinearity correction enabled: false
Boxcar width: 0
XAxis mode: Wavelengths
Number of Pixels in Spectrum: 2048
>>>>>Begin Spectral Data<<<<<
341.393	-9.8
341.776	-9.8
342.16	-9.8
342.543	-64.04
342.927	-56.35
343.31	-89.12
343.693	-63.59
344.077	-61.33
344.46	-62.23
344.843	-57.94
345.226	-50.7
345.61	-25.85
345.993	-14.55
346.376	-10.25
346.759	6.02
347.142	24.77
347.525	35.62
347.908	71.33
348.291	96.41
348.674	74.94
349.057	126.47
349.44	120.14
349.823	139.12
350.206	194.94
350.588	232.68
350.971	227.25
351.354	255.5
351.737	243.98
352.119	275.16
352.502	300.47
352.884	313.35
353.267	329.62
353.65	316.97
354.032	340.92
354.414	338.89
354.797	354.48
355.179	349.51
355.562	372.33
355.944	360.81
356.326	359.91
356.709	385.22
357.091	382.73
357.473	366.46
357.855	368.49
358.238	381.83
358.62	377.08
359.002	367.82
359.384	399
359.766	381.83
360.148	379.11
360.53	375.5
360.912	353.58
361.294	389.28
361.676	379.79
362.057	376.63
362.439	374.59
362.821	360.36
363.203	372.33
363.584	359.23
363.966	380.47
364.348	372.79
364.729	372.33
365.111	369.4
365.493	339.12
365.874	359.45
366.256	352.45
366.637	352
367.019	367.59
367.4	370.75
367.781	368.72
368.163	353.13
368.544	394.03
368.925	359.23
369.306	371.2
369.688	364.88
370.069	359.91
370.45	366.46
370.831	369.85
371.212	366.01
371.593	375.27
371.974	384.54
372.355	364.43
372.736	366.01
373.117	377.31
373.498	378.44
373.879	388.83
374.26	377.98
374.641	387.93
375.021	381.6
375.402	377.76
375.783	398.32
376.163	392.67
376.544	403.07
376.925	387.48
377.305	375.05
377.686	397.19
378.066	404.2
378.447	415.5
378.827	396.06
379.208	399
379.588	409.62
379.968	397.87
380.349	384.76
380.729	401.03
381.109	428.6
381.489	425.21
381.87	425.21
382.25	441.26
382.63	427.7
383.01	424.31
383.39	449.62
383.77	445.78
384.15	439.23
384.53	459.34
384.91	441.03
385.29	472.22
385.67	459.56
386.049	471.32
386.429	448.72
386.809	486.46
387.189	452.56
387.568	474.25
387.948	477.19
388.328	454.59
388.707	495.5
389.087	486.23
389.466	497.98
389.846	514.03
390.225	521.71
390.605	528.71
390.984	527.13
391.363	524.2
391.743	519.9
392.122	529.62
392.501	543.63
392.881	552.44
393.26	562.84
393.639	582.05
394.018	582.72
394.397	574.82
394.776	592.89
395.155	585.89
395.534	619.79
395.913	603.97
396.292	606.68
396.671	643.29
397.05	633.57
397.429	662.04
397.808	640.35
398.186	653.46
398.565	667.69
398.944	662.04
399.323	660.69
399.701	676.28
400.08	688.03
400.458	719.22
400.837	734.36
401.215	734.36
401.594	744.53
401.972	763.74
402.351	776.39
402.729	807.8
403.107	799.44
403.486	798.54
403.864	817.29
404.242	831.76
404.62	833.34
404.999	873.56
405.377	900.91
405.755	924.41
406.133	924.86
406.511	923.28
406.889	963.28
407.267	987.91
407.645	994.24
408.023	999.66
408.401	1013.9
408.779	1039.66
409.156	1066.33
409.534	1083.5
409.912	1096.38
410.29	1149.26
410.667	1165.99
411.045	1179.55
411.422	1218.87
411.8	1206.66
412.178	1261.35
412.555	1281.01
412.933	1282.14
413.31	1308.58
413.687	1307.45
414.065	1353.78
414.442	1394.91
414.819	1406.66
415.197	1428.13
415.574	1467.22
415.951	1463.38
416.328	1473.1
416.705	1484.85
417.082	1502.02
417.46	1541.8
417.837	1549.71
418.214	1578.86
418.591	1612.75
418.967	1601
419.344	1627.9
419.721	1667.67
420.098	1692.53
420.475	1699.76
420.852	1716.71
421.228	1737.27
421.605	1765.52
421.982	1781.79
422.358	1804.39
422.735	1821.79
423.111	1864.5
423.488	1872.63
423.864	1906.31
424.241	1903.82
424.617	1942.24
424.994	1950.6
425.37	1944.04
425.746	1959.19
426.123	2005.51
426.499	2030.6
426.875	2052.29
427.251	2094.55
427.627	2153.76
428.003	2165.96
428.379	2232.85
428.756	2238.5
429.132	2267.2
429.507	2295.9
429.883	2310.59
430.259	2367.31
430.635	2400.98
431.011	2413.19
431.387	2464.48
431.763	2542.67
432.138	2510.13
432.514	2573.86
432.89	2584.25
433.265	2629
433.641	2648.89
434.016	2718.26
434.392	2747.19
434.767	2783.8
435.143	2771.82
435.518	2836.45
435.894	2881.87
436.269	2911.25
436.644	2942.66
437.02	2971.81
437.395	2988.76
437.77	3025.15
438.145	3088.42
438.52	3096.11
438.895	3142.66
439.271	3118.93
439.646	3238.25
440.021	3275.99
440.395	3265.59
440.77	3285.7
441.145	3303.33
441.52	3324.57
441.895	3330.9
442.27	3410.67
442.645	3411.12
443.019	3437.34
443.394	3514.17
443.769	3511.01
444.143	3462.88
444.518	3549.88
444.892	3528.41
445.267	3611.12
445.641	3616.77
446.016	3633.49
446.39	3678.46
446.764	3719.82
447.139	3711
447.513	3760.95
447.887	3782.64
448.262	3785.13
448.636	3793.49
449.01	3858.8
449.384	3928.17
449.758	3895.18
450.132	3957.78
450.506	4009.08
450.88	4021.73
451.254	4078.68
451.628	4093.37
452.002	4136.3
452.376	4221.5
452.75	4205
453.123	4278.45
453.497	4374.04
453.871	4389.4
454.244	4490.42
454.618	4525.9
454.992	4604.54
455.365	4579.46
455.739	4702.84
456.112	4726.12
456.486	4781.26
456.859	4836.85
457.232	4946
457.606	4958.2
457.979	5000.01
458.352	5083.62
458.725	5160.91
459.099	5207.01
459.472	5328.36
459.845	5421.02
460.218	5373.11
460.591	5461.92
460.964	5503.5
461.337	5618.07
461.71	5721.57
462.083	5801.34
462.456	5812.19
462.829	5825.3
463.201	5975.35
463.574	5936.93
463.947	6135.12
464.32	6181.9
464.692	6233.2
465.065	6317.26
465.438	6399.52
465.81	6503.02
466.183	6533.98
466.555	6710.02
466.928	6711.83
467.3	6746.4
467.672	6880.86
468.045	7029.11
468.417	7018.71
468.789	7109.11
469.161	7213.06
469.534	7375.54
469.906	7541.64
470.278	7542.32
470.65	7621.64
471.022	7739.6
471.394	7950.44
471.766	8077.44
472.138	8089.87
472.51	8340.49
472.882	8420.71
473.253	8486.92
473.625	8678.78
473.997	8795.16
474.369	8907.03
474.74	9017.98
475.112	9173.01
475.484	9291.42
475.855	9473.11
476.227	9577.06
476.598	9791.07
476.97	9903.38
477.341	10101.8
477.713	10240.32
478.084	10294.33
478.455	10607.77
478.827	10652.06
479.198	11068.55
479.569	11085.73
479.94	11353.97
480.311	11483.46
480.682	11760.06
481.053	11961.86
481.424	12174.74
481.795	12326.6
482.166	12468.51
482.537	12699.02
482.908	12945.34
483.279	13066.24
483.65	13216.06
484.021	13608.6
484.391	13689.95
484.762	13856.95
485.133	14058.3
485.503	14199.32
485.874	14561.79
486.244	14657.61
486.615	14834.55
486.985	15136.69
487.356	15345.05
487.726	15551.82
488.097	15862.55
488.467	15812.38
488.837	16091.24
489.207	16342.54
489.578	16650.1
489.948	16647.84
490.318	16984.78
490.688	17151.1
491.058	17286.69
491.428	17539.12
491.798	17716.51
492.168	18013.23
492.538	18115.15
492.908	18325.31
493.278	18567.11
493.648	18583.83
494.017	18850.27
494.387	18968.46
494.757	19201.44
495.126	19490.93
495.496	19500.42
495.866	19591.26
496.235	19797.36
496.605	20008.88
496.974	20207.07
497.344	20393.5
497.713	20531.13
498.082	20747.17
498.452	20955.3
498.821	21024.22
499.19	21061.73
499.559	21371.78
499.928	21460.59
500.298	21516.86
500.667	21844.09
501.036	21818.55
501.405	21962.5
501.774	22112.78
502.143	22279.33
502.512	22418.76
502.88	22640.45
503.249	22667.57
503.618	22858.98
503.987	22992.53
504.356	23121.57
504.724	23226.88
505.093	23315.23
505.462	23361.56
505.83	23615.34
506.199	23745.73
506.567	24097.36
506.936	23990.24
507.304	24283.12
507.672	24451.48
508.041	24493.96
508.409	24686.72
508.777	24806.95
509.145	25033.83
509.514	25074.06
509.882	25348.63
510.25	25528.06
510.618	25675.4
510.986	25754.49
511.354	25996.07
511.722	26219.34
512.09	26413.23
512.458	26532.78
512.826	26820.9
513.193	26863.84
513.561	27147.68
513.929	27301.12
514.297	27585.86
514.664	27712.18
515.032	27756.25
515.4	28162.34
515.767	28210.02
516.135	28565.27
516.502	28321.43
516.869	28750.57
517.237	28958.93
517.604	29023.33
517.972	29438.92
518.339	29506.71
518.706	29602.98
519.073	29820.15
519.44	29912.58
519.808	30278.22
520.175	30252.91
520.542	30663.74
520.909	30828.03
521.276	30823.51
521.643	31114.35
522.009	31436.6
522.376	31525.19
522.743	31879.3
523.11	32059.19
523.477	32369.46
523.843	32554.77
524.21	32776.45
524.577	33110.91
524.943	33125.37
525.31	33385.25
525.676	33673.61
526.043	33886.93
526.409	34093.48
526.776	34338.22
527.142	34465.22
527.508	34818.89
527.874	34995.15
528.241	35175.71
528.607	35339.55
528.973	35801.23
529.339	35670.62
529.705	36105.63
530.071	36356.25
530.437	36495.9
530.803	36710.14
531.169	36878.27
531.535	37018.6
531.901	37042.78
532.267	37458.37
532.632	37685.93
532.998	37950.78
533.364	38190.1
533.73	38218.57
534.095	38567.49
534.461	38570.65
534.826	38739.91
535.192	38915.28
535.557	39161.82
535.923	39232.56
536.288	39312.33
536.653	39694.69
537.019	39445.43
537.384	39710.96
537.749	39932.42
538.114	39956.83
538.479	40040.44
538.845	40238.63
539.21	40307.56
539.575	40415.8
539.94	40599.07
540.305	40731.27
540.67	40691.5
541.034	40917.26
541.399	41166.29
541.764	41152.51
542.129	41321.09
542.494	41315.89
542.858	41642.89
543.223	41586.84
543.587	41784.58
543.952	41713.17
544.316	41814.18
544.681	41854.63
545.045	42134.85
545.41	42418.69
545.774	42516.31
546.138	42647.61
546.503	42751.79
546.867	42709.07
547.231	43314.03
547.595	43160.14
547.959	43528.49
548.324	43429.06
548.688	43600.12
549.052	43762.38
549.416	44060.9
549.779	44069.26
550.143	44327.11
550.507	44563.72
550.871	44749.93
551.235	44634.67
551.599	45001.22
551.962	45039.86
552.326	45216.35
552.689	45403.92
553.053	45342.9
553.417	45411.83
553.78	45998.25
554.143	45786.96
554.507	46172.71
554.87	46121.41
555.234	46522.31
555.597	46375.42
555.96	46640.04
556.323	46816.54
556.686	46794.39
557.05	47003.2
557.413	47062.18
557.776	47205.45
558.139	47411.32
558.502	47485.45
558.865	47536.74
559.228	47741.26
559.59	47864.42
559.953	47809.51
560.316	48392.77
560.679	48275.71
561.041	48493.78
561.404	48611.74
561.767	48890.38
562.129	48866.2
562.492	49112.97
562.854	49207.43
563.217	49120.88
563.579	49275.23
563.941	49460.99
564.304	49800.64
564.666	50008.54
565.028	50001.54
565.39	50033.18
565.753	50213.51
566.115	50254.41
566.477	50533.5
566.839	50605.59
567.201	50899.82
567.563	50981.4
567.925	51142.3
568.287	51262.07
568.648	51377.55
569.01	51623.87
569.372	51708.16
569.734	51747.71
570.095	52037.42
570.457	52212.33
570.819	52179.56
571.18	52270.41
571.542	52527.8
571.903	52516.5
572.265	52662.94
572.626	52778.87
572.987	52865.42
573.349	52948.35
573.71	53037.39
574.071	53184.73
574.432	53245.97
574.794	53445.97
575.155	53470.15
575.516	53412.3
575.877	53557.15
576.238	53681.44
576.599	53738.39
576.96	53723.47
577.32	53758.5
577.681	53827.65
578.042	53871.49
578.403	53836.92
578.763	53789.91
579.124	53872.17
579.485	53978.61
579.845	54032.62
580.206	53974.77
580.566	53951.72
580.927	54001.66
581.287	54044.37
581.648	53840.76
582.008	54038.49
582.368	53963.92
582.728	54177.47
583.089	53947.2
583.449	53997.14
583.809	54024.26
584.169	54079.17
584.529	53955.78
584.889	54216.79
585.249	54020.87
585.609	54006.86
585.969	54172.28
586.329	54087.76
586.688	54062.45
587.048	54123.46
587.408	54067.87
587.768	54056.8
588.127	54080.3
588.487	54190.81
588.846	54297.92
589.206	54227.64
589.565	54261.31
589.925	54346.28
590.284	54374.98
590.643	54378.15
591.003	54494.3
591.362	54591.25
591.721	54515.09
592.08	54571.59
592.44	54725.93
592.799	54702.66
593.158	54652.04
593.517	54725.71
593.876	54800.96
594.235	54708.99
594.593	54776.33
594.952	54877.12
595.311	54681.87
595.67	54759.38
596.029	54990.33
596.387	54905.14
596.746	54964.57
597.104	54846.38
597.463	54803.45
597.822	54864.01
598.18	54830.11
598.538	54857.46
598.897	54964.57
599.255	54804.58
599.613	55091.8
599.972	54908.75
600.33	54958.02
600.688	54806.61
601.046	54873.95
601.404	54961.41
601.762	54878.25
602.12	55018.13
602.478	54930
602.836	54949.66
603.194	54689.1
603.552	54748.08
603.91	54721.87
604.268	54757.35
604.625	54610
604.983	54852.48
605.341	54646.16
605.698	54791.92
606.056	54781.3
606.413	54757.57
606.771	54851.13
607.128	54774.75
607.485	54804.12
607.843	54786.5
608.2	54876.89
608.557	55039.82
608.914	54955.76
609.272	55047.28
609.629	55056.32
609.986	55264.45
610.343	55090.67
610.7	55280.27
611.057	55254.51
611.414	55231.23
611.771	55321.4
612.127	55433.03
612.484	55373.15
612.841	55513.94
613.198	55454.73
613.554	55477.55
613.911	55636.19
614.267	55670.99
614.624	55665.34
614.98	55798
615.337	55958.67
615.693	55946.92
616.05	55876.86
616.406	56165.44
616.762	56023.07
617.118	56040.02
617.475	56057.88
617.831	56181.49
618.187	56198.21
618.543	56232.33
618.899	56357.76
619.255	56239.34
619.611	56238.89
619.967	56344.65
620.323	56379.45
620.678	56252.45
621.034	56225.33
621.39	56173.35
621.746	56121.15
622.101	56376.06
622.457	56113.92
622.812	56131.32
623.168	56120.7
623.523	56099.23
623.879	56197.08
624.234	55929.52
624.589	56005.45
624.945	55964.55
625.3	56087.93
625.655	56041.61
626.01	56001.61
626.365	55954.6
626.72	55900.82
627.075	55809.07
627.43	55787.6
627.785	55702.41
628.14	55708.28
628.495	55804.55
628.85	55687.04
629.205	55570.43
629.559	55796.64
629.914	55556.65
630.269	55661.95
630.623	55522.3
630.978	55469.19
631.332	55558.91
631.687	55563.43
632.041	55475.07
632.396	55498.34
632.75	55370.44
633.104	55407.95
633.459	55335.41
633.813	55373.37
634.167	55320.95
634.521	55316.65
634.875	55341.74
635.229	55370.89
635.583	55312.81
635.937	55338.57
636.291	55257.45
636.645	55291.57
636.999	55282.53
637.352	55237.11
637.706	55111.01
638.06	55274.17
638.413	55225.13
638.767	55094.29
639.121	55225.13
639.474	55116.21
639.828	55073.72
640.181	55151.01
640.534	55226.94
640.888	55064.91
641.241	54979.49
641.594	55123.21
641.947	55169.76
642.301	55066.26
642.654	55064.23
643.007	55044.12
643.36	55071.69
643.713	55050.67
644.066	55191.23
644.419	54955.31
644.771	54751.02
645.124	54456.79
645.477	54372.95
645.83	54220.64
646.182	54165.04
646.535	54129.57
646.888	54090.02
647.24	53975.9
647.593	54085.95
647.945	54019.74
648.298	53787.43
648.65	53642.57
649.002	53514.21
649.355	53636.7
649.707	53617.94
650.059	53725.51
650.411	53978.83
650.763	53963.24
651.115	54205.95
651.467	54068.55
651.819	53997.37
652.171	53883.02
652.523	53934.32
652.875	53780.2
653.227	53587.43
653.578	53896.13
653.93	53714.89
654.282	53644.38
654.633	53560.99
654.985	53516.47
655.337	53570.71
655.688	53476.7
656.039	53537.04
656.391	53178.18
656.742	53250.27
657.094	53276.48
657.445	53369.59
657.796	53285.07
658.147	53100.89
658.498	53202.13
658.849	53242.36
659.2	53172.53
659.551	53103.38
659.902	53257.05
660.253	53128.46
660.604	53191.96
660.955	52980.22
661.306	53247.55
661.656	53114.68
662.007	53142.92
662.358	53180.21
662.708	53259.53
663.059	53052.08
663.409	52821.8
663.76	53102.93
664.11	53115.58
664.461	53188.57
664.811	53213.21
665.161	53175.24
665.511	53172.3
665.862	53148.12
666.212	53268.8
666.562	53172.53
666.912	53098.86
667.262	53067.22
667.612	53153.09
667.962	53115.58
668.312	53130.72
668.662	53228.57
669.011	53175.24
669.361	53145.18
669.711	53135.69
670.06	53036.26
670.41	53071.74
670.76	52943.16
671.109	53113.55
671.459	53008.01
671.808	52987.67
672.157	52877.85
672.507	52822.03
672.856	52795.36
673.205	52829.71
673.554	52934.12
673.904	52811.63
674.253	53009.37
674.602	52811.18
674.951	52347.01
675.3	52183.85
675.649	52620
675.998	52573.22
676.346	52554.01
676.695	52637.18
677.044	52376.39
677.393	52432.21
677.741	52500.46
678.09	52380.23
678.438	52270.18
678.787	52264.3
679.135	52229.5
679.484	51971.66
679.832	52042.16
680.181	51766.92
680.529	51961.26
680.877	51781.38
681.225	51698.44
681.573	51881.49
681.922	51638.56
682.27	51475.62
682.618	51469.75
682.966	51305.01
683.314	51412.8
683.661	51318.11
684.009	51185.91
684.357	50971.23
684.705	50978.24
685.053	50973.72
685.4	50921.29
685.748	50587.29
686.095	50694.85
686.443	50540.73
686.79	50412.83
687.138	50499.6
687.485	50513.62
687.832	50459.38
688.18	50300.06
688.527	50154.98
688.874	50150.24
689.221	50149.78
689.568	50103
689.915	49880.19
690.262	49860.75
690.609	49883.35
690.956	49599.06
691.303	49536.01
691.65	49372.4
691.997	49424.15
692.344	49257.38
692.69	49145.52
693.037	49207.43
693.383	48861.91
693.73	49034.11
694.077	48715.47
694.423	48857.39
694.769	48710.5
695.116	48769.71
695.462	48710.5
695.808	48382.15
696.155	48639.31
696.501	48314.13
696.847	48372.65
697.193	48152.32
697.539	48245.65
697.885	47947.81
698.231	47945.77
698.577	47958.43
698.923	47701.94
699.269	47673.01
699.614	47501.04
699.96	47450.19
700.306	47370.87
700.651	47195.74
700.997	47163.87
701.342	47132.01
701.688	47043.88
702.033	46973.14
702.379	46873.71
702.724	46683.89
703.069	46913.94
703.415	46312.14
703.76	46307.17
704.105	46468.3
704.45	46291.13
704.795	46091.58
705.14	45843.91
705.485	45943.11
705.83	45735.21
706.175	45902.21
706.52	45487.53
706.865	45511.71
707.209	45497.02
707.554	45299.97
707.899	45366.63
708.243	45186.3
708.588	45043.02
708.932	44699.98
709.277	44795.12
709.621	44597.16
709.966	44170.28
710.31	44328.47
710.654	44104.52
710.998	44178.87
711.342	43945.2
711.687	43792.66
712.031	43539.79
712.375	43646.23
712.719	43456.63
713.063	43442.84
713.407	43482.84
713.75	43272
714.094	43176.18
714.438	42989.29
714.782	42881.27
715.125	42867.04
715.469	42766.7
715.812	42374.17
716.156	42337.11
716.499	42291.68
716.843	42389.08
717.186	42058.7
717.53	42281.74
717.873	42182.99
718.216	42156.09
718.559	41827.06
718.902	41462.33
719.246	41631.36
719.589	41460.07
719.932	41285.38
720.275	41305.27
720.617	41334.65
720.96	41127.65
721.303	41059.4
721.646	41046.52
721.989	40781.67
722.331	40878.61
722.674	40735.12
723.016	40872.29
723.359	40763.14
723.701	40525.18
724.044	40624.38
724.386	40397.5
724.729	40456.25
725.071	40338.29
725.413	40365.86
725.755	40210.61
726.097	40190.5
726.439	39764.52
726.782	39893.1
727.124	40061.23
727.465	39763.62
727.807	39791.19
728.149	39753.67
728.491	39691.98
728.833	39752.54
729.175	39512.77
729.516	39286.79
729.858	39370.18
730.199	39397.75
730.541	39327.47
730.882	39254.7
731.224	39385.77
731.565	39008.38
731.906	39114.37
732.248	39181.94
732.589	39000.02
732.93	39013.13
733.271	38985.33
733.612	39028.95
733.953	39061.71
734.294	38891.77
734.635	38784.43
734.976	38842.28
735.317	38776.97
735.658	38665.79
735.999	38665.79
736.339	38629.18
736.68	38741.5
737.021	38389.64
737.361	38225.8
737.702	38382.41
738.042	38533.14
738.383	38284.78
738.723	38294.28
739.063	38068.07
739.404	38175.41
739.744	38054.96
740.084	38064.23
740.424	37979.93
740.764	37894.51
741.104	38103.32
741.444	37838.69
741.784	37618.36
742.124	37599.38
742.464	37573.84
742.804	37575.88
743.143	37381.76
743.483	37415.2
743.823	37170.46
744.162	37243
744.502	37184.02
744.841	37059.05
745.181	37066.29
745.52	36976.34
745.86	36980.86
746.199	36869.45
746.538	36618.61
746.877	36692.74
747.216	36649.12
747.556	36575.45
747.895	36524.83
748.234	36386.76
748.573	36421.78
748.911	36342.24
749.25	36259.75
749.589	36025.63
749.928	35859.31
750.267	35955.58
750.605	35874
750.944	35755.81
751.283	35528.47
751.621	35559.21
751.96	35336.16
752.298	35284.64
752.636	35298.87
752.975	35182.04
753.313	34942.27
753.651	35097.52
753.989	34799.68
754.327	34829.51
754.666	34505.45
755.004	34546.13
755.342	34524.88
755.679	34290.31
756.017	34212.8
756.355	34226.36
756.693	34017.1
757.031	33970.32
757.368	33700.5
757.706	33622.53
758.044	33517.9
758.381	33637.9
758.719	33417.79
759.056	33294.63
759.394	33149.55
759.731	33110.23
760.068	33004.7
760.405	32951.37
760.743	32842.22
761.08	32764.03
761.417	32752.05
761.754	32553.41
762.091	32563.58
762.428	32440.64
762.765	32255.79
763.102	32324.94
763.438	32123.14
763.775	31903.94
764.112	32028.68
764.449	31930.6
764.785	31785.07
765.122	31659.65
765.458	31594.56
765.795	31512.98
766.131	31472.53
766.467	31280
766.804	31219.66
767.14	31141.92
767.476	31084.52
767.812	30864.87
768.148	30926.11
768.485	30792.55
768.821	30602.05
769.157	30676.17
769.492	30444.54
769.828	30479.57
770.164	30185.56
770.5	30187.6
770.836	30214.49
771.171	30015.17
771.507	30025.57
771.842	29785.35
772.178	29835.97
772.513	29748.06
772.849	29606.59
773.184	29379.48
773.519	29391.68
773.855	29201.86
774.19	29229.43
774.525	29040.73
774.86	28981.98
775.195	28991.24
775.53	28938.59
775.865	28709.22
776.2	28592.84
776.535	28397.81
776.87	28428.55
777.205	28329.57
777.539	28303.13
777.874	28391.26
778.209	27960.99
778.543	27949.46
778.878	27840.77
779.212	27842.57
779.547	27881.89
779.881	27792.18
780.215	27423.15
780.55	27657.49
780.884	27418.63
781.218	27252.31
781.552	27300.89
781.886	27094.57
782.22	27081.46
782.554	26795.59
782.888	26705.65
783.222	26617.75
783.556	26547.24
783.889	26489.39
784.223	26096.4
784.557	26071.32
784.89	26177.98
785.224	26093.47
785.557	25964.66
785.891	25742.29
786.224	25646.25
786.558	25614.16
786.891	25382.98
787.224	25289.42
787.557	25179.82
787.891	25126.26
788.224	25019.14
788.557	24911.8
788.89	24870.67
789.223	24882.88
789.556	24657.35
789.888	24539.38
790.221	24399.5
790.554	24161.54
790.887	24148.21
791.219	24117.47
791.552	24032.05
791.884	23987.53
792.217	23874.99
792.549	23741.44
792.882	23635.45
793.214	23424.38
793.546	23499.18
793.879	23307.1
794.211	23145.07
794.543	23237.5
794.875	23060.55
795.207	23155.01
795.539	22939.43
795.871	22809.26
796.203	22693.78
796.535	22644.97
796.867	22614.46
797.198	22435.03
797.53	22455.6
797.862	22155.72
798.193	22246.34
798.525	22131.76
798.856	22148.71
799.188	21943.07
799.519	21872.11
799.85	21717.76
800.182	21767.03
800.513	21666.24
800.844	21491.33
801.175	21533.13
801.506	21552.34
801.837	21372.01
802.168	21311.67
802.499	21267.6
802.83	21082.98
803.161	21023.09
803.491	20996.65
803.822	20918.46
804.153	20895.64
804.483	20772.93
804.814	20638.92
805.145	20597.79
805.475	20598.02
805.805	20477.79
806.136	20418.59
806.466	20513.27
806.796	20468.3
807.126	20230.57
807.457	20309.21
807.787	20279.83
808.117	20221.76
808.447	20071.48
808.777	20320.74
809.107	20073.51
809.436	19999.39
809.766	20034.64
810.096	19888.88
810.426	19937.24
810.755	19833.74
811.085	19916.23
811.414	19788.32
811.744	19681.21
812.073	19551.72
812.403	19668.55
812.732	19600.3
813.061	19617.25
813.39	19454.09
813.719	19389.01
814.049	19552.85
814.378	19423.13
814.707	19447.77
815.036	19383.36
815.365	19263.36
815.693	19124.84
816.022	19157.15
816.351	19134.78
816.68	19059.98
817.008	19202.57
817.337	18834.9
817.665	18897.27
817.994	18869.7
818.322	18927.55
818.651	18828.57
818.979	18728.69
819.307	18759.87
819.636	18770.95
819.964	18619.54
820.292	18756.03
820.62	18756.71
820.948	18590.39
821.276	18733.66
821.604	18625.19
821.932	18756.03
822.259	18696.37
822.587	18697.5
822.915	18486.89
823.243	18627
823.57	18553.78
823.898	18594.91
824.225	18507.68
824.553	18583.16
824.88	18569.82
825.207	18640.56
825.535	18489.82
825.862	18598.75
826.189	18464.51
826.516	18613.66
826.843	18627
827.17	18651.4
827.497	18593.55
827.824	18625.19
828.151	18481.01
828.478	18459.32
828.805	18529.6
829.131	18401.92
829.458	18368.47
829.785	18330.28
830.111	18372.09
830.438	18420.45
830.764	18449.6
831.09	18420.22
831.417	18252.99
831.743	18244.86
832.069	18192.66
832.395	18266.1
832.722	18207.12
833.048	18274.69
833.374	18196.27
833.7	17937.52
834.026	18061.59
834.351	18079.67
834.677	18212.54
835.003	18097.07
835.329	17963.28
835.654	17983.17
835.98	17871.31
836.306	17848.94
836.631	17816.85
836.956	17838.99
837.282	17864.76
837.607	17723.29
837.932	17742.73
838.258	17577.98
838.583	17659.79
838.908	17497.76
839.233	17474.48
839.558	17440.81
839.883	17337.09
840.208	17312.68
840.533	17307.71
840.858	17265.68
841.182	17353.81
841.507	17277.2
841.832	17249.41
842.156	17163.08
842.481	17107.49
842.805	17063.65
843.13	16999.92
843.454	16987.49
843.778	16852.35
844.103	16770.32
844.427	16734.39
844.751	16824.33
845.075	16623.21
845.399	16609.42
845.723	16543.44
846.047	16491.69
846.371	16348.86
846.695	16255.08
847.019	16172.82
847.343	16131.92
847.666	16017.8
847.99	16082.2
848.313	15984.58
848.637	15836.11
848.96	15887.86
849.284	15783
849.607	15699.62
849.931	15560.64
850.254	15574.2
850.577	15501.2
850.9	15358.83
851.223	15340.08
851.546	15355.44
851.869	15211.72
852.192	15289.23
852.515	15188.89
852.838	15091.72
853.161	15072.06
853.483	15079.07
853.806	15007.43
854.129	15076.35
854.451	14841.56
854.774	14776.93
855.096	14839.53
855.419	14721.34
855.741	14797.72
856.063	14588.01
856.385	14712.75
856.708	14589.81
857.03	14571.74
857.352	14545.07
857.674	14552.75
857.996	14447.22
858.318	14390.95
858.64	14465.75
858.961	14423.26
859.283	14268.24
859.605	14313.89
859.926	14246.55
860.248	14273.66
860.57	14163.16
860.891	14169.71
861.212	14157.06
861.534	14113.22
861.855	14203.84
862.176	14101.24
862.498	14071.86
862.819	14017.17
863.14	14069.83
863.461	14160.45
863.782	13983.28
864.103	14010.85
864.424	13984.63
864.745	13967.91
865.065	13837.97
865.386	13910.51
865.707	13883.62
866.027	13946.67
866.348	13879.1
866.668	13783.96
866.989	13756.39
867.309	13755.03
867.63	13757.52
867.95	13817.41
868.27	13748.25
868.59	13696.5
868.91	13690.18
869.23	13649.05
869.55	13575.38
869.87	13686.79
870.19	13542.84
870.51	13624.42
870.83	13590.52
871.15	13492.22
871.469	13493.35
871.789	13570.63
872.109	13526.11
872.428	13421.94
872.748	13484.08
873.067	13406.34
873.386	13421.71
873.706	13414.03
874.025	13338.32
874.344	13292.9
874.663	13309.62
874.982	13274.14
875.301	13247.02
875.62	13171.55
875.939	13207.03
876.258	13201.6
876.577	13112.79
876.896	13085.45
877.214	13068.5
877.533	13038.44
877.852	13099.68
878.17	13016.52
878.489	13043.64
878.807	12949.18
879.125	12980.36
879.444	12885.45
879.762	12829.18
880.08	12888.62
880.398	12828.28
880.716	12786.47
881.034	12715.29
881.352	12767.94
881.67	12651.33
881.988	12694.27
882.306	12639.36
882.624	12567.49
882.941	12529.53
883.259	12381.28
883.577	12465.58
883.894	12312.36
884.212	12342.87
884.529	12336.99
884.846	12249.31
885.164	12208.86
885.481	12264.68
885.798	12219.71
886.115	12078.69
886.432	11998.24
886.75	12034.63
887.067	12013.16
887.383	11918.47
887.7	11950.56
888.017	11851.58
888.334	11919.83
888.651	11835.54
888.967	11756.67
889.284	11675.31
889.6	11650.46
889.917	11522.55
890.233	11524.58
890.55	11511.7
890.866	11542.44
891.182	11401.65
891.498	11366.62
891.815	11345.38
892.131	11249.11
892.447	11183.8
892.763	11198.49
893.079	11176.12
893.395	11183.12
893.71	11072.39
894.026	11071.71
894.342	11090.02
894.657	10999.85
894.973	10940.42
895.289	10926.63
895.604	10874.88
895.92	10803.25
896.235	10760.31
896.55	10763.7
896.865	10762.57
897.181	10680.99
897.496	10684.83
897.811	10594.89
898.126	10522.58
898.441	10527.1
898.756	10494.55
899.071	10469.47
899.386	10484.39
899.7	10326.42
900.015	10291.4
900.33	10253.43
900.644	10283.03
900.959	10256.37
901.273	10203.94
901.588	10125.52
901.902	10078.52
902.216	10023.83
902.531	10059.99
902.845	10033.32
903.159	9983.38
903.473	9947.68
903.787	9922.37
904.101	9878.75
904.415	9877.85
904.729	9761.92
905.042	9744.97
905.356	9761.47
905.67	9745.2
905.984	9774.8
906.297	9702.48
906.611	9673.33
906.924	9624.52
907.237	9596.95
907.551	9568.48
907.864	9602.6
908.177	9492.32
908.491	9476.05
908.804	9410.97
909.117	9411.87
909.43	9365.54
909.743	9304.53
910.056	9338.2
910.368	9308.82
910.681	9235.15
910.994	9211.65
911.307	9126.68
911.619	9079.9
911.932	9135.04
912.244	9002.84
912.557	9064.08
912.869	8971.43
913.181	8987.02
913.494	8897.76
913.806	8893.01
914.118	8899.79
914.43	8807.82
914.742	8846.01
915.054	8757.88
915.366	8820.7
915.678	8717.43
915.99	8729.18
916.302	8624.55
916.613	8541.39
916.925	8590.88
917.236	8608.28
917.548	8490.31
917.859	8527.15
918.171	8486.92
918.482	8454.16
918.794	8364.67
919.105	8385.23
919.416	8368.96
919.727	8289.87
920.038	8266.82
920.349	8224.78
920.66	8199.7
920.971	8201.28
921.282	8127.61
921.593	8090.1
921.903	8100.49
922.214	8090.32
922.525	8016.65
922.835	8010.78
923.146	7997.45
923.456	7950.21
923.767	7853.27
924.077	7854.62
924.387	7819.37
924.697	7789.09
925.008	7795.19
925.318	7786.83
925.628	7791.12
925.938	7736.21
926.248	7654.18
926.558	7631.58
926.867	7569.89
927.177	7547.29
927.487	7491.02
927.796	7507.06
928.106	7477.23
928.416	7444.47
928.725	7504.8
929.034	7326.05
929.344	7345.48
929.653	7309.33
929.962	7274.98
930.271	7257.58
930.581	7246.5
930.89	7146.85
931.199	7132.16
931.508	7112.5
931.817	7118.15
932.125	7012.16
932.434	7027.75
932.743	6950.01
933.051	6920.19
933.36	6919.96
933.669	6830.92
933.977	6817.14
934.286	6771.71
934.594	6743.24
934.902	6743.69
935.21	6654.66
935.519	6651.04
935.827	6648.1
936.135	6602.23
936.443	6507.99
936.751	6463.93
937.059	6399.07
937.367	6394.32
937.674	6388.67
937.982	6362.91
938.29	6350.26
938.597	6357.04
938.905	6297.83
939.213	6208.34
939.52	6195.46
939.827	6093.09
940.135	6059.19
940.442	6075.46
940.749	6085.18
941.056	6056.71
941.363	6042.24
941.67	5980.55
941.977	5944.62
942.284	5927.44
942.591	5868.01
942.898	5847.9
943.205	5817.84
943.511	5798.86
943.818	5766.77
944.125	5719.76
944.431	5711.63
944.738	5670.27
945.044	5632.54
945.35	5564.06
945.657	5555.93
945.963	5536.49
946.269	5537.62
946.575	5521.58
946.881	5470.96
947.187	5409.26
947.493	5397.51
947.799	5371.75
948.105	5322.04
948.41	5307.57
948.716	5320.91
949.022	5274.35
949.327	5235.48
949.633	5242.72
949.938	5186.45
950.244	5213.79
950.549	5134.92
950.854	5148.25
951.16	5124.3
951.465	5091.53
951.77	5007.69
952.075	5021.03
952.38	4944.87
952.685	4974.93
952.99	4917.07
953.294	4912.33
953.599	4961.59
953.904	4874.36
954.209	4820.35
954.513	4845.66
954.818	4811.99
955.122	4773.58
955.426	4684.76
955.731	4732.67
956.035	4671.66
956.339	4640.7
956.643	4682.05
956.948	4642.05
957.252	4625.56
957.556	4593.01
957.86	4560.25
958.163	4557.54
958.467	4520.02
958.771	4497.65
959.075	4483.64
959.378	4473.24
959.682	4444.54
959.985	4427.82
960.289	4421.27
960.592	4439.35
960.896	4362.96
961.199	4353.02
961.502	4363.64
961.805	4332.23
962.108	4322.51
962.411	4309.63
962.714	4247.26
963.017	4249.07
963.32	4233.02
963.623	4151.9
963.926	4216.98
964.228	4178.34
964.531	4198.67
964.833	4121.61
965.136	4115.29
965.438	4129.75
965.741	4122.07
966.043	4096.3
966.345	4087.27
966.648	4036.19
966.95	4055.85
967.252	4038
967.554	4045.23
967.856	4013.82
968.158	3946.7
968.46	3926.59
968.761	3929.08
969.063	3976.53
969.365	3952.81
969.666	3884.33
969.968	3846.37
970.269	3872.36
970.571	3870.55
970.872	3835.75
971.174	3853.6
971.475	3828.97
971.776	3824.67
972.077	3825.13
972.378	3771.12
972.679	3815.41
972.98	3789.65
973.281	3759.82
973.582	3755.52
973.883	3715.98
974.183	3711.91
974.484	3680.27
974.785	3679.37
975.085	3654.73
975.386	3660.61
975.686	3620.16
975.986	3666.26
976.287	3635.98
976.587	3574.51
976.887	3590.33
977.187	3593.72
977.487	3539.03
977.787	3527.28
978.087	3553.72
978.387	3514.63
978.687	3516.21
978.987	3517.56
979.286	3453.61
979.586	3475.3
979.885	3424.46
980.185	3452.25
980.484	3392.37
980.784	3393.72
981.083	3403.89
981.382	3371.58
981.682	3346.49
981.981	3326.16
982.28	3354.4
982.579	3308.98
982.878	3302.65
983.177	3278.02
983.475	3280.73
983.774	3278.7
984.073	3233.05
984.372	3252.49
984.67	3232.15
984.969	3236.44
985.267	3185.59
985.566	3194.86
985.864	3167.29
986.162	3185.59
986.461	3159.15
986.759	3114.41
987.057	3092.04
987.355	3099.04
987.653	3090.46
987.951	3067.41
988.249	3095.2
988.547	3071.02
988.844	3053.39
989.142	3023.56
989.44	3009.1
989.737	2973.85
990.035	2964.13
990.332	2956.67
990.63	2958.71
990.927	2962.32
991.224	2927.75
991.521	2918.48
991.819	2882.55
992.116	2902.66
992.413	2881.65
992.71	2827.41
993.006	2801.65
993.303	2820.63
993.6	2801.2
993.897	2812.95
994.193	2815.66
994.49	2781.09
994.787	2772.05
995.083	2707.19
995.379	2678.71
995.676	2673.07
995.972	2701.77
996.268	2647.08
996.565	2666.74
996.861	2638.04
997.157	2599.85
997.453	2595.55
997.749	2597.81
998.044	2585.16
998.34	2562.33
998.636	2570.92
998.932	2500.41
999.227	2504.71
999.523	2494.09
999.818	2457.25
1000.114	2455.44
1000.409	2441.43
1000.704	2453.64
1001	2412.28
1001.295	2394.2
1001.59	2367.31
1001.885	2403.24
1002.18	2351.04
1002.475	2344.71
1002.77	2309.46
1003.065	2323.02
1003.359	2316.69
1003.654	2280.31
1003.949	2274.88
1004.243	2238.5
1004.538	2235.56
1004.832	2213.42
1005.127	2201.21
1005.421	2175
1005.715	2168.67
1006.009	2167.99
1006.304	2215.22
1006.598	2167.54
1006.892	2128.45
1007.186	2142.23
1007.48	2113.08
1007.773	2091.84
1008.067	2091.61
1008.361	2057.26
1008.655	2043.93
1008.948	2036.02
1009.242	2043.48
1009.535	2006.64
1009.829	2009.35
1010.122	1996.02
1010.415	1940.88
1010.708	1968.23
1011.001	1946.08
1011.295	1925.74
1011.588	1915.57
1011.881	1890.49
1012.173	1904.5
1012.466	1874.44
1012.759	1833.09
1013.052	1854.1
1013.344	1812.52
1013.637	1822.01
1013.93	1812.97
1014.222	1801
1014.514	1781.56
1014.807	1757.84
1015.099	1740.43
1015.391	1749.93
1015.683	1719.87
1015.976	1713.09
1016.268	1721.45
1016.56	1678.52
1016.851	1678.74
1017.143	1723.71
1017.435	1666.99
1017.727	1624.05
1018.018	1635.8
1018.31	1652.3
1018.602	1617.5
1018.893	1596.26
1019.185	1597.61
1019.476	1580.21
1019.767	1591.29
1020.058	1558.52
1020.35	1561.46
1020.641	1524.17
1020.932	1542.7
1021.223	1501.34
1021.514	1517.62
1021.804	1492.76
1022.095	1503.6
1022.386	1478.97
1022.677	1466.09
1022.967	1433.32
1023.258	1426.32
1023.548	1460.67
1023.839	1462.7
1024.129	1433.55
1024.419	1427.9
1024.709	1412.53
1025	1384.96
1025.29	1379.09
1025.58	1357.17
1025.87	1351.07
1026.16	1363.04
1026.449	1356.49
1026.739	1334.34
1027.029	1342.03
1027.319	1341.8
1027.608	1336.83
1027.898	1310.39
1028.187	1326.66
1028.477	1292.99
1028.766	1285.53
1029.055	1282.14
1029.344	1263.38
1029.634	1264.74
1029.923	1255.48
1030.212	1236.04
1030.501	1228.36
1030.79	1256.15
1031.078	1238.3
1031.367	1192.88
1031.656	1213.89
1031.945	1189.71
1032.233	1194.01
1032.522	1174.35
1032.81	1142.26
1033.099	1175.03
1033.387	1183.84
1033.675	1155.37
1033.963	1135.03
1034.251	1140.22
1034.54	1141.35
1034.828	1128.47
1035.116	1123.95
1035.403	1104.74
1035.691	1118.3
1035.979	1116.27
1036.267	1097.74
1036.554	1102.49
1036.842	1101.58
1037.129	1079.43
1037.417	1083.28
1037.704	1055.03
1037.992	1036.95
1038.279	1064.97
1038.566	1022.49
1038.853	1022.49
1039.14	1022.49
