Data from white_poster_card_FLMS001491_00095.txt Node
Date: Wed Feb 08 11:52:18 GMT 2017
User: dcchb
Spectrometer: FLMS00149
Trigger mode: 0
Integration Time (sec): 2.000000E-2
Scans to average: 10
Electric dark correction enabled: true
Nonlinearity correction enabled: false
Boxcar width: 0
XAxis mode: Wavelengths
Number of Pixels in Spectrum: 2048
>>>>>Begin Spectral Data<<<<<
341.393	-11.12
341.776	-11.12
342.16	-11.12
342.543	-72.13
342.927	-49.76
343.31	-78.01
343.693	-75.52
344.077	-85.24
344.46	-64.9
344.843	-52.02
345.226	-43.21
345.61	-21.51
345.993	-17.9
346.376	22.33
346.759	10.8
347.142	31.37
347.525	44.02
347.908	73.85
348.291	65.49
348.674	91.71
349.057	98.71
349.44	92.16
349.823	145.94
350.206	157.02
350.588	189.78
350.971	208.09
351.354	224.58
351.737	230.46
352.119	238.14
352.502	264.36
352.884	255.09
353.267	283.11
353.65	257.8
354.032	289.89
354.414	309.1
354.797	289.44
355.179	321.76
355.562	321.98
355.944	331.47
356.326	327.63
356.709	309.1
357.091	309.55
357.473	352.72
357.855	332.38
358.238	333.73
358.62	343.68
359.002	343.68
359.384	305.94
359.766	340.29
360.148	343.23
360.53	318.59
360.912	330.57
361.294	344.81
361.676	319.05
362.057	334.41
362.439	331.47
362.821	310.01
363.203	314.3
363.584	328.99
363.966	315.88
364.348	340.97
364.729	330.12
365.111	324.92
365.493	313.62
365.874	295.09
366.256	300.51
366.637	299.16
367.019	321.98
367.4	321.08
367.781	294.19
368.163	319.5
368.544	299.84
368.925	324.24
369.306	309.1
369.688	296
370.069	311.14
370.45	310.91
370.831	284.7
371.212	288.09
371.593	314.07
371.974	316.79
372.355	314.3
372.736	319.27
373.117	307.75
373.498	298.93
373.879	300.97
374.26	292.38
374.641	317.01
375.021	309.78
375.402	309.55
375.783	318.59
376.163	328.31
376.544	332.15
376.925	317.92
377.305	313.17
377.686	323.34
378.066	309.1
378.447	329.21
378.827	329.67
379.208	332.83
379.588	325.15
379.968	325.6
380.349	354.52
380.729	330.12
381.109	324.02
381.489	322.44
381.87	341.87
382.25	334.41
382.63	312.04
383.01	329.67
383.39	332.15
383.77	350
384.15	335.77
384.53	338.71
384.91	341.42
385.29	340.74
385.67	347.52
386.049	359.72
386.429	349.78
386.809	363.34
387.189	349.55
387.568	352.94
387.948	350.46
388.328	358.14
388.707	353.17
389.087	378.48
389.466	380.51
389.846	354.52
390.225	365.82
390.605	377.57
390.984	368.08
391.363	374.41
391.743	359.04
392.122	370.34
392.501	380.06
392.881	363.79
393.26	393.85
393.639	370.8
394.018	393.62
394.397	401.75
394.776	416.9
395.155	388.87
395.534	413.96
395.913	398.82
396.292	416.22
396.671	407.86
397.05	400.4
397.429	410.12
397.808	453.73
398.186	417.8
398.565	413.73
398.944	411.7
399.323	426.39
399.701	409.21
400.08	430
400.458	420.96
400.837	423.45
401.215	443.34
401.594	431.81
401.972	455.54
402.351	430.91
402.729	450.12
403.107	458.48
403.486	444.24
403.864	449.44
404.242	448.08
404.62	455.99
404.999	480.4
405.377	470
405.755	488.98
406.133	475.88
406.511	481.75
406.889	488.76
407.267	524.92
407.645	511.81
408.023	512.26
408.401	554.07
408.779	512.71
409.156	541.41
409.534	571.24
409.912	539.38
410.29	545.25
410.667	582.09
411.045	586.61
411.422	596.1
411.8	617.34
412.178	604.69
412.555	612.14
412.933	628.42
413.31	647.62
413.687	654.86
414.065	667.28
414.442	708.41
414.819	701.18
415.197	707.74
415.574	713.61
415.951	730.79
416.328	730.11
416.705	784.12
417.082	753.61
417.46	769.65
417.837	769.43
418.214	785.25
418.591	838.81
418.967	824.12
419.344	859.6
419.721	856.43
420.098	865.25
420.475	882.42
420.852	921.97
421.228	906.6
421.605	924.45
421.982	926.94
422.358	960.61
422.735	964.9
423.111	968.52
423.488	997.45
423.864	997.45
424.241	1018.69
424.617	1057.56
424.994	1027.05
425.37	1036.31
425.746	1065.69
426.123	1076.09
426.499	1076.77
426.875	1116.09
427.251	1116.54
427.627	1126.71
428.003	1137.33
428.379	1184.33
428.756	1192.24
429.132	1206.03
429.507	1232.92
429.883	1234.5
430.259	1242.64
430.635	1244.22
431.011	1287.16
431.387	1317.21
431.763	1329.64
432.138	1356.08
432.514	1368.28
432.89	1378.23
433.265	1402.86
433.641	1420.71
434.016	1451.9
434.392	1468.39
434.767	1479.69
435.143	1496.87
435.518	1500.03
435.894	1561.5
436.269	1552.23
436.644	1573.02
437.02	1575.74
437.395	1610.99
437.77	1633.36
438.145	1628.84
438.52	1694.6
438.895	1697.77
439.271	1664.09
439.646	1709.97
440.021	1730.76
440.395	1711.55
440.77	1693.7
441.145	1752.68
441.52	1773.02
441.895	1772.79
442.27	1787.71
442.645	1807.14
443.019	1807.37
443.394	1816.86
443.769	1861.83
444.143	1864.54
444.518	1875.61
444.892	1857.54
445.267	1871.55
445.641	1892.56
446.016	1895.95
446.39	1911.77
446.764	1920.13
447.139	1915.84
447.513	1964.43
447.887	1957.65
448.262	1992.45
448.636	1989.74
449.01	1998.32
449.384	2023.86
449.758	2034.03
450.132	2057.98
450.506	2054.14
450.88	2081.26
451.254	2098.89
451.628	2115.16
452.002	2127.59
452.376	2162.16
452.75	2207.58
453.123	2185.66
453.497	2234.93
453.871	2234.02
454.244	2264.98
454.618	2283.51
454.992	2292.1
455.365	2322.38
455.739	2391.31
456.112	2381.59
456.486	2414.36
456.859	2405.54
457.232	2490.51
457.606	2446
457.979	2518.54
458.352	2546.56
458.725	2596.27
459.099	2600.57
459.472	2675.59
459.845	2692.99
460.218	2687.8
460.591	2685.76
460.964	2739.77
461.337	2787.68
461.71	2851.63
462.083	2842.82
462.456	2826.1
462.829	2880.33
463.201	2941.8
463.574	2971.4
463.947	3001.01
464.32	3046.88
464.692	3047.56
465.065	3117.62
465.438	3163.04
465.81	3173.43
466.183	3208.69
466.555	3294.11
466.928	3290.27
467.3	3275.8
467.672	3347.67
468.045	3416.59
468.417	3442.8
468.789	3450.71
469.161	3499.53
469.534	3551.73
469.906	3580.2
470.278	3645.29
470.65	3706.3
471.022	3769.8
471.394	3838.27
471.766	3823.13
472.138	3905.17
472.51	3988.55
472.882	3986.29
473.253	4070.13
473.625	4113.97
473.997	4216.34
474.369	4239.85
474.74	4235.1
475.112	4346.06
475.484	4379.5
475.855	4504.25
476.227	4503.79
476.598	4626.28
476.97	4699.72
477.341	4764.13
477.713	4805.93
478.084	4893.84
478.455	4987.85
478.827	5056.32
479.198	5203.89
479.569	5192.82
479.94	5272.59
480.311	5343.09
480.682	5445.69
481.053	5526.37
481.424	5679.58
481.795	5701.5
482.166	5778.56
482.537	5878.67
482.908	5972.46
483.279	6021.27
483.65	6188.04
484.021	6274.59
484.391	6321.37
484.762	6417.64
485.133	6463.06
485.503	6546.9
485.874	6684.08
486.244	6763.62
486.615	6861.47
486.985	6958.64
487.356	7037.29
487.726	7119.77
488.097	7296.94
488.467	7295.81
488.837	7437.05
489.207	7521.57
489.578	7641.79
489.948	7751.39
490.318	7850.37
490.688	7917.04
491.058	7976.25
491.428	8141.89
491.798	8128.56
492.168	8370.81
492.538	8376.91
492.908	8483.58
493.278	8639.5
493.648	8583.01
494.017	8684.02
494.387	8817.58
494.757	8870.46
495.126	9014.86
495.496	9026.16
495.866	9126.95
496.235	9222.31
496.605	9293.05
496.974	9368.52
497.344	9473.38
497.713	9499.37
498.082	9546.37
498.452	9758.8
498.821	9727.84
499.19	9775.52
499.559	9901.39
499.928	9941.17
500.298	9967.38
500.667	10065
501.036	10081.95
501.405	10216.19
501.774	10215.51
502.143	10398.78
502.512	10389.97
502.88	10471.77
503.249	10524.2
503.618	10605.33
503.987	10699.79
504.356	10693.24
504.724	10809.62
505.093	10834.02
505.462	10956.96
505.83	10938.88
506.199	11156.27
506.567	11255.71
506.936	11197.86
507.304	11330.06
507.672	11385.42
508.041	11452.09
508.409	11605.08
508.777	11604.85
509.145	11737.95
509.514	11801.68
509.882	11905.86
510.25	11957.84
510.618	12059.75
510.986	12127.77
511.354	12224.72
511.722	12277.15
512.09	12369.35
512.458	12421.55
512.826	12563.92
513.193	12683.69
513.561	12666.74
513.929	12820.19
514.297	12974.31
514.664	12973.85
515.032	13028.54
515.4	13162.55
515.767	13219.27
516.135	13305.37
516.502	13301.3
516.869	13482.09
517.237	13577.91
517.604	13616.1
517.972	13700.16
518.339	13863.1
518.706	13881.85
519.073	14018.8
519.44	14110.77
519.808	14212.69
520.175	14272.58
520.542	14549.63
520.909	14636.86
521.276	14540.14
521.643	14721.38
522.009	14854.03
522.376	14891.54
522.743	15091.99
523.11	15295.15
523.477	15355.49
523.843	15423.51
524.21	15610.39
524.577	15700.11
524.943	15829.6
525.31	15885.87
525.676	16045.19
526.043	16149.14
526.409	16221.23
526.776	16441.79
527.142	16455.8
527.508	16582.8
527.874	16660.54
528.241	16844.26
528.607	16850.36
528.973	17039.06
529.339	17032.5
529.705	17193.86
530.071	17338.26
530.437	17462.1
530.803	17597.91
531.169	17667.52
531.535	17614.41
531.901	17863.44
532.267	17870.22
532.632	17980.05
532.998	18069.54
533.364	18133.27
533.73	18308.63
534.095	18415.52
534.461	18416.42
534.826	18536.42
535.192	18618.23
535.557	18782.51
535.923	18830.42
536.288	18891.21
536.653	18921.27
537.019	18915.17
537.384	19057.08
537.749	19158.55
538.114	19185.22
538.479	19203.52
538.845	19436.96
539.21	19298.43
539.575	19454.14
539.94	19563.29
540.305	19666.79
540.67	19691.42
541.034	19676.05
541.399	19787.69
541.764	19892.09
542.129	20065.42
542.494	20024.29
542.858	20059.32
543.223	20150.39
543.587	20344.51
543.952	20358.29
544.316	20434.9
544.681	20439.42
545.045	20568
545.41	20561
545.774	20745.85
546.138	20893.42
546.503	20822.69
546.867	20808.68
547.231	21002.8
547.595	21012.29
547.959	21214.77
548.324	21247.53
548.688	21172.51
549.052	21296.12
549.416	21412.73
549.779	21425.16
550.143	21424.48
550.507	21754.87
550.871	21695.43
551.235	21763.23
551.599	21919.38
551.962	22021.53
552.326	21973.17
552.689	22134.74
553.053	21997.35
553.417	22179.04
553.78	22447.05
554.143	22317.34
554.507	22439.37
554.87	22599.36
555.234	22805.91
555.597	22689.53
555.96	22736.99
556.323	22996.87
556.686	23011.33
557.05	23136.3
557.413	23150.99
557.776	23263.3
558.139	23421.94
558.502	23466.23
558.865	23505.55
559.228	23719.56
559.59	23811.53
559.953	23905.32
560.316	24028.25
560.679	24055.82
561.041	24276.83
561.404	24314.35
561.767	24407.23
562.129	24453.78
562.492	24711.85
562.854	24726.31
563.217	24827.1
563.579	24899.64
563.941	25017.15
564.304	25192.06
564.666	25338.73
565.028	25369.23
565.39	25466.63
565.753	25619.17
566.115	25731.94
566.477	25916.56
566.839	25932.16
567.201	26079.72
567.563	25974.64
567.925	26316.55
568.287	26248.53
568.648	26332.82
569.01	26475.87
569.372	26752.93
569.734	26679.03
570.095	26768.07
570.457	26979.59
570.819	26973.49
571.18	27045.35
571.542	27218.68
571.903	27182.07
572.265	27281.5
572.626	27355.62
572.987	27457.54
573.349	27438.78
573.71	27634.49
574.071	27703.64
574.432	27871.32
574.794	27898.43
575.155	27944.99
575.516	27887.13
575.877	28009.16
576.238	28077.41
576.599	28166
576.96	28090.97
577.32	28201.93
577.681	28400.79
578.042	28400.11
578.403	28474.69
578.763	28454.8
579.124	28558.75
579.485	28632.2
579.845	28645.53
580.206	28573.22
580.566	28639.88
580.927	28778.41
581.287	28823.38
581.648	28732.99
582.008	28819.09
582.368	28864.96
582.728	28988.35
583.089	28863.15
583.449	28768.69
583.809	28909.71
584.169	28980.66
584.529	28914.23
584.889	29106.76
585.249	28921.68
585.609	28817.28
585.969	29108.12
586.329	28998.07
586.688	29099.76
587.048	29061.11
587.408	28994.9
587.768	28941.34
588.127	28910.16
588.487	29001.91
588.846	29094.11
589.206	28845.75
589.565	28982.02
589.925	29150.15
590.284	29077.84
590.643	28941.8
591.003	29097.5
591.362	29137.04
591.721	29104.5
592.08	29057.95
592.44	29245.52
592.799	29223.82
593.158	29192.86
593.517	29136.37
593.876	29157.38
594.235	29088.68
594.593	29204.84
594.952	29222.01
595.311	29107.21
595.67	29225.86
596.029	29362.58
596.387	29443.25
596.746	29456.58
597.104	29279.64
597.463	29194.44
597.822	29421.33
598.18	29268.79
598.538	29306.53
598.897	29417.04
599.255	29185.4
599.613	29621.55
599.972	29439.18
600.33	29618.84
600.688	29439.41
601.046	29627.65
601.404	29742
601.762	29582.68
602.12	29827.87
602.478	29785.84
602.836	29737.25
603.194	29587.2
603.552	29676.01
603.91	29589.46
604.268	29732.51
604.625	29628.11
604.983	29742.9
605.341	29791.72
605.698	29888.66
606.056	29964.14
606.413	29930.24
606.771	29939.06
607.128	29959.85
607.485	29976.34
607.843	29957.81
608.2	30120.52
608.557	30227.19
608.914	30194.64
609.272	30231.48
609.629	30181.54
609.986	30398.03
610.343	30293.17
610.7	30454.52
611.057	30407.75
611.414	30391.25
611.771	30417.01
612.127	30508.53
612.484	30514.64
612.841	30637.8
613.198	30566.16
613.554	30462.89
613.911	30700.62
614.267	30614.29
614.624	30588.53
614.98	30668.08
615.337	30661.98
615.693	30716.44
616.05	30624.24
616.406	30806.15
616.762	30714.86
617.118	30780.17
617.475	30791.24
617.831	30882.99
618.187	30872.37
618.543	31019.93
618.899	31131.34
619.255	31025.81
619.611	30969.31
619.967	31031.23
620.323	31057.45
620.678	30859.71
621.034	31014.28
621.39	30948.75
621.746	30891.12
622.101	31275.07
622.457	31005.47
622.812	31057.9
623.168	31196.88
623.523	31212.92
623.879	31144.22
624.234	30971.57
624.589	31224.45
624.945	31149.65
625.3	31156.43
625.655	31049.76
626.01	31104.9
626.365	31206.14
626.72	31091.57
627.075	31115.98
627.43	31042.08
627.785	31141.74
628.14	31092.25
628.495	31185.13
628.85	31015.64
629.205	30928.86
629.559	31108.29
629.914	31056.54
630.269	30942.42
630.623	30849.99
630.978	30838.24
631.332	30943.1
631.687	30938.58
632.041	30776.55
632.396	30672.15
632.75	30770
633.104	30751.01
633.459	30697.46
633.813	30600.96
634.167	30509.21
634.521	30492.26
634.875	30604.8
635.229	30580.17
635.583	30380.4
635.937	30395.54
636.291	30239.16
636.645	30466.73
636.999	30151.03
637.352	30339.27
637.706	30141.54
638.06	30417.46
638.413	30225.15
638.767	30077.13
639.121	30176.34
639.474	30090.69
639.828	30043.91
640.181	29968.89
640.534	29949.23
640.888	29871.26
641.241	29804.15
641.594	29786.52
641.947	29810.47
642.301	29762.56
642.654	29741.55
643.007	29797.82
643.36	29787.2
643.713	29782.9
644.066	29716.69
644.419	29547.88
644.771	29396.47
645.124	29121
645.477	29101.11
645.83	28958.29
646.182	28815.02
646.535	28625.19
646.888	28653.22
647.24	28519.43
647.593	28592.2
647.945	28605.53
648.298	28453.22
648.65	28418.87
649.002	28329.61
649.355	28376.39
649.707	28434.46
650.059	28526.44
650.411	28759.88
650.763	28753.78
651.115	29101.57
651.467	29010.72
651.819	28977.27
652.171	28877.84
652.523	28844.17
652.875	28926.43
653.227	28676.27
653.578	28870.61
653.93	28676.04
654.282	28708.58
654.633	28646.21
654.985	28706.32
655.337	28764.17
655.688	28526.67
656.039	28692.08
656.391	28513.56
656.742	28523.05
657.094	28539.55
657.445	28608.47
657.796	28594.01
658.147	28469.72
658.498	28457.06
658.849	28459.77
659.2	28390.4
659.551	28271.3
659.902	28459.1
660.253	28259.55
660.604	28362.15
660.955	28219.1
661.306	28415.03
661.656	28281.93
662.007	28206.67
662.358	28317.41
662.708	28194.7
663.059	28265.66
663.409	28025.44
663.76	28273.11
664.11	28125.77
664.461	28132.78
664.811	28105.89
665.161	28083.96
665.511	28074.02
665.862	28135.72
666.212	28138.2
666.562	28119.22
666.912	28086.45
667.262	28042.84
667.612	28008.71
667.962	28061.14
668.312	28084.42
668.662	28138.65
669.011	28003.06
669.361	28123.51
669.711	27902.5
670.06	27889.17
670.41	27944.76
670.76	27807.59
671.109	27948.38
671.459	27857.3
671.808	27787.7
672.157	27727.14
672.507	27691.66
672.856	27554.04
673.205	27789.74
673.554	27847.14
673.904	27596.75
674.253	27768.94
674.602	27697.08
674.951	27184.55
675.3	27233.14
675.649	27635.16
675.998	27438.56
676.346	27561.27
676.695	27645.33
677.044	27473.59
677.393	27465.9
677.741	27470.65
678.09	27450.08
678.438	27311.56
678.787	27425.45
679.135	27350.2
679.484	27159.7
679.832	27239.92
680.181	27128.74
680.529	27189.53
680.877	27128.28
681.225	27219.35
681.573	27366.92
681.922	27128.06
682.27	26988.85
682.618	27000.15
682.966	26968.29
683.314	26976.2
683.661	26874.96
684.009	26751.12
684.357	26669.54
684.705	26789.76
685.053	26685.58
685.4	26586.83
685.748	26527.85
686.095	26454.86
686.443	26345.71
686.79	26285.14
687.138	26378.25
687.485	26215.31
687.832	26319.49
688.18	26240.4
688.527	26026.17
688.874	26081.98
689.221	26095.99
689.568	25946.85
689.915	25939.84
690.262	25870.46
690.609	25825.72
690.956	25716.57
691.303	25580.53
691.65	25537.37
691.997	25453.75
692.344	25333.53
692.69	25350.48
693.037	25429.57
693.383	25259.86
693.73	25182.12
694.077	25097.15
694.423	25042.69
694.769	25013.54
695.116	24944.84
695.462	25003.82
695.808	24738.06
696.155	24728.8
696.501	24628.91
696.847	24638.41
697.193	24402.93
697.539	24493.32
697.885	24347.11
698.231	24249.49
698.577	24136.95
698.923	24191.41
699.269	24103.96
699.614	24024.64
699.96	23922.49
700.306	23997.07
700.651	23980.34
700.997	23798.43
701.342	23741.25
701.688	23696.06
702.033	23622.39
702.379	23687.24
702.724	23496.97
703.069	23592.78
703.415	23320.93
703.76	23443.63
704.105	23419.91
704.45	23304.2
704.795	23115.96
705.14	23096.98
705.485	23122.06
705.83	22948.51
706.175	23000.03
706.52	22981.05
706.865	22817.66
707.209	22743.77
707.554	22648.18
707.899	22845.91
708.243	22609.76
708.588	22482.53
708.932	22419.93
709.277	22452.02
709.621	22449.08
709.966	22285.47
710.31	22318.47
710.654	22068.08
710.998	22166.61
711.342	22174.97
711.687	22077.57
712.031	21937.23
712.375	21954.86
712.719	21938.82
713.063	21872.6
713.407	21957.8
713.75	21870.12
714.094	21729.33
714.438	21737.69
714.782	21697.24
715.125	21562.78
715.469	21619.73
715.812	21555.1
716.156	21342.67
716.499	21448.89
716.843	21448.21
717.186	21385.84
717.53	21359.85
717.873	21383.8
718.216	21290.47
718.559	21107.88
718.902	21085.96
719.246	21184.26
719.589	20996.47
719.932	20946.53
720.275	21008.44
720.617	20970.48
720.96	20870.37
721.303	20899.07
721.646	20801.44
721.989	20677.61
722.331	20770.48
722.674	20697.72
723.016	20643.26
723.359	20550.38
723.701	20593.54
724.044	20474.67
724.386	20411.17
724.729	20476.71
725.071	20457.95
725.413	20438.29
725.755	20319.65
726.097	20271.06
726.439	20117.62
726.782	20161.46
727.124	20265.64
727.465	20066.77
727.807	20107.23
728.149	20034.69
728.491	19969.6
728.833	20076.94
729.175	20044.85
729.516	19979.09
729.858	19932.54
730.199	19975.03
730.541	19924.18
730.882	19848.7
731.224	19869.27
731.565	19697.74
731.906	19720.8
732.248	19795.6
732.589	19764.64
732.93	19477.19
733.271	19588.14
733.612	19521.7
733.953	19602.15
734.294	19435.6
734.635	19369.17
734.976	19454.36
735.317	19267.47
735.658	19398.54
735.999	19249.39
736.339	19306.34
736.68	19240.58
737.021	19290.07
737.361	19109.51
737.702	19188.61
738.042	19133.92
738.383	19182.28
738.723	19078.1
739.063	19151.77
739.404	19130.08
739.744	19040.13
740.084	18999.91
740.424	18926.24
740.764	19005.79
741.104	19024.09
741.444	18932.34
741.784	18822.97
742.124	18907.94
742.464	18743.65
742.804	18778.45
743.143	18723.76
743.483	18780.48
743.823	18636.08
744.162	18679.24
744.502	18666.81
744.841	18560.83
745.181	18596.3
745.52	18541.84
745.86	18524.44
746.199	18516.98
746.538	18410.32
746.877	18429.3
747.216	18433.6
747.556	18321.06
747.895	18421.85
748.234	18321.51
748.573	18187.05
748.911	18222.3
749.25	18102.08
749.589	18025.47
749.928	18055.53
750.267	18119.71
750.605	18116.54
750.944	17961.07
751.283	17965.36
751.621	17944.34
751.96	17865.25
752.298	17830
752.636	17840.39
752.975	17772.6
753.313	17659.15
753.651	17808.3
753.989	17641.75
754.327	17640.62
754.666	17564.69
755.004	17632.94
755.342	17635.2
755.679	17507.97
756.017	17430.46
756.355	17405.6
756.693	17313.85
757.031	17396.11
757.368	17239.5
757.706	17265.27
758.044	17153.86
758.381	17180.3
758.719	17109.56
759.056	17218.26
759.394	17077.25
759.731	16959.06
760.068	16940.76
760.405	16818.72
760.743	16765.39
761.08	16771.72
761.417	16736.24
761.754	16664.6
762.091	16635.68
762.428	16589.35
762.765	16466.19
763.102	16571.73
763.438	16371.73
763.775	16363.6
764.112	16353.88
764.449	16348.23
764.785	16252.19
765.122	16194.79
765.458	16132.64
765.795	16093.77
766.131	16069.59
766.467	15957.5
766.804	15889.94
767.14	15917.96
767.476	15864.17
767.812	15737.17
768.148	15779.88
768.485	15658.08
768.821	15661.47
769.157	15573.56
769.492	15620.11
769.828	15503.5
770.164	15386.45
770.5	15250.63
770.836	15286.79
771.171	15250.4
771.507	15262.61
771.842	15093.57
772.178	15059
772.513	15128.83
772.849	14967.02
773.184	14964.99
773.519	14934.93
773.855	14872.79
774.19	14778.55
774.525	14778.33
774.86	14689.29
775.195	14624.88
775.53	14553.7
775.865	14535.39
776.2	14433.93
776.535	14367.94
776.87	14352.35
777.205	14332.24
777.539	14227.15
777.874	14282.52
778.209	14118.46
778.543	14078.91
778.878	14049.76
779.212	14036.2
779.547	13950.33
779.881	14001.17
780.215	13886.37
780.55	13908.97
780.884	13742.2
781.218	13744.23
781.552	13645.7
781.886	13675.08
782.22	13558.7
782.554	13523.44
782.888	13364.8
783.222	13349.21
783.556	13252.04
783.889	13230.57
784.223	13182.21
784.557	13213.4
784.89	13153.06
785.224	13156.22
785.557	12997.81
785.891	13012.72
786.224	12988.32
786.558	12892.5
786.891	12839.85
787.224	12847.98
787.557	12779.73
787.891	12698.38
788.224	12729.79
788.557	12642.34
788.89	12645.95
789.223	12581.32
789.556	12535.67
789.888	12452.06
790.221	12459.29
790.554	12363.93
790.887	12352.18
791.219	12267.88
791.552	12302.46
791.884	12182.69
792.217	12165.06
792.549	12160.54
792.882	12052.75
793.214	11986.99
793.546	12026.76
793.879	11932.53
794.211	11789.93
794.543	11877.16
794.875	11775.47
795.207	11828.12
795.539	11775.92
795.871	11839.42
796.203	11608.47
796.535	11604.62
796.867	11648.69
797.198	11514.01
797.53	11531.18
797.862	11375.25
798.193	11496.83
798.525	11438.75
798.856	11359.43
799.188	11220.68
799.519	11257.51
799.85	11224.3
800.182	11256.61
800.513	11226.1
800.844	11140.68
801.175	11170.51
801.506	11113.56
801.837	11084.64
802.168	11055.49
802.499	10987.69
802.83	10941.82
803.161	10867.47
803.491	10898.43
803.822	10911.99
804.153	10813.46
804.483	10775.95
804.814	10721.94
805.145	10702.73
805.475	10707.7
805.805	10635.16
806.136	10671.99
806.466	10631.32
806.796	10551.77
807.126	10515.61
807.457	10460.7
807.787	10472
808.117	10401.72
808.447	10447.59
808.777	10404.43
809.107	10368.27
809.436	10340.93
809.766	10361.27
810.096	10297.77
810.426	10247.15
810.755	10195.85
811.085	10246.69
811.414	10230.65
811.744	10164.89
812.073	10098.68
812.403	10186.58
812.732	10054.16
813.061	10078.56
813.39	9953.37
813.719	10002.63
814.049	9958.57
814.378	9947.94
814.707	9971.67
815.036	9926.93
815.365	9801.51
815.693	9746.37
816.022	9877.66
816.351	9745.92
816.68	9702.53
817.008	9715.86
817.337	9681.28
817.665	9620.95
817.994	9629.31
818.322	9646.48
818.651	9563.1
818.979	9538.69
819.307	9557.22
819.636	9616.43
819.964	9507.28
820.292	9565.36
820.62	9530.78
820.948	9467.05
821.276	9508.41
821.604	9477.9
821.932	9502.08
822.259	9482.87
822.587	9478.35
822.915	9494.85
823.243	9456.21
823.57	9448.52
823.898	9471.12
824.225	9396.55
824.553	9357.68
824.88	9455.08
825.207	9467.73
825.535	9409.65
825.862	9486.94
826.189	9373.27
826.516	9437.45
826.843	9457.56
827.17	9439.71
827.497	9470.22
827.824	9408.52
828.151	9410.11
828.478	9464.79
828.805	9425.47
829.131	9316.77
829.458	9363.33
829.785	9328.75
830.111	9371.69
830.438	9363.55
830.764	9379.82
831.09	9389.54
831.417	9307.51
831.743	9380.28
832.069	9402.65
832.395	9329.43
832.722	9384.8
833.048	9300.96
833.374	9319.71
833.7	9260.28
834.026	9305.7
834.351	9331.01
834.677	9366.49
835.003	9305.02
835.329	9301.86
835.654	9238.81
835.98	9293.72
836.306	9244.01
836.631	9226.83
836.956	9237.91
837.282	9288.75
837.607	9203.33
837.932	9211.69
838.258	9146.38
838.583	9189.55
838.908	9120.85
839.233	9166.04
839.558	9121.98
839.883	9015.54
840.208	9048.99
840.533	8975.54
840.858	9019.83
841.182	9013.05
841.507	8996.56
841.832	9004.24
842.156	8898.71
842.481	8947.52
842.805	8911.36
843.13	8917.01
843.454	8909.78
843.778	8824.58
844.103	8868.88
844.427	8821.65
844.751	8816.22
845.075	8814.42
845.399	8753.85
845.723	8700.75
846.047	8708.2
846.371	8680.86
846.695	8618.04
847.019	8495.78
847.343	8580.3
847.666	8484.48
847.99	8510.92
848.313	8456.23
848.637	8410.58
848.96	8375.78
849.284	8371.94
849.607	8325.16
849.931	8251.04
850.254	8260.53
850.577	8176.01
850.9	8130.59
851.223	8142.12
851.546	8076.81
851.869	8064.38
852.192	8056.69
852.515	8018.05
852.838	7951.84
853.161	7937.6
853.483	7890.37
853.806	7885.63
854.129	7929.47
854.451	7845.18
854.774	7784.61
855.096	7800.88
855.419	7752.07
855.741	7740.77
856.063	7704.84
856.385	7681.56
856.708	7670.94
857.03	7588.23
857.352	7646.76
857.674	7584.62
857.996	7534.67
858.318	7522.7
858.64	7536.48
858.961	7511.17
859.283	7474.79
859.605	7417.39
859.926	7425.53
860.248	7407.67
860.57	7447.9
860.891	7430.72
861.212	7356.37
861.534	7334.23
861.855	7361.57
862.176	7340.78
862.498	7350.5
862.819	7312.99
863.14	7260.33
863.461	7248.81
863.782	7277.05
864.103	7282.25
864.424	7268.24
864.745	7261.91
865.065	7212.88
865.386	7209.26
865.707	7184.85
866.027	7159.77
866.348	7159.32
866.668	7161.8
866.989	7128.36
867.309	7066.89
867.63	7122.03
867.95	7050.17
868.27	6967.01
868.59	7093.56
868.91	6983.5
869.23	7024.86
869.55	6960
869.87	7005.88
870.19	6977.63
870.51	6978.53
870.83	6996.38
871.15	6954.8
871.469	6954.58
871.789	6973.79
872.109	6930.4
872.428	6917.74
872.748	6948.48
873.067	6896.95
873.386	6858.99
873.706	6854.24
874.025	6895.6
874.344	6814.69
874.663	6803.17
874.982	6806.78
875.301	6783.28
875.62	6855.14
875.939	6764.53
876.258	6832.09
876.577	6810.17
876.896	6808.37
877.214	6764.53
877.533	6730.85
877.852	6713.23
878.17	6732.44
878.489	6717.75
878.807	6707.35
879.125	6676.62
879.444	6673.23
879.762	6640.01
880.08	6665.32
880.398	6605.21
880.716	6643.85
881.034	6661.7
881.352	6595.72
881.67	6617.41
881.988	6616.28
882.306	6515.04
882.624	6589.39
882.941	6538.54
883.259	6507.13
883.577	6408.83
883.894	6470.52
884.212	6504.19
884.529	6458.54
884.846	6452.22
885.164	6446.57
885.481	6384.2
885.798	6410.41
886.115	6397.53
886.432	6397.98
886.75	6363.86
887.067	6336.74
887.383	6329.73
887.7	6338.32
888.017	6265.78
888.334	6331.77
888.651	6281.37
888.967	6235.27
889.284	6266.46
889.6	6226.01
889.917	6152.34
890.233	6149.4
890.55	6162.06
890.866	6165.22
891.182	6152.11
891.498	6142.39
891.815	6086.13
892.131	6012.91
892.447	6009.74
892.763	6021.95
893.079	6013.36
893.395	6014.26
893.71	6000.93
894.026	5966.81
894.342	5969.29
894.657	5917.54
894.973	5854.94
895.289	5865.11
895.604	5849.52
895.92	5840.71
896.235	5805.91
896.55	5810.43
896.865	5819.01
897.181	5746.93
897.496	5812.23
897.811	5730.88
898.126	5727.94
898.441	5708.73
898.756	5707.6
899.071	5666.93
899.386	5704.21
899.7	5583.31
900.015	5575.63
900.33	5545.35
900.644	5546.03
900.959	5576.99
901.273	5520.72
901.588	5503.99
901.902	5483.66
902.216	5483.2
902.531	5411.79
902.845	5434.39
903.159	5431.91
903.473	5436.2
903.787	5384
904.101	5383.77
904.415	5371.79
904.729	5313.94
905.042	5320.27
905.356	5304
905.67	5252.7
905.984	5265.58
906.297	5226.26
906.611	5163.89
906.924	5209.99
907.237	5177.67
907.551	5173.61
907.864	5122.76
908.177	5083.67
908.491	5109.2
908.804	5089.09
909.117	5030.56
909.43	5002.99
909.743	4986.27
910.056	5009.09
910.368	4984.01
910.681	4942.2
910.994	4946.27
911.307	4893.39
911.619	4866.04
911.932	4917.79
912.244	4838.47
912.557	4856.33
912.869	4824.46
913.181	4782.88
913.494	4761.87
913.806	4776.56
914.118	4685.03
914.43	4703.11
914.742	4714.18
915.054	4672.15
915.366	4664.69
915.678	4639.84
915.99	4592.38
916.302	4560.52
916.613	4574.75
916.925	4562.1
917.236	4551.48
917.548	4525.94
917.859	4534.3
918.171	4490.24
918.482	4461.76
918.794	4445.72
919.105	4465.83
919.416	4440.52
919.727	4389.45
920.038	4369.79
920.349	4321.88
920.66	4392.38
920.971	4331.6
921.282	4296.12
921.593	4307.87
921.903	4309.45
922.214	4280.3
922.525	4219.96
922.835	4219.06
923.146	4198.27
923.456	4221.54
923.767	4215.21
924.077	4155.55
924.387	4179.06
924.697	4102.9
925.008	4130.02
925.318	4101.77
925.628	4073.75
925.938	4105.84
926.248	4076.01
926.558	4044.15
926.867	4058.61
927.177	4010.7
927.487	4014.32
927.796	3934.77
928.106	3914.66
928.416	3924.15
928.725	3941.32
929.034	3847.31
929.344	3884.6
929.653	3883.02
929.962	3818.16
930.271	3829.46
930.581	3773.42
930.89	3811.83
931.199	3775.45
931.508	3768.9
931.817	3789.24
932.125	3774.55
932.434	3718.28
932.743	3747.66
933.051	3709.01
933.36	3702.46
933.669	3642.35
933.977	3633.76
934.286	3644.38
934.594	3632.18
934.902	3610.71
935.21	3570.94
935.519	3605.74
935.827	3568
936.135	3545.18
936.443	3522.35
936.751	3535.23
937.059	3502.92
937.367	3466.99
937.674	3525.51
937.982	3436.25
938.29	3448.23
938.597	3427.89
938.905	3447.32
939.213	3342.02
939.52	3361
939.827	3375.91
940.135	3364.61
940.442	3325.75
940.749	3339.53
941.056	3357.16
941.363	3299.31
941.67	3304.96
941.977	3250.04
942.284	3263.6
942.591	3250.95
942.898	3240.78
943.205	3269.02
943.511	3208.46
943.818	3208.91
944.125	3162.36
944.431	3179.08
944.738	3172.76
945.044	3175.47
945.35	3160.78
945.657	3121.68
945.963	3111.51
946.269	3098.41
946.575	3106.99
946.881	3046.88
947.187	3069.93
947.493	3046.66
947.799	3056.15
948.105	3057.96
948.41	2982.48
948.716	2975.92
949.022	2985.87
949.327	2986.09
949.633	2940.9
949.938	2934.34
950.244	2985.42
950.549	2927.79
950.854	2900.9
951.16	2890.05
951.465	2919.88
951.77	2888.24
952.075	2879.88
952.38	2818.19
952.685	2827.45
952.99	2838.98
953.294	2803.95
953.599	2821.35
953.904	2803.73
954.209	2784.07
954.513	2795.36
954.818	2735.25
955.122	2775.7
955.426	2774.12
955.731	2723.05
956.035	2716.95
956.339	2693.22
956.643	2734.12
956.948	2709.94
957.252	2710.17
957.556	2695.25
957.86	2675.37
958.163	2644.41
958.467	2640.57
958.771	2598.31
959.075	2650.96
959.378	2619.55
959.682	2587.91
959.985	2580.23
960.289	2543.17
960.592	2545.65
960.896	2531.19
961.199	2502.49
961.502	2518.76
961.805	2526.44
962.108	2491.87
962.411	2506.33
962.714	2485.09
963.017	2490.51
963.32	2439.22
963.623	2474.92
963.926	2436.96
964.228	2424.07
964.531	2420.23
964.833	2409.39
965.136	2393.34
965.438	2402.15
965.741	2370.97
966.043	2364.64
966.345	2364.87
966.648	2361.03
966.95	2375.26
967.252	2342.04
967.554	2323.06
967.856	2317.86
968.158	2279.22
968.46	2315.38
968.761	2278.32
969.063	2312.21
969.365	2275.6
969.666	2212.1
969.968	2259.33
970.269	2233.57
970.571	2239.45
970.872	2170.75
971.174	2213.91
971.475	2200.35
971.776	2193.12
972.077	2209.84
972.378	2177.3
972.679	2169.84
972.98	2172.1
973.281	2165.55
973.582	2162.16
973.883	2144.99
974.183	2122.16
974.484	2124.42
974.785	2076.97
975.085	2085.1
975.386	2113.35
975.686	2084.65
975.986	2074.25
976.287	2049.62
976.587	2024.54
976.887	2030.41
977.187	2031.54
977.487	2005.55
977.787	2020.7
978.087	1995.39
978.387	1996.74
978.687	2000.13
978.987	1987.93
979.286	1995.39
979.586	1961.04
979.885	1953.58
980.185	1930.08
980.484	1942.28
980.784	1934.6
981.083	1922.17
981.382	1918.55
981.682	1904.31
981.981	1919
982.28	1900.25
982.579	1879
982.878	1887.14
983.177	1874.03
983.475	1857.76
983.774	1857.31
984.073	1848.72
984.372	1822.28
984.67	1858.67
984.969	1855.28
985.267	1815.5
985.566	1849.4
985.864	1818.44
986.162	1835.84
986.461	1773.7
986.759	1796.52
987.057	1763.53
987.355	1775.96
987.653	1758.1
987.951	1789.29
988.249	1773.7
988.547	1736.64
988.844	1720.59
989.142	1749.29
989.44	1706.13
989.737	1734.83
990.035	1719.46
990.332	1681.5
990.63	1685.56
990.927	1675.85
991.224	1687.37
991.521	1678.11
991.819	1677.43
992.116	1632.91
992.413	1654.6
992.71	1637.65
993.006	1614.83
993.303	1611.67
993.6	1635.85
993.897	1590.65
994.193	1596.98
994.49	1620.48
994.787	1609.63
995.083	1577.32
995.379	1565.79
995.676	1592.91
995.972	1570.09
996.268	1553.36
996.565	1529.63
996.861	1572.35
997.157	1542.74
997.453	1556.07
997.749	1521.5
998.044	1511.78
998.34	1502.74
998.636	1492.35
998.932	1495.29
999.227	1495.74
999.523	1483.99
999.818	1497.55
1000.114	1491.67
1000.409	1474.27
1000.704	1463.87
1001	1476.75
1001.295	1463.2
1001.59	1432.24
1001.885	1432.46
1002.18	1400.37
1002.475	1410.32
1002.77	1392.92
1003.065	1389.53
1003.359	1391.33
1003.654	1384.33
1003.949	1399.24
1004.243	1396.53
1004.538	1359.47
1004.832	1362.86
1005.127	1339.58
1005.421	1326.48
1005.715	1342.3
1006.009	1349.98
1006.304	1332.58
1006.598	1321.28
1006.892	1302.07
1007.186	1286.7
1007.48	1289.19
1007.773	1294.84
1008.067	1278.79
1008.361	1283.31
1008.655	1267.49
1008.948	1250.09
1009.242	1273.6
1009.535	1249.42
1009.829	1210.1
1010.122	1237.67
1010.415	1246.03
1010.708	1197.67
1011.001	1182.98
1011.295	1208.97
1011.588	1209.19
1011.881	1179.81
1012.173	1154.28
1012.466	1176.2
1012.759	1178.23
1013.052	1152.02
1013.344	1156.76
1013.637	1156.09
1013.93	1151.79
1014.222	1138.23
1014.514	1156.09
1014.807	1139.14
1015.099	1125.8
1015.391	1132.13
1015.683	1124.45
1015.976	1106.14
1016.268	1122.64
1016.56	1124.45
1016.851	1103.66
1017.143	1087.84
1017.435	1100.72
1017.727	1087.16
1018.018	1081.06
1018.31	1101.17
1018.602	1066.37
1018.893	1046.94
1019.185	1045.35
1019.476	1034.73
1019.767	1031.12
1020.058	1054.62
1020.35	1034.05
1020.641	1032.02
1020.932	1005.81
1021.223	1015.3
1021.514	992.47
1021.804	999.93
1022.095	1006.03
1022.386	993.38
1022.677	956.99
1022.967	955.64
1023.258	1001.06
1023.548	941.18
1023.839	953.15
1024.129	947.28
1024.419	945.24
1024.709	947.05
1025	952.93
1025.29	935.98
1025.58	909.31
1025.87	937.56
1026.16	910.89
1026.449	916.09
1026.739	876.77
1027.029	891.01
1027.319	904.57
1027.608	893.49
1027.898	899.37
1028.187	859.37
1028.477	855.53
1028.766	881.52
1029.055	869.77
1029.344	851.91
1029.634	852.14
1029.923	843.1
1030.212	825.7
1030.501	854.4
1030.79	830.9
1031.078	829.31
1031.367	828.86
1031.656	816.66
1031.945	827.51
1032.233	828.18
1032.522	800.39
1032.81	817.79
1033.099	808.07
1033.387	796.09
1033.675	786.38
1033.963	790.67
1034.251	794.96
1034.54	780.73
1034.828	767.17
1035.116	775.98
1035.403	769.43
1035.691	753.16
1035.979	745.02
1036.267	761.29
1036.554	753.16
1036.842	740.05
1037.129	746.83
1037.417	722.88
1037.704	727.17
1037.992	723.1
1038.279	713.39
1038.566	694.63
1038.853	694.63
1039.14	694.63
