Data from White_paper_FLMS001491_042.txt Node
Date: Tue Feb 07 10:35:08 GMT 2017
User: dcchb
Spectrometer: FLMS00149
Trigger mode: 0
Integration Time (sec): 2.000000E-2
Scans to average: 10
Electric dark correction enabled: true
Nonlinearity correction enabled: false
Boxcar width: 0
XAxis mode: Wavelengths
Number of Pixels in Spectrum: 2048
>>>>>Begin Spectral Data<<<<<
341.393	3.16
341.776	3.16
342.16	3.16
342.543	-55.82
342.927	-83.84
343.31	-57.63
343.693	-44.52
344.077	-74.35
344.46	-54.91
344.843	-54.91
345.226	-32.54
345.61	-18.53
345.993	-24.18
346.376	-14.69
346.759	-9.04
347.142	29.6
347.525	37.29
347.908	56.95
348.291	80.45
348.674	82.03
349.057	98.98
349.44	114.8
349.823	137.4
350.206	186.66
350.588	208.13
350.971	216.04
351.354	238.19
351.737	253.78
352.119	291.29
352.502	282.7
352.884	288.58
353.267	306.66
353.65	319.99
354.032	336.26
354.414	308.01
354.797	356.6
355.179	346.88
355.562	363.15
355.944	349.6
356.326	369.93
356.709	370.61
357.091	359.54
357.473	363.61
357.855	379.43
358.238	357.96
358.62	358.63
359.002	376.04
359.384	372.19
359.766	363.15
360.148	367.67
360.53	371.52
360.912	337.62
361.294	384.4
361.676	381.23
362.057	354.79
362.439	362.02
362.821	339.2
363.203	355.47
363.584	344.85
363.966	372.19
364.348	342.59
364.729	355.02
365.111	348.01
365.493	355.92
365.874	355.47
366.256	368.8
366.637	358.41
367.019	377.17
367.4	368.8
367.781	371.06
368.163	362.25
368.544	355.24
368.925	332.65
369.306	355.24
369.688	349.14
370.069	344.85
370.45	368.13
370.831	373.32
371.212	346.43
371.593	355.24
371.974	383.94
372.355	369.93
372.736	382.81
373.117	358.86
373.498	352.99
373.879	366.54
374.26	373.1
374.641	348.24
375.021	352.53
375.402	381.68
375.783	364.96
376.163	382.59
376.544	388.01
376.925	409.25
377.305	361.35
377.686	397.73
378.066	395.02
378.447	402.93
378.827	393.21
379.208	396.37
379.588	418.52
379.968	395.02
380.349	387.33
380.729	414.23
381.109	409.25
381.489	417.16
381.87	404.51
382.25	416.49
382.63	415.36
383.01	420.33
383.39	435.02
383.77	406.54
384.15	425.53
384.53	440.67
384.91	434.11
385.29	451.74
385.67	445.41
386.049	442.02
386.429	463.26
386.809	457.16
387.189	464.85
387.568	460.78
387.948	437.5
388.328	458.97
388.707	475.69
389.087	486.31
389.466	478.18
389.846	497.39
390.225	499.42
390.605	477.5
390.984	492.42
391.363	486.99
391.743	504.62
392.122	531.06
392.501	539.65
392.881	537.84
393.26	538.52
393.639	538.97
394.018	557.27
394.397	529.25
394.776	552.75
395.155	526.31
395.534	543.71
395.913	574
396.292	561.79
396.671	580.55
397.05	597.72
397.429	563.38
397.808	585.75
398.186	581.91
398.565	571.96
398.944	599.76
399.323	603.6
399.701	607.89
400.08	629.36
400.458	643.6
400.837	614.67
401.215	646.31
401.594	669.81
401.972	655.35
402.351	687.67
402.729	655.8
403.107	719.98
403.486	683.37
403.864	698.96
404.242	730.6
404.62	741.22
404.999	735.8
405.377	753.88
405.755	792.3
406.133	788.68
406.511	841.79
406.889	830.03
407.267	841.33
407.645	845.85
408.023	899.41
408.401	907.55
408.779	916.59
409.156	937.15
409.534	949.58
409.912	969.24
410.29	1001.78
410.667	1032.29
411.045	1052.4
411.422	1102.12
411.8	1081.1
412.178	1132.17
412.555	1173.75
412.933	1178.05
413.31	1212.62
413.687	1227.54
414.065	1259.85
414.442	1304.15
414.819	1301.21
415.197	1340.98
415.574	1346.41
415.951	1390.02
416.328	1449.45
416.705	1446.74
417.082	1492.84
417.46	1493.29
417.837	1518.38
418.214	1555.67
418.591	1587.08
418.967	1629.56
419.344	1603.8
419.721	1661.65
420.098	1690.13
420.475	1722.89
420.852	1715.66
421.228	1748.65
421.605	1793.63
421.982	1828.88
422.358	1832.49
422.735	1855.77
423.111	1859.16
423.488	1894.64
423.864	1910.46
424.241	1946.62
424.617	2036.78
424.994	2044.47
425.37	2051.47
425.746	2055.77
426.123	2080.4
426.499	2107.74
426.875	2147.29
427.251	2198.13
427.627	2220.05
428.003	2229.32
428.379	2266.83
428.756	2307.74
429.132	2380.05
429.507	2401.29
429.883	2391.35
430.259	2435.64
430.635	2484
431.011	2498.01
431.387	2581.4
431.763	2604.68
432.138	2632.02
432.514	2669.31
432.89	2686.93
433.265	2761.51
433.641	2810.55
434.016	2819.59
434.392	2912.47
434.767	2952.24
435.143	2962.63
435.518	2963.99
435.894	3015.97
436.269	3058.45
436.644	3116.98
437.02	3143.19
437.395	3155.62
437.77	3199.01
438.145	3273.81
438.52	3300.03
438.895	3334.38
439.271	3339.35
439.646	3463.86
440.021	3419.35
440.395	3472
440.77	3480.59
441.145	3466.8
441.52	3514.48
441.895	3536.63
442.27	3636.51
442.645	3521.49
443.019	3639.23
443.394	3610.3
443.769	3696.4
444.143	3662.95
444.518	3717.64
444.892	3709.28
445.267	3735.95
445.641	3844.19
446.016	3816.85
446.39	3850.97
446.764	3841.71
447.139	3854.36
447.513	3899.33
447.887	3918.99
448.262	3964.87
448.636	3939.33
449.01	4023.62
449.384	4036.28
449.758	4066.56
450.132	4107.69
450.506	4116.5
450.88	4178.42
451.254	4186.33
451.628	4252.77
452.002	4288.93
452.376	4268.81
452.75	4353.33
453.123	4389.04
453.497	4449.15
453.871	4504.51
454.244	4594.91
454.618	4544.51
454.992	4670.61
455.365	4658.18
455.739	4827.22
456.112	4817.73
456.486	4908.35
456.859	4925.52
457.232	4986.99
457.606	4986.76
457.979	5065.63
458.352	5214.1
458.725	5233.76
459.099	5315.11
459.472	5380.88
459.845	5408.22
460.218	5456.58
460.591	5567.31
460.964	5550.59
461.337	5659.06
461.71	5746.52
462.083	5847.53
462.456	5859.73
462.829	5916.91
463.201	6000.29
463.574	5967.98
463.947	6122.32
464.32	6227.18
464.692	6272.83
465.065	6334.75
465.438	6437.34
465.81	6502.88
466.183	6590.34
466.555	6755.98
466.928	6785.36
467.3	6797.34
467.672	6890.44
468.045	7093.82
468.417	7123.65
468.789	7198
469.161	7269.64
469.534	7361.84
469.906	7527.49
470.278	7613.13
470.65	7696.29
471.022	7807.93
471.394	7984.2
471.766	8040.47
472.138	8146.23
472.51	8318.2
472.882	8473.45
473.253	8566.33
473.625	8606.55
473.997	8869.6
474.369	8952.08
474.74	8979.42
475.112	9106.88
475.484	9316.59
475.855	9413.99
476.227	9571.73
476.598	9894.66
476.97	9877.71
477.341	10138.72
477.713	10194.76
478.084	10271.59
478.455	10618.7
478.827	10669.32
479.198	11021.18
479.569	10963.55
479.94	11313.15
480.311	11435.63
480.682	11611.67
481.053	11910.42
481.424	12088.72
481.795	12172.11
482.166	12386.57
482.537	12460.24
482.908	12869.04
483.279	12912.88
483.65	13165.76
484.021	13429.7
484.391	13607.33
484.762	13681.67
485.133	13777.04
485.503	13958.5
485.874	14295.44
486.244	14460.18
486.615	14714.42
486.985	14861.3
487.356	15126.38
487.726	15191.69
488.097	15619.48
488.467	15604.79
488.837	15842.97
489.207	16058.79
489.578	16397.53
489.948	16441.38
490.318	16722.27
490.688	16799.33
491.058	17080
491.428	17297.62
491.798	17417.17
492.168	17778.97
492.538	17805.63
492.908	17907.78
493.278	18232.29
493.648	18197.71
494.017	18476.58
494.387	18577.14
494.757	18791.37
495.126	18963.34
495.496	19045.6
495.866	19302.77
496.235	19474.29
496.605	19622.53
496.974	19679.26
497.344	19883.54
497.713	19966.25
498.082	20147.94
498.452	20361.72
498.821	20467.48
499.19	20497.31
499.559	20685.78
499.928	20937.53
500.298	20933.69
500.667	21158.99
501.036	21167.35
501.405	21297.29
501.774	21374.81
502.143	21658.19
502.512	21709.49
502.88	21926.2
503.249	21967.56
503.618	22141.34
503.987	22240.32
504.356	22496.58
504.724	22572.51
505.093	22693.41
505.462	22726.63
505.83	22906.52
506.199	23044.14
506.567	23323.45
506.936	23313.51
507.304	23548.53
507.672	23764.12
508.041	23939.94
508.409	23972.25
508.777	24165.47
509.145	24286.37
509.514	24418.79
509.882	24680.48
510.25	24598.9
510.618	24784.21
510.986	24915.28
511.354	25147.36
511.722	25386
512.09	25583.73
512.458	25538.76
512.826	25810.62
513.193	25906.21
513.561	26068.24
513.929	26241.8
514.297	26555.46
514.664	26604.95
515.032	26809.24
515.4	26991.61
515.767	27136.69
516.135	27223.46
516.502	27076.35
516.869	27641.99
517.237	27675.66
517.604	27677.69
517.972	27987.96
518.339	28184.57
518.706	28378.46
519.073	28526.26
519.44	28571.9
519.808	28922.63
520.175	28908.84
520.542	29353.58
520.909	29503.86
521.276	29533.23
521.643	29801.25
522.009	30099.32
522.376	30161.47
522.743	30413.21
523.11	30650.49
523.477	30860.43
523.843	31156.69
524.21	31391.72
524.577	31576.12
524.943	31838.03
525.31	31851.82
525.676	32269.43
526.043	32453.38
526.409	32377.23
526.776	32897.21
527.142	33045.23
527.508	33095.85
527.874	33374.26
528.241	33667.82
528.607	33705.33
528.973	33932.89
529.339	33963.85
529.705	34401.81
530.071	34527
530.437	34638.86
530.803	35028.46
531.169	35322.46
531.535	35202.69
531.901	35310.94
532.267	35618.72
532.632	35778.04
532.998	35826.85
533.364	36000.18
533.73	36121.76
534.095	36468.19
534.461	36558.13
534.826	36717.9
535.192	36896.66
535.557	37096.65
535.923	37169.19
536.288	37311.56
536.653	37482.4
537.019	37455.06
537.384	37781.38
537.749	37873.58
538.114	37908.16
538.479	38023.86
538.845	38064.08
539.21	38133.01
539.575	38323.51
539.94	38497.74
540.305	38767.34
540.67	38683.5
541.034	38928.69
541.399	39229.03
541.764	39111.29
542.129	39450.49
542.494	39486.87
542.858	39537.72
543.223	39740.2
543.587	39934.32
543.952	40013.86
544.316	40040.3
544.681	40158.94
545.045	40347.87
545.41	40559.84
545.774	40595.09
546.138	40717.57
546.503	40833.28
546.867	40814.75
547.231	41211.12
547.595	41222.64
547.959	41443.43
548.324	41525.69
548.688	41479.14
549.052	41773.36
549.416	41835.28
549.779	41840.71
550.143	42025.11
550.507	42425.1
550.871	42462.61
551.235	42380.13
551.599	42712.32
551.962	42790.74
552.326	42864.18
552.689	43209.03
553.053	43135.36
553.417	43180.33
553.78	43652.41
554.143	43453.55
554.507	43665.97
554.87	43929.47
555.234	44212.4
555.597	43988.9
555.96	44191.15
556.323	44353.86
556.686	44464.82
557.05	44745.26
557.413	44791.36
557.776	44949.55
558.139	45264.12
558.502	45246.95
558.865	45310.67
559.228	45634.05
559.59	45681.51
559.953	45854.39
560.316	46267.94
560.679	46268.84
561.041	46495.5
561.404	46581.83
561.767	46902.95
562.129	46708.6
562.492	47246.22
562.854	47228.81
563.217	47297.97
563.579	47387.68
563.941	47675.36
564.304	47775.24
564.666	48078.06
565.028	48092.52
565.39	48212.74
565.753	48456.13
566.115	48576.58
566.477	48705.84
566.839	48744.26
567.201	49077.13
567.563	49100.63
567.925	49400.51
568.287	49332.49
568.648	49482.54
569.01	49619.49
569.372	49978.8
569.734	49830.78
570.095	50009.98
570.457	50235.29
570.819	50360.94
571.18	50317.55
571.542	50653.36
571.903	50609.06
572.265	50701.27
572.626	50904.88
572.987	50896.51
573.349	51084.98
573.71	51180.12
574.071	51351.64
574.432	51373.34
574.794	51543.96
575.155	51536.72
575.516	51461.25
575.877	51804.06
576.238	51748.02
576.599	51904.85
576.96	51882.48
577.32	51972.64
577.681	52100.78
578.042	52178.74
578.403	52169.48
578.763	52251.96
579.124	52397.27
579.485	52431.84
579.845	52533.08
580.206	52570.14
580.566	52537.38
580.927	52564.27
581.287	52743.7
581.648	52590.93
582.008	52818.72
582.368	52774.88
582.728	52918.16
583.089	52750.7
583.449	52850.14
583.809	52903.92
584.169	53037.25
584.529	52945.5
584.889	53062.11
585.249	52996.35
585.609	52889.46
585.969	53194.53
586.329	52969
586.688	53049.9
587.048	53138.04
587.408	53086.06
587.768	53096.68
588.127	53092.84
588.487	53044.93
588.846	53215.1
589.206	53127.87
589.565	53143.91
589.925	53314.08
590.284	53178.04
590.643	53254.42
591.003	53385.26
591.362	53452.61
591.721	53338.71
592.08	53372.83
592.44	53505.71
592.799	53524.24
593.158	53440.4
593.517	53474.53
593.876	53489.89
594.235	53427.3
594.593	53615.09
594.952	53615.09
595.311	53470.46
595.67	53640.62
596.029	53710.9
596.387	53726.72
596.746	53857.79
597.104	53644.69
597.463	53642.21
597.822	53791.81
598.18	53746.61
598.538	53808.3
598.897	53949.77
599.255	53647.4
599.613	54108.41
599.972	53918.58
600.33	53961.52
600.688	53844.01
601.046	54013.5
601.404	54044
601.762	54050.78
602.12	54114.51
602.478	54156.09
602.836	54175.98
603.194	54071.8
603.552	54045.13
603.91	54074.74
604.268	54251.91
604.625	54111.12
604.983	54312.24
605.341	54190.89
605.698	54248.74
606.056	54278.35
606.413	54311.34
606.771	54451.9
607.128	54399.02
607.485	54326.48
607.843	54383.43
608.2	54468.4
608.557	54569.19
608.914	54538
609.272	54688.28
609.629	54658.45
609.986	54764.66
610.343	54627.94
610.7	54841.72
611.057	54755.17
611.414	54758.33
611.771	54775.73
612.127	54851.89
612.484	54834.94
612.841	54933.7
613.198	54803.76
613.554	54754.27
613.911	54993.13
614.267	54942.74
614.624	54914.26
614.98	54956.07
615.337	55168.27
615.693	54963.07
616.05	55029.97
616.406	55176.18
616.762	55081.72
617.118	55068.83
617.475	55109.51
617.831	55134.37
618.187	55216.63
618.543	55280.81
618.899	55335.72
619.255	55267.25
619.611	55268.83
619.967	55322.16
620.323	55369.84
620.678	55267.7
621.034	55214.82
621.39	55286.68
621.746	55233.35
622.101	55534.81
622.457	55289.62
622.812	55305.44
623.168	55380.01
623.523	55478.54
623.879	55504.98
624.234	55334.59
624.589	55482.83
624.945	55366.91
625.3	55424.98
625.655	55437.64
626.01	55466.79
626.365	55469.5
626.72	55396.51
627.075	55435.15
627.43	55450.75
627.785	55334.36
628.14	55464.08
628.495	55477.41
628.85	55424.53
629.205	55295.95
629.559	55607.35
629.914	55393.57
630.269	55495.94
630.623	55364.87
630.978	55260.47
631.332	55492.1
631.687	55446.68
632.041	55363.06
632.396	55387.47
632.75	55243.29
633.104	55375.04
633.459	55212.33
633.813	55211.43
634.167	55209.85
634.521	55222.28
634.875	55253.01
635.229	55198.55
635.583	55075.61
635.937	55086.69
636.291	55089.85
636.645	55100.02
636.999	55022.06
637.352	55053.92
637.706	54959.01
638.06	55094.14
638.413	54991.1
638.767	54911.1
639.121	55019.57
639.474	54839.46
639.828	54869.29
640.181	54927.37
640.534	54857.09
640.888	54825.23
641.241	54707.71
641.594	54797.66
641.947	54865.9
642.301	54813.25
642.654	54840.82
643.007	54806.92
643.36	54843.76
643.713	54688.05
644.066	54840.14
644.419	54649.64
644.771	54430.89
645.124	54167.62
645.477	54175.98
645.83	54013.04
646.182	53881.3
646.535	53927.4
646.888	53928.75
647.24	53694.41
647.593	53994.96
647.945	53908.87
648.298	53644.01
648.65	53607.63
649.002	53632.26
649.355	53781.64
649.707	53691.02
650.059	53760.39
650.411	54123.32
650.763	54336.2
651.115	54397.21
651.467	54373.03
651.819	54366.03
652.171	54246.71
652.523	54291.23
652.875	54238.8
653.227	54188.63
653.578	54376.88
653.93	54249.42
654.282	54148.86
654.633	54130.1
654.985	54175.75
655.337	54207.84
655.688	54182.3
656.039	54265.24
656.391	54006.94
656.742	53980.28
657.094	54005.36
657.445	54174.85
657.796	54066.37
658.147	54082.87
658.498	54073.61
658.849	54119.48
659.2	54056.88
659.551	53982.99
659.902	54031.8
660.253	53932.82
660.604	53989.99
660.955	53913.61
661.306	54003.55
661.656	53923.55
662.007	53861.41
662.358	53974.4
662.708	53951.8
663.059	53919.49
663.409	53745.03
663.76	53900.73
664.11	53809.66
664.461	53907.96
664.811	53891.69
665.161	53876.1
665.511	53730.11
665.862	53785.25
666.212	53829.77
666.562	53832.71
666.912	53781.18
667.262	53775.31
667.612	53757
667.962	53771.24
668.312	53662.77
668.662	53815.99
669.011	53696.67
669.361	53662.09
669.711	53603.11
670.06	53576.44
670.41	53538.03
670.76	53450.8
671.109	53639.72
671.459	53557.69
671.808	53500.74
672.157	53511.36
672.507	53392.72
672.856	53329.9
673.205	53394.75
673.554	53543.45
673.904	53261.88
674.253	53578.93
674.602	53362.89
674.951	52891.26
675.3	52736.69
675.649	53242.22
675.998	53216.45
676.346	53216.68
676.695	53293.29
677.044	53048.55
677.393	53201.54
677.741	53113.41
678.09	52973.52
678.438	52993.18
678.787	52932.62
679.135	52990.7
679.484	52774.21
679.832	52817.37
680.181	52675.9
680.529	52764.94
680.877	52653.3
681.225	52610.14
681.573	52745.28
681.922	52554.1
682.27	52467.32
682.618	52467.1
682.966	52423.48
683.314	52529.47
683.661	52348.45
684.009	52152.08
684.357	52104.17
684.705	52076.37
685.053	52145.07
685.4	52024.62
685.748	51910.27
686.095	51850.16
686.443	51757.96
686.79	51684.74
687.138	51814.23
687.485	51693.33
687.832	51511.41
688.18	51546.22
688.527	51255.83
688.874	51319.33
689.221	51282.27
689.568	51194.59
689.915	50954.82
690.262	51028.71
690.609	50997.76
690.956	50713.24
691.303	50874.14
691.65	50669.85
691.997	50583.3
692.344	50399.8
692.69	50304.67
693.037	50398.9
693.383	50108.06
693.73	50312.8
694.077	49965.01
694.423	49943.77
694.769	49870.78
695.116	49783.32
695.462	49800.72
695.808	49560.5
696.155	49636.89
696.501	49387.85
696.847	49430.34
697.193	49106.05
697.539	49327.06
697.885	49038.48
698.231	48902.67
698.577	48858.38
698.923	48870.81
699.269	48548.33
699.614	48417.71
699.96	48351.27
700.306	48453.19
700.651	48261.1
700.997	48018.17
701.342	48138.17
701.688	47946.99
702.033	47836.93
702.379	47801
702.724	47784.28
703.069	47749.25
703.415	47348.81
703.76	47429.94
704.105	47451.41
704.45	47253.22
704.795	46945.21
705.14	46976.84
705.485	46859.56
705.83	46730.75
706.175	46715.83
706.52	46723.97
706.865	46533.69
707.209	46517.42
707.554	46382.51
707.899	46452.11
708.243	46197.2
708.588	46151.33
708.932	45968.28
709.277	45980.49
709.621	45965.57
709.966	45458.01
710.31	45804.67
710.654	45449.43
710.998	45505.24
711.342	45450.33
711.687	45511.8
712.031	45216.44
712.375	44998.59
712.719	45087.4
713.063	45088.31
713.407	45150.9
713.75	44902.32
714.094	44704.14
714.438	44699.62
714.782	44775.55
715.125	44434.54
715.469	44479.73
715.812	44172.85
716.156	44195.9
716.499	44191.83
716.843	44274.09
717.186	44026.19
717.53	44070.48
717.873	44176.69
718.216	43827.77
718.559	43783.26
718.902	43517.73
719.246	43663.26
719.589	43557.5
719.932	43399.54
720.275	43238.41
720.617	43430.27
720.96	43279.54
721.303	43161.8
721.646	43150.28
721.989	42890.17
722.331	43049.26
722.674	43022.15
723.016	43035.7
723.359	42764.07
723.701	42879.1
724.044	42472.33
724.386	42556.4
724.729	42603.17
725.071	42421.03
725.413	42417.42
725.755	42359.79
726.097	42286.35
726.439	42091.77
726.782	42160.93
727.124	42250.64
727.465	41962.29
727.807	42074.15
728.149	41915.73
728.491	41799.13
728.833	41962.29
729.175	41762.97
729.516	41485.46
729.858	41525.91
730.199	41598.91
730.541	41432.81
730.882	41447.27
731.224	41522.52
731.565	41318.24
731.906	41240.95
732.248	41366.6
732.589	41197.11
732.93	41020.84
733.271	40999.15
733.612	40993.95
733.953	41049.32
734.294	40813.62
734.635	40705.14
734.976	40883.44
735.317	40585.37
735.658	40630.12
735.999	40567.75
736.339	40474.42
736.68	40664.47
737.021	40317.81
737.361	40235.33
737.702	40450.69
738.042	40302.22
738.383	40126.63
738.723	40280.3
739.063	40247.53
739.404	40109.23
739.744	40016.35
740.084	39904.71
740.424	39998.27
740.764	39910.14
741.104	39927.99
741.444	39726.64
741.784	39727.32
742.124	39704.49
742.464	39623.59
742.804	39545.85
743.143	39466.76
743.483	39551.95
743.823	39306.09
744.162	39360.55
744.502	39323.03
744.841	39171.63
745.181	39315.8
745.52	39282.13
745.86	39136.15
746.199	39074
746.538	38996.26
746.877	39051.63
747.216	39000.78
747.556	38837.85
747.895	38918.75
748.234	38659.55
748.573	38691.86
748.911	38551.98
749.25	38618.65
749.589	38435.6
749.928	38452.1
750.267	38573.45
750.605	38357.18
750.944	38295.04
751.283	38166.68
751.621	38370.29
751.96	37956.97
752.298	37939.79
752.636	37960.81
752.975	37906.35
753.313	37659.57
753.651	37792.68
753.989	37427.72
754.327	37489.41
754.666	37394.5
755.004	37479.69
755.342	37384.55
755.679	37321.73
756.017	37150.44
756.355	37071.12
756.693	36963.1
757.031	37088.97
757.368	36753.16
757.706	36718.81
758.044	36672.48
758.381	36708.19
758.719	36510.9
759.056	36600.85
759.394	36456.22
759.731	36299.38
760.068	36086.06
760.405	36027.75
760.743	35876.8
761.08	35914.31
761.417	35787.76
761.754	35597.26
762.091	35557.71
762.428	35470.03
762.765	35286.98
763.102	35385.51
763.438	35194.55
763.775	35017.38
764.112	34956.82
764.449	34993.2
764.785	34849.25
765.122	34701.91
765.458	34560.45
765.795	34521.13
766.131	34482.94
766.467	34381.47
766.804	34155.03
767.14	34034.13
767.476	34047.69
767.812	33859.22
768.148	33953.23
768.485	33648.61
768.821	33472.34
769.157	33459.91
769.492	33360.7
769.828	33308.73
770.164	33006.59
770.5	33005.01
770.836	32959.13
771.171	32783.32
771.507	32603.44
771.842	32421.29
772.178	32466.72
772.513	32327.51
772.849	32271.69
773.184	32219.04
773.519	32160.51
773.855	31733.18
774.19	31911.25
774.525	31699.28
774.86	31695.89
775.195	31457.25
775.53	31356.24
775.865	31319.63
776.2	31075.12
776.535	30906.76
776.87	30757.84
777.205	30752.41
777.539	30646.2
777.874	30680.1
778.209	30414.12
778.543	30486.66
778.878	30304.29
779.212	30229.94
779.547	30038.98
779.881	30049.38
780.215	29830.4
780.55	29921.25
780.884	29681.48
781.218	29561.26
781.552	29562.84
781.886	29536.85
782.22	29336.63
782.554	29130.08
782.888	28855.96
783.222	28680.38
783.556	28707.49
783.889	28613.03
784.223	28550.44
784.557	28427.5
784.89	28476.09
785.224	28303.66
785.557	28110.45
785.891	28049.66
786.224	27968.98
786.558	27984.8
786.891	27747.97
787.224	27691.7
787.557	27704.36
787.891	27552.72
788.224	27509.56
788.557	27485.83
788.89	27331.48
789.223	27203.13
789.556	27126.29
789.888	26976.47
790.221	26985.96
790.554	26819.86
790.887	26735.34
791.219	26568.79
791.552	26597.27
791.884	26432.75
792.217	26423.94
792.549	26305.07
792.882	26094.68
793.214	25962.71
793.546	25971.29
793.879	25796.61
794.211	25730.4
794.543	25826.67
794.875	25689.27
795.207	25676.84
795.539	25475.71
795.871	25596.16
796.203	25289.73
796.535	25175.16
796.867	25066.01
797.198	25020.36
797.53	25073.24
797.862	24870.53
798.193	24815.62
798.525	24728.62
798.856	24746.02
799.188	24515.97
799.519	24444.1
799.85	24340.6
800.182	24471.45
800.513	24371.79
800.844	24166.6
801.175	24177.9
801.506	24214.73
801.837	23881.63
802.168	23965.47
802.499	23868.3
802.83	23756.66
803.161	23627.18
803.491	23678.93
803.822	23647.06
804.153	23584.69
804.483	23327.97
804.814	23290.69
805.145	23324.13
805.475	23252.04
805.805	23187.64
806.136	23094.99
806.466	23081.2
806.796	23024.03
807.126	23011.15
807.457	22855.9
807.787	22796.46
808.117	22613.87
808.447	22602.34
808.777	22647.09
809.107	22600.08
809.436	22451.16
809.766	22455
810.096	22378.17
810.426	22302.24
810.755	22272.63
811.085	22197.83
811.414	22131.17
811.744	22004.85
812.073	22029.7
812.403	22035.58
812.732	21869.93
813.061	21779.09
813.39	21627.23
813.719	21624.06
814.049	21730.28
814.378	21544.74
814.707	21538.87
815.036	21408.25
815.365	21427.01
815.693	21206
816.022	21228.82
816.351	21076.51
816.68	21063.4
817.008	21029.73
817.337	20847.14
817.665	20920.58
817.994	20961.71
818.322	20862.5
818.651	20803.97
818.979	20727.14
819.307	20824.54
819.636	20770.53
819.964	20538.22
820.292	20681.49
820.62	20603.3
820.948	20534.83
821.276	20708.83
821.604	20495.28
821.932	20604.2
822.259	20446.02
822.587	20498.44
822.915	20405.79
823.243	20472.46
823.57	20463.19
823.898	20482.17
824.225	20497.99
824.553	20375.51
824.88	20432.68
825.207	20554.04
825.535	20391.1
825.862	20448.5
826.189	20439.46
826.516	20531.21
826.843	20461.61
827.17	20486.92
827.497	20487.6
827.824	20386.58
828.151	20441.5
828.478	20364.66
828.805	20613.92
829.131	20262.07
829.458	20425.23
829.785	20324.66
830.111	20312.91
830.438	20541.83
830.764	20397.43
831.09	20386.58
831.417	20218.23
831.743	20311.1
832.069	20369.63
832.395	20302.97
832.722	20279.24
833.048	20251.9
833.374	20270.2
833.7	20129.41
834.026	20133.03
834.351	20173.25
834.677	20172.58
835.003	20286.7
835.329	20077.21
835.654	20099.58
835.98	19976.2
836.306	19983.88
836.631	19927.84
836.956	19921.06
837.282	20018
837.607	19878.57
837.932	19843.32
838.258	19806.71
838.583	19910.66
838.908	19686.49
839.233	19746.83
839.558	19701.18
839.883	19601.74
840.208	19559.71
840.533	19585.02
840.858	19590.45
841.182	19577.56
841.507	19545.25
841.832	19430.9
842.156	19394.52
842.481	19415.53
842.805	19365.82
843.13	19316.33
843.454	19233.84
843.778	19192.04
844.103	19164.02
844.427	18997.92
844.751	19032.04
845.075	19009.9
845.399	18909.33
845.723	18763.12
846.047	18816.91
846.371	18622.79
846.695	18752.95
847.019	18500.76
847.343	18485.62
847.666	18349.12
847.99	18298.5
848.313	18234.1
848.637	18197.26
848.96	18082.01
849.284	18107.77
849.607	17895.8
849.931	17813.54
850.254	17738.97
850.577	17686.99
850.9	17523.61
851.223	17550.05
851.546	17498.52
851.869	17402.25
852.192	17486.32
852.515	17290.17
852.838	17226.44
853.161	17310.05
853.483	17101.25
853.806	17017.41
854.129	17062.15
854.451	16903.51
854.774	16931.53
855.096	16940.12
855.419	16868.71
855.741	16713.01
856.063	16677.3
856.385	16590.3
856.708	16548.49
857.03	16492.9
857.352	16495.16
857.674	16433.24
857.996	16346.24
858.318	16243.41
858.64	16356.41
858.961	16224.66
859.283	16185.56
859.605	16132.68
859.926	16140.82
860.248	16089.75
860.57	16069.86
860.891	16047.94
861.212	15833.71
861.534	15888.85
861.855	15838.91
862.176	15885.46
862.498	15837.55
862.819	15932.24
863.14	15700.83
863.461	15734.05
863.782	15668.51
864.103	15673.94
864.424	15553.04
864.745	15591.68
865.065	15570.21
865.386	15434.85
865.707	15458.8
866.027	15506.71
866.348	15414.06
866.668	15463.77
866.989	15352.36
867.309	15291.12
867.63	15311.46
867.95	15275.53
868.27	15157.12
868.59	15252.93
868.91	15191.46
869.23	15223.1
869.55	15111.02
869.87	15181.52
870.19	15211.35
870.51	15151.47
870.83	15171.13
871.15	14897.69
871.469	14970.45
871.789	15050.68
872.109	14981.75
872.428	14938.82
872.748	15023.56
873.067	14901.3
873.386	14934.07
873.706	14889.33
874.025	14808.65
874.344	14766.39
874.663	14839.61
874.982	14759.61
875.301	14713.74
875.62	14747.18
875.939	14637.13
876.258	14526.4
876.577	14620.41
876.896	14586.96
877.214	14502.9
877.533	14570.92
877.852	14571.14
878.17	14513.29
878.489	14441.2
878.807	14453.86
879.125	14393.52
879.444	14486.17
879.762	14386.29
880.08	14212.73
880.398	14303.35
880.716	14297.25
881.034	14243.92
881.352	14203.69
881.67	14143.13
881.988	14169.57
882.306	14086.41
882.624	14060.65
882.941	14132.28
883.259	13924.61
883.577	14006.41
883.894	13938.84
884.212	13856.58
884.529	13929.58
884.846	13770.71
885.164	13804.16
885.481	13803.7
885.798	13760.54
886.115	13702.01
886.432	13709.47
886.75	13624.95
887.067	13653.65
887.383	13577.5
887.7	13550.6
888.017	13518.06
888.334	13488.46
888.651	13524.39
888.967	13412.08
889.284	13251.63
889.6	13378.63
889.917	13273.78
890.233	13272.19
890.55	13201.23
890.866	13215.25
891.182	13121.91
891.498	13033.56
891.815	13064.29
892.131	13036.27
892.447	13023.39
892.763	12956.04
893.079	12829.72
893.395	12846.22
893.71	12891.64
894.026	12732.09
894.342	12724.41
894.657	12672.21
894.973	12692.77
895.289	12677.86
895.604	12647.58
895.92	12594.02
896.235	12475.38
896.55	12509.95
896.865	12424.76
897.181	12366.68
897.496	12338.66
897.811	12282.16
898.126	12248.72
898.441	12227.25
898.756	12209.17
899.071	12136.18
899.386	12147.93
899.7	12053.02
900.015	11956.97
900.33	11925.79
900.644	11927.37
900.959	11843.08
901.273	11880.82
901.588	11747.94
901.902	11699.35
902.216	11674.04
902.531	11637.66
902.845	11548.17
903.159	11500.04
903.473	11502.07
903.787	11400.38
904.101	11391.34
904.415	11444.9
904.729	11325.8
905.042	11229.31
905.356	11187.05
905.67	11137.33
905.984	11152.02
906.297	11094.85
906.611	11012.59
906.924	11085.36
907.237	11035.19
907.551	10947.28
907.864	10856.89
908.177	10859.83
908.491	10824.35
908.804	10757.01
909.117	10722.43
909.43	10672.94
909.743	10552.49
910.056	10628.2
910.368	10547.29
910.681	10496.67
910.994	10468.88
911.307	10444.92
911.619	10300.07
911.932	10303.46
912.244	10292.61
912.557	10248.54
912.869	10188.43
913.181	10207.42
913.494	10153.18
913.806	10094.65
914.118	10069.11
914.43	9913.86
914.742	9971.72
915.054	9891.94
915.366	9806.07
915.678	9811.95
915.99	9807.88
916.302	9741.44
916.613	9698.73
916.925	9631.84
917.236	9612.63
917.548	9519.3
917.859	9497.15
918.171	9445.18
918.482	9454.44
918.794	9401.56
919.105	9394.78
919.416	9293.99
919.727	9269.81
920.038	9252.64
920.349	9181.91
920.66	9164.5
920.971	9203.15
921.282	9108.46
921.593	9019.65
921.903	8976.71
922.214	9004.06
922.525	8947.11
922.835	8956.83
923.146	8906.66
923.456	8805.19
923.767	8770.84
924.077	8742.14
924.387	8699.66
924.697	8649.04
925.008	8702.6
925.318	8646.1
925.628	8627.12
925.938	8505.54
926.248	8461.47
926.558	8426.9
926.867	8453.56
927.177	8441.13
927.487	8337.63
927.796	8303.06
928.106	8341.02
928.416	8250.18
928.725	8220.12
929.034	8150.97
929.344	8163.85
929.653	8124.31
929.962	7979.9
930.271	7993.69
930.581	8007.02
930.89	7898.78
931.199	7932.45
931.508	7861.49
931.817	7812.68
932.125	7770.64
932.434	7816.74
932.743	7713.92
933.051	7722.73
933.36	7644.77
933.669	7612.68
933.977	7628.05
934.286	7578.56
934.594	7507.37
934.902	7442.52
935.21	7404.1
935.519	7448.84
935.827	7396.42
936.135	7304.44
936.443	7256.98
936.751	7289.75
937.059	7230.09
937.367	7238.23
937.674	7245.91
937.982	7133.82
938.29	7084.79
938.597	7072.36
938.905	7044.11
939.213	6977.22
939.52	6982.42
939.827	6972.25
940.135	6970.66
940.442	6889.99
940.749	6874.85
941.056	6846.37
941.363	6782.87
941.67	6757.79
941.977	6755.75
942.284	6681.86
942.591	6710.56
942.898	6626.27
943.205	6619.49
943.511	6570.9
943.818	6537.68
944.125	6496.1
944.431	6481.41
944.738	6511.69
945.044	6474.41
945.35	6450.23
945.657	6379.04
945.963	6343.11
946.269	6340.4
946.575	6337.69
946.881	6306.73
947.187	6238.48
947.493	6234.86
947.799	6137.92
948.105	6083.23
948.41	6130.23
948.716	6114.64
949.022	6124.58
949.327	6037.36
949.633	5990.8
949.938	5971.59
950.244	6049.33
950.549	5982.89
950.854	5957.13
951.16	5911.48
951.465	5869.22
951.77	5850.47
952.075	5811.15
952.38	5792.84
952.685	5764.37
952.99	5756.01
953.294	5734.54
953.599	5663.13
953.904	5599.85
954.209	5543.81
954.513	5644.15
954.818	5584.94
955.122	5542.45
955.426	5584.94
955.731	5553.75
956.035	5512.62
956.339	5464.94
956.643	5454.32
956.948	5461.1
957.252	5406.41
957.556	5384.49
957.86	5346.98
958.163	5320.99
958.467	5337.49
958.771	5241.22
959.075	5244.38
959.378	5165.06
959.682	5169.81
959.985	5211.84
960.289	5170.71
960.592	5151.05
960.896	5125.97
961.199	5096.14
961.502	5067.21
961.805	5022.92
962.108	4996.7
962.411	4962.36
962.714	4959.64
963.017	4934.11
963.32	4942.47
963.623	4852.53
963.926	4911.96
964.228	4826.09
964.531	4823.38
964.833	4834
965.136	4770.72
965.438	4754
965.741	4726.2
966.043	4714.9
966.345	4677.62
966.648	4702.02
966.95	4686.43
967.252	4638.52
967.554	4600.78
967.856	4653.66
968.158	4563.5
968.46	4537.51
968.761	4558.3
969.063	4510.39
969.365	4492.31
969.666	4468.13
969.968	4430.84
970.269	4383.84
970.571	4395.14
970.872	4429.26
971.174	4359.66
971.475	4340.68
971.776	4355.14
972.077	4327.12
972.378	4277.4
972.679	4253.9
972.98	4274.46
973.281	4159.44
973.582	4238.76
973.883	4193.34
974.183	4217.97
974.484	4134.13
974.785	4121.7
975.085	4128.48
975.386	4120.8
975.686	4141.81
975.986	4060.23
976.287	4040.57
976.587	4025.88
976.887	3996.05
977.187	4013.91
977.487	3948.82
977.787	3951.08
978.087	3916.73
978.387	3930.52
978.687	3924.19
978.987	3902.04
979.286	3884.87
979.586	3842.61
979.885	3850.07
980.185	3797.87
980.484	3763.52
980.784	3777.08
981.083	3751.31
981.382	3762.61
981.682	3757.42
981.981	3681.26
982.28	3702.05
982.579	3669.28
982.878	3674.48
983.177	3601.26
983.475	3597.87
983.774	3588.83
984.073	3623.86
984.372	3540.25
984.67	3571.66
984.969	3544.31
985.267	3546.57
985.566	3467.48
985.864	3482.17
986.162	3478.78
986.461	3437.88
986.759	3457.08
987.057	3420.25
987.355	3401.04
987.653	3396.29
987.951	3367.82
988.249	3380.7
988.547	3331.66
988.844	3312.68
989.142	3288.28
989.44	3289.18
989.737	3270.2
990.035	3256.19
990.332	3253.7
990.63	3254.83
990.927	3211.67
991.224	3192.46
991.521	3196.98
991.819	3156.3
992.116	3166.47
992.413	3142.06
992.71	3133.7
993.006	3105.91
993.303	3090.54
993.6	3094.16
993.897	3072.01
994.193	3053.03
994.49	2992.24
994.787	2971.9
995.083	2956.08
995.379	2983.65
995.676	2982.07
995.972	2943.43
996.268	2895.97
996.565	2933.93
996.861	2880.38
997.157	2918.12
997.453	2851.9
997.749	2859.13
998.044	2858.46
998.34	2837.89
998.636	2794.95
998.932	2799.47
999.227	2775.75
999.523	2739.14
999.818	2732.81
1000.114	2705.47
1000.409	2718.8
1000.704	2668.63
1001	2702.3
1001.295	2723.54
1001.59	2705.01
1001.885	2642.42
1002.18	2608.29
1002.475	2619.37
1002.77	2600.84
1003.065	2587.05
1003.359	2581.18
1003.654	2588.18
1003.949	2520.61
1004.243	2482.87
1004.538	2524.91
1004.832	2529.88
1005.127	2493.72
1005.421	2455.53
1005.715	2448.75
1006.009	2439.26
1006.304	2454.17
1006.598	2417.56
1006.892	2414.17
1007.186	2339.6
1007.48	2379.37
1007.773	2390.9
1008.067	2366.94
1008.361	2317.68
1008.655	2314.74
1008.948	2314.06
1009.242	2311.13
1009.535	2257.34
1009.829	2257.57
1010.122	2266.83
1010.415	2267.29
1010.708	2239.49
1011.001	2224.8
1011.295	2206.04
1011.588	2162.88
1011.881	2164.46
1012.173	2161.3
1012.466	2150.45
1012.759	2127.63
1013.052	2124.46
1013.344	2099.83
1013.637	2111.13
1013.93	2087.63
1014.222	2070
1014.514	2028.42
1014.807	2068.65
1015.099	2004.92
1015.391	1983
1015.683	2010.34
1015.976	1973.96
1016.268	1992.49
1016.56	1968.99
1016.851	1979.83
1017.143	1907.07
1017.435	1898.93
1017.727	1913.62
1018.018	1917.69
1018.31	1872.04
1018.602	1849.67
1018.893	1841.31
1019.185	1848.09
1019.476	1841.31
1019.767	1818.94
1020.058	1792.5
1020.35	1817.81
1020.641	1786.39
1020.932	1767.41
1021.223	1748.88
1021.514	1769.67
1021.804	1723.34
1022.095	1749.78
1022.386	1727.41
1022.677	1702.33
1022.967	1677.24
1023.258	1696.9
1023.548	1667.98
1023.839	1662.1
1024.129	1639.73
1024.419	1627.08
1024.709	1643.35
1025	1610.35
1025.29	1569.45
1025.58	1568.09
1025.87	1551.15
1026.16	1567.87
1026.449	1538.26
1026.739	1527.42
1027.029	1531.49
1027.319	1507.31
1027.608	1535.78
1027.898	1510.24
1028.187	1499.17
1028.477	1497.14
1028.766	1453.52
1029.055	1460.3
1029.344	1453.97
1029.634	1429.57
1029.923	1423.47
1030.212	1402.9
1030.501	1393.41
1030.79	1395.67
1031.078	1383.47
1031.367	1381.88
1031.656	1378.49
1031.945	1336.91
1032.233	1331.72
1032.522	1336.01
1032.81	1312.73
1033.099	1333.3
1033.387	1290.81
1033.675	1306.18
1033.963	1293.07
1034.251	1293.3
1034.54	1276.58
1034.828	1273.19
1035.116	1266.86
1035.403	1259.85
1035.691	1223.02
1035.979	1254.88
1036.267	1252.4
1036.554	1230.02
1036.842	1203.81
1037.129	1193.64
1037.417	1185.28
1037.704	1185.96
1037.992	1196.13
1038.279	1141.44
1038.566	1152.74
1038.853	1152.74
1039.14	1152.74
