Data from white_steel_sheet_FLMS001491_031.txt Node
Date: Tue Feb 07 10:57:45 GMT 2017
User: dcchb
Spectrometer: FLMS00149
Trigger mode: 0
Integration Time (sec): 2.000000E-2
Scans to average: 10
Electric dark correction enabled: true
Nonlinearity correction enabled: false
Boxcar width: 0
XAxis mode: Wavelengths
Number of Pixels in Spectrum: 2048
>>>>>Begin Spectral Data<<<<<
341.393	1.61
341.776	1.61
342.16	1.61
342.543	-57.82
342.927	-71.83
343.31	-70.25
343.693	-58.95
344.077	-53.98
344.46	-75.68
344.843	-53.3
345.226	-46.98
345.61	-47.43
345.993	-36.58
346.376	0.25
346.759	-6.98
347.142	29.18
347.525	52.23
347.908	57.88
348.291	77.54
348.674	126.8
349.057	106.24
349.44	157.09
349.823	153.24
350.206	160.48
350.588	170.87
350.971	220.81
351.354	219.46
351.737	249.51
352.119	247.48
352.502	259.23
352.884	281.15
353.267	273.24
353.65	294.94
354.032	299
354.414	328.16
354.797	315.73
355.179	320.7
355.562	338.32
355.944	326.8
356.326	354.6
356.709	338.1
357.091	352.11
357.473	351.66
357.855	336.29
358.238	353.69
358.62	352.56
359.002	334.71
359.384	334.26
359.766	332
360.148	350.75
360.53	348.49
360.912	345.33
361.294	346.69
361.676	321.38
362.057	333.58
362.439	332
362.821	349.17
363.203	317.76
363.584	332.67
363.966	335.16
364.348	329.74
364.729	324.54
365.111	338.32
365.493	324.09
365.874	339.68
366.256	322.73
366.637	312.11
367.019	320.47
367.4	321.6
367.781	314.6
368.163	303.98
368.544	312.11
368.925	332.45
369.306	319.79
369.688	335.39
370.069	329.51
370.45	335.84
370.831	319.79
371.212	318.89
371.593	320.47
371.974	333.35
372.355	330.87
372.736	319.79
373.117	326.8
373.498	339
373.879	318.44
374.26	327.48
374.641	320.7
375.021	319.79
375.402	343.75
375.783	337.42
376.163	333.8
376.544	341.04
376.925	345.78
377.305	349.62
377.686	348.04
378.066	350.08
378.447	362.73
378.827	355.05
379.208	342.84
379.588	344.2
379.968	334.93
380.349	343.07
380.729	351.43
381.109	353.24
381.489	357.31
381.87	354.82
382.25	361.15
382.63	357.76
383.01	350.53
383.39	376.52
383.77	363.41
384.15	356.63
384.53	363.86
384.91	373.35
385.29	366.8
385.67	390.53
386.049	380.36
386.429	398.89
386.809	376.97
387.189	391.66
387.568	378.78
387.948	388.27
388.328	410.19
388.707	398.44
389.087	389.17
389.466	391.2
389.846	411.09
390.225	418.32
390.605	433.69
390.984	414.48
391.363	426.01
391.743	444.76
392.122	431.88
392.501	441.37
392.881	444.76
393.26	412.67
393.639	449.51
394.018	436.63
394.397	453.12
394.776	472.78
395.155	463.29
395.534	489.51
395.913	465.78
396.292	477.3
396.671	491.77
397.05	485.21
397.429	484.99
397.808	491.77
398.186	503.07
398.565	503.74
398.944	508.04
399.323	520.92
399.701	520.69
400.08	514.59
400.458	544.42
400.837	554.59
401.215	548.26
401.594	569.73
401.972	576.74
402.351	568.15
402.729	555.72
403.107	576.06
403.486	583.52
403.864	607.24
404.242	614.02
404.62	621.93
404.999	621.03
405.377	636.85
405.755	660.8
406.133	690.18
406.511	680.46
406.889	685.89
407.267	689.73
407.645	684.53
408.023	709.84
408.401	712.1
408.779	725.43
409.156	752.1
409.534	769.05
409.912	771.53
410.29	772.44
410.667	771.08
411.045	797.75
411.422	835.03
411.8	841.59
412.178	832.1
412.555	827.13
412.933	850.63
413.31	844.07
413.687	871.19
414.065	872.77
414.442	896.73
414.819	924.98
415.197	920.91
415.574	938.76
415.951	938.76
416.328	964.07
416.705	953
417.082	999.1
417.46	973.34
417.837	991.19
418.214	1017.85
418.591	1045.42
418.967	1067.8
419.344	1058.53
419.721	1051.98
420.098	1039.55
420.475	1086.1
420.852	1103.5
421.228	1087.46
421.605	1094.46
421.982	1099.43
422.358	1119.09
422.735	1135.59
423.111	1128.13
423.488	1141.02
423.864	1178.3
424.241	1187.57
424.617	1204.29
424.994	1196.61
425.37	1230.5
425.746	1233.67
426.123	1236.83
426.499	1258.98
426.875	1263.95
427.251	1319.54
427.627	1297.17
428.003	1326.32
428.379	1338.07
428.756	1336.94
429.132	1383.49
429.507	1380.33
429.883	1392.31
430.259	1435.47
430.635	1444.06
431.011	1458.97
431.387	1461.46
431.763	1485.41
432.138	1506.66
432.514	1555.47
432.89	1560.21
433.265	1605.18
433.641	1583.26
434.016	1642.02
434.392	1639.76
434.767	1666.43
435.143	1698.97
435.518	1700.77
435.894	1726.31
436.269	1742.36
436.644	1757.72
437.02	1785.29
437.395	1763.82
437.77	1816.25
438.145	1856.48
438.52	1851.28
438.895	1894.67
439.271	1911.16
439.646	1925.18
440.021	1908.9
440.395	1972.63
440.77	1945.29
441.145	1992.07
441.52	2026.19
441.895	2018.73
442.27	2023.48
442.645	2044.04
443.019	2071.39
443.394	2072.29
443.769	2080.43
444.143	2058.51
444.518	2107.09
444.892	2124.27
445.267	2145.73
445.641	2169.24
446.016	2218.05
446.39	2190.48
446.764	2238.39
447.139	2205.85
447.513	2232.29
447.887	2260.08
448.262	2316.13
448.636	2305.05
449.01	2318.39
449.384	2327.2
449.758	2344.6
450.132	2388.44
450.506	2416.01
450.88	2400.19
451.254	2376.69
451.628	2463.24
452.002	2467.53
452.376	2472.96
452.75	2543.69
453.123	2550.02
453.497	2604.25
453.871	2599.06
454.244	2663.69
454.618	2662.56
454.992	2707.3
455.365	2720.86
455.739	2841.31
456.112	2824.81
456.486	2852.38
456.859	2833.85
457.232	2909.78
457.606	2910.01
457.979	2930.35
458.352	3002.44
458.725	3047.86
459.099	3017.35
459.472	3135.31
459.845	3156.33
460.218	3150.68
460.591	3192.71
460.964	3222.54
461.337	3255.76
461.71	3370.11
462.083	3364.23
462.456	3382.31
462.829	3425.47
463.201	3477.68
463.574	3463.21
463.947	3525.13
464.32	3636.99
464.692	3634.28
465.065	3693.26
465.438	3694.85
465.81	3752.92
466.183	3794.96
466.555	3888.29
466.928	3864.33
467.3	3915.63
467.672	3956.99
468.045	4064.55
468.417	4054.61
468.789	4156.76
469.161	4149.75
469.534	4240.59
469.906	4344.55
470.278	4356.3
470.65	4383.19
471.022	4462.51
471.394	4547.25
471.766	4565.33
472.138	4669.06
472.51	4742.28
472.882	4820.92
473.253	4904.76
473.625	4970.75
473.997	5065.88
474.369	5134.36
474.74	5169.16
475.112	5218.65
475.484	5331.87
475.855	5432.2
476.227	5448.02
476.598	5611.41
476.97	5655.92
477.341	5761.01
477.713	5856.82
478.084	5906.99
478.455	6095.24
478.827	6144.73
479.198	6258.39
479.569	6292.52
479.94	6468.11
480.311	6516.47
480.682	6626.07
481.053	6797.82
481.424	6900.86
481.795	7005.27
482.166	7103.12
482.537	7179.95
482.908	7313.28
483.279	7470.11
483.65	7527.97
484.021	7660.39
484.391	7811.57
484.762	7893.38
485.133	7967.28
485.503	8035.75
485.874	8260.6
486.244	8253.14
486.615	8438
486.985	8560.71
487.356	8725
487.726	8773.36
488.097	8963.63
488.467	9035.72
488.837	9190.75
489.207	9280.91
489.578	9444.98
489.948	9509.83
490.318	9698.98
490.688	9696.27
491.058	9867.11
491.428	10033.21
491.798	10136.71
492.168	10308.91
492.538	10290.61
492.908	10518.4
493.278	10623.93
493.648	10563.82
494.017	10795.45
494.387	10815.79
494.757	10966.52
495.126	11134.2
495.496	11139.17
495.866	11200.64
496.235	11402.44
496.605	11510.46
496.974	11551.59
497.344	11671.13
497.713	11756.78
498.082	11831.58
498.452	11959.04
498.821	12024.12
499.19	12106.15
499.559	12283.32
499.928	12292.81
500.298	12365.13
500.667	12492.58
501.036	12572.13
501.405	12688.06
501.774	12693.25
502.143	12839.01
502.512	12926.02
502.88	13049.18
503.249	13053.92
503.618	13147.93
503.987	13349.28
504.356	13319.68
504.724	13434.93
505.093	13541.59
505.462	13522.61
505.83	13708.59
506.199	13735.94
506.567	13967.57
506.936	13980.45
507.304	14071.3
507.672	14121.92
508.041	14260.67
508.409	14519.87
508.777	14558.29
509.145	14669.93
509.514	14707.66
509.882	14778.85
510.25	14879.86
510.618	15047.09
510.986	15090.48
511.354	15245.05
511.722	15328.44
512.09	15508.77
512.458	15543.12
512.826	15633.06
513.193	15668.99
513.561	15835.09
513.929	16030.12
514.297	16195.31
514.664	16226.27
515.032	16280.05
515.4	16493.61
515.767	16489.31
516.135	16699.7
516.502	16644.79
516.869	16962.07
517.237	16973.82
517.604	17010.88
517.972	17279.57
518.339	17366.13
518.706	17471.66
519.073	17520.25
519.44	17680.02
519.808	17859.22
520.175	17876.39
520.542	18169.72
520.909	18338.98
521.276	18276.38
521.643	18449.71
522.009	18628.46
522.376	18748.24
522.743	18853.54
523.11	19058.96
523.477	19321.1
523.843	19366.3
524.21	19540.53
524.577	19715.89
524.943	19778.49
525.31	19961.76
525.676	20204.24
526.043	20360.4
526.409	20408.98
526.776	20644.68
527.142	20721.52
527.508	20832.7
527.874	21028.85
528.241	21129.87
528.607	21192.92
528.973	21427.94
529.339	21418.22
529.705	21675.16
530.071	21917.42
530.437	21915.38
530.803	22132.1
531.169	22100.01
531.535	22208.03
531.901	22306.56
532.267	22426.33
532.632	22531.19
532.998	22675.59
533.364	22860.44
533.73	22881.91
534.095	23143.6
534.461	23233.09
534.826	23348.79
535.192	23450.71
535.557	23546.75
535.923	23596.7
536.288	23646.19
536.653	23882.34
537.019	23845.73
537.384	23960.53
537.749	24093.86
538.114	24184.25
538.479	24203.69
538.845	24357.81
539.21	24307.19
539.575	24477.8
539.94	24555.77
540.305	24751.02
540.67	24736.55
541.034	24781.98
541.399	24991.24
541.764	25023.55
542.129	25203.66
542.494	25160.72
542.858	25265.8
543.223	25294.5
543.587	25436.2
543.952	25552.58
544.316	25614.5
544.681	25634.83
545.045	25766.58
545.41	25905.56
545.774	26022.39
546.138	26044.99
546.503	26237.98
546.867	26069.85
547.231	26419.22
547.595	26422.61
547.959	26572.89
548.324	26552.55
548.688	26703.73
549.052	26758.42
549.416	26768.82
549.779	26907.8
550.143	27043.84
550.507	27198.41
550.871	27142.82
551.235	27133.33
551.599	27468.01
551.962	27545.29
552.326	27562.69
552.689	27703.48
553.053	27680.88
553.417	27832.06
553.78	28159.51
554.143	27964.94
554.507	28181.21
554.87	28275.44
555.234	28543.01
555.597	28413.52
555.96	28530.35
556.323	28740.97
556.686	28723.34
557.05	28964.46
557.413	28993.84
557.776	29242.42
558.139	29344.12
558.502	29384.34
558.865	29347.51
559.228	29670.66
559.59	29839.47
559.953	29827.72
560.316	30109.97
560.679	30203.08
561.041	30379.34
561.404	30352.22
561.767	30694.36
562.129	30636.28
562.492	30986.11
562.854	30935.49
563.217	30923.06
563.579	31127.35
563.941	31353.78
564.304	31469.03
564.666	31702.47
565.028	31684.84
565.39	31768.46
565.753	31963.26
566.115	32014.55
566.477	32140.65
566.839	32231.72
567.201	32400.76
567.563	32453.41
567.925	32633.52
568.287	32770.24
568.648	32868.54
569.01	32983.34
569.372	33115.54
569.734	33039.16
570.095	33312.82
570.457	33455.19
570.819	33479.6
571.18	33494.97
571.542	33679.82
571.903	33746.26
572.265	33812.47
572.626	33953.26
572.987	34053.6
573.349	34103.76
573.71	34235.06
574.071	34392.57
574.432	34357.77
574.794	34664.88
575.155	34546.24
575.516	34483.64
575.877	34693.35
576.238	34596.41
576.599	34871.2
576.96	34814.93
577.32	35000.69
577.681	35059.22
578.042	35077.98
578.403	35087.69
578.763	35008.6
579.124	35080.69
579.485	35320.23
579.845	35199.1
580.206	35201.59
580.566	35305.31
580.927	35487.46
581.287	35526.1
581.648	35424.86
582.008	35470.73
582.368	35458.98
582.728	35614.91
583.089	35571.07
583.449	35469.6
583.809	35530.39
584.169	35509.6
584.529	35605.65
584.889	35795.25
585.249	35476.38
585.609	35412.43
585.969	35750.05
586.329	35577.62
586.688	35766.77
587.048	35606.78
587.408	35578.53
587.768	35679.32
588.127	35610.62
588.487	35650.62
588.846	35803.38
589.206	35538.53
589.565	35645.87
589.925	35790.73
590.284	35581.24
590.643	35570.39
591.003	35743.72
591.362	35767.9
591.721	35668.69
592.08	35747.79
592.44	35741.46
592.799	35735.59
593.158	35621.92
593.517	35762.93
593.876	35775.36
594.235	35730.61
594.593	35689.94
594.952	35713.89
595.311	35637.06
595.67	35714.57
596.029	35866.88
596.387	35959.99
596.746	35981.23
597.104	35841.12
597.463	35792.31
597.822	35907.33
598.18	35805.41
598.538	35745.98
598.897	36069.59
599.255	35804.28
599.613	36202.69
599.972	35939.42
600.33	36060.77
600.688	35956.14
601.046	36233.43
601.404	36186.42
601.762	35990.49
602.12	36210.83
602.478	36192.3
602.836	36177.61
603.194	35942.13
603.552	36157.5
603.91	35996.6
604.268	36203.14
604.625	36116.14
604.983	36199.75
605.341	35999.53
605.698	36350.03
606.056	36342.12
606.413	36420.54
606.771	36423.48
607.128	36524.49
607.485	36299.41
607.843	36281.11
608.2	36544.83
608.557	36473.87
608.914	36424.61
609.272	36704.15
609.629	36724.94
609.986	36705.05
610.343	36595.68
610.7	36842.9
611.057	36778.5
611.414	36727.2
611.771	36855.78
612.127	36869.79
612.484	36882
612.841	37018.94
613.198	36966.97
613.554	36971.49
613.911	37143.46
614.267	37061.43
614.624	37205.6
614.98	37184.81
615.337	37342.78
615.693	37302.55
616.05	37174.19
616.406	37448.08
616.762	37230.01
617.118	37286.05
617.475	37348.88
617.831	37465.03
618.187	37383.45
618.543	37416.9
618.899	37591.58
619.255	37541.19
619.611	37635.87
619.967	37717
620.323	37737.57
620.678	37563.79
621.034	37450.79
621.39	37616.67
621.746	37484.47
622.101	37965.58
622.457	37572.37
622.812	37730.34
623.168	37767.85
623.523	37659.38
623.879	37827.96
624.234	37578.25
624.589	37719.04
624.945	37738.92
625.3	37783.67
625.655	37710.68
626.01	37863.67
626.365	37829.32
626.72	37811.01
627.075	37812.82
627.43	37751.58
627.785	37722.2
628.14	37827.06
628.495	37969.43
628.85	37722.88
629.205	37519.27
629.559	37864.57
629.914	37619.38
630.269	37694.86
630.623	37605.82
630.978	37394.07
631.332	37621.41
631.687	37659.6
632.041	37556.78
632.396	37517.23
632.75	37458.03
633.104	37394.98
633.459	37236.34
633.813	37366.73
634.167	37282.21
634.521	37219.84
634.875	37271.14
635.229	37259.61
635.583	37096.23
635.937	37060.07
636.291	37032.27
636.645	36903.24
636.999	36887.65
637.352	37056.68
637.706	36696.92
638.06	36943.01
638.413	36778.95
638.767	36724.71
639.121	36712.96
639.474	36498.05
639.828	36399.98
640.181	36561.55
640.534	36392.74
640.888	36446.98
641.241	36307.55
641.594	36274.78
641.947	36331.05
642.301	36270.49
642.654	36237.04
643.007	36287.89
643.36	36232.97
643.713	36028.01
644.066	36182.58
644.419	36067.78
644.771	35796.83
645.124	35451.3
645.477	35351.64
645.83	35108.03
646.182	34910.52
646.535	34963.85
646.888	35013.8
647.24	34789.85
647.593	34967.02
647.945	34950.52
648.298	34774.71
648.65	34659.91
649.002	34640.02
649.355	34653.58
649.707	34688.16
650.059	34621.94
650.411	35081.37
650.763	35113.46
651.115	35477.06
651.467	35383.28
651.819	35314.81
652.171	35414.46
652.523	35353
652.875	35189.16
653.227	35095.83
653.578	35334.69
653.93	35276.16
654.282	35114.59
654.633	35001.37
654.985	35052.67
655.337	34997.07
655.688	35006.57
656.039	35143.74
656.391	34743.3
656.742	34840.24
657.094	34937.41
657.445	34958.43
657.796	34926.12
658.147	34774.03
658.498	34874.14
658.849	34729.51
659.2	34742.62
659.551	34610.42
659.902	34631.21
660.253	34484.09
660.604	34476.86
660.955	34401.38
661.306	34419.24
661.656	34407.94
662.007	34416.52
662.358	34258.34
662.708	34223.08
663.059	34164.1
663.409	33996.2
663.76	34273.25
664.11	34142.63
664.461	34146.93
664.811	34124.55
665.161	34012.24
665.511	33948.06
665.862	33889.53
666.212	33885.01
666.562	33924.11
666.912	33729.99
667.262	33669.88
667.612	33420.39
667.962	33593.27
668.312	33324.58
668.662	33401.86
669.011	33353.95
669.361	33258.59
669.711	33149.21
670.06	32940.18
670.41	32915.77
670.76	32863.12
671.109	32929.33
671.459	32773.4
671.808	32892.04
672.157	32736.57
672.507	32526.18
672.856	32666.06
673.205	32476.46
673.554	32653.63
673.904	32357.37
674.253	32404.15
674.602	32488.21
674.951	31873.09
675.3	31722.36
675.649	32181.1
675.998	32140.65
676.346	32264.94
676.695	32242.57
677.044	32012.29
677.393	32165.06
677.741	32077.15
678.09	31944.73
678.438	31941.34
678.787	32009.58
679.135	31936.36
679.484	31690.95
679.832	31960.54
680.181	31693.66
680.529	31753.32
680.877	31739.08
681.225	31734.79
681.573	31912.86
681.922	31800.32
682.27	31669.7
682.618	31756.71
682.966	31746.31
683.314	31714.67
683.661	31769.14
684.009	31571.4
684.357	31640.33
684.705	31583.83
685.053	31591.51
685.4	31613.21
685.748	31547.9
686.095	31590.16
686.443	31419.99
686.79	31473.78
687.138	31514.68
687.485	31627.9
687.832	31510.61
688.18	31632.19
688.527	31488.47
688.874	31444.17
689.221	31468.58
689.568	31459.77
689.915	31330.28
690.262	31383.84
690.609	31350.84
690.956	31348.13
691.303	31335.93
691.65	31152.66
691.997	31154.24
692.344	31115.59
692.69	31030.4
693.037	31184.75
693.383	30960.34
693.73	31115.14
694.077	30913.79
694.423	30910.85
694.769	30864.3
695.116	30808.71
695.462	30887.13
695.808	30620.69
696.155	30794.92
696.501	30408.27
696.847	30520.81
697.193	30407.14
697.539	30564.2
697.885	30236.75
698.231	30203.53
698.577	30127.37
698.923	30225.67
699.269	30154.94
699.614	29892.58
699.96	29933.93
700.306	29898.23
700.651	29811.45
700.997	29834.05
701.342	29691.68
701.688	29706.14
702.033	29505.47
702.379	29506.6
702.724	29410.55
703.069	29536.65
703.415	29183.89
703.76	29280.84
704.105	29237
704.45	29077.68
704.795	28910.45
705.14	28834.98
705.485	28946.84
705.83	28741.65
706.175	28870.46
706.52	28757.92
706.865	28586.62
707.209	28600.63
707.554	28535.1
707.899	28592.72
708.243	28362.9
708.588	28385.72
708.932	28077.48
709.277	28072.06
709.621	28153.86
709.966	28006.75
710.31	28099.63
710.654	27943.7
710.998	27901.22
711.342	27888.11
711.687	27848.79
712.031	27685.18
712.375	27665.06
712.719	27687.66
713.063	27592.75
713.407	27607.66
713.75	27435.47
714.094	27481.34
714.438	27260.78
714.782	27394.56
715.125	27149.14
715.469	27284.06
715.812	26999.54
716.156	26963.16
716.499	27008.58
716.843	27034.57
717.186	26877.51
717.53	27022.37
717.873	27004.97
718.216	26894.69
718.559	26851.53
718.902	26600.46
719.246	26656.5
719.589	26515.94
719.932	26407.24
720.275	26427.58
720.617	26458.32
720.96	26408.83
721.303	26331.54
721.646	26366.11
721.989	26127.93
722.331	26233.69
722.674	26101.49
723.016	26284.76
723.359	26121.38
723.701	26063.3
724.044	25895.17
724.386	25773.14
724.729	26040.7
725.071	25835.51
725.413	25864.88
725.755	25736.3
726.097	25729.52
726.439	25550.99
726.782	25508.96
727.124	25626.25
727.465	25509.19
727.807	25468.96
728.149	25412.02
728.491	25400.26
728.833	25466.7
729.175	25383.77
729.516	25331.11
729.858	25341.51
730.199	25189.2
730.541	25172.25
730.882	25224
731.224	25117.33
731.565	24883.89
731.906	25022.42
732.248	24969.32
732.589	24899.26
732.93	24761.86
733.271	24898.58
733.612	24842.54
733.953	24836.66
734.294	24562.09
734.635	24715.99
734.976	24741.3
735.317	24651.81
735.658	24490.68
735.999	24520.97
736.339	24478.93
736.68	24438.03
737.021	24436.9
737.361	24366.85
737.702	24391.48
738.042	24358.48
738.383	24239.39
738.723	24252.5
739.063	24215.44
739.404	24318.94
739.744	24165.95
740.084	24154.42
740.424	24137.92
740.764	24099.51
741.104	24069.23
741.444	23993.3
741.784	24017.25
742.124	24012.96
742.464	24009.79
742.804	23886.63
743.143	23846.41
743.483	23793.98
743.823	23692.29
744.162	23647.54
744.502	23656.81
744.841	23654.55
745.181	23704.26
745.52	23495.23
745.86	23619.75
746.199	23537.26
746.538	23435.12
746.877	23530.71
747.216	23537.26
747.556	23432.18
747.895	23446.42
748.234	23274.9
748.573	23152.64
748.911	23211.17
749.25	23228.34
749.589	23075.35
749.928	23065.41
750.267	23069.25
750.605	23012.53
750.944	22839.43
751.283	22894.34
751.621	22994.23
751.96	22767.11
752.298	22820.45
752.636	22783.84
752.975	22589.04
753.313	22551.3
753.651	22679.88
753.989	22511.53
754.327	22446.44
754.666	22358.76
755.004	22412.77
755.342	22326.45
755.679	22427.24
756.017	22193.12
756.355	22213
756.693	22154.47
757.031	22111.09
757.368	21944.08
757.706	21909.51
758.044	21808.27
758.381	21893.69
758.719	21761.72
759.056	21810.75
759.394	21699.34
759.731	21532.8
760.068	21402.63
760.405	21486.02
760.743	21339.81
761.08	21335.96
761.417	21323.54
761.754	21166.48
762.091	21230.88
762.428	21102.98
762.765	20899.59
763.102	21017.1
763.438	20922.87
763.775	20822.53
764.112	20811.46
764.449	20797
764.785	20625.93
765.122	20640.39
765.458	20484.91
765.795	20492.37
766.131	20448.3
766.467	20346.84
766.804	20357.46
767.14	20134.87
767.476	20093.51
767.812	20048.77
768.148	20112.95
768.485	20016
768.821	19837.92
769.157	19875.89
769.492	19739.85
769.828	19669.57
770.164	19548.21
770.5	19556.58
770.836	19517.03
771.171	19366.98
771.507	19412.4
771.842	19238.17
772.178	19157.04
772.513	19111.16
772.849	19150.49
773.184	18957.95
773.519	19035.91
773.855	18900.1
774.19	18836.82
774.525	18743.72
774.86	18730.16
775.195	18628.24
775.53	18619.43
775.865	18507.79
776.2	18355.48
776.535	18196.84
776.87	18225.54
777.205	18135.37
777.539	18087.69
777.874	18164.75
778.209	17960.91
778.543	17933.12
778.878	17804.76
779.212	17811.09
779.547	17720.47
779.881	17741.71
780.215	17553.01
780.55	17568.61
780.884	17423.07
781.218	17393.92
781.552	17402.96
781.886	17225.11
782.22	17212.68
782.554	17181.72
782.888	17043.65
783.222	16964.55
783.556	16887.95
783.889	16903.54
784.223	16739.7
784.557	16750.77
784.89	16814.28
785.224	16568.41
785.557	16559.59
785.891	16494.96
786.224	16539.03
786.558	16473.04
786.891	16263.33
787.224	16337
787.557	16234.18
787.891	16115.31
788.224	16113.05
788.557	16196.66
788.89	16021.53
789.223	15994.18
789.556	15859.5
789.888	15890.46
790.221	15788.77
790.554	15753.74
790.887	15735.66
791.219	15673.29
791.552	15534.31
791.884	15451.15
792.217	15391.94
792.549	15345.16
792.882	15237.14
793.214	15304.26
793.546	15262.45
793.879	15127.54
794.211	15126.64
794.543	15201.44
794.875	15006.87
795.207	15124.38
795.539	14967.09
795.871	15008.45
796.203	14867.21
796.535	14806.87
796.867	14800.54
797.198	14688
797.53	14621.34
797.862	14552.87
798.193	14601
798.525	14517.39
798.856	14461.34
799.188	14384.06
799.519	14372.31
799.85	14280.56
800.182	14272.87
800.513	14209.82
800.844	14077.4
801.175	14176.15
801.506	14155.14
801.837	14108.58
802.168	14014.12
802.499	14000.11
802.83	13893.67
803.161	13836.27
803.491	13769.16
803.822	13792.89
804.153	13775.49
804.483	13677.63
804.814	13659.56
805.145	13615.49
805.475	13619.33
805.805	13577.52
806.136	13562.38
806.466	13427.02
806.796	13444.19
807.126	13413.01
807.457	13306.8
807.787	13344.08
808.117	13236.52
808.447	13224.09
808.777	13309.06
809.107	13161.26
809.436	13100.93
809.766	13076.29
810.096	13062.51
810.426	13042.17
810.755	12934.38
811.085	12984.55
811.414	12918.78
811.744	12829.3
812.073	12786.58
812.403	12861.16
812.732	12778.9
813.061	12876.75
813.39	12617.78
813.719	12639.92
814.049	12625.23
814.378	12580.71
814.707	12628.85
815.036	12579.81
815.365	12473.6
815.693	12359.03
816.022	12386.82
816.351	12418.01
816.68	12267.95
817.008	12354.51
817.337	12284.23
817.665	12242.87
817.994	12234.28
818.322	12295.52
818.651	12165.58
818.979	12122.87
819.307	12095.08
819.636	12164.91
819.964	11980.05
820.292	12086.26
820.62	12075.42
820.948	11999.94
821.276	12098.02
821.604	12095.98
821.932	11984.12
822.259	12037.9
822.587	12011.01
822.915	11958.58
823.243	11950.9
823.57	11899.83
823.898	11932.6
824.225	11861.19
824.553	11919.26
824.88	11947.51
825.207	11961.75
825.535	11926.95
825.862	11946.38
826.189	11935.76
826.516	12019.37
826.843	11939.38
827.17	11944.57
827.497	11971.92
827.824	11919.71
828.151	12041.75
828.478	11914.74
828.805	11943.44
829.131	11811.7
829.458	11910.22
829.785	11831.58
830.111	11938.47
830.438	11890.11
830.764	11895.31
831.09	11876.1
831.417	11848.08
831.743	11907.96
832.069	11897.12
832.395	11795.2
832.722	11902.99
833.048	11745.03
833.374	11810.11
833.7	11766.72
834.026	11856.67
834.351	11771.24
834.677	11712.71
835.003	11750.45
835.329	11823.9
835.654	11735.99
835.98	11696.67
836.306	11669.78
836.631	11671.59
836.956	11649.21
837.282	11714.3
837.607	11605.37
837.932	11557.69
838.258	11590.68
838.583	11572.61
838.908	11498.03
839.233	11532.15
839.558	11428.88
839.883	11475.43
840.208	11446.28
840.533	11467.75
840.858	11420.97
841.182	11422.55
841.507	11405.83
841.832	11283.57
842.156	11332.61
842.481	11351.82
842.805	11241.54
843.13	11266.62
843.454	11294.65
843.778	11121.32
844.103	11113.86
844.427	11071.6
844.751	11134.42
845.075	11168.32
845.399	11030.02
845.723	10907.54
846.047	10976.46
846.371	10928.78
846.695	10852.62
847.019	10811.04
847.343	10718.84
847.666	10739.63
847.99	10692.85
848.313	10653.08
848.637	10659.18
848.96	10642.91
849.284	10579.19
849.607	10545.51
849.931	10519.98
850.254	10394.78
850.577	10358.4
850.9	10292.64
851.223	10261.45
851.546	10183.04
851.869	10184.62
852.192	10199.76
852.515	10125.41
852.838	10043.15
853.161	10009.48
853.483	9989.82
853.806	9974.68
854.129	10015.13
854.451	9940.33
854.774	9945.08
855.096	9865.76
855.419	9858.53
855.741	9842.48
856.063	9717.51
856.385	9735.14
856.708	9716.61
857.03	9693.33
857.352	9625.09
857.674	9595.26
857.996	9583.51
858.318	9541.92
858.64	9554.58
858.961	9521.13
859.283	9493.34
859.605	9402.49
859.926	9390.06
860.248	9375.15
860.57	9386
860.891	9348.26
861.212	9331.53
861.534	9277.75
861.855	9284.53
862.176	9336.51
862.498	9214.7
862.819	9325.43
863.14	9251.31
863.461	9183.06
863.782	9141.71
864.103	9179.67
864.424	9117.3
864.745	9142.61
865.065	9113.46
865.386	9117.53
865.707	9083.18
866.027	9083.63
866.348	9081.6
866.668	8979.91
866.989	9005.44
867.309	8887.25
867.63	8939.68
867.95	8969.51
868.27	8875.5
868.59	8958.21
868.91	8881.15
869.23	8862.17
869.55	8861.49
869.87	8890.87
870.19	8786.46
870.51	8851.77
870.83	8849.29
871.15	8841.6
871.469	8803.64
871.789	8748.27
872.109	8747.14
872.428	8767.48
872.748	8770.19
873.067	8733.81
873.386	8752.57
873.706	8675.28
874.025	8634.83
874.344	8647.48
874.663	8653.36
874.982	8612.46
875.301	8575.62
875.62	8640.71
875.939	8561.39
876.258	8570.88
876.577	8508.28
876.896	8516.64
877.214	8494.95
877.533	8527.49
877.852	8459.01
878.17	8470.77
878.489	8481.39
878.807	8452.46
879.125	8372.69
879.444	8437.77
879.762	8387.38
880.08	8420.82
880.398	8375.4
880.716	8355.97
881.034	8286.82
881.352	8287.49
881.67	8344.89
881.988	8242.75
882.306	8252.92
882.624	8259.25
882.941	8305.8
883.259	8179.02
883.577	8201.85
883.894	8213.15
884.212	8137.67
884.529	8096.31
884.846	8055.18
885.164	8091.79
885.481	8076.2
885.798	8062.42
886.115	7977.67
886.432	8000.04
886.75	7998.46
887.067	8005.92
887.383	7954.17
887.7	7967.95
888.017	7927.28
888.334	7862.19
888.651	7926.37
888.967	7873.95
889.284	7819.71
889.6	7780.39
889.917	7773.61
890.233	7751.01
890.55	7737.68
890.866	7745.36
891.182	7722.99
891.498	7678.7
891.815	7689.54
892.131	7582.88
892.447	7589.21
892.763	7551.47
893.079	7588.3
893.395	7518.7
893.71	7489.32
894.026	7473.5
894.342	7453.62
894.657	7407.52
894.973	7402.77
895.289	7348.31
895.604	7355.32
895.92	7298.37
896.235	7345.37
896.55	7311.02
896.865	7244.58
897.181	7244.13
897.496	7243.91
897.811	7208.2
898.126	7177.69
898.441	7108.77
898.756	7141.76
899.071	7102.67
899.386	7083.23
899.7	7041.43
900.015	7001.43
900.33	6986.51
900.644	6989
900.959	6986.96
901.273	6910.13
901.588	6906.51
901.902	6884.14
902.216	6864.48
902.531	6880.07
902.845	6877.59
903.159	6764.82
903.473	6739.29
903.787	6660.64
904.101	6689.57
904.415	6682.11
904.729	6630.14
905.042	6615
905.356	6675.56
905.67	6588.33
905.984	6571.15
906.297	6569.12
906.611	6563.47
906.924	6448.67
907.237	6430.14
907.551	6409.8
907.864	6364.61
908.177	6412.97
908.491	6372.97
908.804	6341.78
909.117	6299.98
909.43	6231.05
909.743	6282.12
910.056	6270.37
910.368	6256.81
910.681	6193.76
910.994	6198.06
911.307	6129.36
911.619	6101.79
911.932	6125.52
912.244	6079.19
912.557	6087.78
912.869	6044.62
913.181	6013.2
913.494	6060.89
913.806	5932.53
914.118	5911.06
914.43	5891.4
914.742	5892.3
915.054	5850.27
915.366	5825.64
915.678	5799.42
915.99	5772.08
916.302	5759.88
916.613	5721.46
916.925	5737.96
917.236	5745.41
917.548	5696.83
917.859	5682.14
918.171	5628.35
918.482	5604.63
918.794	5594.23
919.105	5638.3
919.416	5525.76
919.727	5558.3
920.038	5495.03
920.349	5482.14
920.66	5448.92
920.971	5435.82
921.282	5424.97
921.593	5412.77
921.903	5337.52
922.214	5268.36
922.525	5276.05
922.835	5286.22
923.146	5235.37
923.456	5262.04
923.767	5237.18
924.077	5216.16
924.387	5185.2
924.697	5150.4
925.008	5161.47
925.318	5097.3
925.628	5116.96
925.938	5080.57
926.248	5056.39
926.558	5025.21
926.867	5060.69
927.177	4999.9
927.487	4955.83
927.796	4912.89
928.106	4940.69
928.416	4877.64
928.725	4888.26
929.034	4850.3
929.344	4847.13
929.653	4785.67
929.962	4771.88
930.271	4768.26
930.581	4761.26
930.89	4737.3
931.199	4722.16
931.508	4679.68
931.817	4651.66
932.125	4634.26
932.434	4596.97
932.743	4619.12
933.051	4568.72
933.36	4561.72
933.669	4529.17
933.977	4524.66
934.286	4531.21
934.594	4536.41
934.902	4465
935.21	4452.79
935.519	4435.84
935.827	4448.72
936.135	4423.19
936.443	4394.04
936.751	4358.11
937.059	4359.01
937.367	4313.59
937.674	4263.19
937.982	4307.71
938.29	4316.52
938.597	4275.4
938.905	4228.39
939.213	4198.34
939.52	4248.96
939.827	4224.1
940.135	4196.98
940.442	4165.79
940.749	4161.05
941.056	4160.6
941.363	4070.88
941.67	4098.9
941.977	4069.75
942.284	4030.88
942.591	4022.97
942.898	4057.55
943.205	3990.66
943.511	4007.83
943.818	3984.56
944.125	3925.35
944.431	3882.41
944.738	3912.92
945.044	3907.95
945.35	3881.96
945.657	3869.08
945.963	3837.89
946.269	3845.58
946.575	3797.67
946.881	3782.53
947.187	3762.64
947.493	3774.62
947.799	3719.93
948.105	3720.61
948.41	3694.17
948.716	3695.3
949.022	3687.39
949.327	3684.45
949.633	3660.95
949.938	3617.11
950.244	3636.77
950.549	3601.52
950.854	3579.82
951.16	3561.74
951.465	3559.48
951.77	3550.44
952.075	3558.8
952.38	3520.39
952.685	3497.79
952.99	3481.74
953.294	3496.89
953.599	3412.14
953.904	3464.57
954.209	3399.26
954.513	3435.64
954.818	3373.95
955.122	3401.07
955.426	3341.18
955.731	3292.82
956.035	3330.34
956.339	3300.28
956.643	3325.36
956.948	3260.73
957.252	3232.26
957.556	3264.35
957.86	3227.06
958.163	3245.59
958.467	3224.35
958.771	3251.69
959.075	3207.4
959.378	3160.4
959.682	3190.23
959.985	3151.58
960.289	3106.16
960.592	3129.89
960.896	3109.55
961.199	3100.96
961.502	3082.21
961.805	3046.73
962.108	3023.68
962.411	3028.42
962.714	3001.76
963.017	2989.55
963.32	3016.45
963.623	2964.02
963.926	2994.07
964.228	2966.73
964.531	2960.63
964.833	2950.69
965.136	2919.95
965.438	2900.97
965.741	2887.41
966.043	2865.26
966.345	2860.07
966.648	2888.31
966.95	2843.34
967.252	2839.05
967.554	2827.98
967.856	2841.76
968.158	2792.95
968.46	2806.73
968.761	2826.62
969.063	2793.63
969.365	2759.5
969.666	2775.32
969.968	2753.63
970.269	2745.04
970.571	2714.53
970.872	2707.75
971.174	2667.75
971.475	2723.57
971.776	2690.35
972.077	2653.97
972.378	2662.11
972.679	2649
972.98	2648.32
973.281	2632.73
973.582	2576.01
973.883	2618.94
974.183	2577.81
974.484	2558.38
974.785	2583.46
975.085	2563.58
975.386	2543.01
975.686	2527.65
975.986	2494.2
976.287	2517.25
976.587	2471.15
976.887	2490.81
977.187	2493.75
977.487	2476.12
977.787	2443.81
978.087	2448.78
978.387	2421.89
978.687	2426.41
978.987	2392.28
979.286	2434.09
979.586	2407.42
979.885	2384.6
980.185	2339.63
980.484	2358.84
980.784	2357.25
981.083	2320.42
981.382	2320.65
981.682	2285.84
981.981	2296.92
982.28	2317.93
982.579	2270.03
982.878	2301.44
983.177	2264.38
983.475	2262.79
983.774	2242.68
984.073	2222.34
984.372	2234.55
984.67	2234.77
984.969	2202
985.267	2166.07
985.566	2202
985.864	2166.75
986.162	2165.85
986.461	2151.84
986.759	2152.74
987.057	2133.08
987.355	2105.96
987.653	2128.56
987.951	2106.41
988.249	2095.34
988.547	2089.46
988.844	2082.23
989.142	2072.29
989.44	2079.97
989.737	2070.71
990.035	2063.7
990.332	2051.95
990.63	2028.45
990.927	2007.43
991.224	2007.89
991.521	2021.22
991.819	1985.74
992.116	1966.76
992.413	1972.41
992.71	1952.29
993.006	1950.26
993.303	1945.29
993.6	1916.14
993.897	1903.03
994.193	1903.93
994.49	1954.78
994.787	1882.24
995.083	1856.93
995.379	1876.36
995.676	1882.46
995.972	1862.58
996.268	1855.12
996.565	1866.65
996.861	1869.36
997.157	1836.14
997.453	1803.6
997.749	1803.14
998.044	1808.34
998.34	1803.82
998.636	1810.6
998.932	1764.95
999.227	1763.6
999.523	1758.85
999.818	1745.07
1000.114	1742.36
1000.409	1749.81
1000.704	1708.68
1001	1698.29
1001.295	1709.81
1001.59	1686.76
1001.885	1703.26
1002.18	1691.06
1002.475	1687.89
1002.77	1664.62
1003.065	1654.67
1003.359	1646.54
1003.654	1623.49
1003.949	1671.62
1004.243	1625.07
1004.538	1627.78
1004.832	1569.03
1005.127	1604.73
1005.421	1599.99
1005.715	1570.61
1006.009	1542.36
1006.304	1540.78
1006.598	1546.2
1006.892	1550.27
1007.186	1540.1
1007.48	1512.98
1007.773	1509.82
1008.067	1511.63
1008.361	1499.2
1008.655	1472.76
1008.948	1485.86
1009.242	1447
1009.535	1459.2
1009.829	1488.12
1010.122	1453.1
1010.415	1426.66
1010.708	1447.45
1011.001	1447.45
1011.295	1408.8
1011.588	1406.09
1011.881	1397.28
1012.173	1381.46
1012.466	1397.51
1012.759	1420.1
1013.052	1385.3
1013.344	1364.29
1013.637	1382.82
1013.93	1329.94
1014.222	1322.71
1014.514	1326.1
1014.807	1346.66
1015.099	1322.48
1015.391	1333.33
1015.683	1326.77
1015.976	1325.19
1016.268	1310.73
1016.56	1285.19
1016.851	1257.4
1017.143	1289.03
1017.435	1286.55
1017.727	1237.28
1018.018	1252.65
1018.31	1252.42
1018.602	1247.68
1018.893	1240.22
1019.185	1222.37
1019.476	1197.96
1019.767	1218.75
1020.058	1208.81
1020.35	1174.01
1020.641	1168.36
1020.932	1192.09
1021.223	1169.26
1021.514	1156.83
1021.804	1151.64
1022.095	1133.56
1022.386	1130.85
1022.677	1134.46
1022.967	1113.22
1023.258	1107.34
1023.548	1110.06
1023.839	1089.72
1024.129	1090.4
1024.419	1110.73
1024.709	1074.12
1025	1069.83
1025.29	1070.06
1025.58	1066.44
1025.87	1046.78
1026.16	1051.07
1026.449	1040.45
1026.739	1037.74
1027.029	1042.49
1027.319	1033.67
1027.608	982.38
1027.898	985.54
1028.187	969.27
1028.477	991.19
1028.766	985.54
1029.055	980.34
1029.344	975.37
1029.634	961.81
1029.923	974.47
1030.212	957.74
1030.501	939.44
1030.79	958.87
1031.078	937.63
1031.367	934.01
1031.656	908.93
1031.945	932.43
1032.233	931.98
1032.522	903.96
1032.81	920.46
1033.099	909.38
1033.387	904.86
1033.675	899.44
1033.963	886.56
1034.251	897.18
1034.54	873.45
1034.828	870.74
1035.116	886.33
1035.403	857.18
1035.691	859.67
1035.979	857.18
1036.267	862.38
1036.554	825.32
1036.842	823.28
1037.129	817.41
1037.417	818.31
1037.704	842.04
1037.992	835.94
1038.279	806.56
1038.566	823.74
1038.853	823.74
1039.14	823.74
