Data from whiteboard_FLMS001491_00042.txt Node
Date: Wed Feb 08 11:26:39 GMT 2017
User: dcchb
Spectrometer: FLMS00149
Trigger mode: 0
Integration Time (sec): 2.000000E-2
Scans to average: 10
Electric dark correction enabled: true
Nonlinearity correction enabled: false
Boxcar width: 0
XAxis mode: Wavelengths
Number of Pixels in Spectrum: 2048
>>>>>Begin Spectral Data<<<<<
341.393	12.15
341.776	12.15
342.16	12.15
342.543	-62.2
342.927	-47.06
343.31	-69.21
343.693	-75.76
344.077	-60.62
344.46	-70.79
344.843	-57.23
345.226	-33.5
345.61	-33.5
345.993	-19.94
346.376	-2.09
346.759	4.69
347.142	16.89
347.525	40.17
347.908	62.09
348.291	76.1
348.674	89.43
349.057	133.27
349.44	134.63
349.823	136.21
350.206	179.37
350.588	213.5
350.971	259.82
351.354	258.69
351.737	276.32
352.119	284.46
352.502	287.62
352.884	310.9
353.267	337.34
353.65	326.49
354.032	326.26
354.414	360.61
354.797	323.1
355.179	355.19
355.562	366.49
355.944	364.68
356.326	374.85
356.709	364.91
357.091	363.1
357.473	371.91
357.855	366.49
358.238	388.18
358.62	379.37
359.002	371.01
359.384	365.58
359.766	373.72
360.148	377.11
360.53	394.96
360.912	383.44
361.294	371.46
361.676	380.27
362.057	384.79
362.439	386.6
362.821	373.27
363.203	375.07
363.584	358.13
363.966	373.04
364.348	364.91
364.729	372.36
365.111	365.58
365.493	369.65
365.874	376.88
366.256	386.37
366.637	375.53
367.019	365.58
367.4	379.37
367.781	366.26
368.163	355.64
368.544	384.57
368.925	378.01
369.306	384.11
369.688	360.61
370.069	375.53
370.45	375.3
370.831	381.85
371.212	380.95
371.593	392.25
371.974	388.86
372.355	386.83
372.736	384.11
373.117	386.83
373.498	388.18
373.879	408.97
374.26	386.6
374.641	394.74
375.021	390.22
375.402	423.21
375.783	378.69
376.163	407.16
376.544	411.46
376.925	427.5
377.305	397.9
377.686	421.4
378.066	402.42
378.447	432.47
378.827	444.68
379.208	429.54
379.588	425.47
379.968	421.18
380.349	421.18
380.729	426.82
381.109	442.19
381.489	444.68
381.87	445.81
382.25	475.19
382.63	454.62
383.01	436.54
383.39	446.94
383.77	481.06
384.15	489.42
384.53	460.95
384.91	474.73
385.29	494.62
385.67	499.82
386.049	528.97
386.429	499.37
386.809	524.68
387.189	525.13
387.568	515.86
387.948	515.18
388.328	506.82
388.707	530.1
389.087	539.82
389.466	536.88
389.846	534.84
390.225	548.4
390.605	571
390.984	573.71
391.363	558.57
391.743	585.69
392.122	582.08
392.501	575.97
392.881	607.16
393.26	616.2
393.639	597.89
394.018	624.79
394.397	617.1
394.776	605.58
395.155	645.58
395.534	664.33
395.913	605.58
396.292	655.52
396.671	667.5
397.05	686.93
397.429	721.73
397.808	724.9
398.186	706.82
398.565	729.19
398.944	738.46
399.323	713.37
399.701	766.48
400.08	776.87
400.458	772.8
400.837	805.35
401.215	810.32
401.594	818.45
401.972	840.6
402.351	839.02
402.729	847.6
403.107	880.6
403.486	881.95
403.864	904.78
404.242	908.17
404.62	904.1
404.999	934.83
405.377	956.53
405.755	998.79
406.133	1011.67
406.511	1022.52
406.889	1015.06
407.267	1036.98
407.645	1068.84
408.023	1085.11
408.401	1082.63
408.779	1111.78
409.156	1143.64
409.534	1184.32
409.912	1191.55
410.29	1225
410.667	1251.89
411.045	1284.43
411.422	1293.92
411.8	1353.81
412.178	1331.43
412.555	1374.6
412.933	1395.84
413.31	1443.52
413.687	1480.36
414.065	1445.78
414.442	1444.65
414.819	1517.87
415.197	1530.52
415.574	1537.3
415.951	1581.37
416.328	1580.24
416.705	1629.51
417.082	1634.48
417.46	1633.35
417.837	1649.84
418.214	1712.44
418.591	1690.97
418.967	1730.52
419.344	1752.21
419.721	1805.09
420.098	1780.69
420.475	1831.53
420.852	1826.79
421.228	1885.77
421.605	1916.96
421.982	1903.4
422.358	1965.09
422.735	1962.38
423.111	1974.81
423.488	1988.14
423.864	2021.81
424.241	2067.23
424.617	2096.84
424.994	2128.02
425.37	2131.41
425.746	2163.05
426.123	2180
426.499	2209.15
426.875	2229.04
427.251	2301.35
427.627	2340.9
428.003	2378.19
428.379	2410.95
428.756	2450.5
429.132	2476.94
429.507	2469.48
429.883	2535.24
430.259	2534.11
430.635	2593.32
431.011	2614.56
431.387	2710.15
431.763	2731.4
432.138	2739.76
432.514	2813.88
432.89	2814.33
433.265	2885.07
433.641	2924.39
434.016	2940.43
434.392	2998.96
434.767	3061.78
435.143	3097.94
435.518	3129.35
435.894	3134.32
436.269	3174.78
436.644	3255.9
437.02	3272.17
437.395	3265.85
437.77	3358.05
438.145	3380.65
438.52	3405.05
438.895	3525.5
439.271	3538.38
439.646	3599.85
440.021	3638.27
440.395	3650.69
440.77	3633.29
441.145	3692.05
441.52	3769.34
441.895	3687.98
442.27	3827.41
442.645	3821.54
443.019	3873.51
443.394	3880.07
443.769	3917.58
444.143	3932.04
444.518	3948.09
444.892	3995.54
445.267	4010.91
445.641	4041.42
446.016	4097.69
446.39	4099.04
446.764	4126.61
447.139	4087.07
447.513	4162.77
447.887	4147.41
448.262	4240.28
448.636	4255.65
449.01	4290.23
449.384	4308.76
449.758	4409.32
450.132	4490.9
450.506	4505.59
450.88	4520.05
451.254	4506.94
451.628	4608.18
452.002	4648.86
452.376	4683.21
452.75	4784.9
453.123	4848.18
453.497	4927.27
453.871	4947.16
454.244	5096.98
454.618	5110.54
454.992	5168.62
455.365	5194.84
455.739	5344.66
456.112	5402.97
456.486	5478.44
456.859	5534.26
457.232	5598.21
457.606	5604.77
457.979	5705.78
458.352	5829.17
458.725	5965.89
459.099	5908.26
459.472	6040.91
459.845	6104.87
460.218	6169.05
460.591	6177.63
460.964	6279.78
461.337	6424.41
461.71	6447.01
462.083	6571.75
462.456	6621.69
462.829	6597.74
463.201	6731.29
463.574	6797.96
463.947	6865.53
464.32	7011.74
464.692	7092.64
465.065	7086.31
465.438	7294.89
465.81	7323.14
466.183	7435.23
466.555	7571.95
466.928	7660.99
467.3	7701.21
467.672	7797.25
468.045	8052.16
468.417	8055.1
468.789	8187.75
469.161	8324.92
469.534	8427.52
469.906	8602.88
470.278	8655.76
470.65	8883.78
471.022	9019.82
471.394	9179.14
471.766	9297.1
472.138	9351.56
472.51	9621.84
472.882	9876.07
473.253	9875.39
473.625	10099.11
473.997	10243.52
474.369	10291.88
474.74	10459.1
475.112	10736.84
475.484	10837.62
475.855	10931.63
476.227	11175.24
476.598	11446.65
476.97	11552.41
477.341	11706.75
477.713	11949.23
478.084	11975.67
478.455	12278.26
478.827	12399.62
479.198	12809.55
479.569	12803.45
479.94	13132.25
480.311	13287.96
480.682	13583.32
481.053	13780.15
481.424	14052.23
481.795	14301.71
482.166	14404.31
482.537	14684.3
482.908	14951.41
483.279	15073.45
483.65	15358.64
484.021	15736.93
484.391	15832.97
484.762	16111.16
485.133	16197.48
485.503	16500.53
485.874	16895.54
486.244	16915.66
486.615	17404.68
486.985	17561.97
487.356	17941.84
487.726	18101.39
488.097	18500.93
488.467	18626.35
488.837	18914.7
489.207	19244.64
489.578	19612.31
489.948	19674.91
490.318	20076.48
490.688	20206.87
491.058	20533.64
491.428	20815.67
491.798	20955.55
492.168	21484.35
492.538	21571.81
492.908	21728.86
493.278	22082.3
493.648	22086.37
494.017	22406.59
494.387	22684.77
494.757	22840.47
495.126	22937.65
495.496	23100.35
495.866	23188.03
496.235	23545.99
496.605	23649.49
496.974	23869.6
497.344	24091.51
497.713	24188.69
498.082	24339.87
498.452	24489.7
498.821	24552.07
499.19	24723.59
499.559	24886.97
499.928	25041.09
500.298	25205.16
500.667	25608.54
501.036	25370.8
501.405	25749.55
501.774	25776.44
502.143	26062.54
502.512	26192.02
502.88	26379.81
503.249	26446.03
503.618	26616.19
503.987	26787.71
504.356	27086.91
504.724	27236.52
505.093	27401.93
505.462	27646.45
505.83	27846.22
506.199	28057.51
506.567	28404.39
506.936	28574.79
507.304	29024.49
507.672	29118.95
508.041	29221.55
508.409	29597.81
508.777	29869.44
509.145	29986.95
509.514	30141.98
509.882	30438.47
510.25	30496.77
510.618	30783.09
510.986	30947.6
511.354	31308.95
511.722	31580.58
512.09	31875.26
512.458	31767.02
512.826	32105.77
513.193	32361.35
513.561	32390.73
513.929	32598.63
514.297	32932.86
514.664	33201.1
515.032	33209.69
515.4	33463.92
515.767	33489.46
516.135	33862.78
516.502	33720.19
516.869	34205.15
517.237	34405.37
517.604	34162.89
517.972	34735.53
518.339	34800.61
518.706	34974.39
519.073	35134.39
519.44	35409.86
519.808	35735.5
520.175	35575.51
520.542	36192.44
520.909	36250.52
521.276	36396.73
521.643	36686.21
522.009	36930.05
522.376	37260.88
522.743	37433.76
523.11	37839.17
523.477	38276.23
523.843	38501.3
524.21	38888.64
524.577	39130.44
524.943	39279.81
525.31	39474.16
525.676	39914.83
526.043	40185.55
526.409	40430.97
526.776	40863.5
527.142	41013.1
527.508	41429.14
527.874	41691.73
528.241	41849.46
528.607	42098.72
528.973	42546.17
529.339	42559.05
529.705	42990.45
530.071	43275.64
530.437	43541.62
530.803	43695.29
531.169	44037.66
531.535	44039.01
531.901	44350.19
532.267	44528.72
532.632	44880.35
532.998	45056.39
533.364	45132.77
533.73	45304.06
534.095	45694.79
534.461	45770.72
534.826	46021.56
535.192	46079.41
535.557	46428.55
535.923	46404.6
536.288	46744.03
536.653	46710.13
537.019	46598.49
537.384	46874.87
537.749	47150.12
538.114	47147.4
538.479	47179.04
538.845	47396.21
539.21	47294.29
539.575	47476.21
539.94	47463.33
540.305	47655.19
540.67	47647.5
541.034	48000.04
541.399	47982.86
541.764	48094.05
542.129	48101.73
542.494	48225.12
542.858	48470.53
543.223	48327.94
543.587	48643.64
543.952	48601.6
544.316	48783.75
544.681	48776.29
545.045	49134.24
545.41	49216.28
545.774	49390.74
546.138	49338.76
546.503	49531.52
546.867	49545.76
547.231	49830.27
547.595	49901.91
547.959	50069.14
548.324	50278.4
548.688	50369.01
549.052	50449.24
549.416	50529.91
549.779	50693.98
550.143	50767.2
550.507	50963.8
550.871	51230.46
551.235	51275.88
551.599	51572.6
551.962	51619.6
552.326	51760.84
552.689	51964.23
553.053	51806.94
553.417	51917.9
553.78	52412.12
554.143	52274.73
554.507	52426.59
554.87	52625.68
555.234	52916.52
555.597	52815.28
555.96	52886.91
556.323	53062.05
556.686	53214.36
557.05	53410.74
557.413	53423.62
557.776	53455.94
558.139	53703.39
558.502	53776.83
558.865	53751.07
559.228	53926.66
559.59	53938.64
559.953	54111.74
560.316	54433.99
560.679	54324.84
561.041	54513.31
561.404	54648.9
561.767	54776.58
562.129	54689.8
562.492	54994.2
562.854	54848.67
563.217	54868.33
563.579	54986.29
563.941	55149.91
564.304	55331.6
564.666	55384.02
565.028	55392.16
565.39	55420.18
565.753	55633.73
566.115	55663.11
566.477	55834.41
566.839	55821.53
567.201	55991.47
567.563	56040.73
567.925	56211.57
568.287	56193.27
568.648	56224
569.01	56368.63
569.372	56582.86
569.734	56414.28
570.095	56630.77
570.457	56822.63
570.819	56794.38
571.18	56725.91
571.542	56967.49
571.903	57039.35
572.265	57188.27
572.626	57214.48
572.987	57285.44
573.349	57366.34
573.71	57480.47
574.071	57583.97
574.432	57649.95
574.794	57892.66
575.155	57889.49
575.516	57789.16
575.877	57927.69
576.238	57948.7
576.599	58157.96
576.96	58156.15
577.32	58203.84
577.681	58289.26
578.042	58412.19
578.403	58409.71
578.763	58494.9
579.124	58505.52
579.485	58656.03
579.845	58682.02
580.206	58647.22
580.566	58703.03
580.927	58743.71
581.287	58837.94
581.648	58783.03
582.008	58929.47
582.368	58835.91
582.728	58898.51
583.089	58902.12
583.449	58903.03
583.809	58969.69
584.169	58950.48
584.529	58862.35
584.889	58998.62
585.249	58877.94
585.609	58823.26
585.969	58975.12
586.329	58886.08
586.688	58953.2
587.048	58921.78
587.408	58855.12
587.768	58839.3
588.127	58781.67
588.487	58731.28
588.846	58904.16
589.206	58718.63
589.565	58724.05
589.925	58902.12
590.284	58741
590.643	58783.03
591.003	58815.12
591.362	58855.8
591.721	58764.05
592.08	58707.33
592.44	58720.89
592.799	58710.04
593.158	58702.13
593.517	58743.71
593.876	58700.55
594.235	58717.72
594.593	58709.81
594.952	58713.65
595.311	58704.84
595.67	58719.08
596.029	58854.67
596.387	58845.18
596.746	58853.09
597.104	58785.74
597.463	58752.97
597.822	58901.45
598.18	58763.14
598.538	58741.9
598.897	58972.4
599.255	58732.18
599.613	59079.29
599.972	58968.79
600.33	58987.32
600.688	58985.06
601.046	59054.66
601.404	59105.73
601.762	59082.01
602.12	59253.98
602.478	59258.72
602.836	59277.25
603.194	59227.76
603.552	59267.99
603.91	59173.75
604.268	59331.72
604.625	59323.13
604.983	59434.76
605.341	59388.89
605.698	59420.98
606.056	59564.25
606.413	59494.42
606.771	59568.32
607.128	59603.35
607.485	59527.42
607.843	59618.94
608.2	59806.28
608.557	59773.29
608.914	59724.7
609.272	59856.67
609.629	59922.44
609.986	59945.26
610.343	59828.88
610.7	60054.64
611.057	60009.44
611.414	59987.07
611.771	59997.69
612.127	60053.73
612.484	60105.26
612.841	60178.25
613.198	59981.19
613.554	60132.15
613.911	60232.03
614.267	60150.23
614.624	60106.16
614.98	60136.67
615.337	60286.04
615.693	60168.53
616.05	60136.89
616.406	60253.95
616.762	60161.3
617.118	60175.99
617.475	60054.64
617.831	60107.06
618.187	60144.8
618.543	60214.41
618.899	60326.27
619.255	60226.38
619.611	60173.05
619.967	60232.26
620.323	60245.59
620.678	60193.16
621.034	60090.57
621.39	60055.77
621.746	60027.07
622.101	60257.12
622.457	60003.79
622.812	60079.49
623.168	60066.61
623.523	60034.3
623.879	60091.92
624.234	59942.1
624.589	60032.04
624.945	60007.41
625.3	60053.28
625.655	59977.35
626.01	59992.72
626.365	60050.34
626.72	59995.88
627.075	59926.96
627.43	59911.14
627.785	59854.87
628.14	59914.75
628.495	59949.1
628.85	59893.51
629.205	59786.62
629.559	59907.97
629.914	59782.78
630.269	59845.83
630.623	59797.92
630.978	59778.26
631.332	59904.81
631.687	59959.5
632.041	59828.43
632.396	59904.58
632.75	59793.4
633.104	59790.69
633.459	59766.73
633.813	59758.37
634.167	59775.55
634.521	59783.91
634.875	59846.96
635.229	59792.5
635.583	59785.72
635.937	59755.89
636.291	59706.17
636.645	59726.73
636.999	59653.06
637.352	59749.56
637.706	59665.04
638.06	59824.59
638.413	59723.12
638.767	59653.74
639.121	59702.78
639.474	59553.18
639.828	59535.33
640.181	59618.26
640.534	59579.39
640.888	59540.07
641.241	59413.3
641.594	59478.61
641.947	59577.13
642.301	59471.6
642.654	59486.51
643.007	59451.49
643.36	59405.61
643.713	59267.99
644.066	59440.41
644.419	59235.9
644.771	59184.83
645.124	58939.18
645.477	58843.14
645.83	58653.77
646.182	58474.34
646.535	58359.31
646.888	58454.9
647.24	58254.01
647.593	58372.42
647.945	58305.53
648.298	58089.04
648.65	58103.73
649.002	57967.23
649.355	58083.61
649.707	57987.8
650.059	58118.87
650.411	58419.2
650.763	58374.68
651.115	58634.56
651.467	58426.43
651.819	58420.55
652.171	58272.76
652.523	58244.51
652.875	58277.06
653.227	58075.03
653.578	58257.17
653.93	58197.28
654.282	58049.49
654.633	58014.46
654.985	58054.91
655.337	58001.81
655.688	57939.66
656.039	58060.56
656.391	57806.33
656.742	57841.59
657.094	57782.15
657.445	57877.74
657.796	57747.13
658.147	57736.28
658.498	57758.2
658.849	57787.58
659.2	57733.34
659.551	57564.53
659.902	57658.99
660.253	57641.37
660.604	57697.41
660.955	57640.91
661.306	57673.23
661.656	57626
662.007	57625.09
662.358	57551.2
662.708	57631.65
663.059	57608.37
663.409	57378.32
663.76	57710.97
664.11	57606.11
664.461	57724.75
664.811	57532.22
665.161	57596.85
665.511	57588.71
665.862	57575.38
666.212	57677.97
666.562	57665.77
666.912	57583.06
667.262	57531.99
667.612	57559.56
667.962	57516.17
668.312	57482.5
668.662	57693.57
669.011	57588.03
669.361	57567.02
669.711	57508.71
670.06	57535.83
670.41	57421.26
670.76	57441.82
671.109	57539.67
671.459	57481.82
671.808	57394.82
672.157	57500.35
672.507	57355.72
672.856	57338.1
673.205	57419.68
673.554	57477.75
673.904	57315.95
674.253	57505.78
674.602	57385.33
674.951	56998.44
675.3	56854.27
675.649	57287.25
675.998	57259.91
676.346	57232.34
676.695	57310.75
677.044	57184.2
677.393	57248.83
677.741	57331.77
678.09	57233.24
678.438	57186.91
678.787	57160.02
679.135	57141.72
679.484	56984.43
679.832	57116.86
680.181	56934.72
680.529	57088.61
680.877	56940.82
681.225	56886.81
681.573	56927.49
681.922	56694.05
682.27	56743.31
682.618	56677.32
682.966	56549.87
683.314	56600.26
683.661	56399.36
684.009	56326.15
684.357	56343.55
684.705	56241.63
685.053	56266.94
685.4	56111.91
685.748	56030.56
686.095	56009.09
686.443	55906.5
686.79	55871.02
687.138	55910.56
687.485	55817.23
687.832	55699.95
688.18	55763.45
688.527	55602.55
688.874	55580.63
689.221	55400.97
689.568	55285.95
689.915	55331.37
690.262	55250.92
690.609	55230.36
690.956	55048.44
691.303	55030.59
691.65	54768.9
691.997	54821.78
692.344	54530.71
692.69	54528.91
693.037	54627.21
693.383	54256.82
693.73	54387.21
694.077	54138.18
694.423	54130.27
694.769	53975.7
695.116	53945.19
695.462	53994.91
695.808	53762.15
696.155	53830.62
696.501	53572.09
696.847	53476.73
697.193	53257.3
697.539	53448.93
697.885	53221.82
698.231	53108.83
698.577	53100.69
698.923	53094.59
699.269	52927.14
699.614	52809.4
699.96	52708.84
700.306	52636.53
700.651	52634.49
700.997	52500.94
701.342	52395.4
701.688	52440.82
702.033	52310.21
702.379	52333.03
702.724	52254.61
703.069	52282.86
703.415	51875.64
703.76	52077.67
704.105	51950.22
704.45	51948.86
704.795	51718.36
705.14	51663.67
705.485	51613.73
705.83	51537.12
706.175	51615.76
706.52	51463.45
706.865	51378.25
707.209	51305.26
707.554	51273.17
707.899	51442.88
708.243	51111.59
708.588	51028.43
708.932	50990.69
709.277	51006.51
709.621	50989.11
709.966	50751.83
710.31	50894.2
710.654	50590.25
710.998	50606.75
711.342	50679.29
711.687	50452.63
712.031	50409.69
712.375	50315.23
712.719	50306.64
713.063	50338.05
713.407	50341.44
713.75	50163.37
714.094	50179.87
714.438	49947.1
714.782	49891.29
715.125	49632.31
715.469	49903.94
715.812	49601.8
716.156	49456.27
716.499	49628.47
716.843	49491.52
717.186	49321.36
717.53	49416.5
717.873	49436.84
718.216	49309.38
718.559	49140.12
718.902	48858.77
719.246	48938.77
719.589	48822.39
719.932	48627.82
720.275	48694.03
720.617	48472.79
720.96	48575.16
721.303	48490.19
721.646	48476.18
721.989	48213.82
722.331	48355.96
722.674	48071.9
723.016	48150.54
723.359	47886.59
723.701	47998.23
724.044	47628.07
724.386	47473.27
724.729	47674.62
725.071	47405.93
725.413	47369.32
725.755	47365.93
726.097	47134.07
726.439	46955.77
726.782	46874.87
727.124	46968.88
727.465	46800.75
727.807	46612.5
728.149	46588.55
728.491	46506.74
728.833	46500.64
729.175	46286.64
729.516	46164.15
729.858	45969.58
730.199	45976.14
730.541	45987.66
730.882	45920.54
731.224	45842.58
731.565	45449.82
731.906	45535.92
732.248	45568.69
732.589	45411.63
732.93	45255.48
733.271	45233.78
733.612	45237.62
733.953	45151.52
734.294	45031.53
734.635	44873.34
734.976	44881.7
735.317	44646
735.658	44725.55
735.999	44691.65
736.339	44532.56
736.68	44636.74
737.021	44418.44
737.361	44200.14
737.702	44339.34
738.042	44161.49
738.383	44282.17
738.723	44095.51
739.063	44055.06
739.404	44044.21
739.744	43812.8
740.084	43787.27
740.424	43742.52
740.764	43630.21
741.104	43833.59
741.444	43538.01
741.784	43322.65
742.124	43654.61
742.464	43421.85
742.804	43476.09
743.143	43401.06
743.483	43326.71
743.823	43039.04
744.162	43006.72
744.502	43155.42
744.841	42955.65
745.181	43033.61
745.52	42838.14
745.86	42912.71
746.199	42773.51
746.538	42786.16
746.877	42813.28
747.216	42852.15
747.556	42604.47
747.895	42704.36
748.234	42534.19
748.573	42645.6
748.911	42619.84
749.25	42570.58
749.589	42205.16
749.928	42398.15
750.267	42376.23
750.605	42046.52
750.944	42172.39
751.283	41947.54
751.621	42049.91
751.96	41774.89
752.298	41743.48
752.636	41907.09
752.975	41687.21
753.313	41576.93
753.651	41683.82
753.989	41439.08
754.327	41377.16
754.666	41204.96
755.004	41227.11
755.342	41230.27
755.679	41142.36
756.017	40915.7
756.355	41177.39
756.693	40921.81
757.031	40985.08
757.368	40702.15
757.706	40651.76
758.044	40576.28
758.381	40644.75
758.719	40526.34
759.056	40376.73
759.394	40105.1
759.731	39955.5
760.068	39881.61
760.405	39849.97
760.743	39739.46
761.08	39783.53
761.417	39548.06
761.754	39445.01
762.091	39364.33
762.428	39071.68
762.765	38960.95
763.102	39070.1
763.438	38887.73
763.775	38765.25
764.112	38604.35
764.449	38501.98
764.785	38408.43
765.122	38149.45
765.458	37945.61
765.795	37903.81
766.131	37880.08
766.467	37618.84
766.804	37468.11
767.14	37385.85
767.476	37270.83
767.812	37048.91
768.148	37060.89
768.485	36751.75
768.821	36595.37
769.157	36588.81
769.492	36493.45
769.828	36190.4
770.164	35971.2
770.5	35841.04
770.836	35893.01
771.171	35695.95
771.507	35462.97
771.842	35215.29
772.178	35203.09
772.513	35046.25
772.849	34827.28
773.184	34641.29
773.519	34567.85
773.855	34345.93
774.19	34327.85
774.525	34162.21
774.86	34057.58
775.195	33971.93
775.53	33833.86
775.865	33676.8
776.2	33436.35
776.535	33194.1
776.87	33270.03
777.205	32954.33
777.539	32837.5
777.874	32973.54
778.209	32624.85
778.543	32533.1
778.878	32334.01
779.212	32215.59
779.547	32177.63
779.881	32191.87
780.215	32024.86
780.55	32042.26
780.884	31765.44
781.218	31689.28
781.552	31569.28
781.886	31348.72
782.22	31269.86
782.554	31149.41
782.888	30871.9
783.222	30818.57
783.556	30735.18
783.889	30610.21
784.223	30430.1
784.557	30354.85
784.89	30276.89
785.224	30099.72
785.557	30082.99
785.891	30000.06
786.224	29908.08
786.558	29858.14
786.891	29563.46
787.224	29478.94
787.557	29306.97
787.891	29214.54
788.224	29214.09
788.557	29302.22
788.89	29071.27
789.223	29069.24
789.556	28831.95
789.888	28795.8
790.221	28641.68
790.554	28462.47
790.887	28503.6
791.219	28459.08
791.552	28280.78
791.884	28252.76
792.217	28114.46
792.549	28032.43
792.882	27926.89
793.214	27814.81
793.546	27912.2
793.879	27736.16
794.211	27568.26
794.543	27738.88
794.875	27509.28
795.207	27578.2
795.539	27411.88
795.871	27377.75
796.203	27306.12
796.535	27079.46
796.867	27069.06
797.198	27009.4
797.53	27018.22
797.862	26789.3
798.193	26899.12
798.525	26710.88
798.856	26747.49
799.188	26451.45
799.519	26429.08
799.85	26229.76
800.182	26375.97
800.513	26271.12
800.844	26126.04
801.175	26197.45
801.506	26057.11
801.837	26034.06
802.168	25857.12
802.499	25879.26
802.83	25640.4
803.161	25733.73
803.491	25605.82
803.822	25590.68
804.153	25474.3
804.483	25254.87
804.814	25288.77
805.145	25245.61
805.475	25278.6
805.805	25103.69
806.136	25074.99
806.466	25177.59
806.796	25028.44
807.126	24778.05
807.457	24778.73
807.787	24719.75
808.117	24565.63
808.447	24551.39
808.777	24603.59
809.107	24386.19
809.436	24399.53
809.766	24331.96
810.096	24296.48
810.426	24229.14
810.755	24145.52
811.085	24112.08
811.414	24038.41
811.744	23914.79
812.073	23807.45
812.403	23714.35
812.732	23572.66
813.061	23596.61
813.39	23383.74
813.719	23321.82
814.049	23425.77
814.378	23277.75
814.707	23224.19
815.036	23262.83
815.365	23084.76
815.693	22891.77
816.022	22869.62
816.351	22775.62
816.68	22844.77
817.008	22676.64
817.337	22544.44
817.665	22513.02
817.994	22528.62
818.322	22406.81
818.651	22364.33
818.979	22268.28
819.307	22336.31
819.636	22127.05
819.964	22032.58
820.292	22178.8
820.62	22066.71
820.948	21905.58
821.276	21956.2
821.604	21961.85
821.932	21982.42
822.259	21882.31
822.587	21824.23
822.915	21862.42
823.243	21767.73
823.57	21703.1
823.898	21671.92
824.225	21673.27
824.553	21675.31
824.88	21627.62
825.207	21603.44
825.535	21595.76
825.862	21579.72
826.189	21556.21
826.516	21749.65
826.843	21716.66
827.17	21759.82
827.497	21659.04
827.824	21700.62
828.151	21672.37
828.478	21479.6
828.805	21560.28
829.131	21451.36
829.458	21456.55
829.785	21496.78
830.111	21450.68
830.438	21522.99
830.764	21428.76
831.09	21403.67
831.417	21275.09
831.743	21447.52
832.069	21391.7
832.395	21227.41
832.722	21346.95
833.048	21223.11
833.374	21259.05
833.7	21046.62
834.026	21158.94
834.351	21233.74
834.677	21263.11
835.003	21250.91
835.329	21167.3
835.654	21058.6
835.98	20990.13
836.306	20978.6
836.631	20880.52
836.956	20978.37
837.282	21096.34
837.607	20772.96
837.932	20784.03
838.258	20828.55
838.583	20696.8
838.908	20742.45
839.233	20755.1
839.558	20605.96
839.883	20517.37
840.208	20676.24
840.533	20696.12
840.858	20614.54
841.182	20532.51
841.507	20459.74
841.832	20333.19
842.156	20295.91
842.481	20351.72
842.805	20206.87
843.13	20225.63
843.454	20194.21
843.778	20183.14
844.103	20154.67
844.427	20068.57
844.751	20153.31
845.075	20045.74
845.399	19892.75
845.723	19904.05
846.047	19949.48
846.371	19852.08
846.695	19814.34
847.019	19529.15
847.343	19508.58
847.666	19378.42
847.99	19269.27
848.313	19239.89
848.637	19133.23
848.96	19174.58
849.284	19245.09
849.607	19071.31
849.931	19024.98
850.254	18876.74
850.577	18858.2
850.9	18663.86
851.223	18660.02
851.546	18552.9
851.869	18419.57
852.192	18627.93
852.515	18400.59
852.838	18351.55
853.161	18365.34
853.483	18199.46
853.806	18135.96
854.129	18162.4
854.451	18100.94
854.774	18014.39
855.096	17878.57
855.419	17956.99
855.741	17979.13
856.063	17772.58
856.385	17722.42
856.708	17671.57
857.03	17749.76
857.352	17797.67
857.674	17624.34
857.996	17578.46
858.318	17444.91
858.64	17487.85
858.961	17404.23
859.283	17387.73
859.605	17234.97
859.926	17393.84
860.248	17341.18
860.57	17230.45
860.891	17182.99
861.212	17080.4
861.534	17088.08
861.855	17101.19
862.176	17070
862.498	17118.14
862.819	17134.18
863.14	16990.23
863.461	16890.57
863.782	16838.82
864.103	16823
864.424	16872.27
864.745	16866.39
865.065	16786.17
865.386	16821.65
865.707	16834.08
866.027	16677.47
866.348	16683.35
866.668	16643.57
866.989	16681.31
867.309	16423.24
867.63	16473.41
867.95	16336.24
868.27	16319.74
868.59	16296.69
868.91	16350.93
869.23	16330.59
869.55	16242.68
869.87	16335.56
870.19	16136.92
870.51	16198.39
870.83	16242.68
871.15	16078.39
871.469	16054.21
871.789	16049.47
872.109	16046.53
872.428	15953.2
872.748	16047.88
873.067	15951.16
873.386	15932.86
873.706	15922.69
874.025	15830.04
874.344	15710.72
874.663	15896.47
874.982	15745.97
875.301	15726.31
875.62	15558.18
875.939	15472.98
876.258	15549.59
876.577	15557.05
876.896	15462.81
877.214	15496.03
877.533	15390.95
877.852	15368.13
878.17	15332.42
878.489	15353.44
878.807	15300.33
879.125	15177.85
879.444	15198.19
879.762	15166.55
880.08	15159.54
880.398	15008.59
880.716	15054.69
881.034	14959.78
881.352	14995.26
881.67	14830.06
881.988	14891.08
882.306	14772.44
882.624	14826.22
882.941	14649.73
883.259	14624.87
883.577	14641.37
883.894	14551.43
884.212	14588.94
884.529	14504.42
884.846	14446.12
885.164	14430.98
885.481	14348.72
885.798	14451.77
886.115	14177.42
886.432	14212.9
886.75	14247.03
887.067	14240.92
887.383	14139.68
887.7	14183.53
888.017	14092.91
888.334	14064.66
888.651	13919.35
888.967	13903.53
889.284	13761.16
889.6	13724.78
889.917	13709.64
890.233	13731.11
890.55	13683.88
890.866	13699.92
891.182	13597.33
891.498	13576.76
891.815	13430.78
892.131	13413.38
892.447	13388.52
892.763	13302.19
893.079	13230.56
893.395	13216.32
893.71	13224.23
894.026	13177.45
894.342	13119.37
894.657	13060.84
894.973	13163.44
895.289	13039.37
895.604	13093.84
895.92	12910.11
896.235	12933.84
896.55	12908.08
896.865	12904.24
897.181	12728.2
897.496	12816.78
897.811	12641.87
898.126	12722.55
898.441	12548.54
898.756	12503.57
899.071	12577.01
899.386	12432.16
899.7	12365.27
900.015	12389.22
900.33	12226.74
900.644	12306.06
900.959	12264.48
901.273	12278.94
901.588	12164.14
901.902	12116.01
902.216	11950.59
902.531	11961.44
902.845	11905.62
903.159	11960.31
903.473	11887.77
903.787	11917.6
904.101	11792.85
904.415	11814.1
904.729	11770.48
905.042	11743.36
905.356	11688.68
905.67	11673.08
905.984	11673.99
906.297	11548.57
906.611	11495.91
906.924	11478.06
907.237	11480.32
907.551	11468.34
907.864	11419.53
908.177	11259.31
908.491	11274
908.804	11228.57
909.117	11238.97
909.43	11144.51
909.743	11111.06
910.056	11069.93
910.368	11109.03
910.681	11026.09
910.994	11015.7
911.307	10965.3
911.619	10823.16
911.932	10970.05
912.244	10794.69
912.557	10838.08
912.869	10791.52
913.181	10802.6
913.494	10731.64
913.806	10653.67
914.118	10592.43
914.43	10578.42
914.742	10603.51
915.054	10571.19
915.366	10528.71
915.678	10515.37
915.99	10433.34
916.302	10376.62
916.613	10295.49
916.925	10329.84
917.236	10361.25
917.548	10271.54
917.859	10306.34
918.171	10197.87
918.482	10097.53
918.794	10061.83
919.105	10090.07
919.416	9993.13
919.727	9999.91
920.038	9981.6
920.349	9896.18
920.66	9974.6
920.971	9949.29
921.282	9826.35
921.593	9794.71
921.903	9792.45
922.214	9736.41
922.525	9696.19
922.835	9631.1
923.146	9620.93
923.456	9563.53
923.767	9491.45
924.077	9522.18
924.387	9379.81
924.697	9366.25
925.008	9330.32
925.318	9376.65
925.628	9276.76
925.938	9226.82
926.248	9139.82
926.558	9143.43
926.867	9123.55
927.177	9055.07
927.487	9021.4
927.796	8961.06
928.106	8947.05
928.416	8927.39
928.725	8877.22
929.034	8841.07
929.344	8824.8
929.653	8807.62
929.962	8685.82
930.271	8694.86
930.581	8600.17
930.89	8568.76
931.199	8449.89
931.508	8492.6
931.817	8543
932.125	8437.01
932.434	8425.26
932.743	8310.46
933.051	8335.32
933.36	8252.16
933.669	8171.48
933.977	8167.86
934.286	8106.17
934.594	8135.32
934.902	8061.88
935.21	8012.16
935.519	8023.24
935.827	8010.13
936.135	7931.26
936.443	7807.42
936.751	7819.4
937.059	7853.3
937.367	7705.73
937.674	7785.28
937.982	7678.16
938.29	7671.83
938.597	7676.35
938.905	7536.02
939.213	7519.97
939.52	7521.55
939.827	7515.9
940.135	7447.21
940.442	7386.87
940.749	7329.92
941.056	7413.76
941.363	7261
941.67	7249.92
941.977	7265.06
942.284	7227.55
942.591	7191.62
942.898	7084.28
943.205	7090.83
943.511	7072.53
943.818	7017.16
944.125	7006.09
944.431	6975.13
944.738	6941.23
945.044	6883.6
945.35	6823.49
945.657	6814.23
945.963	6740.33
946.269	6736.04
946.575	6717.96
946.881	6698.75
947.187	6686.55
947.493	6636.15
947.799	6581.69
948.105	6551.64
948.41	6532.88
948.716	6451.98
949.022	6347.12
949.327	6428.02
949.633	6382.83
949.938	6290.4
950.244	6296.28
950.549	6246.11
950.854	6206.79
951.16	6197.75
951.465	6155.94
951.77	6113
952.075	6102.83
952.38	6018.54
952.685	6047.92
952.99	5972.67
953.294	5968.83
953.599	5929.05
953.904	5921.6
954.209	5871.2
954.513	5816.06
954.818	5762.5
955.122	5742.17
955.426	5748.27
955.731	5688.38
956.035	5662.39
956.339	5622.62
956.643	5580.36
956.948	5640.02
957.252	5553.24
957.556	5524.09
957.86	5557.99
958.163	5504.43
958.467	5485.45
958.771	5445.45
959.075	5435.51
959.378	5387.15
959.682	5338.33
959.985	5336.53
960.289	5289.07
960.592	5259.24
960.896	5195.51
961.199	5232.12
961.502	5192.8
961.805	5098.57
962.108	5143.99
962.411	5128.17
962.714	5125.23
963.017	5069.87
963.32	5078.45
963.623	5018.12
963.926	5031.22
964.228	4995.97
964.531	4942.19
964.833	4937.44
965.136	4897.89
965.438	4918.91
965.741	4870.32
966.043	4830.1
966.345	4887.72
966.648	4790.1
966.95	4795.07
967.252	4725.92
967.554	4711.01
967.856	4721.85
968.158	4664.91
968.46	4645.7
968.761	4613.83
969.063	4589.43
969.365	4579.03
969.666	4581.74
969.968	4504.01
970.269	4528.41
970.571	4515.53
970.872	4522.76
971.174	4516.66
971.475	4470.79
971.776	4478.7
972.077	4413.39
972.378	4431.47
972.679	4374.29
972.98	4392.37
973.281	4388.08
973.582	4348.76
973.883	4275.31
974.183	4310.56
974.484	4324.58
974.785	4267.18
975.085	4235.31
975.386	4256.78
975.686	4194.86
975.986	4214.52
976.287	4204.35
976.587	4165.48
976.887	4168.2
977.187	4125.48
977.487	4165.26
977.787	4087.75
978.087	4056.56
978.387	4094.75
978.687	4058.14
978.987	4037.13
979.286	3998.71
979.586	4006.62
979.885	3980.18
980.185	3994.87
980.484	3923.23
980.784	3937.92
981.083	3942.89
981.382	3926.39
981.682	3904.47
981.981	3875.32
982.28	3897.47
982.579	3855.44
982.878	3854.98
983.177	3870.35
983.475	3828.54
983.774	3825.83
984.073	3805.95
984.372	3773.63
984.67	3816.34
984.969	3778.6
985.267	3788.77
985.566	3731.6
985.864	3695.67
986.162	3713.97
986.461	3660.19
986.759	3691.15
987.057	3632.39
987.355	3578.61
987.653	3586.97
987.951	3628.1
988.249	3633.97
988.547	3611.6
988.844	3586.97
989.142	3583.13
989.44	3542.22
989.737	3516.91
990.035	3543.35
990.332	3490.47
990.63	3513.52
990.927	3494.09
991.224	3494.77
991.521	3434.43
991.819	3405.05
992.116	3411.83
992.413	3429.46
992.71	3390.59
993.006	3436.46
993.303	3362.79
993.6	3352.62
993.897	3334.55
994.193	3397.37
994.49	3308.78
994.787	3269.01
995.083	3289.35
995.379	3262
995.676	3263.59
995.972	3238.73
996.268	3225.85
996.565	3189.69
996.861	3201.67
997.157	3194.89
997.453	3172.97
997.749	3176.36
998.044	3110.14
998.34	3076.25
998.636	3083.7
998.932	3056.81
999.227	3035.57
999.523	3007.77
999.818	2986.53
1000.114	2994.89
1000.409	2999.19
1000.704	2914.67
1001	2918.96
1001.295	2931.62
1001.59	2899.08
1001.885	2906.99
1002.18	2871.51
1002.475	2868.79
1002.77	2886.87
1003.065	2877.61
1003.359	2844.84
1003.654	2784.5
1003.949	2805.52
1004.243	2780.21
1004.538	2781.34
1004.832	2756.71
1005.127	2732.3
1005.421	2695.24
1005.715	2709.25
1006.009	2689.82
1006.304	2656.14
1006.598	2659.99
1006.892	2637.39
1007.186	2605.75
1007.48	2618.86
1007.773	2607.33
1008.067	2539.54
1008.361	2572.98
1008.655	2561.91
1008.948	2526.66
1009.242	2510.16
1009.535	2502.48
1009.829	2457.05
1010.122	2469.48
1010.415	2474.91
1010.708	2436.72
1011.001	2434.91
1011.295	2411.41
1011.588	2403.72
1011.881	2394
1012.173	2377.06
1012.466	2398.3
1012.759	2365.98
1013.052	2335.48
1013.344	2297.96
1013.637	2323.05
1013.93	2322.37
1014.222	2276.04
1014.514	2256.16
1014.807	2254.35
1015.099	2206.44
1015.391	2208.7
1015.683	2215.25
1015.976	2219.09
1016.268	2150.62
1016.56	2131.64
1016.851	2162.37
1017.143	2128.02
1017.435	2062.71
1017.727	2105.2
1018.018	2065.65
1018.31	2036.05
1018.602	2047.57
1018.893	2033.11
1019.185	2011.87
1019.476	2029.95
1019.767	1994.24
1020.058	2001.47
1020.35	1946.78
1020.641	1928.48
1020.932	1923.28
1021.223	1912.66
1021.514	1900.68
1021.804	1868.14
1022.095	1900.91
1022.386	1863.17
1022.677	1830.86
1022.967	1816.62
1023.258	1817.75
1023.548	1796.28
1023.839	1769.84
1024.129	1788.37
1024.419	1757.41
1024.709	1743.4
1025	1732.33
1025.29	1703.63
1025.58	1668.6
1025.87	1701.82
1026.16	1678.77
1026.449	1665.66
1026.739	1648.94
1027.029	1641.93
1027.319	1641.71
1027.608	1616.17
1027.898	1621.14
1028.187	1572.11
1028.477	1602.84
1028.766	1555.38
1029.055	1520.81
1029.344	1542.5
1029.634	1505.89
1029.923	1474.71
1030.212	1501.82
1030.501	1486.23
1030.79	1491.2
1031.078	1432.67
1031.367	1443.75
1031.656	1439.68
1031.945	1416.86
1032.233	1389.74
1032.522	1430.64
1032.81	1377.53
1033.099	1408.04
1033.387	1378.89
1033.675	1370.53
1033.963	1353.58
1034.251	1325.33
1034.54	1337.08
1034.828	1298.89
1035.116	1311.1
1035.403	1305.22
1035.691	1286.69
1035.979	1286.69
1036.267	1293.24
1036.554	1276.97
1036.842	1268.16
1037.129	1251.44
1037.417	1246.69
1037.704	1221.83
1037.992	1223.64
1038.279	1221.38
1038.566	1208.05
1038.853	1208.05
1039.14	1208.05
