Data from white_wall_FLMS001491_098.txt Node
Date: Tue Feb 07 11:06:16 GMT 2017
User: dcchb
Spectrometer: FLMS00149
Trigger mode: 0
Integration Time (sec): 2.000000E-2
Scans to average: 10
Electric dark correction enabled: true
Nonlinearity correction enabled: false
Boxcar width: 0
XAxis mode: Wavelengths
Number of Pixels in Spectrum: 2048
>>>>>Begin Spectral Data<<<<<
341.393	-16.3
341.776	-16.3
342.16	-16.3
342.543	-54.49
342.927	-95.62
343.31	-67.37
343.693	-70.31
344.077	-56.75
344.46	-70.76
344.843	-52.68
345.226	-37.77
345.61	-51.1
345.993	-12.91
346.376	15.79
346.759	12.63
347.142	30.03
347.525	44.26
347.908	68.22
348.291	56.69
348.674	93.98
349.057	98.05
349.44	118.84
349.823	130.14
350.206	169.46
350.588	187.99
350.971	232.96
351.354	244.71
351.737	252.62
352.119	253.98
352.502	286.07
352.884	311.6
353.267	296.91
353.65	323.13
354.032	317.93
354.414	338.04
354.797	349.57
355.179	338.04
355.562	329.45
355.944	320.87
356.326	355.22
356.709	378.72
357.091	354.76
357.473	378.72
357.855	369.45
358.238	366.06
358.62	359.74
359.002	376.01
359.384	362.67
359.766	369.91
360.148	365.61
360.53	374.43
360.912	362.67
361.294	363.13
361.676	344.37
362.057	347.99
362.439	373.75
362.821	350.7
363.203	367.65
363.584	342.79
363.966	348.44
364.348	364.93
364.729	349.34
365.111	347.99
365.493	348.44
365.874	332.17
366.256	339.62
366.637	354.31
367.019	335.33
367.4	322
367.781	345.95
368.163	341.43
368.544	336.23
368.925	335.78
369.306	324.48
369.688	343.24
370.069	332.39
370.45	338.27
370.831	330.13
371.212	350.7
371.593	335.1
371.974	349.57
372.355	356.12
372.736	357.93
373.117	317.93
373.498	339.85
373.879	339.17
374.26	342.11
374.641	354.99
375.021	346.18
375.402	327.19
375.783	362.9
376.163	365.84
376.544	382.56
376.925	359.51
377.305	360.41
377.686	383.01
378.066	376.69
378.447	395.22
378.827	396.12
379.208	390.92
379.588	366.74
379.968	378.72
380.349	373.3
380.729	373.3
381.109	389.79
381.489	389.57
381.87	399.06
382.25	379.85
382.63	396.57
383.01	399.28
383.39	397.93
383.77	413.97
384.15	407.42
384.53	404.25
384.91	400.64
385.29	402.9
385.67	420.3
386.049	416.23
386.429	426.63
386.809	427.98
387.189	421.66
387.568	425.5
387.948	446.51
388.328	423.24
388.707	457.81
389.087	465.72
389.466	483.8
389.846	458.26
390.225	456.91
390.605	463.69
390.984	468.89
391.363	483.8
391.743	475.44
392.122	501.88
392.501	490.35
392.881	507.53
393.26	500.52
393.639	521.99
394.018	529.9
394.397	540.3
394.776	557.47
395.155	551.82
395.534	568.54
395.913	559.73
396.292	555.44
396.671	576
397.05	588.66
397.429	606.74
397.808	587.07
398.186	640.41
398.565	623.01
398.944	645.6
399.323	650.58
399.701	670.01
400.08	674.76
400.458	685.15
400.837	684.02
401.215	668.43
401.594	731.25
401.972	713.17
402.351	743.68
402.729	765.15
403.107	784.36
403.486	764.47
403.864	813.74
404.242	798.59
404.62	822.55
404.999	843.11
405.377	868.65
405.755	872.49
406.133	902.32
406.511	899.16
406.889	933.73
407.267	952.94
407.645	961.08
408.023	965.82
408.401	958.82
408.779	1028.87
409.156	1052.6
409.534	1050.34
409.912	1078.36
410.29	1121.52
410.667	1125.59
411.045	1106.38
411.422	1178.47
411.8	1150.68
412.178	1205.59
412.555	1206.49
412.933	1219.15
413.31	1257.79
413.687	1282.2
414.065	1270.67
414.442	1271.8
414.819	1309.54
415.197	1349.77
415.574	1371.24
415.951	1380.73
416.328	1364.46
416.705	1411.01
417.082	1416.43
417.46	1437.67
417.837	1443.78
418.214	1478.58
418.591	1468.18
418.967	1496.2
419.344	1524
419.721	1514.06
420.098	1543.21
420.475	1546.37
420.852	1583.21
421.228	1597.44
421.605	1633.15
421.982	1627.27
422.358	1655.97
422.735	1682.19
423.111	1685.13
423.488	1714.73
423.864	1716.08
424.241	1764.22
424.617	1789.53
424.994	1782.07
425.37	1808.29
425.746	1849.87
426.123	1876.31
426.499	1842.86
426.875	1886.7
427.251	1890.09
427.627	1940.94
428.003	1984.33
428.379	1971.9
428.756	1996.98
429.132	2073.59
429.507	2100.26
429.883	2105.68
430.259	2123.98
430.635	2176.86
431.011	2166.92
431.387	2253.92
431.763	2291.89
432.138	2301.83
432.514	2330.76
432.89	2372.56
433.265	2388.61
433.641	2425.44
434.016	2455.27
434.392	2485.56
434.767	2520.36
435.143	2545.67
435.518	2565.1
435.894	2602.84
436.269	2609.62
436.644	2691.88
437.02	2679.68
437.395	2670.41
437.77	2732.1
438.145	2777.98
438.52	2802.38
438.895	2858.88
439.271	2872.44
439.646	2919.44
440.021	2942.04
440.395	2955.6
440.77	2925.09
441.145	2976.39
441.52	3034.47
441.895	3066.78
442.27	3081.92
442.645	3110.62
443.019	3112.21
443.394	3146.1
443.769	3183.16
444.143	3194.69
444.518	3193.33
444.892	3234.91
445.267	3273.11
445.641	3281.92
446.016	3326.89
446.39	3328.92
446.764	3418.19
447.139	3397.17
447.513	3399.2
447.887	3444.85
448.262	3504.06
448.636	3467.9
449.01	3498.41
449.384	3597.62
449.758	3604.62
450.132	3649.37
450.506	3671.51
450.88	3673.32
451.254	3737.05
451.628	3744.96
452.002	3781.34
452.376	3810.27
452.75	3872.19
453.123	3879.42
453.497	4019.98
453.871	4007.55
454.244	4066.08
454.618	4125.29
454.992	4175
455.365	4178.62
455.739	4312.4
456.112	4332.97
456.486	4349.01
456.859	4432.4
457.232	4530.7
457.606	4521.89
457.979	4556.01
458.352	4725.27
458.725	4744.93
459.099	4762.33
459.472	4885.72
459.845	4920.75
460.218	4978.82
460.591	5001.42
460.964	5071.25
461.337	5147.86
461.71	5272.6
462.083	5262.43
462.456	5370.68
462.829	5364.8
463.201	5484.8
463.574	5546.49
463.947	5579.03
464.32	5718.92
464.692	5781.51
465.065	5763.21
465.438	5873.94
465.81	5944.45
466.183	6052.02
466.555	6188.51
466.928	6300.15
467.3	6270.77
467.672	6318
468.045	6537.65
468.417	6534.49
468.789	6628.05
469.161	6689.51
469.534	6814.26
469.906	6967.02
470.278	6989.17
470.65	7028.94
471.022	7200.23
471.394	7434.35
471.766	7372.89
472.138	7548.25
472.51	7708.24
472.882	7828.01
473.253	7951.63
473.625	8065.75
473.997	8226.87
474.369	8269.58
474.74	8373.08
475.112	8532.63
475.484	8691.72
475.855	8865.5
476.227	8980.75
476.598	9163.8
476.97	9277.92
477.341	9500.74
477.713	9653.96
478.084	9685.59
478.455	9997.45
478.827	10082.42
479.198	10396.08
479.569	10390.21
479.94	10725.57
480.311	10758.56
480.682	10964.66
481.053	11286.91
481.424	11430.41
481.795	11585.66
482.166	11787.46
482.537	11907.68
482.908	12206.2
483.279	12378.18
483.65	12589.92
484.021	12923.25
484.391	12983.81
484.762	13144.26
485.133	13285.27
485.503	13454.31
485.874	13786.5
486.244	13902.88
486.615	14110.79
486.985	14277.11
487.356	14613.82
487.726	14693.37
488.097	15025.57
488.467	15160.7
488.837	15492.9
489.207	15609.5
489.578	15814.02
489.948	16015.37
490.318	16289.03
490.688	16357.51
491.058	16592.53
491.428	16896.7
491.798	16918.17
492.168	17262.12
492.538	17472.96
492.908	17628.66
493.278	17938.03
493.648	17966.96
494.017	18202.43
494.387	18383.44
494.757	18505.02
495.126	18792.02
495.496	18735.75
495.866	19041.73
496.235	19314.72
496.605	19417.77
496.974	19547.48
497.344	19712
497.713	19917.41
498.082	20014.81
498.452	20200.34
498.821	20318.76
499.19	20383.16
499.559	20589.03
499.928	20735.02
500.298	20987.67
500.667	21204.39
501.036	21062.92
501.405	21339.3
501.774	21373.87
502.143	21656.13
502.512	21753.75
502.88	22099.96
503.249	22177.69
503.618	22286.62
503.987	22380.17
504.356	22623.78
504.724	22721.63
505.093	22758.24
505.462	22914.62
505.83	23239.36
506.199	23458.34
506.567	23739.69
506.936	23752.12
507.304	23946.46
507.672	24040.47
508.041	24164.31
508.409	24418.09
508.777	24588.03
509.145	24902.14
509.514	24774.46
509.882	25071.4
510.25	25188.24
510.618	25305.97
510.986	25660.99
511.354	25807.65
511.722	26072.51
512.09	26457.13
512.458	26356.34
512.826	26559.5
513.193	26708.65
513.561	26794.07
513.929	27157
514.297	27352.02
514.664	27665.91
515.032	27655.97
515.4	27937.32
515.767	28163.98
516.135	28156.07
516.502	28161.72
516.869	28747.92
517.237	28846.9
517.604	28707.69
517.972	29185.42
518.339	29339.77
518.706	29448.24
519.073	29620.21
519.44	29819.98
519.808	30164.15
520.175	30092.06
520.542	30653.63
520.909	30751.48
521.276	30873.51
521.643	31114.41
522.009	31339.26
522.376	31549.2
522.743	31791.23
523.11	32114.38
523.477	32487.25
523.843	32612
524.21	33016.28
524.577	33195.71
524.943	33255.14
525.31	33497.17
525.676	33910.49
526.043	33900.1
526.409	34248.34
526.776	34501.89
527.142	34713.18
527.508	34989.56
527.874	35309.78
528.241	35341.87
528.607	35344.81
528.973	35945.02
529.339	35833.61
529.705	36157.89
530.071	36644.21
530.437	36716.29
530.803	36779.8
531.169	36940.02
531.535	37006.23
531.901	37203.51
532.267	37300.01
532.632	37663.39
532.998	37866.55
533.364	38027.45
533.73	38208.91
534.095	38462.69
534.461	38582.01
534.826	38880.53
535.192	38945.84
535.557	39026.29
535.923	39150.35
536.288	39151.03
536.653	39578.59
537.019	39644.81
537.384	39808.19
537.749	39990.78
538.114	40065.81
538.479	40171.57
538.845	40471.68
539.21	40224.68
539.575	40647.72
539.94	40733.14
540.305	40913.02
540.67	40855.85
541.034	41164.54
541.399	41338.32
541.764	41443.4
542.129	41597.97
542.494	41652.66
542.858	41942.82
543.223	41847.46
543.587	42273.21
543.952	42184.63
544.316	42488.8
544.681	42470.72
545.045	42745.06
545.41	42882.01
545.774	42911.39
546.138	43150.7
546.503	43222.79
546.867	43332.62
547.231	43765.37
547.595	43802.44
547.959	43926.27
548.324	43972.15
548.688	44214.18
549.052	44218.24
549.416	44506.82
549.779	44512.7
550.143	44726.48
550.507	45002.86
550.871	45069.97
551.235	45200.59
551.599	45527.81
551.962	45587.02
552.326	45783.17
552.689	46006.9
553.053	45881.25
553.417	46143.84
553.78	46627.9
554.143	46465.42
554.507	46803.71
554.87	46909.47
555.234	47269.24
555.597	47172.29
555.96	47377.48
556.323	47668.1
556.686	47601.43
557.05	47875.78
557.413	48102.21
557.776	48217.24
558.139	48492.03
558.502	48601.41
558.865	48626.49
559.228	48939.25
559.59	49011.79
559.953	49126.36
560.316	49540.82
560.679	49628.5
561.041	49780.81
561.404	50015.83
561.767	50231.42
562.129	50100.12
562.492	50534.69
562.854	50567.23
563.217	50563.39
563.579	50856.71
563.941	50979.65
564.304	51138.29
564.666	51354.33
565.028	51380.09
565.39	51453.31
565.753	51682.45
566.115	51791.83
566.477	51905.27
566.839	52004.25
567.201	52194.08
567.563	52304.13
567.925	52436.11
568.287	52511.13
568.648	52606.27
569.01	52679.26
569.372	53024.57
569.734	52932.82
570.095	53157.67
570.457	53254.62
570.819	53302.53
571.18	53303.88
571.542	53487.6
571.903	53568.51
572.265	53623.42
572.626	53666.81
572.987	53675.4
573.349	53805.56
573.71	53988.16
574.071	53961.94
574.432	54134.59
574.794	54304.98
575.155	54304.98
575.516	54252.78
575.877	54421.37
576.238	54396.96
576.599	54592.21
576.96	54659.78
577.32	54565.32
577.681	54718.31
578.042	54750.4
578.403	54742.49
578.763	54777.29
579.124	54807.8
579.485	54934.8
579.845	55088.47
580.206	54940.45
580.566	54975.02
580.927	55068.13
581.287	55142.48
581.648	55015.02
582.008	55198.07
582.368	55139.31
582.728	55161.46
583.089	55236.49
583.449	55119.2
583.809	55211.85
584.169	55295.47
584.529	55187.67
584.889	55396.26
585.249	55200.55
585.609	55129.82
585.969	55437.84
586.329	55341.34
586.688	55300.44
587.048	55342.25
587.408	55287.78
587.768	55323.49
588.127	55281
588.487	55308.8
588.846	55419.53
589.206	55399.19
589.565	55379.98
589.925	55413.88
590.284	55359.42
590.643	55397.84
591.003	55487.33
591.362	55474.45
591.721	55488.91
592.08	55433.32
592.44	55502.47
592.799	55463.37
593.158	55455.69
593.517	55517.16
593.876	55526.65
594.235	55490.72
594.593	55469.93
594.952	55619.53
595.311	55417.05
595.67	55583.14
596.029	55710.37
596.387	55694.55
596.746	55759.64
597.104	55582.47
597.463	55548.12
597.822	55796.7
598.18	55598.96
598.538	55619.98
598.897	55802.12
599.255	55574.78
599.613	55971.16
599.972	55802.12
600.33	55779.75
600.688	55693.65
601.046	55852.74
601.404	55912.85
601.762	55844.38
602.12	55904.72
602.478	55958.95
602.836	55958.5
603.194	55882.34
603.552	55952.62
603.91	55870.59
604.268	56021.1
604.625	55850.03
604.983	56054.09
605.341	55973.19
605.698	56088.44
606.056	56072.4
606.413	56112.39
606.771	56191.94
607.128	56187.19
607.485	56084.37
607.843	56128.21
608.2	56235.1
608.557	56334.31
608.914	56231.26
609.272	56405.49
609.629	56326.85
609.986	56468.09
610.343	56382.22
610.7	56576.79
611.057	56507.19
611.414	56514.19
611.771	56541.08
612.127	56648.88
612.484	56577.92
612.841	56649.78
613.198	56628.99
613.554	56636.45
613.911	56776.11
614.267	56793.05
614.624	56725.71
614.98	56800.29
615.337	56931.81
615.693	56873.96
616.05	56760.06
616.406	57023.56
616.762	56948.53
617.118	56855.43
617.475	56914.86
617.831	57013.61
618.187	57029.66
618.543	57068.3
618.899	57187.85
619.255	57105.36
619.611	57155.98
619.967	57205.47
620.323	57265.81
620.678	57178.36
621.034	57103.56
621.39	57079.83
621.746	57116.89
622.101	57391.46
622.457	57199.15
622.812	57190.11
623.168	57308.75
623.523	57286.15
623.879	57367.5
624.234	57176.32
624.589	57297.45
624.945	57312.82
625.3	57319.37
625.655	57252.7
626.01	57261.07
626.365	57300.39
626.72	57212.25
627.075	57229.43
627.43	57203.89
627.785	57220.16
628.14	57246.83
628.495	57284.12
628.85	57235.3
629.205	57199.6
629.559	57323.21
629.914	57203.44
630.269	57208.41
630.623	57142.42
630.978	57083.67
631.332	57139.49
631.687	57277.34
632.041	57162.31
632.396	57134.29
632.75	56980.17
633.104	57075.31
633.459	56974.74
633.813	56909.89
634.167	56913.28
634.521	56918.48
634.875	57002.77
635.229	56877.8
635.583	56809.55
635.937	56810.91
636.291	56751.7
636.645	56766.61
636.999	56675.77
637.352	56759.84
637.706	56588.99
638.06	56672.61
638.413	56621.76
638.767	56598.71
639.121	56730.46
639.474	56532.5
639.828	56533.17
640.181	56588.54
640.534	56537.92
640.888	56381.99
641.241	56398.49
641.594	56394.2
641.947	56483.23
642.301	56367.53
642.654	56279.4
643.007	56351.26
643.36	56318.04
643.713	56231.49
644.066	56270.13
644.419	56109.68
644.771	55936.58
645.124	55661.33
645.477	55627.44
645.83	55505.4
646.182	55385.86
646.535	55359.19
646.888	55417.27
647.24	55209.59
647.593	55424.05
647.945	55310.16
648.298	55179.54
648.65	55092.08
649.002	55070.39
649.355	55076.04
649.707	55048.47
650.059	55219.08
650.411	55545.63
650.763	55503.6
651.115	55784.49
651.467	55583.14
651.819	55663.37
652.171	55574.1
652.523	55563.48
652.875	55549.7
653.227	55451.62
653.578	55673.99
653.93	55544.5
654.282	55464.95
654.633	55264.51
654.985	55364.39
655.337	55415.24
655.688	55391.96
656.039	55502.02
656.391	55173.44
656.742	55268.8
657.094	55202.59
657.445	55331.17
657.796	55186.77
658.147	55195.81
658.498	55149.26
658.849	55219.31
659.2	55167.79
659.551	55111.97
659.902	55237.62
660.253	55124.62
660.604	55163.04
660.955	54962.59
661.306	55065.42
661.656	55037.85
662.007	55050.05
662.358	54932.76
662.708	55004.85
663.059	54930.05
663.409	54770.51
663.76	54955.14
664.11	54918.75
664.461	54987.23
664.811	54957.85
665.161	54902.48
665.511	54794.24
665.862	54859.09
666.212	54905.42
666.562	54980.67
666.912	54866.78
667.262	54824.07
667.612	54842.15
667.962	54822.26
668.312	54763.28
668.662	54856.16
669.011	54793.56
669.361	54729.38
669.711	54751.75
670.06	54622.04
670.41	54558.54
670.76	54614.35
671.109	54644.86
671.459	54589.72
671.808	54462.27
672.157	54567.8
672.507	54412.55
672.856	54370.07
673.205	54431.53
673.554	54543.85
673.904	54419.56
674.253	54534.81
674.602	54370.97
674.951	53969.63
675.3	53844.21
675.649	54324.65
675.998	54338.2
676.346	54298.66
676.695	54360.35
677.044	54123.29
677.393	54325.32
677.741	54347.24
678.09	54236.74
678.438	54084.43
678.787	54156.51
679.135	54181.15
679.484	53901.61
679.832	54068.38
680.181	53860.7
680.529	54009.85
680.877	53896.18
681.225	53791.78
681.573	53974.37
681.922	53782.29
682.27	53633.14
682.618	53678.79
682.966	53499.58
683.314	53566.25
683.661	53484.89
684.009	53299.14
684.357	53345.01
684.705	53305.91
685.053	53328.29
685.4	53284.45
685.748	53085.58
686.095	53109.54
686.443	52899.82
686.79	52914.29
687.138	52931.69
687.485	52902.54
687.832	52738.47
688.18	52755.87
688.527	52597.91
688.874	52569.21
689.221	52471.13
689.568	52483.11
689.915	52337.13
690.262	52304.59
690.609	52276.79
690.956	52115.66
691.303	52117.92
691.65	51816.69
691.997	51931.04
692.344	51795.67
692.69	51780.53
693.037	51731.49
693.383	51337.6
693.73	51630.7
694.077	51321.11
694.423	51316.14
694.769	51294.67
695.116	51164.28
695.462	51080.21
695.808	50971.29
696.155	51085.63
696.501	50705.76
696.847	50731.75
697.193	50416.73
697.539	50647.91
697.885	50419.66
698.231	50314.36
698.577	50296.05
698.923	50178.99
699.269	50108.94
699.614	49956.4
699.96	49873.91
700.306	49876.17
700.651	49588.95
700.997	49595.28
701.342	49541.49
701.688	49456.3
702.033	49389.18
702.379	49270.77
702.724	49163.42
703.069	49140.37
703.415	48646.6
703.76	48882.3
704.105	48843.66
704.45	48697.9
704.795	48452.03
705.14	48343.56
705.485	48431.47
705.83	48268.76
706.175	48271.47
706.52	48152.15
706.865	48119.16
707.209	48064.47
707.554	47817.92
707.899	47918.26
708.243	47599.17
708.588	47779.73
708.932	47431.72
709.277	47265.4
709.621	47366.86
709.966	47200.99
710.31	47207.77
710.654	46937.72
710.998	47012.07
711.342	47013.88
711.687	46880.77
712.031	46670.16
712.375	46760.32
712.719	46757.84
713.063	46445.08
713.407	46628.58
713.75	46353.33
714.094	46307.91
714.438	46319.66
714.782	46319.66
715.125	46151.3
715.469	46157.63
715.812	45797.86
716.156	45685.78
716.499	45806
716.843	45775.27
717.186	45358.55
717.53	45653.69
717.873	45518.55
718.216	45542.05
718.559	45347.03
718.902	45080.82
719.246	45164.89
719.589	45023.19
719.932	44889.64
720.275	44844.89
720.617	44789.75
720.96	44816.19
721.303	44699.36
721.646	44802.18
721.989	44413.95
722.331	44610.55
722.674	44420.72
723.016	44400.39
723.359	44322.65
723.701	44397
724.044	44147.06
724.386	43932.83
724.729	44053.05
725.071	43967.18
725.413	44017.35
725.755	43824.81
726.097	43515.44
726.439	43449.9
726.782	43614.42
727.124	43809.22
727.465	43549.11
727.807	43544.59
728.149	43338.72
728.491	43197.25
728.833	43289.68
729.175	43053.08
729.516	42948
729.858	42880.43
730.199	42962.91
730.541	42959.29
730.882	42845.4
731.224	42966.3
731.565	42675.23
731.906	42635.01
732.248	42736.93
732.589	42375.35
732.93	42364.51
733.271	42312.08
733.612	42364.28
733.953	42203.83
734.294	42114.34
734.635	42169.26
734.976	42160.9
735.317	41883.39
735.658	41859.21
735.999	41882.03
736.339	41686.56
736.68	41953.67
737.021	41593.68
737.361	41524.98
737.702	41867.57
738.042	41725.43
738.383	41502.38
738.723	41619.89
739.063	41368.6
739.404	41520.91
739.744	41329.73
740.084	41076.18
740.424	41217.65
740.764	41085.9
741.104	41219.9
741.444	40980.36
741.784	40785.57
742.124	40921.16
742.464	40930.42
742.804	40799.8
743.143	40754.61
743.483	40693.59
743.823	40387.84
744.162	40549.87
744.502	40513.26
744.841	40348.06
745.181	40409.98
745.52	40206.6
745.86	40295.86
746.199	40129.54
746.538	40122.98
746.877	40156.2
747.216	40099.71
747.556	40012.48
747.895	39954.63
748.234	39828.3
748.573	39765.71
748.911	39691.13
749.25	39725.71
749.589	39482.32
749.928	39595.09
750.267	39600.06
750.605	39444.58
750.944	39397.35
751.283	39182.9
751.621	39150.58
751.96	39029
752.298	39051.6
752.636	38925.73
752.975	38888.21
753.313	38664.04
753.651	38908.1
753.989	38595.12
754.327	38483.48
754.666	38523.7
755.004	38427.66
755.342	38366.42
755.679	38226.54
756.017	38108.8
756.355	38097.95
756.693	37881.46
757.031	37891.86
757.368	37684.18
757.706	37712.43
758.044	37498.42
758.381	37501.58
758.719	37338.65
759.056	37400.8
759.394	37270.86
759.731	36967.36
760.068	37119.67
760.405	36793.35
760.743	36856.63
761.08	36885.33
761.417	36671.32
761.754	36575.51
762.091	36403.76
762.428	36243.76
762.765	36070.44
763.102	36243.31
763.438	36026.82
763.775	35694.4
764.112	35809.43
764.449	35787.96
764.785	35657.11
765.122	35464.8
765.458	35275.65
765.795	35269.1
766.131	35212.15
766.467	35002.44
766.804	34852.16
767.14	34919.51
767.476	34761.09
767.812	34552.06
768.148	34563.13
768.485	34454.89
768.821	34066.42
769.157	34196.13
769.492	34101
769.828	34175.8
770.164	33758.41
770.5	33663.27
770.836	33774.45
771.171	33446.78
771.507	33508.24
771.842	33192.55
772.178	33187.12
772.513	32921.82
772.849	32945.32
773.184	32731.99
773.519	32868.71
773.855	32609.51
774.19	32466.69
774.525	32310.76
774.86	32398.22
775.195	32287.03
775.53	32070.31
775.865	32006.14
776.2	31797.78
776.535	31552.14
776.87	31654.73
777.205	31431.91
777.539	31312.37
777.874	31376.1
778.209	31151.24
778.543	30978.82
778.878	30803.23
779.212	30829.67
779.547	30677.81
779.881	30668.32
780.215	30411.38
780.55	30409.12
780.884	30179.74
781.218	30141.1
781.552	30126.19
781.886	29810.94
782.22	29854.33
782.554	29750.83
782.888	29363.27
783.222	29339.09
783.556	29404.17
783.889	29255.02
784.223	29023.62
784.557	29079.21
784.89	29068.81
785.224	28882.6
785.557	28636.96
785.891	28582.27
786.224	28557.19
786.558	28404.42
786.891	28174.15
787.224	28139.57
787.557	28091.66
787.891	28115.16
788.224	27986.13
788.557	27940.48
788.89	27796.75
789.223	27798.11
789.556	27551.11
789.888	27539.81
790.221	27391.57
790.554	27116.55
790.887	27197.45
791.219	27015.53
791.552	27013.05
791.884	26843.11
792.217	26908.64
792.549	26641.98
792.882	26575.77
793.214	26483.12
793.546	26565.6
793.879	26287.42
794.211	26278.15
794.543	26096.46
794.875	26034.09
795.207	26142.34
795.539	25951.15
795.871	25983.7
796.203	25809.24
796.535	25690.14
796.867	25578.73
797.198	25543.93
797.53	25515.01
797.862	25273.21
798.193	25308.46
798.525	25216.03
798.856	25162.7
799.188	24873.89
799.519	24900.33
799.85	24825.53
800.182	24846.1
800.513	24720
800.844	24532.66
801.175	24663.28
801.506	24534.69
801.837	24370.86
802.168	24346.68
802.499	24199.34
802.83	24254.93
803.161	24102.61
803.491	24028.27
803.822	24058.77
804.153	24001.6
804.483	23668.05
804.814	23561.61
805.145	23672.57
805.475	23646.36
805.805	23473.03
806.136	23510.54
806.466	23382.63
806.796	23495.63
807.126	23275.29
807.457	23205.01
807.787	23241.39
808.117	23110.32
808.447	22960.95
808.777	23102.19
809.107	22962.98
809.436	22819.03
809.766	22922.31
810.096	22822.2
810.426	22674.63
810.755	22721.86
811.085	22622.2
811.414	22510.79
811.744	22285.94
812.073	22268.31
812.403	22305.37
812.732	22119.16
813.061	22190.57
813.39	22100.86
813.719	22077.36
814.049	22173.4
814.378	21999.17
814.707	21933.86
815.036	21903.35
815.365	21787.87
815.693	21659.06
816.022	21585.84
816.351	21526.19
816.68	21360.31
817.008	21510.37
817.337	21260.2
817.665	21232.18
817.994	21383.59
818.322	21227.21
818.651	21148.12
818.979	20970.95
819.307	21102.69
819.636	20978.18
819.964	20963.94
820.292	20903.38
820.62	20897.73
820.948	20787
821.276	20908.8
821.604	21022.7
821.932	21009.81
822.259	20938.4
822.587	20861.57
822.915	20752.42
823.243	20870.61
823.57	20843.27
823.898	20794.91
824.225	20710.39
824.553	20816.83
824.88	20815.02
825.207	20849.37
825.535	20753.32
825.862	20824.73
826.189	20775.47
826.516	20782.48
826.843	20728.47
827.17	20815.92
827.497	20790.39
827.824	20747.45
828.151	20852.98
828.478	20746.09
828.805	20722.82
829.131	20775.02
829.458	20754
829.785	20697.05
830.111	20624.74
830.438	20741.57
830.764	20618.86
831.09	20733.89
831.417	20615.7
831.743	20676.72
832.069	20571.41
832.395	20617.06
832.722	20615.25
833.048	20541.13
833.374	20626.1
833.7	20450.28
834.026	20440.56
834.351	20422.71
834.677	20504.07
835.003	20464.07
835.329	20551.75
835.654	20481.24
835.98	20277.18
836.306	20357.63
836.631	20269.04
836.956	20431.07
837.282	20378.42
837.607	20255.48
837.932	20244.41
838.258	20189.05
838.583	20105.88
838.908	20019.33
839.233	20057.07
839.558	19971.88
839.883	19946.57
840.208	19888.71
840.533	19961.93
840.858	19912.67
841.182	19864.53
841.507	19848.49
841.832	19801.03
842.156	19732.79
842.481	19646.69
842.805	19614.15
843.13	19639.46
843.454	19612.79
843.778	19437.88
844.103	19461.38
844.427	19462.06
844.751	19425.45
845.075	19229.3
845.399	19168.28
845.723	19121.28
846.047	19201.27
846.371	18954.05
846.695	18929.87
847.019	18904.79
847.343	18827.27
847.666	18624.11
847.99	18610.1
848.313	18526.26
848.637	18536.43
848.96	18441.97
849.284	18351.81
849.607	18236.1
849.931	18255.54
850.254	18100.06
850.577	17989.1
850.9	17866.62
851.223	17919.5
851.546	17707.75
851.869	17670.69
852.192	17813.06
852.515	17559.28
852.838	17527.65
853.161	17531.71
853.483	17444.03
853.806	17416.69
854.129	17380.76
854.451	17211.04
854.774	17129.69
855.096	17110.93
855.419	17103.7
855.741	17065.29
856.063	16949.58
856.385	16821.68
856.708	16839.98
857.03	16772.64
857.352	16876.82
857.674	16720.66
857.996	16664.62
858.318	16633.43
858.64	16536.26
858.961	16526.32
859.283	16396.15
859.605	16336.49
859.926	16423.72
860.248	16361.35
860.57	16304.63
860.891	16207.68
861.212	16160.45
861.534	16091.07
861.855	16023.96
862.176	16012.21
862.498	16076.16
862.819	16048.14
863.14	15956.16
863.461	15929.5
863.782	15834.36
864.103	15934.69
864.424	15873.9
864.745	15906.9
865.065	15794.81
865.386	15691.54
865.707	15643.4
866.027	15727.92
866.348	15620.8
866.668	15636.17
866.989	15539.9
867.309	15542.61
867.63	15555.95
867.95	15470.75
868.27	15514.37
868.59	15442.5
868.91	15409.06
869.23	15438.66
869.55	15283.64
869.87	15473.69
870.19	15279.57
870.51	15278.89
870.83	15346.91
871.15	15233.24
871.469	15139.91
871.789	15204.77
872.109	15158.67
872.428	15054.27
872.748	15083.42
873.067	15088.84
873.386	15099.91
873.706	15150.31
874.025	14953.25
874.344	14988.05
874.663	14987.37
874.982	14951.44
875.301	14916.87
875.62	14903.53
875.939	14786.25
876.258	14889.3
876.577	14753.26
876.896	14766.59
877.214	14707.83
877.533	14783.54
877.852	14694.95
878.17	14716.65
878.489	14698.57
878.807	14702.18
879.125	14599.81
879.444	14566.59
879.762	14462.19
880.08	14542.19
880.398	14437.11
880.716	14421.74
881.034	14383.32
881.352	14436.88
881.67	14336.09
881.988	14394.17
882.306	14291.35
882.624	14232.59
882.941	14252.03
883.259	14179.94
883.577	14148.53
883.894	14188.3
884.212	14103.78
884.529	14106.27
884.846	14058.13
885.164	14026.5
885.481	14017.23
885.798	14008.64
886.115	13825.37
886.432	13910.11
886.75	13842.77
887.067	13860.17
887.383	13783.79
887.7	13886.39
888.017	13697.01
888.334	13781.53
888.651	13642.78
888.967	13659.27
889.284	13544.02
889.6	13581.08
889.917	13444.82
890.233	13446.62
890.55	13444.59
890.866	13456.79
891.182	13319.17
891.498	13290.24
891.815	13297.25
892.131	13156.69
892.447	13199.62
892.763	13168.67
893.079	13115.56
893.395	13008.9
893.71	13016.13
894.026	13031.49
894.342	12938.61
894.657	12905.17
894.973	12856.58
895.289	12807.77
895.604	12861.55
895.92	12699.07
896.235	12661.56
896.55	12616.82
896.865	12621.79
897.181	12616.82
897.496	12567.32
897.811	12474.9
898.126	12402.36
898.441	12478.06
898.756	12394.67
899.071	12299.99
899.386	12367.78
899.7	12134.12
900.015	12156.04
900.33	12132.99
900.644	12102.93
900.959	12087.34
901.273	12047.79
901.588	11977.28
901.902	11902.03
902.216	11832.65
902.531	11843.5
902.845	11787.01
903.159	11717.86
903.473	11664.07
903.787	11620.46
904.101	11620.01
904.415	11577.29
904.729	11536.84
905.042	11443.96
905.356	11448.94
905.67	11419.56
905.984	11440.8
906.297	11312.67
906.611	11226.57
906.924	11260.47
907.237	11173.24
907.551	11174.82
907.864	11068.61
908.177	11053.92
908.491	11023.86
908.804	10921.72
909.117	10914.49
909.43	10822.74
909.743	10770.99
910.056	10790.65
910.368	10586.36
910.681	10654.83
910.994	10635.85
911.307	10612.12
911.619	10512.69
911.932	10554.95
912.244	10488.74
912.557	10483.99
912.869	10411.45
913.181	10354.28
913.494	10284.9
913.806	10189.08
914.118	10258.46
914.43	10182.53
914.742	10159.93
915.054	10080.16
915.366	10063.89
915.678	10068.86
915.99	9934.85
916.302	9927.85
916.613	9854.4
916.925	9834.74
917.236	9759.72
917.548	9674.29
917.859	9710.68
918.171	9638.59
918.482	9615.76
918.794	9567.63
919.105	9572.6
919.416	9512.26
919.727	9529.44
920.038	9409.67
920.349	9376.67
920.66	9284.7
920.971	9289.67
921.282	9206.74
921.593	9185.49
921.903	9190.01
922.214	9104.59
922.525	9073.86
922.835	9058.94
923.146	9055.1
923.456	9002.9
923.767	8958.61
924.077	8947.53
924.387	8857.82
924.697	8770.59
925.008	8850.36
925.318	8784.6
925.628	8689.69
925.938	8662.34
926.248	8557.94
926.558	8547.32
926.867	8550.93
927.177	8481.56
927.487	8459.18
927.796	8401.78
928.106	8392.07
928.416	8370.15
928.725	8368.34
929.034	8325.63
929.344	8284.5
929.653	8222.13
929.962	8154.11
930.271	8124.05
930.581	8108.69
930.89	8047.67
931.199	8037.73
931.508	8001.12
931.817	7985.75
932.125	7971.74
932.434	7958.63
932.743	7871.86
933.051	7854
933.36	7749.37
933.669	7739.66
933.977	7705.53
934.286	7649.94
934.594	7660.34
934.902	7606.1
935.21	7557.74
935.519	7665.31
935.827	7586.21
936.135	7443.17
936.443	7458.08
936.751	7372.66
937.059	7357.97
937.367	7324.52
937.674	7360.91
937.982	7300.57
938.29	7202.49
938.597	7257.63
938.905	7157.75
939.213	7188.94
939.52	7050.18
939.827	7129.05
940.135	7092.67
940.442	7026
940.749	7018.32
941.056	7030.75
941.363	6805.44
941.67	6844.54
941.977	6857.19
942.284	6821.94
942.591	6799.34
942.898	6774.71
943.205	6743.07
943.511	6690.64
943.818	6662.62
944.125	6694.26
944.431	6639.8
944.738	6599.12
945.044	6571.1
945.35	6493.59
945.657	6513.25
945.963	6468.05
946.269	6471.67
946.575	6432.12
946.881	6362.29
947.187	6386.92
947.493	6329.3
947.799	6308.05
948.105	6300.37
948.41	6244.1
948.716	6247.49
949.022	6122.97
949.327	6137.21
949.633	6070.09
949.938	6145.57
950.244	6066.48
950.549	6093.37
950.854	6011.57
951.16	6027.16
951.465	5994.16
951.77	5936.76
952.075	5938.12
952.38	5901.29
952.685	5847.05
952.99	5798.46
953.294	5848.18
953.599	5768.41
953.904	5757.33
954.209	5751.91
954.513	5761.63
954.818	5745.13
955.122	5688.18
955.426	5682.08
955.731	5586.94
956.035	5553.5
956.339	5540.39
956.643	5528.41
956.948	5505.59
957.252	5504.69
957.556	5500.17
957.86	5452.03
958.163	5426.5
958.467	5400.28
958.771	5386.95
959.075	5420.17
959.378	5342.88
959.682	5339.04
959.985	5246.61
960.289	5252.26
960.592	5278.48
960.896	5188.54
961.199	5163.23
961.502	5119.39
961.805	5081.87
962.108	5114.41
962.411	5122.1
962.714	5071.93
963.017	5052.27
963.32	5027.41
963.623	4991.03
963.926	4956.68
964.228	4933.85
964.531	4950.12
964.833	4972.5
965.136	4910.13
965.438	4877.13
965.741	4850.47
966.043	4806.17
966.345	4807.98
966.648	4762.33
966.95	4805.95
967.252	4798.04
967.554	4682.11
967.856	4718.04
968.158	4611.38
968.46	4638.49
968.761	4602.79
969.063	4619.06
969.365	4554.43
969.666	4601.21
969.968	4554.2
970.269	4549.91
970.571	4507.2
970.872	4455.45
971.174	4472.85
971.475	4455.45
971.776	4454.77
972.077	4391.95
972.378	4379.52
972.679	4374.09
972.98	4355.56
973.281	4367.31
973.582	4328.67
973.883	4314.89
974.183	4239.18
974.484	4234.66
974.785	4233.08
975.085	4199.86
975.386	4206.41
975.686	4216.81
975.986	4168.45
976.287	4143.37
976.587	4096.81
976.887	4077.15
977.187	4103.37
977.487	4078.28
977.787	4063.37
978.087	4026.31
978.387	4009.58
978.687	4022.92
978.987	3957.38
979.286	3966.65
979.586	3950.38
979.885	3923.94
980.185	3925.52
980.484	3835.35
980.784	3853.66
981.083	3843.49
981.382	3809.14
981.682	3851.62
981.981	3796.26
982.28	3793.77
982.579	3720.33
982.878	3800.78
983.177	3701.8
983.475	3740.44
983.774	3654.79
984.073	3711.06
984.372	3637.16
984.67	3646.66
984.969	3636.94
985.267	3614.11
985.566	3604.62
985.864	3597.62
986.162	3551.74
986.461	3549.71
986.759	3542.93
987.057	3474.46
987.355	3476.72
987.653	3457.28
987.951	3482.37
988.249	3442.82
988.547	3451.41
988.844	3421.8
989.142	3398.53
989.44	3426.32
989.737	3348.36
990.035	3339.32
990.332	3311.07
990.63	3322.14
990.927	3275.59
991.224	3253.22
991.521	3263.16
991.819	3263.16
992.116	3255.03
992.413	3226.55
992.71	3185.42
993.006	3178.87
993.303	3157.4
993.6	3163.73
993.897	3198.76
994.193	3169.83
994.49	3126.44
994.787	3048.93
995.083	3062.94
995.379	3068.37
995.676	3061.13
995.972	3025.2
996.268	3015.26
996.565	2982.04
996.861	2983.4
997.157	2999.21
997.453	2960.8
997.749	2920.12
998.044	2926.67
998.34	2922.15
998.636	2893
998.932	2852.33
999.227	2864.08
999.523	2836.73
999.818	2831.54
1000.114	2807.58
1000.409	2790.41
1000.704	2753.12
1001	2763.06
1001.295	2757.19
1001.59	2733.69
1001.885	2739.11
1002.18	2687.36
1002.475	2682.16
1002.77	2677.19
1003.065	2636.74
1003.359	2657.3
1003.654	2680.81
1003.949	2620.47
1004.243	2619.56
1004.538	2566.46
1004.832	2543.86
1005.127	2557.64
1005.421	2570.07
1005.715	2542.96
1006.009	2519
1006.304	2526.46
1006.598	2485.78
1006.892	2464.77
1007.186	2457.53
1007.48	2444.88
1007.773	2434.03
1008.067	2422.96
1008.361	2390.87
1008.655	2407.82
1008.948	2366.01
1009.242	2317.65
1009.535	2338.89
1009.829	2320.36
1010.122	2301.83
1010.415	2321.27
1010.708	2298.89
1011.001	2272.91
1011.295	2258.22
1011.588	2272.45
1011.881	2195.62
1012.173	2187.94
1012.466	2160.59
1012.759	2189.52
1013.052	2190.42
1013.344	2166.69
1013.637	2180.48
1013.93	2130.76
1014.222	2112.91
1014.514	2092.8
1014.807	2095.06
1015.099	2060.03
1015.391	2058.22
1015.683	2051.44
1015.976	2093.7
1016.268	2034.72
1016.56	2017.09
1016.851	2006.25
1017.143	1995.63
1017.435	1965.12
1017.727	1963.54
1018.018	1924.21
1018.31	1958.34
1018.602	1956.3
1018.893	1921.05
1019.185	1883.99
1019.476	1928.73
1019.767	1881.73
1020.058	1865.23
1020.35	1859.81
1020.641	1833.6
1020.932	1805.12
1021.223	1827.72
1021.514	1771.22
1021.804	1776.87
1022.095	1758.8
1022.386	1734.39
1022.677	1755.86
1022.967	1727.84
1023.258	1723.09
1023.548	1705.92
1023.839	1712.47
1024.129	1709.08
1024.419	1659.14
1024.709	1660.49
1025	1640.15
1025.29	1666.82
1025.58	1632.25
1025.87	1601.74
1026.16	1594.51
1026.449	1605.58
1026.739	1613.71
1027.029	1582.53
1027.319	1550.67
1027.608	1561.06
1027.898	1538.46
1028.187	1526.03
1028.477	1512.93
1028.766	1522.42
1029.055	1509.31
1029.344	1493.04
1029.634	1484.68
1029.923	1450.56
1030.212	1472.48
1030.501	1448.52
1030.79	1430.67
1031.078	1419.6
1031.367	1427.96
1031.656	1453.49
1031.945	1418.92
1032.233	1375.75
1032.522	1363.1
1032.81	1382.99
1033.099	1348.41
1033.387	1325.36
1033.675	1347.51
1033.963	1296.89
1034.251	1324.46
1034.54	1324.46
1034.828	1293.27
1035.116	1280.16
1035.403	1284.46
1035.691	1284.91
1035.979	1265.25
1036.267	1250.11
1036.554	1248.98
1036.842	1255.53
1037.129	1226.61
1037.417	1227.96
1037.704	1188.42
1037.992	1194.74
1038.279	1207.4
1038.566	1160.85
1038.853	1160.85
1039.14	1160.85
