Data from White_reflection_standard_FLMS001491_096.txt Node
Date: Tue Feb 07 10:32:14 GMT 2017
User: dcchb
Spectrometer: FLMS00149
Trigger mode: 0
Integration Time (sec): 2.000000E-2
Scans to average: 10
Electric dark correction enabled: true
Nonlinearity correction enabled: false
Boxcar width: 0
XAxis mode: Wavelengths
Number of Pixels in Spectrum: 2048
>>>>>Begin Spectral Data<<<<<
341.393	0.34
341.776	0.34
342.16	0.34
342.543	-50.06
342.927	-63.39
343.31	-62.48
343.693	-62.71
344.077	-64.29
344.46	-64.97
344.843	-61.13
345.226	-38.08
345.61	-23.84
345.993	-36.27
346.376	-10.73
346.759	5.31
347.142	30.17
347.525	34.46
347.908	73.11
348.291	75.37
348.674	82.37
349.057	123.73
349.44	121.01
349.823	167.79
350.206	160.56
350.588	237.62
350.971	268.58
351.354	283.5
351.737	274.46
352.119	304.51
352.502	307.68
352.884	312.87
353.267	319.2
353.65	353.32
354.032	354.68
354.414	360.56
354.797	382.02
355.179	351.74
355.562	364.17
355.944	360.56
356.326	378.63
356.709	397.62
357.091	407.11
357.473	393.1
357.855	415.24
358.238	385.41
358.62	401.91
359.002	394
359.384	408.46
359.766	403.94
360.148	389.71
360.53	411.4
360.912	411.85
361.294	414.79
361.676	383.38
362.057	405.3
362.439	410.95
362.821	410.95
363.203	399.65
363.584	425.86
363.966	406.66
364.348	412.31
364.729	403.72
365.111	419.76
365.493	413.44
365.874	397.62
366.256	399.42
366.637	417.05
367.019	416.83
367.4	414.79
367.781	418.41
368.163	425.86
368.544	423.6
368.925	422.7
369.306	428.12
369.688	447.56
370.069	451.4
370.45	414.57
370.831	421.34
371.212	452.3
371.593	458.86
371.974	469.03
372.355	459.76
372.736	453.66
373.117	464.96
373.498	438.75
373.879	466.09
374.26	480.55
374.641	440.55
375.021	439.65
375.402	471.96
375.783	472.19
376.163	517.39
376.544	481.23
376.925	511.74
377.305	487.78
377.686	495.24
378.066	506.54
378.447	505.41
378.827	522.36
379.208	503.38
379.588	518.29
379.968	526.43
380.349	505.41
380.729	535.24
381.109	517.16
381.489	549.48
381.87	538.4
382.25	530.27
382.63	550.16
383.01	527.33
383.39	570.95
383.77	588.35
384.15	560.78
384.53	589.25
384.91	605.29
385.29	578.18
385.67	596.26
386.049	604.16
386.429	627.89
386.809	603.71
387.189	625.41
387.568	636.25
387.948	641
388.328	645.29
388.707	656.82
389.087	672.19
389.466	673.09
389.846	679.87
390.225	671.51
390.605	673.77
390.984	719.64
391.363	711.51
391.743	737.04
392.122	746.31
392.501	749.7
392.881	733.65
393.26	745.4
393.639	764.84
394.018	764.84
394.397	765.74
394.776	809.81
395.155	788.34
395.534	785.4
395.913	799.19
396.292	819.53
396.671	841.9
397.05	816.81
397.429	827.89
397.808	831.28
398.186	862.69
398.565	866.98
398.944	851.62
399.323	876.7
399.701	909.92
400.08	865.4
400.458	913.76
400.837	902.24
401.215	922.57
401.594	937.26
401.972	933.42
402.351	963.48
402.729	968
403.107	998.96
403.486	994.66
403.864	1013.42
404.242	994.44
404.62	1024.94
404.999	1035.34
405.377	1030.37
405.755	1053.64
406.133	1077.15
406.511	1078.05
406.889	1124.15
407.267	1128.44
407.645	1113.08
408.023	1139.29
408.401	1130.03
408.779	1194.43
409.156	1198.05
409.534	1189.23
409.912	1199.86
410.29	1234.2
410.667	1266.97
411.045	1287.99
411.422	1289.34
411.8	1301.55
412.178	1320.76
412.555	1344.03
412.933	1372.51
413.31	1400.3
413.687	1396.69
414.065	1413.86
414.442	1456.8
414.819	1437.36
415.197	1458.38
415.574	1482.56
415.951	1509.23
416.328	1500.64
416.705	1493.86
417.082	1536.57
417.46	1544.25
417.837	1601.65
418.214	1550.58
418.591	1598.94
418.967	1659.05
419.344	1645.95
419.721	1669.45
420.098	1694.08
420.475	1708.99
420.852	1691.14
421.228	1715.1
421.605	1733.63
421.982	1772.72
422.358	1767.75
422.735	1795.09
423.111	1824.92
423.488	1848.65
423.864	1862.44
424.241	1880.06
424.617	1896.11
424.994	1938.82
425.37	1966.61
425.746	1962.55
426.123	1993.73
426.499	1987.63
426.875	2057.69
427.251	2118.7
427.627	2087.06
428.003	2116.44
428.379	2155.08
428.756	2180.39
429.132	2225.37
429.507	2278.02
429.883	2263.1
430.259	2310.56
430.635	2293.39
431.011	2382.65
431.387	2409.54
431.763	2465.36
432.138	2467.17
432.514	2516.43
432.89	2506.04
433.265	2555.75
433.641	2611.57
434.016	2639.82
434.392	2703.32
434.767	2752.58
435.143	2752.58
435.518	2758.91
435.894	2798.01
436.269	2844.56
436.644	2846.14
437.02	2946.02
437.395	2902.86
437.77	2963.88
438.145	3014.95
438.52	3005.68
438.895	3091.78
439.271	3076.19
439.646	3155.51
440.021	3155.28
440.395	3190.76
440.77	3155.74
441.145	3221.95
441.52	3277.99
441.895	3312.12
442.27	3307.37
442.645	3301.27
443.019	3380.14
443.394	3384.88
443.769	3457.88
444.143	3402.06
444.518	3474.82
444.892	3464.2
445.267	3466.24
445.641	3558.21
446.016	3575.61
446.39	3585.1
446.764	3618.55
447.139	3647.7
447.513	3666.46
447.887	3692.67
448.262	3697.64
448.636	3708.49
449.01	3799.34
449.384	3801.14
449.758	3829.39
450.132	3880.01
450.506	3925.66
450.88	3970.63
451.254	3943.96
451.628	3998.65
452.002	4061.93
452.376	4094.47
452.75	4134.47
453.123	4185.09
453.497	4240.68
453.871	4287.91
454.244	4362.48
454.618	4400.68
454.992	4480.45
455.365	4479.09
455.739	4589.6
456.112	4615.81
456.486	4710.95
456.859	4738.29
457.232	4801.12
457.606	4830.49
457.979	4870.49
458.352	4950.94
458.725	5012.86
459.099	5104.16
459.472	5176.93
459.845	5256.92
460.218	5238.62
460.591	5332.18
460.964	5327.88
461.337	5466.18
461.71	5553.87
462.083	5669.57
462.456	5717.48
462.829	5699.62
463.201	5824.37
463.574	5837.93
463.947	5906.17
464.32	6063.68
464.692	6098.71
465.065	6174.19
465.438	6226.62
465.81	6338.48
466.183	6352.94
466.555	6573.05
466.928	6565.36
467.3	6499.6
467.672	6665.93
468.045	6866.15
468.417	6923.32
468.789	6960.38
469.161	7085.35
469.534	7164.67
469.906	7321.05
470.278	7370.99
470.65	7441.05
471.022	7580.48
471.394	7761.26
471.766	7765.33
472.138	7954.03
472.51	8134.14
472.882	8159.67
473.253	8262.72
473.625	8493
473.997	8594.69
474.369	8622.71
474.74	8790.84
475.112	8918.97
475.484	9132.53
475.855	9246.88
476.227	9365.29
476.598	9612.06
476.97	9683.47
477.341	9853.64
477.713	10082.33
478.084	10127.08
478.455	10444.36
478.827	10486.62
479.198	10801.86
479.569	10848.19
479.94	11122.98
480.311	11224.22
480.682	11477.55
481.053	11761.61
481.424	11902.4
481.795	12039.34
482.166	12277.76
482.537	12382.16
482.908	12629.16
483.279	12779.89
483.65	13065.76
484.021	13326.09
484.391	13460.55
484.762	13500.1
485.133	13721.56
485.503	13893.53
485.874	14204.49
486.244	14348.21
486.615	14601.54
486.985	14764.92
487.356	15005.59
487.726	15174.4
488.097	15493.26
488.467	15504.34
488.837	15953.59
489.207	16066.81
489.578	16283.53
489.948	16423.86
490.318	16675.61
490.688	16840.35
491.058	17030.4
491.428	17227
491.798	17483.95
492.168	17815.92
492.538	17869.7
492.908	18025.18
493.278	18299.52
493.648	18373.64
494.017	18509.46
494.387	18782.9
494.757	18990.35
495.126	19188.08
495.496	19170.23
495.866	19336.1
496.235	19586.94
496.605	19759.14
496.974	19906.26
497.344	20041.39
497.713	20228.06
498.082	20331.33
498.452	20659.68
498.821	20657.87
499.19	20799.79
499.559	21033.46
499.928	21124.3
500.298	21328.59
500.667	21447.01
501.036	21490.17
501.405	21767.9
501.774	21699.2
502.143	22056.48
502.512	22011.29
502.88	22335.34
503.249	22340.32
503.618	22518.16
503.987	22646.07
504.356	22795.9
504.724	23002.67
505.093	23060.75
505.462	23170.13
505.83	23362.21
506.199	23562.88
506.567	23841.52
506.936	23884.46
507.304	24182.53
507.672	24325.12
508.041	24423.2
508.409	24650.54
508.777	24862.06
509.145	24958.55
509.514	25048.27
509.882	25288.71
510.25	25359.67
510.618	25526.67
510.986	25707.01
511.354	25950.39
511.722	26197.39
512.09	26501.56
512.458	26388.35
512.826	26643.71
513.193	26932.29
513.561	26894.1
513.929	27081.89
514.297	27506.51
514.664	27620.63
515.032	27800.96
515.4	27963.45
515.767	28210.67
516.135	28197.56
516.502	28180.16
516.869	28714.16
517.237	28900.14
517.604	28914.83
517.972	29143.53
518.339	29466
518.706	29512.56
519.073	29630.07
519.44	29855.83
519.808	30240.45
520.175	30259.43
520.542	30740.32
520.909	30933.08
521.276	30966.3
521.643	31143.02
522.009	31331.72
522.376	31785.49
522.743	31907.97
523.11	32309.09
523.477	32477.68
523.843	32622.98
524.21	33126.02
524.577	33255.28
524.943	33385.68
525.31	33593.81
525.676	33902.05
526.043	34210.51
526.409	34439.21
526.776	34645.53
527.142	34692.53
527.508	34945.18
527.874	35304.5
528.241	35463.14
528.607	35542.91
528.973	36030.8
529.339	35944.7
529.705	36388.08
530.071	36464.92
530.437	36788.75
530.803	36974.06
531.169	37184.22
531.535	37225.35
531.901	37446.59
532.267	37428.28
532.632	37795.28
532.998	38009.96
533.364	38163.4
533.73	38284.98
534.095	38587.35
534.461	38714.12
534.826	38797.06
535.192	39031.4
535.557	39255.58
535.923	39239.53
536.288	39566.3
536.653	39693.53
537.019	39658.96
537.384	39903.7
537.749	40089.23
538.114	40212.84
538.479	40392.27
538.845	40621.87
539.21	40398.15
539.575	40778.48
539.94	40952.26
540.305	41230.89
540.67	41021.18
541.034	41368.06
541.399	41411
541.764	41551.11
542.129	41769.86
542.494	41797.88
542.858	42024.54
543.223	42058.67
543.587	42440.8
543.952	42233.8
544.316	42658.88
544.681	42462.5
545.045	42622.5
545.41	42974.8
545.774	43082.37
546.138	43132.99
546.503	43299.99
546.867	43465.18
547.231	43764.61
547.595	43695.24
547.959	43922.35
548.324	43853.88
548.688	44114.43
549.052	44276.69
549.416	44363.24
549.779	44373.18
550.143	44557.36
550.507	44787.41
550.871	44917.8
551.235	45000.74
551.599	45210.68
551.962	45330.67
552.326	45472.14
552.689	45789.87
553.053	45735.18
553.417	45794.39
553.78	46221.27
554.143	46073.48
554.507	46316.64
554.87	46475.5
555.234	46847.24
555.597	46718.43
555.96	46899.22
556.323	47105.32
556.686	47157.29
557.05	47653.32
557.413	47514.12
557.776	47823.04
558.139	48004.95
558.502	48017.83
558.865	48185.29
559.228	48466.41
559.59	48566.52
559.953	48621.21
560.316	49077.47
560.679	49032.95
561.041	49195.88
561.404	49509.55
561.767	49581.63
562.129	49622.31
562.492	49938.69
562.854	49943.66
563.217	50021.62
563.579	50204.67
563.941	50373.93
564.304	50562.63
564.666	50771.89
565.028	50815.95
565.39	50924.88
565.753	51169.62
566.115	51246
566.477	51450.51
566.839	51483.51
567.201	51829.03
567.563	51761.24
567.925	52036.26
568.287	51968.69
568.648	52050.5
569.01	52207.1
569.372	52473.54
569.734	52365.06
570.095	52603.02
570.457	52609.8
570.819	52789.01
571.18	52831.72
571.542	52989
571.903	53048.89
572.265	53142.9
572.626	53303.34
572.987	53325.94
573.349	53352.38
573.71	53523.45
574.071	53549.44
574.432	53730.45
574.794	53890.22
575.155	53815.42
575.516	53774.07
575.877	53868.75
576.238	54050.44
576.599	54134.96
576.96	54163.43
577.32	54192.36
577.681	54252.92
578.042	54338.35
578.403	54306.48
578.763	54317.55
579.124	54460.38
579.485	54512.8
579.845	54501.96
580.206	54523.43
580.566	54553.71
580.927	54616.3
581.287	54758
581.648	54548.51
582.008	54748.05
582.368	54672.12
582.728	54736.75
583.089	54657.66
583.449	54781.05
583.809	54757.54
584.169	54820.59
584.529	54723.65
584.889	54941.72
585.249	54670.09
585.609	54689.52
585.969	54869.4
586.329	54771.1
586.688	54862.17
587.048	54746.47
587.408	54811.78
587.768	54794.83
588.127	54880.03
588.487	54719.58
588.846	54993.24
589.206	54789.86
589.565	54732.23
589.925	54972.23
590.284	54756.41
590.643	54852
591.003	54918.22
591.362	54981.94
591.721	54960.25
592.08	54976.29
592.44	55012.23
592.799	55016.97
593.158	54882.51
593.517	54944.21
593.876	55017.2
594.235	54993.02
594.593	54998.21
594.952	54967.48
595.311	54964.32
595.67	55043.41
596.029	55233.91
596.387	55269.39
596.746	55259.45
597.104	55108.27
597.463	55067.82
597.822	55209.96
598.18	55104.43
598.538	55095.84
598.897	55321.6
599.255	54969.74
599.613	55470.74
599.972	55222.16
600.33	55348.94
600.688	55184.65
601.046	55283.18
601.404	55468.03
601.762	55317.98
602.12	55525.88
602.478	55497.41
602.836	55497.64
603.194	55396.62
603.552	55458.32
603.91	55360.01
604.268	55609.27
604.625	55470.07
604.983	55565.43
605.341	55476.85
605.698	55637.07
606.056	55620.35
606.413	55638.65
606.771	55715.94
607.128	55778.31
607.485	55613.11
607.843	55672.1
608.2	55781.92
608.557	55927.46
608.914	55770.17
609.272	55887.91
609.629	55941.92
609.986	56071.63
610.343	55913.45
610.7	56139.2
611.057	56047.23
611.414	55971.52
611.771	56072.76
612.127	56158.64
612.484	56144.4
612.841	56183.49
613.198	56216.26
613.554	56183.95
613.911	56359.31
614.267	56341.46
614.624	56321.34
614.98	56313.21
615.337	56371.96
615.693	56355.47
616.05	56322.02
616.406	56451.06
616.762	56361.79
617.118	56409.48
617.475	56376.26
617.831	56471.17
618.187	56541.45
618.543	56524.28
618.899	56662.8
619.255	56615.12
619.611	56593.65
619.967	56661.22
620.323	56648.57
620.678	56559.76
621.034	56504.39
621.39	56528.8
621.746	56490.15
622.101	56717.94
622.457	56480.21
622.812	56577.83
623.168	56674.78
623.523	56633.65
623.879	56768.34
624.234	56552.98
624.589	56565.18
624.945	56665.74
625.3	56668.45
625.655	56609.47
626.01	56653.76
626.365	56639.08
626.72	56615.35
627.075	56632.97
627.43	56619.64
627.785	56572.64
628.14	56616.25
628.495	56582.81
628.85	56572.41
629.205	56483.83
629.559	56655.12
629.914	56463.26
630.269	56420.32
630.623	56503.71
630.978	56422.58
631.332	56535.58
631.687	56562.24
632.041	56327.22
632.396	56405.41
632.75	56317.5
633.104	56304.17
633.459	56187.34
633.813	56221.46
634.167	56124.96
634.521	56160.67
634.875	56169.26
635.229	56161.12
635.583	55935.37
635.937	56029.6
636.291	55904.18
636.645	55985.08
636.999	55962.26
637.352	55928.81
637.706	55827.8
638.06	55904.63
638.413	55798.19
638.767	55736.27
639.121	55814.46
639.474	55652.89
639.828	55715.94
640.181	55666.67
640.534	55679.55
640.888	55589.84
641.241	55506.45
641.594	55470.74
641.947	55546.22
642.301	55462.84
642.654	55529.5
643.007	55409.96
643.36	55306.68
643.713	55322.27
644.066	55369.5
644.419	55188.04
644.771	55000.93
645.124	54749.41
645.477	54638.9
645.83	54574.5
646.182	54434.61
646.535	54296.99
646.888	54296.54
647.24	54212.92
647.593	54368.17
647.945	54292.7
648.298	54172.02
648.65	54174.28
649.002	53969.77
649.355	54095.64
649.707	54014.96
650.059	54133.38
650.411	54470.77
650.763	54435.74
651.115	54784.21
651.467	54645.91
651.819	54719.13
652.171	54554.61
652.523	54495.63
652.875	54439.59
653.227	54327.5
653.578	54518
653.93	54457.44
654.282	54331.79
654.633	54257.9
654.985	54255.86
655.337	54177.22
655.688	54194.39
656.039	54395.52
656.391	54078.92
656.742	54184.45
657.094	54186.03
657.445	54216.99
657.796	54175.19
658.147	54085.7
658.498	54093.83
658.849	54156.2
659.2	54120.27
659.551	53963.67
659.902	54000.28
660.253	53996.43
660.604	54026.26
660.955	53827.4
661.306	54042.99
661.656	53922.31
662.007	53920.96
662.358	53933.16
662.708	53835.31
663.059	53917.11
663.409	53684.13
663.76	53941.97
664.11	53893.39
664.461	53814.52
664.811	53791.69
665.161	53737.01
665.511	53718.93
665.862	53681.64
666.212	53742.88
666.562	53784.24
666.912	53659.72
667.262	53687.06
667.612	53654.97
667.962	53731.36
668.312	53571.59
668.662	53671.02
669.011	53507.63
669.361	53531.13
669.711	53516.22
670.06	53377.92
670.41	53418.37
670.76	53438.71
671.109	53468.31
671.459	53518.48
671.808	53285.04
672.157	53400.29
672.507	53118.26
672.856	53214.31
673.205	53340.18
673.554	53276
673.904	53172.27
674.253	53389.44
674.602	53219.96
674.951	52793.75
675.3	52568.9
675.649	53092.05
675.998	53079.85
676.346	53050.47
676.695	53175.44
677.044	52860.64
677.393	52984.03
677.741	52964.37
678.09	52994.88
678.438	52833.07
678.787	52949.46
679.135	52859.74
679.484	52738.84
679.832	52880.08
680.181	52605.74
680.529	52750.82
680.877	52589.69
681.225	52551.27
681.573	52763.25
681.922	52528.68
682.27	52416.14
682.618	52393.31
682.966	52255.46
683.314	52262.92
683.661	52217.72
684.009	52078.29
684.357	51910.61
684.705	51883.27
685.053	51996.26
685.4	51895.92
685.748	51759.43
686.095	51741.35
686.443	51581.81
686.79	51526.22
687.138	51653.9
687.485	51685.08
687.832	51386.11
688.18	51470.4
688.527	51206.45
688.874	51333
689.221	51168.94
689.568	51045.78
689.915	50850.98
690.262	50944.76
690.609	50777.53
690.956	50828.83
691.303	50766.24
691.65	50521.95
691.997	50607.6
692.344	50232.24
692.69	50250.09
693.037	50294.84
693.383	49908.18
693.73	50159.92
694.077	49955.64
694.423	49873.38
694.769	49804.91
695.116	49644.91
695.462	49530.79
695.808	49415.99
696.155	49572.82
696.501	49214.64
696.847	49231.59
697.193	48852.61
697.539	49066.85
697.885	48874.08
698.231	48812.39
698.577	48609.23
698.923	48659.85
699.269	48569.68
699.614	48322.91
699.96	48169.24
700.306	48112.29
700.651	48039.3
700.997	47977.38
701.342	47858.29
701.688	47733.1
702.033	47666.88
702.379	47517.51
702.724	47572.65
703.069	47591.4
703.415	47104.86
703.76	47136.5
704.105	47161.36
704.45	47027.35
704.795	46719.79
705.14	46626.46
705.485	46750.3
705.83	46370.65
706.175	46459.91
706.52	46277.99
706.865	46215.17
707.209	46119.58
707.554	45954.16
707.899	46169.07
708.243	45880.04
708.588	45620.61
708.932	45553.94
709.277	45593.04
709.621	45514.62
709.966	45285.02
710.31	45340.62
710.654	44916.67
710.998	44981.76
711.342	45056.78
711.687	44981.08
712.031	44668.77
712.375	44755.77
712.719	44807.07
713.063	44530.69
713.407	44685.49
713.75	44364.14
714.094	44386.97
714.438	44206.18
714.782	44292.96
715.125	43853.88
715.469	44109.01
715.812	43762.35
716.156	43701.34
716.499	43706.76
716.843	43666.99
717.186	43350.84
717.53	43571.17
717.873	43565.97
718.216	43325.3
718.559	43288.24
718.902	43082.6
719.246	43089.15
719.589	42923.73
719.932	42732.32
720.275	42808.7
720.617	42802.6
720.96	42643.96
721.303	42706.11
721.646	42646.9
721.989	42394.03
722.331	42497.53
722.674	42406.68
723.016	42260.47
723.359	42259.11
723.701	42222.73
724.044	41979.8
724.386	41864.55
724.729	42010.76
725.071	41910.65
725.413	41851.22
725.755	41759.47
726.097	41518.34
726.439	41369.42
726.782	41382.08
727.124	41645.12
727.465	41261.17
727.807	41385.24
728.149	41126.94
728.491	41187.28
728.833	41187.96
729.175	40912.94
729.516	40966.04
729.858	40800.4
730.199	40810.34
730.541	40764.24
730.882	40741.19
731.224	40761.3
731.565	40448.54
731.906	40527.18
732.248	40479.27
732.589	40290.35
732.93	40286.96
733.271	40241.54
733.612	40170.58
733.953	40331.48
734.294	40073.86
734.635	39877.03
734.976	39945.73
735.317	39791.38
735.658	39845.84
735.999	39546.64
736.339	39721.1
736.68	39725.62
737.021	39608.11
737.361	39378.06
737.702	39626.42
738.042	39490.15
738.383	39242.25
738.723	39303.03
739.063	39167.44
739.404	39164.73
739.744	39169.03
740.084	38958.41
740.424	39044.06
740.764	38786.21
741.104	38973.33
741.444	38673.45
741.784	38630.74
742.124	38857.4
742.464	38653.56
742.804	38602.26
743.143	38422.38
743.483	38421.48
743.823	38221.93
744.162	38197.75
744.502	38268.26
744.841	38039.56
745.181	38222.84
745.52	37881.38
745.86	38193.91
746.199	37846.35
746.538	37739.01
746.877	37925.44
747.216	37855.84
747.556	37665.11
747.895	37716.41
748.234	37624.66
748.573	37466.92
748.911	37555.96
749.25	37482.29
749.589	37075.3
749.928	37217.44
750.267	37278
750.605	37094.73
750.944	36974.06
751.283	36912.59
751.621	37093.15
751.96	36747.4
752.298	36687.51
752.636	36654.97
752.975	36485.26
753.313	36410.91
753.651	36485.26
753.989	36377.24
754.327	36188.77
754.666	36000.75
755.004	36010.47
755.342	36058.83
755.679	36000.07
756.017	35704.94
756.355	35832.17
756.693	35666.75
757.031	35554.43
757.368	35401.89
757.706	35314.21
758.044	35230.15
758.381	35227.21
758.719	35091.17
759.056	35109.7
759.394	34889.14
759.731	34786.32
760.068	34677.62
760.405	34579.32
760.743	34304.97
761.08	34443.05
761.417	34349.27
761.754	34162.38
762.091	34159.44
762.428	34060.69
762.765	33893.46
763.102	34001.93
763.438	33815.5
763.775	33592.9
764.112	33625.9
764.449	33617.08
764.785	33433.13
765.122	33309.75
765.458	33070.88
765.795	33113.37
766.131	32977.32
766.467	32856.2
766.804	32589.31
767.14	32564.68
767.476	32560.84
767.812	32281.75
768.148	32419.37
768.485	32189.32
768.821	31981.42
769.157	31997.01
769.492	31937.35
769.828	31846.51
770.164	31549.79
770.5	31488.55
770.836	31563.58
771.171	31176.02
771.507	31183.7
771.842	30964.5
772.178	31017.15
772.513	30930.83
772.849	30783.48
773.184	30711.17
773.519	30634.79
773.855	30540.55
774.19	30397.51
774.525	30197.51
774.86	30158.87
775.195	30035.03
775.53	29971.3
775.865	29908.25
776.2	29627.36
776.535	29416.29
776.87	29462.39
777.205	29240.47
777.539	29209.29
777.874	29193.7
778.209	29006.58
778.543	28966.81
778.878	28740.15
779.212	28750.54
779.547	28583.77
779.881	28559.36
780.215	28351.01
780.55	28462.87
780.884	28302.42
781.218	28174.74
781.552	28187.62
781.886	27956.89
782.22	27910.34
782.554	27827.86
782.888	27440.3
783.222	27478.26
783.556	27286.4
783.889	27271.49
784.223	27113.52
784.557	27009.35
784.89	27092.51
785.224	26803.02
785.557	26754.66
785.891	26655.23
786.224	26617.27
786.558	26546.76
786.891	26437.38
787.224	26183.15
787.557	26203.49
787.891	26125.08
788.224	26237.16
788.557	25963.05
788.89	26092.31
789.223	25800.56
789.556	25707.69
789.888	25643.51
790.221	25507.92
790.554	25296.4
790.887	25270.18
791.219	25315.15
791.552	25095.27
791.884	25118.32
792.217	24827.26
792.549	24867.03
792.882	24655.28
793.214	24687.83
793.546	24781.61
793.879	24522.18
794.211	24393.37
794.543	24461.84
794.875	24317.21
795.207	24332.81
795.539	24214.17
795.871	24139.37
796.203	23957.45
796.535	23877.23
796.867	23719.04
797.198	23765.59
797.53	23738.25
797.862	23486.73
798.193	23585.26
798.525	23277.24
798.856	23381.87
799.188	23168.09
799.519	23066.17
799.85	22919.51
800.182	23104.14
800.513	23088.77
800.844	22857.14
801.175	22898.95
801.506	22886.74
801.837	22714.54
802.168	22665.73
802.499	22544.38
802.83	22533.08
803.161	22351.62
803.491	22358.4
803.822	22409.02
804.153	22283.59
804.483	22109.36
804.814	22051.96
805.145	22021
805.475	22033.21
805.805	21950.5
806.136	21813.1
806.466	21803.61
806.796	21815.81
807.126	21589.38
807.457	21540.34
807.787	21443.84
808.117	21484.07
808.447	21320.91
808.777	21427.57
809.107	21265.09
809.436	21291.53
809.766	21178.31
810.096	21062.16
810.426	21009.5
810.755	21077.52
811.085	20999.79
811.414	20904.87
811.744	20756.86
812.073	20687.25
812.403	20712.11
812.732	20575.39
813.061	20623.75
813.39	20429.18
813.719	20360.03
814.049	20463.53
814.378	20355.06
814.707	20208.85
815.036	20290.43
815.365	20229.41
815.693	20045.69
816.022	19973.15
816.351	19943.54
816.68	19898.57
817.008	19946.71
817.337	19838.46
817.665	19720.95
817.994	19690.67
818.322	19769.76
818.651	19637.11
818.979	19600.95
819.307	19615.42
819.636	19567.96
819.964	19386.72
820.292	19590.56
820.62	19513.05
820.948	19384.91
821.276	19491.13
821.604	19413.16
821.932	19356.44
822.259	19321.86
822.587	19349.43
822.915	19287.97
823.243	19391.47
823.57	19290.45
823.898	19369.1
824.225	19175.2
824.553	19262.43
824.88	19285.26
825.207	19308.53
825.535	19192.6
825.862	19278.25
826.189	19228.08
826.516	19329.32
826.843	19281.19
827.17	19296.1
827.497	19265.37
827.824	19336.55
828.151	19279.38
828.478	19164.58
828.805	19315.09
829.131	19162.77
829.458	19181.53
829.785	19147.86
830.111	19237.12
830.438	19345.82
830.764	19190.12
831.09	19230.34
831.417	19116.45
831.743	19166.39
832.069	19174.75
832.395	19038.93
832.722	19058.14
833.048	19046.84
833.374	18972.04
833.7	19014.75
834.026	18982.66
834.351	19006.62
834.677	19044.13
835.003	19024.7
835.329	18931.82
835.654	18939.95
835.98	18869.22
836.306	18851.37
836.631	18783.35
836.956	18778.15
837.282	18867.87
837.607	18770.24
837.932	18629.68
838.258	18754.2
838.583	18564.6
838.908	18488.67
839.233	18584.71
839.558	18523.02
839.883	18448.44
840.208	18455.9
840.533	18419.74
840.858	18411.15
841.182	18440.08
841.507	18437.14
841.832	18234.44
842.156	18224.94
842.481	18253.64
842.805	18215.68
843.13	18086.19
843.454	18151.27
843.778	18007.78
844.103	17986.53
844.427	17937.27
844.751	18027.44
845.075	17872.64
845.399	17809.36
845.723	17624.28
846.047	17789.25
846.371	17616.15
846.695	17581.8
847.019	17405.98
847.343	17368.02
847.666	17280.11
847.99	17181.58
848.313	17207.12
848.637	17031.53
848.96	17105.88
849.284	17091.42
849.607	16884.41
849.931	16862.95
850.254	16730.29
850.577	16577.3
850.9	16466.35
851.223	16477.42
851.546	16429.06
851.869	16297.99
852.192	16408.95
852.515	16263.41
852.838	16151.78
853.161	16121.72
853.483	16092.35
853.806	16057.32
854.129	15995.4
854.451	15975.06
854.774	15867.27
855.096	15768.29
855.419	15845.35
855.741	15776.65
856.063	15714.95
856.385	15664.11
856.708	15662.07
857.03	15467.73
857.352	15429.09
857.674	15387.73
857.996	15305.93
858.318	15371.01
858.64	15266.38
858.961	15236.77
859.283	15206.94
859.605	15145.03
859.926	15112.48
860.248	15131.01
860.57	15055.54
860.891	15034.07
861.212	14899.16
861.534	14936.22
861.855	14952.04
862.176	14927.18
862.498	14890.34
862.819	14890.12
863.14	14755.66
863.461	14802.21
863.782	14728.31
864.103	14764.7
864.424	14639.05
864.745	14701.42
865.065	14592.05
865.386	14531.26
865.707	14513.63
866.027	14535.1
866.348	14540.52
866.668	14562.89
866.989	14442.45
867.309	14262.11
867.63	14355.22
867.95	14388.44
868.27	14310.47
868.59	14214.65
868.91	14269.12
869.23	14323.58
869.55	14208.55
869.87	14244.48
870.19	14107.76
870.51	14239.96
870.83	14232.73
871.15	14107.09
871.469	14135.56
871.789	14117.71
872.109	14046.52
872.428	14010.59
872.748	13998.84
873.067	14054.66
873.386	14120.42
873.706	13926.75
874.025	13863.48
874.344	13848.56
874.663	13875
874.982	13818.96
875.301	13814.67
875.62	13740.54
875.939	13804.72
876.258	13838.17
876.577	13663.48
876.896	13658.96
877.214	13642.69
877.533	13589.81
877.852	13628.91
878.17	13549.59
878.489	13562.02
878.807	13573.09
879.125	13522.7
879.444	13558.17
879.762	13449.02
880.08	13499.65
880.398	13324.28
880.716	13388.24
881.034	13308.92
881.352	13332.64
881.67	13340.78
881.988	13298.29
882.306	13204.51
882.624	13188.01
882.941	13211.97
883.259	13138.98
883.577	13120.22
883.894	13084.51
884.212	13070.05
884.529	13010.62
884.846	12991.41
885.164	12933.78
885.481	12981.92
885.798	12976.49
886.115	12821.02
886.432	12868.02
886.75	12854.92
887.067	12805.88
887.383	12772.21
887.7	12769.49
888.017	12589.84
888.334	12716.16
888.651	12628.26
888.967	12592.32
889.284	12566.11
889.6	12580.8
889.917	12422.61
890.233	12491.76
890.55	12388.26
890.866	12421.71
891.182	12374.93
891.498	12222.62
891.815	12254.93
892.131	12232.11
892.447	12188.27
892.763	12122.51
893.079	12072.56
893.395	12015.39
893.71	12095.39
894.026	11960.02
894.342	12030.31
894.657	11877.09
894.973	11965.22
895.289	11892
895.604	11845.68
895.92	11709.18
896.235	11771.33
896.55	11675.96
896.865	11721.39
897.181	11641.84
897.496	11661.95
897.811	11557.55
898.126	11533.82
898.441	11540.6
898.756	11503.77
899.071	11365.46
899.386	11367.72
899.7	11244.79
900.015	11228.07
900.33	11194.39
900.644	11208.18
900.959	11152.14
901.273	11090.22
901.588	11023.33
901.902	10975.19
902.216	10947.85
902.531	10880.73
902.845	10946.27
903.159	10834.4
903.473	10785.37
903.787	10671.24
904.101	10680.51
904.415	10653.17
904.729	10654.75
905.042	10579.04
905.356	10515.54
905.67	10512.15
905.984	10519.16
906.297	10476.67
906.611	10344.47
906.924	10341.76
907.237	10328.43
907.551	10277.13
907.864	10260.41
908.177	10150.81
908.491	10189
908.804	10075.78
909.117	10015.44
909.43	10057.25
909.743	10035.33
910.056	9967.99
910.368	9900.64
910.681	9869.68
910.994	9767.54
911.307	9782.91
911.619	9707.43
911.932	9730.03
912.244	9630.14
912.557	9618.39
912.869	9598.05
913.181	9523.25
913.494	9520.54
913.806	9461.56
914.118	9476.25
914.43	9393.99
914.742	9381.79
915.054	9291.39
915.366	9264.73
915.678	9243.26
915.99	9187.67
916.302	9159.65
916.613	9119.42
916.925	9066.32
917.236	9031.29
917.548	9073.32
917.859	8986.54
918.171	8938.18
918.482	8825.42
918.794	8864.74
919.105	8769.37
919.416	8777.51
919.727	8782.93
920.038	8721.24
920.349	8672.88
920.66	8644.18
920.971	8593.11
921.282	8508.14
921.593	8518.76
921.903	8492.77
922.214	8463.85
922.525	8437.41
922.835	8450.96
923.146	8285.09
923.456	8275.38
923.767	8255.26
924.077	8284.41
924.387	8138.88
924.697	8173.46
925.008	8167.81
925.318	8066.79
925.628	8024.76
925.938	8082.61
926.248	7965.78
926.558	7929.62
926.867	7934.82
927.177	7855.73
927.487	7840.58
927.796	7750.42
928.106	7828.61
928.416	7735.05
928.725	7753.81
929.034	7708.61
929.344	7726.24
929.653	7613.47
929.962	7540.71
930.271	7578.22
930.581	7492.12
930.89	7490.54
931.199	7380.03
931.508	7377.77
931.817	7385.46
932.125	7322.41
932.434	7312.69
932.743	7222.52
933.051	7198.57
933.36	7242.41
933.669	7101.62
933.977	7166.48
934.286	7060.04
934.594	7064.56
934.902	6991.34
935.21	6993.83
935.519	7024.56
935.827	6952.25
936.135	6899.37
936.443	6837
936.751	6849.65
937.059	6761.97
937.367	6765.58
937.674	6789.76
937.982	6793.15
938.29	6661.86
938.597	6654.85
938.905	6631.8
939.213	6604.46
939.52	6529.66
939.827	6579.15
940.135	6485.37
940.442	6567.62
940.749	6493.28
941.056	6468.19
941.363	6383
941.67	6387.74
941.977	6391.36
942.284	6295.99
942.591	6284.69
942.898	6208.99
943.205	6292.15
943.511	6197.24
943.818	6190.91
944.125	6151.59
944.431	6122.89
944.738	6081.99
945.044	6078.6
945.35	6036.11
945.657	6021.42
945.963	5952.72
946.269	5963.12
946.575	5896.91
946.881	5885.61
947.187	5928.32
947.493	5827.53
947.799	5807.64
948.105	5801.99
948.41	5783.92
948.716	5781.88
949.022	5707.53
949.327	5643.58
949.633	5671.83
949.938	5696.69
950.244	5644.26
950.549	5602.9
950.854	5631.38
951.16	5557.48
951.465	5550.48
951.77	5505.96
952.075	5457.37
952.38	5470.48
952.685	5422.8
952.99	5381.21
953.294	5402
953.599	5379.41
953.904	5306.41
954.209	5313.87
954.513	5292.63
954.818	5313.42
955.122	5265.96
955.426	5189.81
955.731	5230.03
956.035	5156.14
956.339	5127.21
956.643	5148.68
956.948	5106.87
957.252	5094.22
957.556	5051.73
957.86	5072.3
958.163	5008.12
958.467	4966.76
958.771	4956.37
959.075	4963.82
959.378	4929.02
959.682	4943.26
959.985	4926.54
960.289	4838.18
960.592	4861.91
960.896	4823.71
961.199	4759.99
961.502	4763.83
961.805	4777.16
962.108	4702.81
962.411	4682.48
962.714	4675.92
963.017	4677.96
963.32	4642.93
963.623	4628.01
963.926	4612.65
964.228	4584.85
964.531	4560.9
964.833	4555.47
965.136	4524.51
965.438	4492.2
965.741	4457.17
966.043	4487.68
966.345	4434.12
966.648	4395.93
966.95	4435.48
967.252	4375.37
967.554	4404.52
967.856	4291.75
968.158	4350.51
968.46	4334.24
968.761	4302.37
969.063	4311.64
969.365	4215.82
969.666	4191.87
969.968	4144.18
970.269	4190.06
970.571	4169.95
970.872	4144.18
971.174	4128.37
971.475	4083.17
971.776	4141.02
972.077	4036.84
972.378	4045.2
972.679	4014.02
972.98	4015.37
973.281	3977.86
973.582	3977.41
973.883	3977.18
974.183	3908.94
974.484	3953.68
974.785	3941.03
975.085	3919.56
975.386	3912.78
975.686	3870.97
975.986	3819
976.287	3806.57
976.587	3780.8
976.887	3743.97
977.187	3802.5
977.487	3722.28
977.787	3758.21
978.087	3711.88
978.387	3685.21
978.687	3676.4
978.987	3651.77
979.286	3649.96
979.586	3618.55
979.885	3633.24
980.185	3588.95
980.484	3570.64
980.784	3521.83
981.083	3561.6
981.382	3523.86
981.682	3545.33
981.981	3512.34
982.28	3518.44
982.579	3470.76
982.878	3434.82
983.177	3426.46
983.475	3436.18
983.774	3455.62
984.073	3393.02
984.372	3378.56
984.67	3351.89
984.969	3366.58
985.267	3343.98
985.566	3337.65
985.864	3296.98
986.162	3294.72
986.461	3220.14
986.759	3276.19
987.057	3238.22
987.355	3263.76
987.653	3196.87
987.951	3208.16
988.249	3170.88
988.547	3182.18
988.844	3157.77
989.142	3125.68
989.44	3104.66
989.737	3122.29
990.035	3099.69
990.332	3038.9
990.63	3090.88
990.927	3060.37
991.224	3059.02
991.521	3036.87
991.819	2987.15
992.116	2987.61
992.413	2974.72
992.71	2924.56
993.006	2939.92
993.303	2964.33
993.6	2894.27
993.897	2901.28
994.193	2922.52
994.49	2856.54
994.787	2845.24
995.083	2841.62
995.379	2858.34
995.676	2821.51
995.972	2839.81
996.268	2795.07
996.565	2777.89
996.861	2804.56
997.157	2757.55
997.453	2716.65
997.749	2701.06
998.044	2677.56
998.34	2691.34
998.636	2708.97
998.932	2664
999.227	2635.07
999.523	2635.07
999.818	2624
1000.114	2607.28
1000.409	2547.39
1000.704	2584.45
1001	2555.07
1001.295	2529.54
1001.59	2497
1001.885	2558.92
1002.18	2513.04
1002.475	2503.78
1002.77	2487.96
1003.065	2450.67
1003.359	2457.68
1003.654	2459.03
1003.949	2426.26
1004.243	2360.05
1004.538	2410.22
1004.832	2418.35
1005.127	2345.81
1005.421	2364.57
1005.715	2345.36
1006.009	2339.49
1006.304	2279.83
1006.598	2308.75
1006.892	2290.9
1007.186	2255.42
1007.48	2237.34
1007.773	2262.65
1008.067	2223.78
1008.361	2223.78
1008.655	2169.55
1008.948	2197.8
1009.242	2155.76
1009.535	2155.31
1009.829	2165.25
1010.122	2144.92
1010.415	2139.94
1010.708	2114.18
1011.001	2091.13
1011.295	2080.06
1011.588	2068.31
1011.881	2058.14
1012.173	2060.17
1012.466	2032.38
1012.759	2009.1
1013.052	2040.96
1013.344	1995.99
1013.637	1993.96
1013.93	1972.72
1014.222	1911.93
1014.514	1922.1
1014.807	1957.35
1015.099	1929.33
1015.391	1931.36
1015.683	1925.49
1015.976	1886.62
1016.268	1857.01
1016.56	1838.93
1016.851	1886.39
1017.143	1843
1017.435	1848.43
1017.727	1788.54
1018.018	1788.99
1018.31	1791.48
1018.602	1795.09
1018.893	1787.18
1019.185	1787.18
1019.476	1759.61
1019.767	1757.35
1020.058	1729.33
1020.35	1703.35
1020.641	1689.33
1020.932	1739.95
1021.223	1653.63
1021.514	1681.42
1021.804	1657.47
1022.095	1638.49
1022.386	1619.96
1022.677	1610.47
1022.967	1604.14
1023.258	1587.42
1023.548	1584.93
1023.839	1588.55
1024.129	1557.59
1024.419	1557.13
1024.709	1556.91
1025	1534.54
1025.29	1536.12
1025.58	1499.28
1025.87	1485.27
1026.16	1499.51
1026.449	1469.68
1026.739	1476.68
1027.029	1480.75
1027.319	1426.52
1027.608	1452.05
1027.898	1424.71
1028.187	1447.76
1028.477	1386.74
1028.766	1422.22
1029.055	1359.85
1029.344	1407.76
1029.634	1386.97
1029.923	1360.08
1030.212	1345.61
1030.501	1348.55
1030.79	1317.59
1031.078	1301.55
1031.367	1321.89
1031.656	1327.08
1031.945	1299.97
1032.233	1297.93
1032.522	1307.88
1032.81	1279.63
1033.099	1275.79
1033.387	1254.32
1033.675	1266.07
1033.963	1252.96
1034.251	1208.44
1034.54	1213.41
1034.828	1202.34
1035.116	1225.84
1035.403	1222.23
1035.691	1172.96
1035.979	1200.76
1036.267	1164.83
1036.554	1153.08
1036.842	1159.63
1037.129	1160.08
1037.417	1123.25
1037.704	1155.56
1037.992	1128.9
1038.279	1124.6
1038.566	1109.01
1038.853	1109.01
1039.14	1109.01
