Data from whiteboard_FLMS001491_00071.txt Node
Date: Wed Feb 08 11:28:02 GMT 2017
User: dcchb
Spectrometer: FLMS00149
Trigger mode: 0
Integration Time (sec): 2.000000E-2
Scans to average: 10
Electric dark correction enabled: true
Nonlinearity correction enabled: false
Boxcar width: 0
XAxis mode: Wavelengths
Number of Pixels in Spectrum: 2048
>>>>>Begin Spectral Data<<<<<
341.393	0.4
341.776	0.4
342.16	0.4
342.543	-79.38
342.927	-54.74
343.31	-64.46
343.693	-73.27
344.077	-71.92
344.46	-49.77
344.843	-54.07
345.226	-52.94
345.61	-26.95
345.993	-32.37
346.376	-3.22
346.759	2.43
347.142	35.65
347.525	25.71
347.908	65.03
348.291	71.13
348.674	124.91
349.057	104.12
349.44	113.61
349.823	121.3
350.206	146.61
350.588	233.16
350.971	227.96
351.354	232.25
351.737	271.8
352.119	272.25
352.502	291.46
352.884	307.05
353.267	297.56
353.65	331.23
354.032	334.62
354.414	316.32
354.797	359.26
355.179	339.82
355.562	350.89
355.944	356.09
356.326	367.17
356.709	388.41
357.091	347.28
357.473	361.74
357.855	381.4
358.238	390.44
358.62	354.74
359.002	373.49
359.384	386.37
359.766	369.88
360.148	368.97
360.53	381.4
360.912	381.85
361.294	354.74
361.676	367.39
362.057	354.74
362.439	357.45
362.821	371.23
363.203	382.76
363.584	377.56
363.966	364.91
364.348	369.2
364.729	345.92
365.111	359.26
365.493	386.15
365.874	353.83
366.256	341.86
366.637	343.66
367.019	374.4
367.4	367.17
367.781	342.99
368.163	367.62
368.544	374.17
368.925	345.7
369.306	368.07
369.688	351.35
370.069	348.41
370.45	350.67
370.831	347.5
371.212	359.03
371.593	345.7
371.974	368.52
372.355	383.66
372.736	364.68
373.117	368.3
373.498	364.45
373.879	357.22
374.26	357.67
374.641	382.98
375.021	366.04
375.402	379.37
375.783	370.56
376.163	400.16
376.544	399.03
376.925	393.83
377.305	368.3
377.686	396.77
378.066	387.5
378.447	378.24
378.827	408.29
379.208	393.38
379.588	396.09
379.968	393.15
380.349	401.97
380.729	412.36
381.109	422.08
381.489	420.5
381.87	407.39
382.25	430.44
382.63	430.44
383.01	426.6
383.39	409.2
383.77	415.3
384.15	430.44
384.53	408.75
384.91	444.45
385.29	457.11
385.67	451.23
386.049	419.82
386.429	434.28
386.809	434.28
387.189	448.52
387.568	436.54
387.948	426.82
388.328	462.08
388.707	482.19
389.087	483.55
389.466	477.67
389.846	483.55
390.225	507.95
390.605	522.64
390.984	502.53
391.363	536.2
391.743	531
392.122	507.27
392.501	513.6
392.881	557.22
393.26	542.08
393.639	557.67
394.018	567.16
394.397	549.31
394.776	563.77
395.155	575.52
395.534	566.03
395.913	588.85
396.292	597.67
396.671	626.82
397.05	611
397.429	619.81
397.808	630.21
398.186	654.39
398.565	644.45
398.944	654.16
399.323	672.92
399.701	668.63
400.08	680.38
400.458	681.73
400.837	695.97
401.215	728.51
401.594	714.5
401.972	727.38
402.351	752.47
402.729	780.04
403.107	774.39
403.486	801.05
403.864	795.4
404.242	829.07
404.62	817.55
404.999	841.28
405.377	842.41
405.755	860.03
406.133	884.67
406.511	905.68
406.889	920.37
407.267	949.52
407.645	957.66
408.023	952.91
408.401	1001.05
408.779	1025.23
409.156	1033.81
409.534	1046.02
409.912	1087.15
410.29	1099.8
410.667	1144.77
411.045	1160.59
411.422	1186.35
411.8	1178.44
412.178	1221.15
412.555	1257.76
412.933	1274.26
413.31	1276.07
413.687	1297.76
414.065	1327.82
414.442	1356.74
414.819	1376.63
415.197	1379.12
415.574	1414.37
415.951	1430.87
416.328	1439.45
416.705	1443.52
417.082	1478.55
417.46	1514.93
417.837	1526.01
418.214	1544.31
418.591	1562.84
418.967	1571.2
419.344	1611.88
419.721	1634.93
420.098	1633.57
420.475	1648.26
420.852	1669.96
421.228	1683.06
421.605	1706.79
421.982	1748.82
422.358	1761.48
422.735	1796.28
423.111	1793.12
423.488	1837.41
423.864	1849.61
424.241	1876.96
424.617	1902.94
424.994	1904.3
425.37	1925.54
425.746	1947.91
426.123	2005.99
426.499	1982.04
426.875	2026.1
427.251	2075.82
427.627	2101.36
428.003	2119.44
428.379	2170.73
428.756	2187.23
429.132	2203.05
429.507	2248.7
429.883	2298.87
430.259	2322.37
430.635	2305.19
431.011	2360.56
431.387	2397.17
431.763	2429.26
432.138	2434.68
432.514	2492.31
432.89	2520.1
433.265	2564.4
433.641	2598.07
434.016	2609.37
434.392	2638.07
434.767	2752.41
435.143	2750.61
435.518	2772.53
435.894	2815.24
436.269	2859.3
436.644	2850.49
437.02	2912.86
437.395	2923.26
437.77	3009.81
438.145	3014.1
438.52	3019.07
438.895	3080.54
439.271	3064.5
439.646	3166.19
440.021	3164.83
440.395	3172.74
440.77	3194.21
441.145	3245.96
441.52	3265.85
441.895	3244.6
442.27	3315.79
442.645	3294.32
443.019	3370.93
443.394	3381.32
443.769	3385.84
444.143	3378.39
444.518	3459.97
444.892	3503.81
445.267	3473.75
445.641	3517.82
446.016	3563.92
446.39	3529.34
446.764	3617.02
447.139	3611.83
447.513	3635.33
447.887	3682.78
448.262	3728.89
448.636	3704.48
449.01	3767.53
449.384	3793.52
449.758	3845.27
450.132	3896.11
450.506	3897.92
450.88	3928.43
451.254	3957.13
451.628	4036.9
452.002	4060.18
452.376	4088.2
452.75	4141.76
453.123	4132.26
453.497	4202.32
453.871	4299.94
454.244	4355.54
454.618	4389.43
454.992	4443.44
455.365	4464.91
455.739	4593.5
456.112	4587.62
456.486	4633.49
456.859	4703.1
457.232	4786.48
457.606	4806.6
457.979	4827.61
458.352	4968.17
458.725	5063.31
459.099	5086.82
459.472	5151.9
459.845	5209.52
460.218	5224.89
460.591	5292.91
460.964	5338.11
461.337	5498.78
461.71	5518.22
462.083	5596.63
462.456	5697.42
462.829	5624.65
463.201	5813.35
463.574	5770.64
463.947	5908.71
464.32	6032.33
464.692	6101.93
465.065	6024.42
465.438	6180.57
465.81	6303.96
466.183	6343.96
466.555	6519.55
466.928	6530.85
467.3	6498.98
467.672	6677.96
468.045	6824.4
468.417	6837.5
468.789	6913.66
469.161	6978.97
469.534	7157.72
469.906	7166.08
470.278	7317.72
470.65	7378.96
471.022	7533.53
471.394	7665.5
471.766	7722.23
472.138	7889.68
472.51	8030.69
472.882	8163.34
473.253	8220.29
473.625	8312.95
473.997	8498.7
474.369	8532.6
474.74	8714.29
475.112	8830.9
475.484	8984.11
475.855	9123.09
476.227	9192.7
476.598	9534.16
476.97	9524.44
477.341	9736.64
477.713	9901.38
478.084	9978.66
478.455	10271.09
478.827	10334.36
479.198	10608.03
479.569	10642.15
479.94	10966.66
480.311	10993.1
480.682	11397.61
481.053	11652.07
481.424	11644.16
481.795	11853.87
482.166	12014.54
482.537	12210.24
482.908	12454.31
483.279	12629.67
483.65	12798.7
484.021	13018.58
484.391	13277.11
484.762	13322.08
485.133	13487.95
485.503	13671.22
485.874	13943.31
486.244	14105.34
486.615	14404.76
486.985	14562.72
487.356	14737.86
487.726	14871.42
488.097	15207.23
488.467	15238.41
488.837	15569.03
489.207	15699.64
489.578	16036.81
489.948	16080.65
490.318	16425.27
490.688	16439.06
491.058	16699.84
491.428	16868.65
491.798	17005.6
492.168	17480.39
492.538	17447.39
492.908	17604
493.278	17949.53
493.648	17986.82
494.017	18189.97
494.387	18371.89
494.757	18408.95
495.126	18703.41
495.496	18787.92
495.866	18950.18
496.235	19156.5
496.605	19310.4
496.974	19368.25
497.344	19568.47
497.713	19691.4
498.082	19822.7
498.452	19971.17
498.821	20038.29
499.19	20285.06
499.559	20299.97
499.928	20477.82
500.298	20666.07
500.667	20951.93
501.036	20915.1
501.405	21121.2
501.774	21166.62
502.143	21332.49
502.512	21463.56
502.88	21649.54
503.249	21673.05
503.618	21890.22
503.987	21988.29
504.356	22179.93
504.724	22378.56
505.093	22416.53
505.462	22467.83
505.83	22631.21
506.199	22820.81
506.567	23203.4
506.936	23206.79
507.304	23380.57
507.672	23539.89
508.041	23586.44
508.409	23781.47
508.777	24004.96
509.145	24208.8
509.514	24130.38
509.882	24440.88
510.25	24467.32
510.618	24667.54
510.986	24818.95
511.354	25037.25
511.722	25291.03
512.09	25439.5
512.458	25445.38
512.826	25747.29
513.193	25911.8
513.561	25877.68
513.929	26153.38
514.297	26421.62
514.664	26554.05
515.032	26601.05
515.4	26977.54
515.767	26986.13
516.135	27287.81
516.502	27106.12
516.869	27640.35
517.237	27593.79
517.604	27619.56
517.972	28064.97
518.339	28215.7
518.706	28250.73
519.073	28495.24
519.44	28683.03
519.808	29085.96
520.175	28951.05
520.542	29302.68
520.909	29477.81
521.276	29568.43
521.643	29843.45
522.009	30042.77
522.376	30229.66
522.743	30485.7
523.11	30708.51
523.477	31111.44
523.843	31388.04
524.21	31642.28
524.577	31819.9
524.943	31818.54
525.31	32065.99
525.676	32393.22
526.043	32614
526.409	32856.03
526.776	33100.77
527.142	33206.75
527.508	33337.82
527.874	33686.29
528.241	33785.04
528.607	33869.79
528.973	34257.12
529.339	34332.15
529.705	34693.04
530.071	34923.32
530.437	35062.98
530.803	35223.88
531.169	35399.24
531.535	35443.08
531.901	35742.05
532.267	35858.44
532.632	36071.99
532.998	36238.31
533.364	36349.95
533.73	36467.01
534.095	36701.35
534.461	36900.22
534.826	37085.75
535.192	37149.93
535.557	37450.71
535.923	37462.69
536.288	37585.17
536.653	37769.8
537.019	37724.15
537.384	37958.95
537.749	38190.8
538.114	38355.09
538.479	38224.02
538.845	38547.4
539.21	38567.52
539.575	38688.64
539.94	38977.22
540.305	39141.97
540.67	39049.54
541.034	39176.77
541.399	39426.48
541.764	39507.61
542.129	39684.1
542.494	39872.12
542.858	39880.93
543.223	39793.02
543.587	40213.58
543.952	40184.2
544.316	40500.57
544.681	40336.96
545.045	40681.13
545.41	40825.08
545.774	40894.46
546.138	40928.58
546.503	41225.75
546.867	41201.57
547.231	41463.26
547.595	41670.26
547.959	41811.73
548.324	41860.09
548.688	41942.12
549.052	42080.87
549.416	42202.9
549.779	42324.93
550.143	42357.47
550.507	42559.28
550.871	42872.04
551.235	42886.95
551.599	43192.71
551.962	43122.43
552.326	43330.56
552.689	43572.58
553.053	43360.84
553.417	43628.17
553.78	44175.73
554.143	43941.16
554.507	44201.49
554.87	44239.01
555.234	44637.41
555.597	44478.1
555.96	44697.98
556.323	44824.98
556.686	44959.89
557.05	45245.08
557.413	45281.24
557.776	45493.89
558.139	45724.84
558.502	45841.22
558.865	45862.47
559.228	46167.54
559.59	46326.18
559.953	46433.98
560.316	46925.49
560.679	46844.59
561.041	46974.75
561.404	47215.2
561.767	47472.82
562.129	47384.01
562.492	47829.87
562.854	47766.82
563.217	47755.75
563.579	48039.36
563.941	48327.03
564.304	48327.71
564.666	48570.87
565.028	48648.38
565.39	48789.4
565.753	48932.22
566.115	49038.88
566.477	49204.53
566.839	49351.64
567.201	49607.9
567.563	49545.31
567.925	49911.63
568.287	49746.43
568.648	49978.74
569.01	50239.3
569.372	50326.76
569.734	50299.64
570.095	50492.85
570.457	50709.57
570.819	50772.62
571.18	50753.64
571.542	50920.86
571.903	50982.33
572.265	51158.15
572.626	51236.56
572.987	51357.24
573.349	51538.7
573.71	51484.47
574.071	51721.07
574.432	51788.19
574.794	51989.99
575.155	51828.64
575.516	51848.98
575.877	51989.54
576.238	52067.95
576.599	52182.53
576.96	52239.02
577.32	52251.22
577.681	52408.06
578.042	52498.45
578.403	52489.41
578.763	52582.74
579.124	52540.48
579.485	52669.52
579.845	52752
580.206	52626.81
580.566	52707.48
580.927	52723.75
581.287	52852.79
581.648	52782.51
582.008	53002.84
582.368	52855.5
582.728	52963.75
583.089	52869.06
583.449	52939.34
583.809	53086.46
584.169	53121.03
584.529	53015.05
584.889	53227.47
585.249	53001.26
585.609	53017.76
585.969	53226.11
586.329	53129.39
586.688	53135.95
587.048	53150.18
587.408	53109.73
587.768	53099.79
588.127	53105.44
588.487	52984.77
588.846	53295.94
589.206	53036.74
589.565	53026.35
589.925	53239.45
590.284	53144.76
590.643	53137.08
591.003	53324.19
591.362	53287.36
591.721	53193.35
592.08	53312.67
592.44	53410.74
592.799	53395.6
593.158	53323.29
593.517	53242.39
593.876	53352.66
594.235	53239.9
594.593	53289.16
594.952	53361.25
595.311	53266.11
595.67	53312.44
596.029	53485.99
596.387	53453.68
596.746	53434.47
597.104	53309.73
597.463	53320.58
597.822	53471.98
598.18	53220.24
598.538	53361.25
598.897	53507.46
599.255	53278.77
599.613	53677.85
599.972	53593.34
600.33	53700.68
600.688	53548.14
601.046	53698.19
601.404	53630.85
601.762	53611.64
602.12	53727.57
602.478	53749.26
602.836	53732.32
603.194	53617.97
603.552	53687.35
603.91	53598.53
604.268	53709.72
604.625	53646.44
604.983	53769.83
605.341	53554.47
605.698	53818.64
606.056	53790.62
606.413	53809.15
606.771	53790.39
607.128	53994.23
607.485	53774.12
607.843	53836.27
608.2	54062.93
608.557	54183.83
608.914	53983.61
609.272	54174.56
609.629	54126.66
609.986	54215.92
610.343	54028.81
610.7	54271.06
611.057	54210.72
611.414	54260.21
611.771	54247.1
612.127	54426.99
612.484	54397.38
612.841	54328.01
613.198	54314.22
613.554	54270.61
613.911	54456.82
614.267	54446.2
614.624	54353.54
614.98	54469.7
615.337	54586.76
615.693	54485.52
616.05	54503.37
616.406	54694.78
616.762	54591.5
617.118	54535.46
617.475	54590.37
617.831	54589.24
618.187	54648.22
618.543	54697.94
618.899	54857.94
619.255	54718.05
619.611	54689.13
619.967	54669.92
620.323	54835.34
620.678	54718.05
621.034	54720.54
621.39	54629.24
621.746	54600.09
622.101	54926.41
622.457	54578.17
622.812	54706.08
623.168	54777.71
623.523	54745.62
623.879	54799.63
624.234	54642.12
624.589	54714.21
624.945	54702.23
625.3	54784.04
625.655	54732.06
626.01	54746.75
626.365	54731.61
626.72	54676.7
627.075	54640.99
627.43	54673.53
627.785	54626.3
628.14	54679.86
628.495	54630.82
628.85	54660.2
629.205	54537.27
629.559	54688.68
629.914	54457.04
630.269	54592.86
630.623	54368.46
630.978	54384.05
631.332	54462.92
631.687	54541.79
632.041	54349.7
632.396	54379.3
632.75	54296.14
633.104	54323.94
633.459	54218.86
633.813	54104.96
634.167	54189.71
634.521	54158.75
634.875	54247.56
635.229	54130.72
635.583	53915.14
635.937	53945.64
636.291	53890.73
636.645	53998.07
636.999	53838.3
637.352	53864.74
637.706	53593.79
638.06	53808.7
638.413	53648.48
638.767	53675.14
639.121	53771.86
639.474	53540
639.828	53585.88
640.181	53581.36
640.534	53613.22
640.888	53481.02
641.241	53406
641.594	53476.05
641.947	53415.94
642.301	53341.82
642.654	53284.64
643.007	53390.86
643.36	53288.03
643.713	53293.91
644.066	53426.79
644.419	53117.87
644.771	52866.12
645.124	52526.25
645.477	52486.47
645.83	52327.83
646.182	52201.28
646.535	52124.22
646.888	52254.61
647.24	52048.29
647.593	52312.47
647.945	52194.96
648.298	52024.34
648.65	51919.48
649.002	51889.2
649.355	51919.71
649.707	51904.57
650.059	51944.79
650.411	52500.03
650.763	52489.64
651.115	52662.97
651.467	52579.58
651.819	52555.62
652.171	52409.19
652.523	52474.27
652.875	52443.54
653.227	52311.34
653.578	52516.53
653.93	52371.9
654.282	52264.56
654.633	52253.03
654.985	52351.34
655.337	52236.08
655.688	52201.06
656.039	52363.76
656.391	51993.83
656.742	51988.41
657.094	52079.7
657.445	52103.43
657.796	51966.94
658.147	51885.13
658.498	51866.38
658.849	51934.4
659.2	51950.22
659.551	51715.65
659.902	51881.74
660.253	51779.37
660.604	51850.33
660.955	51705.48
661.306	51820.73
661.656	51690.11
662.007	51706.83
662.358	51692.6
662.708	51682.43
663.059	51628.87
663.409	51433.17
663.76	51706.38
664.11	51531.24
664.461	51624.12
664.811	51676.1
665.161	51620.51
665.511	51462.77
665.862	51426.61
666.212	51479.04
666.562	51532.15
666.912	51480.17
667.262	51363.34
667.612	51328.09
667.962	51358.59
668.312	51307.52
668.662	51425.94
669.011	51311.81
669.361	51206.96
669.711	51163.34
670.06	51115.66
670.41	51067.08
670.76	51113.85
671.109	51253.29
671.459	51151.59
671.808	50994.31
672.157	51027.53
672.507	50878.15
672.856	50858.04
673.205	50941.43
673.554	51024.14
673.904	50841.54
674.253	50909.57
674.602	50894.65
674.951	50320.43
675.3	50195.91
675.649	50753.86
675.998	50708.44
676.346	50608.1
676.695	50726.07
677.044	50576.01
677.393	50552.74
677.741	50664.37
678.09	50483.36
678.438	50496.47
678.787	50410.6
679.135	50447.88
679.484	50171.05
679.832	50345.06
680.181	50099.42
680.529	50265.97
680.877	50201.79
681.225	49999.08
681.573	50216.25
681.922	49879.54
682.27	49797.28
682.618	49899.65
682.966	49713.89
683.314	49744.85
683.661	49707.34
684.009	49509.15
684.357	49395.48
684.705	49284.52
685.053	49442.49
685.4	49246.78
685.748	49092.44
686.095	49199.33
686.443	48947.58
686.79	48908.71
687.138	48967.24
687.485	48926.57
687.832	48799.11
688.18	48849.73
688.527	48573.13
688.874	48581.72
689.221	48436.64
689.568	48263.53
689.915	48198.22
690.262	48091.56
690.609	48086.59
690.956	48020.38
691.303	47973.6
691.65	47684.11
691.997	47710.78
692.344	47408.19
692.69	47451.13
693.037	47373.16
693.383	46960.52
693.73	47102.43
694.077	46958.71
694.423	46809.79
694.769	46694.08
695.116	46558.04
695.462	46653.86
695.808	46537.02
696.155	46660.41
696.501	46244.6
696.847	46198.95
697.193	46038.96
697.539	46106.08
697.885	45835.35
698.231	45693.88
698.577	45540.67
698.923	45585.19
699.269	45447.11
699.614	45233.56
699.96	45164.86
700.306	45047.57
700.651	44914.02
700.997	44711.31
701.342	44667.02
701.688	44640.58
702.033	44436.06
702.379	44447.36
702.724	44150.42
703.069	44347.25
703.415	43834.5
703.76	43996.75
704.105	43878.34
704.45	43756.99
704.795	43549.08
705.14	43374.85
705.485	43453.04
705.83	43236.55
706.175	43182.08
706.52	43092.37
706.865	42971.02
707.209	42945.03
707.554	42821.87
707.899	42947.97
708.243	42679.05
708.588	42550.92
708.932	42241.09
709.277	42279.96
709.621	42407.42
709.966	41882.23
710.31	42007.65
710.654	41795.68
710.998	42006.07
711.342	41886.3
711.687	41632.07
712.031	41553.88
712.375	41356.37
712.719	41469.59
713.063	41416.48
713.407	41521.79
713.75	41247.9
714.094	41178.52
714.438	41039.54
714.782	41156.15
715.125	40824.41
715.469	40979.2
715.812	40779.66
716.156	40511.65
716.499	40539.44
716.843	40596.84
717.186	40322.27
717.53	40397.53
717.873	40220.13
718.216	40146.46
718.559	39981.27
718.902	39953.92
719.246	39903.53
719.589	39853.58
719.932	39614.95
720.275	39675.51
720.617	39498.11
720.96	39362.07
721.303	39505.57
721.646	39567.94
721.989	39118.91
722.331	39289.31
722.674	39035.08
723.016	39163.43
723.359	39069.65
723.701	39030.78
724.044	38760.96
724.386	38514.41
724.729	38813.39
725.071	38674.63
725.413	38509.44
725.755	38552.15
726.097	38351.48
726.439	38073.97
726.782	38166.4
727.124	38311.93
727.465	38123.69
727.807	38003.24
728.149	37766.41
728.491	37864.48
728.833	37662.23
729.175	37595.11
729.516	37599.86
729.858	37489.35
730.199	37534.32
730.541	37426.98
730.882	37316.02
731.224	37273.77
731.565	37085.75
731.906	37096.6
732.248	37112.19
732.589	36970.72
732.93	36813.44
733.271	36922.36
733.612	36886.66
733.953	36801.46
734.294	36770.73
734.635	36578.19
734.976	36700.45
735.317	36495.71
735.658	36365.99
735.999	36555.14
736.339	36325.99
736.68	36451.87
737.021	36211.19
737.361	35985.66
737.702	36231.08
738.042	36061.14
738.383	36057.98
738.723	36022.27
739.063	35837.65
739.404	35891.66
739.744	35724.43
740.084	35843.75
740.424	35713.13
740.764	35563.3
741.104	35558.33
741.444	35441.05
741.784	35238.11
742.124	35364.21
742.464	35267.49
742.804	35152.69
743.143	35121.05
743.483	35129.64
743.823	34905.92
744.162	34965.35
744.502	34970.78
744.841	34672.03
745.181	34923.55
745.52	34714.51
745.86	34773.72
746.199	34559.49
746.538	34566.94
746.877	34601.07
747.216	34557.68
747.556	34563.33
747.895	34440.17
748.234	34303
748.573	34135.32
748.911	34263
749.25	34152.49
749.589	34054.87
749.928	34075.88
750.267	34035.21
750.605	33990.46
750.944	33861.2
751.283	33702.11
751.621	33778.72
751.96	33481.78
752.298	33571.26
752.636	33451.49
752.975	33358.16
753.313	33241.56
753.651	33309.58
753.989	33191.61
754.327	33058.51
754.666	32878.18
755.004	32955.91
755.342	32856.48
755.679	32906.87
756.017	32634.57
756.355	32588.47
756.693	32406.78
757.031	32527.45
757.368	32406.32
757.706	32295.37
758.044	32224.86
758.381	32162.71
758.719	31941.25
759.056	32030.97
759.394	31896.28
759.731	31592.56
760.068	31588.72
760.405	31423.52
760.743	31442.51
761.08	31459
761.417	31242.29
761.754	31270.08
762.091	31099.46
762.428	30937.21
762.765	30807.27
763.102	30903.31
763.438	30816.76
763.775	30673.04
764.112	30551.23
764.449	30704.67
764.785	30328.64
765.122	30251.13
765.458	30231.69
765.795	30072.37
766.131	30089.77
766.467	29892.94
766.804	29979.95
767.14	29765.71
767.476	29612.95
767.812	29399.4
768.148	29466.29
768.485	29239.85
768.821	29106.52
769.157	29041.21
769.492	29052.51
769.828	28876.47
770.164	28579.08
770.5	28550.15
770.836	28614.56
771.171	28411.4
771.507	28290.27
771.842	28113.55
772.178	28120.33
772.513	28051.64
772.849	27877.85
773.184	27737.52
773.519	27840.57
773.855	27635.15
774.19	27421.82
774.525	27436.06
774.86	27346.34
775.195	27253.69
775.53	27084.2
775.865	27050.31
776.2	26788.84
776.535	26666.59
776.87	26709.52
777.205	26496.87
777.539	26485.8
777.874	26558.12
778.209	26284.22
778.543	26203.55
778.878	26038.13
779.212	26051.46
779.547	25865.48
779.881	25967.17
780.215	25783.45
780.55	25737.57
780.884	25567.63
781.218	25397.24
781.552	25371.25
781.886	25255.78
782.22	25037.48
782.554	25109.34
782.888	24888.55
783.222	24842.68
783.556	24711.84
783.889	24637.49
784.223	24414.67
784.557	24475.23
784.89	24554.78
785.224	24228.46
785.557	24052.87
785.891	24139.2
786.224	24001.35
786.558	24049.93
786.891	23686.1
787.224	23668.02
787.557	23605.2
787.891	23438.42
788.224	23434.81
788.557	23491.53
788.89	23317.97
789.223	23164.53
789.556	23117.98
789.888	23069.85
790.221	23010.19
790.554	22764.54
790.887	22811.77
791.219	22755.73
791.552	22624.89
791.884	22541.95
792.217	22472.12
792.549	22284.1
792.882	22207.5
793.214	22123.43
793.546	22149.19
793.879	22092.7
794.211	21800.27
794.543	21987.84
794.875	21797.34
795.207	21914.4
795.539	21610.22
795.871	21696.32
796.203	21539.04
796.535	21380.62
796.867	21411.13
797.198	21384.69
797.53	21240.74
797.862	21125.26
798.193	21201.65
798.525	21027.64
798.856	21156
799.188	20816.57
799.519	20851.6
799.85	20667.42
800.182	20657.48
800.513	20701.55
800.844	20486.86
801.175	20608.22
801.506	20482.57
801.837	20409.35
802.168	20347.66
802.499	20222.46
802.83	20127.1
803.161	20091.84
803.491	20116.7
803.822	20099.75
804.153	19858.4
804.483	19794
804.814	19758.29
805.145	19749.71
805.475	19676.26
805.805	19594.23
806.136	19553.78
806.466	19622.93
806.796	19472.65
807.126	19289.83
807.457	19341.81
807.787	19385.2
808.117	19243.96
808.447	19158.76
808.777	19183.39
809.107	19154.92
809.436	18973.23
809.766	19014.81
810.096	18935.26
810.426	18873.12
810.755	18987.47
811.085	18834.93
811.414	18822.27
811.744	18611.43
812.073	18584.09
812.403	18552.9
812.732	18526.24
813.061	18491.21
813.39	18306.13
813.719	18346.58
814.049	18464.54
814.378	18265.68
814.707	18217.32
815.036	18215.28
815.365	18087.38
815.693	18059.58
816.022	18036.31
816.351	17951.11
816.68	17836.08
817.008	17899.13
817.337	17788.85
817.665	17765.58
817.994	17743.43
818.322	17713.38
818.651	17665.69
818.979	17515.42
819.307	17711.57
819.636	17541.63
819.964	17440.61
820.292	17493.49
820.62	17507.28
820.948	17346.61
821.276	17536.66
821.604	17303.67
821.932	17360.84
822.259	17387.73
822.587	17320.39
822.915	17319.26
823.243	17350.9
823.57	17269.32
823.898	17279.26
824.225	17374.18
824.553	17306.16
824.88	17208.08
825.207	17313.61
825.535	17257.79
825.862	17248.3
826.189	17110.23
826.516	17196.78
826.843	17258.47
827.17	17165.82
827.497	17271.13
827.824	17202.66
828.151	17263.67
828.478	17276.1
828.805	17338.02
829.131	17115.65
829.458	17100.74
829.785	17117.23
830.111	17133.5
830.438	17251.24
830.764	17174.18
831.09	17103
831.417	17118.36
831.743	17144.58
832.069	17130.11
832.395	17015.99
832.722	17028.65
833.048	16970.34
833.374	16980.74
833.7	16880.86
834.026	16910.91
834.351	17025.48
834.677	16966.5
835.003	16862.1
835.329	16803.8
835.654	16783.23
835.98	16732.38
836.306	16691.71
836.631	16665.27
836.956	16797.47
837.282	16767.64
837.607	16655.78
837.932	16633.63
838.258	16545.27
838.583	16580.75
838.908	16520.41
839.233	16496.23
839.558	16442.68
839.883	16443.13
840.208	16405.16
840.533	16393.64
840.858	16324.49
841.182	16325.16
841.507	16309.57
841.832	16203.13
842.156	16203.81
842.481	16151.16
842.805	16106.41
843.13	16018.51
843.454	16120.2
843.778	16013.53
844.103	15989.58
844.427	15986.42
844.751	15923.14
845.075	15847.89
845.399	15742.81
845.723	15680.89
846.047	15697.84
846.371	15626.43
846.695	15519.31
847.019	15483.83
847.343	15422.14
847.666	15274.8
847.99	15255.81
848.313	15200.45
848.637	15082.48
848.96	15137.85
849.284	15117.96
849.607	14923.62
849.931	14851.53
850.254	14749.84
850.577	14721.14
850.9	14675.94
851.223	14574.02
851.546	14583.51
851.869	14487.25
852.192	14567.92
852.515	14451.99
852.838	14313.24
853.161	14355.72
853.483	14270.08
853.806	14300.36
854.129	14168.84
854.451	14094.94
854.774	14071.89
855.096	13922.97
855.419	13946.47
855.741	13908.5
856.063	13829.64
856.385	13806.36
856.708	13804.1
857.03	13730.88
857.352	13705.12
857.674	13685.46
857.996	13660.83
858.318	13586.93
858.64	13483.2
858.961	13541.96
859.283	13441.17
859.605	13367.28
859.926	13372.7
860.248	13339.03
860.57	13239.6
860.891	13322.31
861.212	13239.14
861.534	13260.39
861.855	13202.53
862.176	13120.5
862.498	13236.43
862.819	13147.39
863.14	13063.33
863.461	13038.24
863.782	12976.33
864.103	13037.11
864.424	12930.22
864.745	12939.04
865.065	12861.53
865.386	12875.76
865.707	12861.75
866.027	12922.99
866.348	12786.27
866.668	12777.69
866.989	12731.59
867.309	12657.24
867.63	12770
867.95	12699.5
868.27	12582.66
868.59	12519.39
868.91	12673.51
869.23	12628.09
869.55	12570.91
869.87	12552.38
870.19	12525.49
870.51	12487.52
870.83	12486.62
871.15	12476.9
871.469	12466.96
871.789	12475.77
872.109	12478.03
872.428	12344.7
872.748	12346.74
873.067	12276.68
873.386	12337.7
873.706	12275.33
874.025	12304.93
874.344	12235.33
874.663	12306.51
874.982	12223.35
875.301	12183.13
875.62	12192.39
875.939	12149.45
876.258	12177.02
876.577	12091.38
876.896	12063.36
877.214	12032.17
877.533	12062.23
877.852	11975.45
878.17	11973.19
878.489	12038.72
878.807	11992.4
879.125	11920.76
879.444	11976.8
879.762	11951.95
880.08	11918.95
880.398	11866.52
880.716	11854.1
881.034	11789.24
881.352	11779.29
881.67	11714.89
881.988	11707.43
882.306	11702.01
882.624	11752.63
882.941	11592.18
883.259	11560.09
883.577	11547.89
883.894	11534.78
884.212	11490.49
884.529	11515.8
884.846	11436.7
885.164	11454.78
885.481	11380.89
885.798	11389.7
886.115	11350.61
886.432	11346.09
886.75	11230.16
887.067	11284.62
887.383	11322.13
887.7	11253.66
888.017	11148.12
888.334	11169.82
888.651	11081.69
888.967	11074.45
889.284	11022.03
889.6	11091.86
889.917	10952.42
890.233	10922.14
890.55	10918.53
890.866	10970.5
891.182	10877.85
891.498	10769.38
891.815	10801.47
892.131	10751.3
892.447	10802.6
892.763	10713.79
893.079	10651.19
893.395	10586.33
893.71	10592.66
894.026	10517.63
894.342	10508.59
894.657	10434.02
894.973	10415.49
895.289	10455.71
895.604	10384.53
895.92	10293.91
896.235	10264.53
896.55	10250.3
896.865	10189.05
897.181	10147.47
897.496	10192.9
897.811	10098.21
898.126	10022.73
898.441	10043.52
898.756	9976.18
899.071	9916.97
899.386	9940.25
899.7	9930.53
900.015	9858.44
900.33	9730.54
900.644	9732.57
900.959	9740.03
901.273	9738.44
901.588	9657.99
901.902	9606.02
902.216	9541.39
902.531	9556.98
902.845	9583.87
903.159	9436.53
903.473	9413.93
903.787	9307.27
904.101	9384.1
904.415	9350.21
904.729	9232.24
905.042	9260.26
905.356	9204.9
905.67	9203.32
905.984	9207.84
906.297	9118.12
906.611	9012.59
906.924	9094.17
907.237	9003.55
907.551	8992.25
907.864	8925.81
908.177	8889.88
908.491	8890.56
908.804	8832.48
909.117	8716.55
909.43	8745.25
909.743	8738.7
910.056	8616.21
910.368	8596.55
910.681	8561.53
910.994	8590.45
911.307	8530.79
911.619	8459.83
911.932	8455.77
912.244	8420.74
912.557	8364.47
912.869	8274.98
913.181	8324.24
913.494	8257.35
913.806	8180.75
914.118	8220.97
914.43	8142.55
914.742	8202.44
915.054	8081.76
915.366	8079.73
915.678	8046.96
915.99	7952.5
916.302	7926.29
916.613	7961.09
916.925	7892.62
917.236	7934.2
917.548	7789.57
917.859	7821.21
918.171	7706.63
918.482	7689.23
918.794	7714.99
919.105	7743.69
919.416	7624.6
919.727	7628.22
920.038	7616.69
920.349	7509.8
920.66	7501.44
920.971	7449.92
921.282	7483.59
921.593	7418.51
921.903	7331.28
922.214	7349.81
922.525	7299.19
922.835	7301.9
923.146	7214.9
923.456	7225.52
923.767	7179.64
924.077	7114.11
924.387	7080.66
924.697	7117.95
925.008	7072.98
925.318	7042.92
925.628	7082.7
925.938	7000.89
926.248	6920.89
926.558	6905.52
926.867	6832.76
927.177	6858.97
927.487	6820.33
927.796	6762.25
928.106	6696.72
928.416	6713.67
928.725	6711.41
929.034	6607.68
929.344	6703.5
929.653	6681.35
929.962	6598.87
930.271	6538.08
930.581	6562.26
930.89	6451.3
931.199	6466.89
931.508	6442.03
931.817	6408.81
932.125	6359.78
932.434	6426.89
932.743	6324.52
933.051	6284.52
933.36	6320.23
933.669	6206.33
933.977	6174.7
934.286	6182.61
934.594	6172.89
934.902	6137.18
935.21	6138.99
935.519	6080.91
935.827	6086.11
936.135	5994.14
936.443	5975.15
936.751	5947.13
937.059	5922.5
937.367	5887.47
937.674	5911.43
937.982	5841.82
938.29	5824.42
938.597	5834.37
938.905	5774.71
939.213	5735.61
939.52	5714.82
939.827	5740.13
940.135	5661.72
940.442	5677.31
940.749	5591.21
941.056	5641.6
941.363	5590.76
941.67	5550.53
941.977	5492.91
942.284	5461.72
942.591	5431.67
942.898	5364.1
943.205	5415.85
943.511	5426.47
943.818	5349.63
944.125	5330.42
944.431	5348.5
944.738	5267.38
945.044	5214.5
945.35	5260.14
945.657	5203.2
945.963	5198.22
946.269	5169.3
946.575	5143.99
946.881	5097.89
947.187	5076.42
947.493	5020.15
947.799	5040.49
948.105	5024.22
948.41	4997.33
948.716	5010.89
949.022	4999.81
949.327	4991
949.633	4944.45
949.938	4930.21
950.244	4901.28
950.549	4868.52
950.854	4837.78
951.16	4774.28
951.465	4838.69
951.77	4795.98
952.075	4763.89
952.38	4699.93
952.685	4719.82
952.99	4713.94
953.294	4675.07
953.599	4643.89
953.904	4625.13
954.209	4610.44
954.513	4586.94
954.818	4596.21
955.122	4525.25
955.426	4511.69
955.731	4539.49
956.035	4543.55
956.339	4519.15
956.643	4458.13
956.948	4424.46
957.252	4407.51
957.556	4414.52
957.86	4377.68
958.163	4382.2
958.467	4319.6
958.771	4303.56
959.075	4327.97
959.378	4276.67
959.682	4276.67
959.985	4200.06
960.289	4203.67
960.592	4175.88
960.896	4181.08
961.199	4153.96
961.502	4155.77
961.805	4145.15
962.108	4099.04
962.411	4065.6
962.714	4074.64
963.017	4039.39
963.32	3999.84
963.623	3983.34
963.926	4003
964.228	3970.23
964.531	3939.95
964.833	3907.64
965.136	3923.46
965.438	3922.55
965.741	3861.99
966.043	3864.7
966.345	3857.24
966.648	3825.38
966.95	3806.17
967.252	3808.66
967.554	3752.16
967.856	3721.88
968.158	3765.49
968.46	3730.69
968.761	3718.04
969.063	3678.26
969.365	3686.63
969.666	3650.02
969.968	3611.37
970.269	3638.27
970.571	3605.95
970.872	3572.96
971.174	3559.62
971.475	3564.14
971.776	3538.61
972.077	3535.44
972.378	3507.2
972.679	3497.25
972.98	3501.55
973.281	3473.3
973.582	3451.83
973.883	3447.31
974.183	3411.83
974.484	3381.78
974.785	3345.62
975.085	3370.93
975.386	3384.49
975.686	3342.23
975.986	3356.01
976.287	3353.75
976.587	3291.61
976.887	3287.54
977.187	3286.86
977.487	3265.85
977.787	3266.75
978.087	3241.67
978.387	3224.27
978.687	3214.1
978.987	3209.35
979.286	3144.04
979.586	3162.8
979.885	3130.26
980.185	3128.67
980.484	3109.47
980.784	3110.37
981.083	3104.49
981.382	3056.13
981.682	3053.65
981.981	3065.63
982.28	3034.67
982.579	3014.55
982.878	3004.61
983.177	2975.68
983.475	3020.2
983.774	2957.15
984.073	2974.78
984.372	2917.38
984.67	2944.5
984.969	2959.41
985.267	2895.01
985.566	2875.57
985.864	2882.35
986.162	2854.33
986.461	2822.92
986.759	2869.47
987.057	2820.66
987.355	2778.18
987.653	2800.1
987.951	2798.97
988.249	2725.07
988.547	2728.46
988.844	2741.79
989.142	2776.59
989.44	2689.14
989.737	2717.84
990.035	2695.24
990.332	2664.28
990.63	2643.49
990.927	2610.27
991.224	2628.57
991.521	2610.5
991.819	2597.62
992.116	2597.16
992.413	2591.29
992.71	2560.78
993.006	2590.38
993.303	2529.37
993.6	2548.35
993.897	2553.55
994.193	2500.44
994.49	2505.19
994.787	2484.62
995.083	2490.5
995.379	2443.5
995.676	2459.09
995.972	2403.5
996.268	2405.76
996.565	2396.72
996.861	2392.2
997.157	2345.87
997.453	2320.79
997.749	2345.64
998.044	2309.49
998.34	2341.12
998.636	2336.38
998.932	2260.45
999.227	2285.76
999.523	2289.6
999.818	2276.95
1000.114	2254.12
1000.409	2252.77
1000.704	2215.93
1001	2181.36
1001.295	2186.33
1001.59	2183.84
1001.885	2196.27
1002.18	2166.44
1002.475	2169.15
1002.77	2142.03
1003.065	2118.31
1003.359	2104.29
1003.654	2131.64
1003.949	2106.1
1004.243	2090.74
1004.538	2048.03
1004.832	2051.87
1005.127	2061.58
1005.421	2037.18
1005.715	2040.79
1006.009	2015.48
1006.304	2001.92
1006.598	1984.07
1006.892	1993.34
1007.186	1971.87
1007.48	1953.79
1007.773	1979.1
1008.067	1946.11
1008.361	1916.73
1008.655	1884.64
1008.948	1911.53
1009.242	1880.57
1009.535	1859.56
1009.829	1840.57
1010.122	1874.24
1010.415	1804.64
1010.708	1854.36
1011.001	1815.94
1011.295	1786.56
1011.588	1798.99
1011.881	1829.05
1012.173	1777.3
1012.466	1754.47
1012.759	1735.04
1013.052	1783.17
1013.344	1744.98
1013.637	1733.46
1013.93	1706.11
1014.222	1696.4
1014.514	1701.59
1014.807	1684.87
1015.099	1674.02
1015.391	1670.63
1015.683	1660.01
1015.976	1643.52
1016.268	1616.17
1016.56	1640.13
1016.851	1615.49
1017.143	1586.12
1017.435	1616.62
1017.727	1589.96
1018.018	1593.8
1018.31	1557.42
1018.602	1569.39
1018.893	1546.34
1019.185	1540.24
1019.476	1521.26
1019.767	1504.54
1020.058	1501.6
1020.35	1497.98
1020.641	1496.18
1020.932	1499.34
1021.223	1431.32
1021.514	1455.5
1021.804	1448.72
1022.095	1442.17
1022.386	1406.23
1022.677	1415.73
1022.967	1383.41
1023.258	1378.44
1023.548	1371.43
1023.839	1357.2
1024.129	1360.59
1024.419	1370.75
1024.709	1340.93
1025	1332.56
1025.29	1307.03
1025.58	1302.51
1025.87	1314.94
1026.16	1318.55
1026.449	1278.33
1026.739	1281.04
1027.029	1284.66
1027.319	1275.84
1027.608	1266.12
1027.898	1269.51
1028.187	1238.78
1028.477	1251.89
1028.766	1241.49
1029.055	1211.66
1029.344	1210.31
1029.634	1193.81
1029.923	1199.46
1030.212	1166.01
1030.501	1179.8
1030.79	1152.23
1031.078	1145.22
1031.367	1139.35
1031.656	1161.95
1031.945	1124.43
1032.233	1133.92
1032.522	1143.64
1032.81	1130.08
1033.099	1121.72
1033.387	1116.3
1033.675	1107.03
1033.963	1086.92
1034.251	1063.19
1034.54	1053.02
1034.828	1062.74
1035.116	1059.35
1035.403	1055.73
1035.691	1040.37
1035.979	1044.21
1036.267	1039.46
1036.554	1039.46
1036.842	1041.27
1037.129	1012.12
1037.417	980.71
1037.704	989.07
1037.992	1003.08
1038.279	987.04
1038.566	989.75
1038.853	989.75
1039.14	989.75
